0.008763373481513119	0.0	0.0
0.026290120649546365	0.0	0.0
0.043816868432600686	0.0	0.0
0.06134361724069026	0.0	0.0
0.07887036748382949	0.0	0.0
0.0963971195720331	0.0808056	0.28426325
0.11392387391531617	0.20320104	0.45077828
0.1314506309236943	0.21642222	0.46521202
0.1489773910071836	0.19481537	0.44137895
0.16650415457580078	0.1567551	0.3959231
0.18403092203956356	0.20697016	0.45493972
0.20155769380849	0.21362527	0.46219614
0.2190844702925996	0.17331141	0.41630688
0.2366112519019124	0.1976179	0.44454235
0.2541380390464497	0.1900173	0.43590975
0.27166483213623416	0.19329156	0.43964937
0.28919163158128947	0.12365442	0.3516453
0.3067184377916406	0.11055461	0.33249754
0.324245251177314	0.13883315	0.3726032
0.34177207214833777	0.16677782	0.4083844
0.3592989011147415	0.16835503	0.4103109
0.37682573848655654	0.1277762	0.35745797
0.39435258467381573	0.10608519	0.32570723
0.41187944008655414	0.10416128	0.32274026
0.42940630513480854	0.10712527	0.32729995
0.446933180228618	0.11083424	0.33291778
0.4644600657780234	0.14076523	0.37518692
0.48198696219306775	0.16919182	0.41132933
0.49951386988379676	0.1845229	0.4295613
0.5170407892602581	0.18316774	0.42798102
0.5345677207325025	0.21740612	0.4662683
0.5520946647105822	0.21075514	0.45908076
0.5696216216045534	0.22564167	0.47501755
0.5871485918244737	0.2140046	0.4626063
0.6046755757804043	0.21030393	0.45858908
0.6222025738824094	0.17565225	0.41910887
0.6397295865405557	0.17067856	0.4131326
0.6572566141649129	0.15841712	0.39801648
0.6747836571655547	0.16116464	0.40145317
0.6923107159525568	0.16569923	0.4070617
0.7098377909359992	0.17359965	0.41665292
0.7273648825259653	0.1687441	0.41078475
0.7448919911325411	0.18298247	0.4277645
0.762419117165817	0.15412764	0.39259094
0.7799462610358868	0.19619705	0.44294137
0.7974734231528482	0.21035147	0.4586409
0.8150006039268024	0.21530265	0.46400717
0.8325278037678551	0.18827426	0.4339058
0.8500550230861152	0.1681111	0.41001353
0.8675822622916969	0.20306562	0.450628
0.8851095217947171	0.24499896	0.4949737
0.9026368020052984	0.2706336	0.5202246
0.9201641033335665	0.22505188	0.47439632
0.9376914261896523	0.22509429	0.47444102
0.9552187709836915	0.20454378	0.45226517
0.9727461381258234	0.2301898	0.479781
0.990273528026193	0.23774427	0.48759028
1.0078009410949496	0.26366928	0.5134874
1.0253283777422473	0.28440565	0.53329694
1.0428558383782454	0.29497287	0.54311407
1.0603833234131086	0.2957171	0.54379874
1.0779108332570058	0.30994037	0.5567229
1.0954383683201119	0.33042672	0.57482755
1.112965929012607	0.39109948	0.62537944
1.1304935157446763	0.5344976	0.73109347
1.1480211289265108	0.58294195	0.76350635
1.1655487689683062	1.3091966	1.1442013
1.1830764362802655	1.5397409	1.240863
1.200604131272596	1.9614393	1.4005139
1.2181318543555117	2.3019981	1.5172337
1.235659605939232	2.3522735	1.5337123
1.253187386433982	3.7764878	1.9433187
1.270715196249994	6.075005	2.4647524
1.2882430357975057	11.410043	3.3778756
1.3057709054867608	16.045492	4.0056825
1.3232988057280106	21.90743	4.680537
1.3408267369315112	26.388264	5.136951
1.358354699507526	29.818462	5.4606285
1.3758826938663256	33.73635	5.8083
1.3934107204181858	35.89575	5.991306
1.410938779573391	36.4669	6.038783
1.4284668717422309	37.022736	6.084631
1.4459949973350033	36.837383	6.0693808
1.4635231567620117	36.63383	6.052589
1.4810513504335687	35.97904	5.998253
1.4985795787599925	35.00455	5.9164643
1.5161078421516088	34.645283	5.8860245
1.5336361410187505	33.85971	5.8189096
1.5511644757717598	33.94218	5.8259916
1.5686928468209842	34.34858	5.860766
1.58622125457678	34.52587	5.875872
1.6037496994495108	35.530922	5.960782
1.621278181849548	35.873703	5.989466
1.6388067021872719	37.17443	6.0970836
1.6563352608730693	36.601578	6.049924
1.673863858317336	35.506077	5.958698
1.6913924949304753	34.26273	5.8534374
1.7089211711228998	33.240314	5.7654414
1.7264498873050296	32.414284	5.693354
1.7439786438872935	31.624947	5.623606
1.7615074412801288	30.872261	5.556281
1.779036279893981	30.373613	5.511226
1.796565160139305	29.741549	5.4535813
1.814094082426564	29.070288	5.391687
1.8316230471662298	28.14056	5.3047676
1.849152054768784	27.349726	5.2296968
1.8666811056447168	26.708193	5.167997
1.8842102002045273	26.048841	5.1038065
1.901739338858724	25.548685	5.0545707
1.9192685220178245	25.26322	5.026253
1.9367977500923557	24.608444	4.96069
1.9543270234928547	23.87831	4.8865438
1.971856342629867	22.849081	4.7800713
1.9893857079139496	21.94425	4.684469
2.006915119755667	21.623804	4.6501403
2.0244445785655945	21.263105	4.6111937
2.0419740847543175	20.982271	4.580641
2.0595036387324317	20.566751	4.535058
2.0770332409105414	20.131136	4.4867735
2.094562891699263	19.987263	4.4707117
2.1120925915092217	19.506496	4.416616
2.129622340751053	19.002216	4.3591533
2.1471521398354043	187.10892	13.678776
2.1646819891729323	443.61844	21.062252
2.182211889174303	439.92963	20.974499
2.1997418402501974	452.44666	21.270794
2.2172718428113023	432.4466	20.795351
2.234801897268317	320.4874	17.902163
2.2523320040319548	16.962305	4.1185317
2.269862163512935	16.768692	4.0949593
2.287392376121992	16.402685	4.050023
2.304922642269869	16.029245	4.003654
2.322452962367322	15.608449	3.950753
2.3399833368251164	15.321897	3.9143195
2.357513766054032	14.970813	3.8692133
2.3750442504648586	14.722435	3.8369825
2.3925747904683963	14.471881	3.8041925
2.410105386475459	14.306586	3.782405
2.4276360388968707	13.777486	3.7118037
2.445166748143469	13.6838665	3.699171
2.4626975146261025	13.2443905	3.6392844
2.4802283387556323	13.009964	3.6069329
2.4977592209429305	12.975174	3.6021068
2.5152901615988825	12.718771	3.5663385
2.5328211611343865	12.412243	3.5231013
2.5503522199603523	12.164239	3.487727
2.5678833384877024	11.995707	3.463482
2.5854145171273712	11.929687	3.4539378
2.6029457562903064	11.694024	3.4196527
2.620477056387469	11.561581	3.4002326
2.6380084178298326	11.511207	3.392817
2.655539841028383	11.307877	3.3627186
2.673071326394119	11.200535	3.34672
2.6906028743380523	10.958875	3.310419
2.708134485271211	10.863115	3.295924
2.7256661596046325	10.8147	3.2885711
2.743197897749369	10.537064	3.2460845
2.760729700116486	10.417429	3.2276042
2.778261567117063	10.01879	3.1652472
2.795793499162193	9.847743	3.1381114
2.8133254966629817	9.718234	3.1174083
2.830857560030551	9.579162	3.095022
2.8483896896760337	9.4447975	3.0732388
2.865921886010578	9.203032	3.03365
2.883454149445347	9.022047	3.0036724
2.9009864803915177	8.857603	2.9761724
2.91851887926028	8.751098	2.9582255
2.9360513464628384	8.613657	2.9349031
2.953583882410413	8.582081	2.929519
2.9711164875142373	8.541027	2.9225035
2.9886491621855606	8.503625	2.9160976
3.0061819068356455	8.334672	2.8869832
3.023714721875769	8.402614	2.8987262
3.041247607717225	8.302086	2.881334
3.0587805647713213	8.210432	2.865385
3.0763135934493806	8.038056	2.8351467
3.0938466941627407	7.8558154	2.8028228
3.1113798673227544	7.7613473	2.7859194
3.1289131133407904	7.735164	2.7812164
3.1464464326282315	7.644008	2.76478
3.1639798255964786	7.5703244	2.7514222
3.1815132926569443	7.498492	2.7383375
3.1990468342210603	7.4641232	2.7320547
3.216580450700272	7.3396883	2.7091858
3.2341141425060416	7.2360673	2.6899939
3.251647910049847	7.175349	2.6786842
3.2691817537431813	7.111607	2.6667597
3.286715673997555	7.1004424	2.6646655
3.3042496712244938	6.993587	2.644539
3.32178374583554	6.884567	2.6238458
3.339317898242251	6.79567	2.6068506
3.3568521288562034	6.755783	2.599189
3.3743864380889876	6.7669945	2.6013448
3.3919208263522127	6.7153707	2.5914032
3.4094552940575023	6.6263547	2.5741706
3.4269898416164972	6.516946	2.552831
3.444524469440858	6.372976	2.5244753
3.4620591779422587	6.2177896	2.4935496
3.479593967532391	6.291549	2.508296
3.4971288386229658	6.2728777	2.5045714
3.5146637916257086	6.2784224	2.505678
3.5321988269523628	6.273996	2.5047946
3.5497339450146903	6.155788	2.481086
3.5672691462244708	5.9977994	2.4490404
3.5848044309934988	5.932206	2.435612
3.60233979973359	5.9047923	2.429978
3.619875252856575	5.976742	2.4447377
3.6374107907743034	5.974175	2.4442124
3.6549464138986427	5.951203	2.4395087
3.6724821226414788	5.9714904	2.4436634
3.690017917414714	5.939004	2.4370072
3.7075537986302702	5.927664	2.4346795
3.7250897667000857	5.950048	2.439272
3.7426258220361235	6.1310077	2.476087
3.7601619650503553	6.4979486	2.5491073
3.777698196154779	7.1958985	2.6825173
3.7952345157614067	8.336487	2.8872974
3.8127709242822716	9.099109	3.0164728
3.830307422129425	11.267465	3.3567045
3.847844009714936	12.531074	3.5399256
3.8653806874508954	15.899279	3.98739
3.882917455749409	15.488406	3.9355311
3.900454315022606	15.681961	3.9600456
3.917991265682631	12.683762	3.5614269
3.9355283081416506	10.794552	3.2855062
3.9530654428118495	8.588001	2.930529
3.970602670105433	7.3764734	2.7159665
3.9881399904346244	6.5655885	2.5623405
4.005677404211669	6.43429	2.53659
4.023214911848827	6.3913164	2.5281053
4.0407525137583855	6.387971	2.5274436
4.058290210352644	6.281792	2.5063503
4.075828002043927	6.1570435	2.481339
4.0933658892445814	6.104756	2.4707804
4.110903872366966	6.040353	2.457713
4.128441951823468	6.0381317	2.457261
4.145980128026488	5.93879	2.4369633
4.163518401388452	5.8803535	2.424944
4.181056772321807	5.8153815	2.4115102
4.1985952412390155	5.8856063	2.4260268
4.216133808552567	5.9582024	2.440943
4.233672474674966	5.9753556	2.444454
4.251211240018741	6.118887	2.4736383
4.268750104996445	6.25071	2.500142
4.286289070020643	7.172466	2.678146
4.303828135503928	8.930358	2.9883704
4.3213673018589125	29.301731	5.4131074
4.3389065694982305	90.604515	9.5186405
4.356445938834537	165.85739	12.878563
4.3739854102805085	171.15706	13.082701
4.391524984248844	172.14429	13.120377
4.409064661152262	136.22806	11.671678
4.426604441403504	96.355156	9.816066
4.444144325415337	75.5835	8.693877
4.461684313600543	21.36179	4.6218815
4.47922440637193	21.861414	4.675619
4.496764604142329	20.065397	4.4794416
4.5143049073245916	18.17173	4.262831
4.531845316331589	16.110144	4.0137444
4.5493858315762195	13.234258	3.637892
4.566926453471405	11.0194845	3.319561
4.584467182430081	8.941624	2.9902549
4.602008018865218	7.8708887	2.8055105
4.619548963189798	7.1931257	2.6820004
4.637090015816834	6.697131	2.5878816
4.654631177159353	6.394053	2.5286465
4.672172447630417	6.1226525	2.4743993
4.689713827643102	6.022134	2.4540036
4.7072553176105085	5.854969	2.4197044
4.724796917945764	5.7209587	2.3918526
4.742338629062015	5.623632	2.37142
4.759880451372434	5.6239038	2.3714771
4.777422385290215	5.5852814	2.3633199
4.794964431228581	5.5865216	2.3635824
4.812506589600768	5.5348997	2.3526368
4.830048860820047	5.5289645	2.351375
4.847591245299709	5.476445	2.3401806
4.8651337434530655	5.402423	2.3243113
4.882676355693457	5.41886	2.3278444
4.900219082434242	5.3824544	2.3200116
4.917761924088813	5.3854322	2.3206534
4.935304881070575	5.381364	2.3197768
4.952847953792969	5.4032106	2.3244808
4.970391142669449	5.2763705	2.2970352
4.9879344481135055	5.2408757	2.289296
5.005477870538642	5.210941	2.2827485
5.023021410358394	5.214341	2.2834933
5.040565067986324	5.2109776	2.2827566
5.05810884383601	5.210711	2.2826982
5.075652738321066	5.233278	2.2876358
5.09319675185512	5.224976	2.2858207
5.110740884851836	5.20417	2.281265
5.128285137724894	5.1614056	2.2718728
5.145829510888007	5.1448545	2.268227
5.163374004754908	5.136676	2.2664235
5.1809186197393595	5.1453657	2.2683399
5.198463356255145	5.083864	2.2547426
5.216008214716077	5.0088825	2.2380533
5.233553195535998	4.998336	2.2356958
5.251098299128764	5.0750127	2.2527788
5.268643525908272	5.177857	2.2754905
5.286188876288432	5.2163916	2.2839422
5.3037343506831895	5.192592	2.278726
5.32127994950651	5.1252646	2.2639048
5.3388256731723915	5.090827	2.2562861
5.356371522094851	5.0944557	2.25709
5.373917496687938	5.1383142	2.266785
5.391463597365729	5.157781	2.2710748
5.40900982454232	5.143535	2.2679362
5.426556178631843	5.1508107	2.2695398
5.444102660048449	5.106131	2.259675
5.4616492692063225	5.0654244	2.2506497
5.479196006519669	5.0444403	2.2459831
5.496742872402727	5.0250716	2.2416673
5.514289867269756	5.0161824	2.2396836
5.531836991535049	4.9746895	2.2304013
5.549384245612924	4.9306154	2.2204988
5.566931629917724	4.9174824	2.2175398
5.584479144863822	5.00462	2.2371008
5.6020267908656205	5.117292	2.2621431
5.619574568337545	5.1726065	2.2743366
5.637122477694054	5.081524	2.2542236
5.654670519349629	4.957435	2.2265298
5.672218693718784	4.93011	2.220385
5.689767001216059	5.0331955	2.2434785
5.707315442256021	5.103508	2.2590945
5.724864017253266	5.0975986	2.2577863
5.7424127266224225	5.0206146	2.2406728
5.75996157077814	4.9204173	2.2182014
5.777510550135105	4.8937664	2.2121859
5.795059665108022	4.930651	2.220507
5.812608916111639	4.988955	2.2335968
5.830158303560715	5.1031036	2.259005
5.847707827870055	5.0943274	2.2570617
5.86525748945448	5.173511	2.2745354
5.8828072887288485	5.282492	2.2983673
5.900357226108044	5.384597	2.3204734
5.917907302006979	5.4572067	2.3360665
5.9354575168406	6.1318684	2.476261
5.9530078710238765	6.735563	2.5952964
5.970558364971812	7.2239513	2.687741
5.988108999099438	7.5215383	2.7425423
6.005659773821818	7.88752	2.8084729
6.023210689554039	7.6954618	2.7740695
6.040761746711227	8.062033	2.839372
6.058312945708531	7.478572	2.7346978
6.075864286961132	7.010941	2.647818
6.093415770884244	6.407559	2.5313156
6.1109673978931065	5.947481	2.4387457
6.128519168402993	5.4323354	2.330737
6.146071082829204	5.346887	2.3123336
6.163623141587075	5.1963406	2.2795484
6.181175345091969	5.150583	2.2694895
6.198727693759281	5.1300716	2.2649662
6.216280188004435	5.142071	2.2676134
6.233832828242885	5.0003114	2.2361376
6.251385614890126	5.0229716	2.2411988
6.268938548361669	4.997704	2.2355545
6.286491629073067	4.925113	2.2192595
6.304044857439898	4.899066	2.2133834
6.321598233877777	4.8335457	2.1985326
6.339151758802344	4.871373	2.2071187
6.356705432629277	4.8201876	2.1954925
6.37425925577428	4.8098	2.1931257
6.391813228653095	4.7884636	2.1882558
6.409367351681486	4.830993	2.197952
6.426921625275259	4.83959	2.1999068
6.44447604985025	4.9010453	2.2138305
6.46203062582232	4.8558664	2.203603
6.47958535360737	4.871106	2.2070582
6.497140233621328	4.8496695	2.2021966
6.514695266280161	4.8641257	2.2054763
6.532250451999859	4.9119983	2.2163029
6.549805791196454	4.9025393	2.2141678
6.567361284286002	4.863435	2.2053196
6.584916931684597	4.772039	2.1844997
6.602472733808367	4.8099604	2.1931622
6.6200286910734665	4.7963996	2.1900685
6.637584803896092	4.8550153	2.20341
6.655141072692462	4.9050126	2.2147262
6.672697497878842	4.9141097	2.2167792
6.690254079871514	4.92281	2.2187407
6.707810819086808	4.867979	2.2063496
6.725367715941078	4.841431	2.2003253
6.742924770850719	4.8116956	2.1935577
6.760481984232151	4.736364	2.176319
6.778039356501836	4.724546	2.173602
6.795596888076266	4.811113	2.193425
6.813154579371963	4.906498	2.2150617
6.830712430805492	4.9257207	2.2193964
6.84827044279344	4.922707	2.2187173
6.865828615752445	4.9347577	2.2214315
6.883386950099159	4.963917	2.227985
6.900945446250287	4.9282737	2.2199717
6.918504104622553	4.9214883	2.2184427
6.936062925632727	4.849139	2.2020762
6.953621909697607	4.8869667	2.2106485
6.971181057234028	4.8990755	2.2133856
6.988740368658859	4.941895	2.2230372
7.006299844389007	4.9940057	2.2347271
7.023859484841407	5.0290313	2.2425501
7.041419290433036	5.1296515	2.2648735
7.058979261580902	5.284259	2.2987516
7.0765393987020495	5.590824	2.3644924
7.094099702213559	5.973337	2.4440413
7.111660172532549	6.3317385	2.5162945
7.129220810076164	6.6275954	2.5744116
7.146781615261595	7.1058593	2.6656818
7.16434258850606	7.260252	2.6944854
7.181903730226821	7.7069626	2.7761416
7.1994650408411704	7.9339366	2.8167245
7.217026520766437	8.142287	2.8534694
7.234588170419983	8.289875	2.8792143
7.252149990219215	8.289873	2.879214
7.269711980581568	8.231941	2.8691359
7.2872741419245175	8.05566	2.8382494
7.304836474665574	7.648478	2.7655883
7.322398979222286	7.307048	2.7031553
7.339961656012233	7.094124	2.6634796
7.357524505453039	6.743791	2.5968812
7.375087527962357	6.4429064	2.538288
7.392650723957886	6.0869837	2.4671812
7.410214093857353	5.7503514	2.397989
7.427777638078528	5.5283933	2.3512535
7.445341357039213	5.3523684	2.3135185
7.4629052511572525	5.1657944	2.2728384
7.480469320850524	5.079387	2.2537496
7.498033566536948	5.0284634	2.2424235
7.5155979886344735	5.04562	2.2462459
7.5331625875610975	5.001182	2.2363322
7.550727363734844	5.002077	2.2365324
7.568292317573788	4.975897	2.230672
7.585857449496025	4.9505463	2.2249823
7.603422759919705	4.927239	2.2197385
7.620988249263007	4.916385	2.2172923
7.638553917944147	4.919118	2.2179084
7.656119766381391	4.9271092	2.2197092
7.673685794993023	4.9396367	2.2225294
7.691252004197388	4.975549	2.230594
7.70881839441285	5.065129	2.2505841
7.726384966057826	5.116599	2.26199
7.743951719550762	5.1638403	2.2724085
7.761518655310149	5.1296053	2.2648633
7.779085773754511	5.1000514	2.2583294
7.796653075302419	5.106735	2.2598088
7.814220560372475	5.1171055	2.262102
7.831788229383323	5.1211257	2.2629905
7.8493560827536495	5.1502566	2.2694178
7.866924120902174	5.1669827	2.2731
7.884492344247663	5.1491737	2.269179
7.9020607532089135	5.119793	2.262696
7.919629348204771	5.087483	2.255545
7.937198129654115	5.1394625	2.2670383
7.954767097975865	5.2140937	2.283439
7.972336253588986	5.24665	2.2905567
7.989905596912472	5.2360992	2.2882524
8.007475128365371	5.2383018	2.2887337
8.025044848366756	5.2862134	2.2991767
8.042614757335754	5.4444346	2.3333313
8.060184855691523	5.5273647	2.3510349
8.07775514385327	5.597558	2.365916
8.095325622240228	5.6018066	2.3668137
8.112896291271687	5.6708837	2.3813617
8.130467151366968	5.7791023	2.4039764
8.148038202945436	5.906357	2.4302998
8.165609446426497	5.8980465	2.4285893
8.183180882229594	5.86638	2.4220612
8.200752510774217	5.7562346	2.3992155
8.218324332479893	5.7268043	2.3930743
8.235896347766193	5.7147784	2.3905604
8.253468557052724	5.828557	2.4142404
8.27104096075914	5.861172	2.4209857
8.288613559305137	5.923412	2.433806
8.306186353110448	5.954707	2.4402268
8.32375934259485	5.9834304	2.4461052
8.341332528178162	6.02449	2.4544835
8.358905910280246	6.09027	2.4678473
8.376479489321003	6.164968	2.4829354
8.394053265720377	6.1845264	2.4868708
8.411627239898356	6.1304436	2.4759734
8.42920141227497	6.129751	2.4758334
8.44677578327029	6.1042037	2.4706688
8.464350353304427	6.0947223	2.468749
8.48192512279754	6.087706	2.4673278
8.499500092169827	6.0307693	2.4557624
8.51707526184153	5.986781	2.44679
8.534650632232934	5.97078	2.443518
8.552226203764365	6.0250382	2.4545953
8.569801976856192	6.0551324	2.460718
8.587377951928834	6.076993	2.4651558
8.60495412940274	6.1149783	2.4728482
8.622530509698416	6.1316013	2.476207
8.6401070932364	6.283841	2.5067592
8.657683880437283	6.39362	2.5285609
8.675260871721695	6.5890946	2.5669231
8.692838067510303	6.731492	2.594512
8.710415468223834	6.8751764	2.6220558
8.727993074283043	6.9203773	2.630661
8.745570886108737	6.896489	2.6261168
8.763148904121765	6.932378	2.632941
8.78072712874302	6.9410386	2.6345851
8.798305560393441	7.186227	2.680714
8.815884199494006	7.323037	2.7061112
8.833463046465745	7.4704223	2.7332072
8.851042101729728	7.6276293	2.7618163
8.86862136570707	7.954651	2.820399
8.886200838818924	8.148199	2.854505
8.903780521486505	8.146612	2.854227
8.921360414131055	8.341536	2.8881717
8.938940517173874	8.501598	2.91575
8.956520831036297	8.711884	2.95159
8.97410135613971	8.922038	2.986978
8.99168209290554	9.025825	3.004301
9.009263041755265	9.284234	3.0470042
9.026844203110405	9.549791	3.0902736
9.044425577392525	9.710296	3.1161346
9.062007165023239	9.767949	3.125372
9.079588966424197	10.00214	3.162616
9.097170982017108	10.023104	3.1659286
9.11475321222372	10.902909	3.3019555
9.132335657465825	11.836006	3.4403498
9.149918318165264	11.982294	3.461545
9.167501194743924	12.614713	3.5517197
9.18508428762374	12.32003	3.50999
9.202667597226693	12.331694	3.511651
9.220251123974803	11.994096	3.4632492
9.237834868290143	11.662022	3.4149702
9.255418830594836	11.472815	3.3871543
9.273003011311046	10.972464	3.312471
9.290587410860985	10.802108	3.2866561
9.308172029666911	10.171112	3.189218
9.32575686815113	9.831964	3.1355963
9.343341926735997	8.514003	2.9178765
9.360927205843916	8.277675	2.8770947
9.378512705897327	8.148559	2.854568
9.396098427318728	7.980824	2.8250353
9.413684370530664	7.9408383	2.8179493
9.431270535955722	7.8304358	2.7982917
9.448856924016539	7.745884	2.7831428
9.466443535135806	7.585968	2.7542636
9.484030369736251	7.5526133	2.7482018
9.501617428240658	7.5237794	2.742951
9.519204711071852	7.5766854	2.752578
9.536792218652714	7.6192737	2.7603033
9.55437995140617	7.676034	2.7705657
9.571967909755191	7.6426005	2.7645254
9.589556094122802	7.6210766	2.7606297
9.60714450493207	7.567917	2.7509847
9.624733142606116	7.6525655	2.7663271
9.642322007568108	7.746346	2.7832258
9.659911100241267	7.8402195	2.8000393
9.677500421048851	7.845751	2.8010268
9.695089970414175	7.8286686	2.7979758
9.712679748760609	7.8400207	2.8000038
9.730269756511557	7.912376	2.8128946
9.747859994090492	7.9454684	2.8187706
9.765450461920915	7.90776	2.812074
9.78304116042639	7.887086	2.8083956
9.800632090030527	7.9030766	2.8112411
9.81822325115699	7.995995	2.827719
9.835814644229481	8.0126705	2.830666
9.853406269671762	8.033936	2.8344197
9.870998127907646	8.118716	2.8493361
9.888590219360985	8.155455	2.8557756
9.906182544455698	8.231355	2.8690338
9.923775103615734	8.15611	2.8558903
9.941367897265108	8.042989	2.8360164
9.958960925827878	8.016239	2.8312964
9.97655418972816	8.020016	2.8319633
9.994147689390106	8.099951	2.8460412
10.011741425237934	8.102686	2.8465216
10.029335397695904	8.057623	2.8385952
10.04692960718833	8.012831	2.8306944
10.06452405413958	7.9597735	2.821307
10.082118738974064	7.97022	2.8231578
10.099713662116246	8.014618	2.83101
10.117308823990651	8.038196	2.8351712
10.134904225021844	8.115794	2.8488233
10.152499865634445	8.135354	2.8522542
10.170095746253125	8.141281	2.853293
10.18769186730261	8.099612	2.8459818
10.205288229207675	8.05254	2.8376997
10.222884832393145	8.004358	2.8291974
10.2404816772839	8.015884	2.8312337
10.258078764304868	7.9888277	2.8264515
10.275676093881035	7.9530096	2.8201082
10.293273666437438	7.839176	2.7998528
10.310871482399158	7.8268566	2.797652
10.32846954219134	7.81116	2.7948453
10.346067846239173	7.851803	2.8021069
10.363666394967908	7.8341618	2.7989573
10.38126518880283	7.882133	2.8075137
10.398864228169298	7.9058123	2.8117275
10.416463513492713	7.8826146	2.8075995
10.434063045198531	7.8704896	2.8054392
10.451662823712262	7.840324	2.800058
10.469262849459467	7.911709	2.812776
10.486863122865758	7.88496	2.808017
10.504463644356806	7.9575486	2.8209128
10.522064414358338	7.8363914	2.7993555
10.539665433296118	7.7343554	2.781071
10.557266701595987	7.642695	2.7645423
10.574868219683818	7.597754	2.7564023
10.592469987985552	7.574967	2.7522657
10.610072006927185	7.469234	2.73299
10.627674276934751	7.3670826	2.714237
10.64527679843435	7.2177315	2.6865835
10.662879571852143	7.102801	2.665108
10.680482597614331	7.0232835	2.650148
10.698085876147173	6.923822	2.6313157
10.715689407876988	6.8405976	2.6154537
10.733293193230146	6.693556	2.5871906
10.750897232633072	6.574058	2.5639925
10.76850152651225	6.517823	2.5530028
10.786106075294207	6.432962	2.5363286
10.803710879405534	6.35026	2.519972
10.821315939272877	6.2400255	2.4980042
10.83892125532294	6.179411	2.485842
10.856526827982472	6.1108866	2.4720209
10.874132657678285	6.029768	2.4555585
10.891738744837243	6.0318966	2.455992
10.909345089886271	6.0380416	2.4572427
10.926951693252343	6.0792656	2.4656167
10.944558555362494	5.967093	2.4427633
10.96216567664381	5.8899875	2.4269297
10.979773057523436	5.769846	2.4020503
10.997380698428573	5.720428	2.3917415
11.014988599786477	5.63627	2.374083
11.032596762024461	5.539825	2.3536832
11.050205185569892	5.5023665	2.3457124
11.067813870850198	5.423737	2.3288918
11.085422818292859	5.426747	2.3295379
11.10303202832541	5.3801847	2.3195226
11.120641501375454	5.316362	2.3057237
11.138251237870636	5.2097936	2.2824972
11.155861238238671	5.1234283	2.263499
11.173471502907317	5.0901914	2.2561452
11.191082032304402	5.0228834	2.241179
11.208692826857805	4.9951377	2.2349806
11.226303886995465	4.9421196	2.2230878
11.243915213145371	4.8597493	2.204484
11.261526805735578	4.7695403	2.1839278
11.279138665194196	4.703335	2.1687174
11.296750791949393	4.753205	2.1801846
11.314363186429393	4.770979	2.184257
11.331975849062479	4.7174973	2.1719801
11.34958878027699	4.650559	2.1565154
11.36720198050133	4.5317473	2.1287901
11.384815450163948	4.4926925	2.1195972
11.402429189693366	4.4299536	2.1047454
11.420043199518153	4.436469	2.1062927
11.437657480066942	63.42151	7.9637623
11.455272031768422	85.14632	9.227476
11.472886855051353	107.52162	10.369264
11.490501950344528	99.12066	9.9559355
11.508117318076819	84.49766	9.192261
11.52573295867715	45.892166	6.774376
11.543348872574514	4.138305	2.0342824
11.560965060197946	4.040424	2.0100806
11.57858152197655	3.9641087	1.991007
11.59619825833949	3.9216268	1.9803097
11.613815269715985	3.8943105	1.9734007
11.631432556535323	38.441006	6.200081
11.649050119226837	82.967735	9.108663
11.666667958219929	93.37505	9.663076
11.68428607394406	107.63684	10.374818
11.701904466828756	82.458115	9.080645
11.719523137303586	65.296	8.080594
11.737142085798196	4.546417	2.132233
11.754761312742286	3.680278	1.918405
11.772380818565619	3.650905	1.9107342
11.790000603698015	3.5841765	1.8931922
11.80762066856935	3.5428228	1.8822387
11.825241013609572	3.4960537	1.8697737
11.842861639248683	3.4424603	1.8553869
11.860482545916748	3.4081335	1.8461131
11.878103734043883	3.3776026	1.8378255
11.895725204060282	3.3501267	1.8303351
11.91334695639619	3.314437	1.8205595
11.930968991481919	3.2843256	1.8122709
11.948591309747824	3.2452128	1.8014474
11.966213911624347	3.2670887	1.807509
11.98383679754198	3.2888265	1.8135122
12.001459967931268	3.249118	1.802531
12.019083423222835	3.2362163	1.7989486
12.036707163847352	3.2126253	1.7923797
12.05433119023556	3.1838377	1.7843312
12.071955502818259	3.1365743	1.7710376
12.089580102026313	3.0773306	1.7542322
12.107204988290643	3.0593343	1.7490953
12.12483016204224	3.051662	1.7469007
12.142455623712152	3.0303473	1.7407893
12.16008137373149	3.0339582	1.741826
12.177707412531431	3.0090084	1.7346494
12.19533374054321	3.027188	1.7398816
12.212960358198126	3.0070817	1.7340939
12.230587265927545	3.0078287	1.7343093
12.248214464162889	2.9473403	1.716782
12.265841953335649	2.9204736	1.7089393
12.283469733877375	2.931531	1.7121714
12.301097806219685	2.9298608	1.7116836
12.31872617079425	2.943937	1.7157905
12.336354828032825	2.9299057	1.7116967
12.353983778367205	2.9197714	1.7087339
12.371613022229262	2.8982477	1.702424
12.389242560050928	2.8733268	1.695089
12.406872392264201	2.8593957	1.6909748
12.424502519301143	2.8339882	1.6834453
12.442132941593874	2.8021379	1.6739588
12.459763659574586	2.763734	1.6624482
12.477394673675532	2.7584703	1.6608644
12.49502598432903	2.7649825	1.6628237
12.51265759196746	2.7743187	1.6656287
12.530289497023267	2.7696626	1.6642303
12.547921699928967	2.7395074	1.6551458
12.565554201117134	2.7459037	1.6570768
12.583187001020404	2.7503371	1.658414
12.600820100071486	2.7551591	1.6598672
12.618453498703152	2.754158	1.6595656
12.636087197348235	2.7630563	1.6622443
12.65372119643964	2.7932525	1.6713027
12.671355496410326	2.7876775	1.669634
12.68899009769333	2.7778218	1.6666799
12.706625000721749	2.7893786	1.6701432
12.724260205928752	2.8166168	1.678278
12.741895713747551	2.813151	1.677245
12.759531524611454	2.8677647	1.6934476
12.777167638953818	2.8405702	1.6853992
12.794804057208072	2.8704956	1.6942537
12.812440779807702	2.90529	1.7044911
12.830077807186271	3.068224	1.7516346
12.847715139777405	3.1002617	1.760756
12.865352778014795	3.2870996	1.813036
12.882990722332197	3.441136	1.85503
12.90062897316344	3.5239472	1.877218
12.918267530942412	3.578069	1.8915784
12.935906396103071	3.4324327	1.8526826
12.953545569079449	3.6383755	1.9074526
12.971185050305628	3.4989743	1.8705546
12.988824840215775	3.511186	1.8738159
13.006464939244115	3.5003786	1.8709298
13.024105347824943	3.3731828	1.8366226
13.041746066392617	3.4810975	1.86577
13.05938709538157	3.2842755	1.812257
13.077028435226296	3.3221703	1.8226821
13.094670086361363	3.2169287	1.7935798
13.112312049221401	3.1221879	1.7669713
13.129954324241112	3.045462	1.7451252
13.147596911855258	2.8394985	1.6850811
13.165239812498685	2.817272	1.6784731
13.182883026606293	2.7502143	1.658377
13.200526554613058	2.7059553	1.6449788
13.218170396954017	2.6767182	1.6360679
13.235814554064284	2.6827197	1.637901
13.253459026379034	2.6768024	1.6360936
13.271103814333523	2.6448298	1.6262933
13.288748918363058	2.6013143	1.612859
13.306394338903031	2.5481336	1.5962875
13.32404007638889	2.551058	1.5972033
13.341686131256164	2.5715923	1.6036185
13.359332503940449	2.5518095	1.5974385
13.376979194877402	2.5497465	1.5967926
13.394626204502751	2.5903516	1.6094569
13.412273533252307	2.6009386	1.6127425
13.429921181561937	2.60921	1.615305
13.447569149867581	2.6225479	1.6194283
13.465217438605247	2.6223538	1.6193683
13.482866048211022	2.5936298	1.6104751
13.500514979121052	2.6214976	1.6191039
13.518164231771568	2.6473076	1.6270549
13.535813806598844	2.6629453	1.6318533
13.553463704039254	2.6041996	1.6137533
13.571113924529229	2.58023	1.6063094
13.588764468505275	2.5812645	1.6066314
13.606415336403956	2.6421025	1.6254545
13.624066528661917	2.699202	1.6429249
13.641718045715882	2.7553103	1.6599127
13.659369888002635	2.8585064	1.6907119
13.67702205595903	2.9319162	1.712284
13.694674550021993	2.9775913	1.7255698
13.712327370628532	3.0115197	1.735373
13.729980518215713	3.092193	1.7584633
13.747633993220681	3.1652439	1.7791132
13.765287796080647	3.230434	1.7973408
13.7829419272329	3.2416122	1.8004478
13.800596387114801	3.2480896	1.8022457
13.818251176163775	3.2343147	1.7984201
13.835906294817324	3.27808	1.8105469
13.853561743513023	3.2932167	1.8147222
13.871217522688525	3.342505	1.8282518
13.888873632781538	3.4144282	1.8478172
13.906530074229858	3.4684453	1.8623762
13.92418684747135	3.4906316	1.8683232
13.941843952943948	3.4441502	1.8558422
13.959501391085665	3.3508906	1.8305438
13.977159162334578	3.2251394	1.7958673
13.994817267128846	3.2044215	1.7900898
14.012475705906693	3.1671908	1.7796603
14.030134479106424	3.1468184	1.7739275
14.047793587166414	3.0583925	1.748826
14.065453030525108	2.999417	1.7318826
14.083112809621026	2.8985913	1.702525
14.100772924892766	2.862556	1.691909
14.118433376778997	2.828358	1.6817722
14.136094165718458	2.7654533	1.6629652
14.153755292149969	2.6942575	1.6414194
14.171416756512416	2.6539981	1.6291096
14.189078559244768	2.6112654	1.615941
14.20674070078606	2.5408554	1.5940061
14.224403181575408	2.4960108	1.5798768
14.242066002051999	2.4540834	1.5665514
14.259729162655093	2.471962	1.5722474
14.277392663824022	2.4507177	1.5654768
14.295056505998208	2.3913882	1.5464114
14.312720689617128	2.3635175	1.5373735
14.330385215120348	2.3381593	1.5291041
14.348050082947497	2.3389008	1.5293466
14.3657152935383	2.3234477	1.5242859
14.383380847332528	2.3286963	1.5260066
14.401046744770051	2.3261318	1.5251662
14.418712986290798	2.3085096	1.5193781
14.436379572334793	2.334801	1.5280056
14.454046503342123	2.3297148	1.5263404
14.471713779752946	2.3729022	1.5404227
14.489381402007504	2.4087107	1.5520022
14.507049370546113	2.3824375	1.5435146
14.524717685809168	2.3387508	1.5292975
14.542386348237134	2.266608	1.5055258
14.560055358270553	2.300147	1.5166236
14.577724716350051	2.3573241	1.535358
14.595394422916325	2.4088871	1.552059
14.61306447841015	2.427389	1.558008
14.63073488327237	2.413261	1.5534674
14.648405637943917	2.4135718	1.5535674
14.6660767428658	2.396015	1.5479066
14.683748198479094	2.4303598	1.5589612
14.701420005224954	2.5014396	1.581594
14.719092163544628	2.5995686	1.6123178
14.73676467387942	2.6651711	1.6325352
14.754437536670727	2.6809657	1.6373655
14.772110752360014	2.6480527	1.6272838
14.78978432138882	2.6153395	1.6172011
14.807458244198777	2.6073058	1.6147153
14.82513252123159	2.5556202	1.5986307
14.842807152929028	2.5823145	1.6069582
14.860482139732962	2.6036837	1.6135935
14.87815748208531	2.6475134	1.6271181
14.8958331804281	2.639563	1.6246732
14.91350923520342	2.6242464	1.6199526
14.931185646853438	2.6483037	1.6273609
14.948862415820408	2.6265361	1.6206591
14.966539542546656	2.623174	1.6196215
14.98421702747459	2.6009953	1.6127602
15.001894871046696	2.659276	1.6307287
15.019573073705542	2.6516585	1.6283914
15.037251635893766	2.5935388	1.6104468
15.054930558054092	2.6046202	1.6138836
15.072609840629323	2.6001387	1.6124946
15.090289484062351	2.6617627	1.631491
15.107969488796124	2.790636	1.6705197
15.125649855273691	3.0294514	1.7405319
15.14333058393817	3.4238515	1.8503653
15.161011675232768	4.006956	2.0017383
15.17869312960076	4.586796	2.1416807
15.196374947485506	5.273875	2.2964919
15.214057129330447	6.5604506	2.5613377
15.231739675579114	8.7095995	2.951203
15.249422586675102	13.277324	3.6438062
15.267105863062092	17.83737	4.223431
15.284789505183847	25.048216	5.0048194
15.302473513484218	30.049282	5.4817224
15.320157888407127	34.345413	5.860496
15.337842630396578	33.200626	5.7619987
15.355527739896656	30.392807	5.512967
15.37321321735153	23.651316	4.8632617
15.39089906320545	16.076763	4.009584
15.408585277902748	10.229925	3.1984255
15.42627186188783	6.247924	2.4995847
15.443958815605198	4.5022197	2.1218436
15.461646139499424	3.7251728	1.9300706
15.479333834015168	3.2959704	1.8154808
15.497021899597165	2.9534419	1.7185581
15.514710336690234	2.7489378	1.6579921
15.53239914573928	2.6049786	1.6139946
15.550088327189297	2.529896	1.5905647
15.567777881485336	2.480552	1.5749768
15.58546780907256	2.4773772	1.5739686
15.6031581103962	2.4406693	1.5622642
15.620848785901568	2.4191766	1.5553702
15.638539836034063	2.3996444	1.5490786
15.656231261239173	2.3935359	1.5471057
15.673923061962451	2.4009745	1.5495079
15.691615238649552	2.3924162	1.5467438
15.709307791746202	2.3822148	1.5434425
15.727000721698221	2.3759859	1.5414233
15.744694028951498	2.3506649	1.5331879
15.76238771395202	2.333311	1.5275179
15.780081777145844	2.3696988	1.5393826
15.797776218979125	2.3772583	1.541836
15.815471039898094	2.361485	1.5367124
15.833166240349064	2.3351269	1.5281122
15.850861820778437	2.334989	1.5280671
15.868557781632699	2.3792002	1.5424657
15.886254123358412	2.4394624	1.5618778
15.903950846402232	2.4808533	1.5750725
15.921647951210897	2.5222228	1.5881507
15.939345438231225	2.5596745	1.5998982
15.957043307910133	2.5584228	1.5995071
15.974741560694602	2.534885	1.5921322
15.992440197031714	2.5268016	1.5895916
16.01013921736862	2.5406775	1.5939503
16.02783862215259	2.5398977	1.5937057
16.045538411830933	2.470643	1.5718279
16.06323858685107	2.4211738	1.5560122
16.080939147660512	2.37882	1.5423423
16.09864009470684	2.3677385	1.5387458
16.11634142843774	2.3407605	1.5299544
16.134043149300954	2.347747	1.532236
16.15174525774433	2.3660069	1.538183
16.169447754215817	2.349252	1.532727
16.18715063916342	2.313796	1.5211167
16.204853913035244	2.3154082	1.5216465
16.222557576279478	2.3676882	1.5387294
16.240261629344403	22.389603	4.7317653
16.257966072678386	42.932526	6.552292
16.275670906729868	38.032574	6.1670556
16.293376131947387	2.433241	1.5598849
16.31108174877957	2.4462621	1.564053
16.328787757675133	2.4926584	1.5788155
16.34649415908287	2.5240254	1.5887182
16.364200953451657	2.5573525	1.5991725
16.38190814123048	2.5558674	1.598708
16.39961572286839	2.5823584	1.6069717
16.41732369881455	2.6079378	1.6149111
16.43503206951817	2.5965822	1.6113914
16.45274083542859	2.6373532	1.6239929
16.47044999699522	2.703572	1.6442542
16.488159554667558	2.7626455	1.6621208
16.505869508895184	2.817174	1.6784439
16.523579860127786	2.8727825	1.6949284
16.541290608815117	2.931102	1.7120461
16.559001755407035	3.0582097	1.7487738
16.57671330035348	3.1795583	1.7831316
16.59442524410448	3.284367	1.8122823
16.61213758711015	3.4339972	1.8531047
16.629850329820705	3.492632	1.8688585
16.647563472686436	3.5006678	1.8710072
16.665277016157724	3.3804078	1.8385886
16.682990960685053	3.3902586	1.8412654
16.70070530671898	3.388878	1.8408905
16.718420054710155	3.4383836	1.8542879
16.736135205109335	3.4298859	1.8519951
16.753850758367335	3.4411645	1.8550376
16.771566714935087	3.525498	1.877631
16.789283075263597	3.6363373	1.9069183
16.80699983980398	3.7662983	1.9406953
16.82471700900741	3.814342	1.953034
16.84243458332518	3.8241403	1.9555409
16.860152563208665	3.8516665	1.9625663
16.87787094910932	3.9579256	1.9894536
16.89558974147871	4.0645227	2.016066
16.913308940768466	4.145999	2.0361726
16.931028547430333	4.15801	2.03912
16.94874856191613	4.20074	2.0495706
16.966468984677785	4.2226605	2.0549114
16.98418981616729	4.2654614	2.0652993
17.00191105683676	4.313038	2.0767856
17.019632707138374	4.3915954	2.0956135
17.03735476752442	4.4267178	2.1039767
17.05507723844728	4.448147	2.109063
17.072800120359403	4.4797525	2.1165426
17.090523413713353	4.5136347	2.1245317
17.108247118961785	4.5462985	2.132205
17.125971236557437	4.559347	2.1352627
17.143695766953133	4.5237527	2.1269116
17.161420710601806	4.4910984	2.1192212
17.179146067956477	4.515861	2.1250556
17.19687183947025	4.5388675	2.1304617
17.21459802559634	4.539407	2.1305883
17.232324626788028	4.5335116	2.1292045
17.25005164349871	4.5707617	2.137934
17.267779076181863	4.540295	2.130797
17.285506925291074	4.531906	2.1288273
17.30323519127999	4.5221925	2.1265447
17.320963874602384	4.485533	2.1179078
17.33869297571211	4.494999	2.1201413
17.356422495063114	4.4733324	2.1150253
17.37415243310944	4.456777	2.111108
17.391882790305218	4.475788	2.1156058
17.40961356710468	4.4672365	2.1135838
17.42734476396215	4.5252285	2.1272585
17.445076381332044	4.54846	2.132712
17.462808419668868	4.626953	2.1510353
17.48054087942723	4.707302	2.1696317
17.498273761061835	4.823669	2.1962852
17.51600706502747	5.096722	2.2575922
17.533740791779024	5.624474	2.3715973
17.551474941771485	6.54541	2.5584
17.56920951545993	8.470873	2.9104764
17.586944513299528	9.741561	3.1211474
17.60467993574556	12.514352	3.537563
17.622415783253373	15.149715	3.8922637
17.64015205627843	18.020445	4.2450495
17.657888755276293	20.502987	4.5280223
17.675625880702604	22.077765	4.698698
17.69336343301311	20.593536	4.53801
17.71110141266366	18.451977	4.2955766
17.728839820110178	15.845592	3.980652
17.746578655808705	12.705843	3.5645256
17.764317920215372	10.54046	3.2466073
17.7820576137864	8.783985	2.963779
17.79979773697811	7.4510603	2.7296631
17.81753829024692	6.023575	2.4542973
17.835279274049356	5.1560388	2.2706912
17.85302068884201	4.3834	2.093657
17.870762535081607	4.0126987	2.0031722
17.888504813224934	3.8005238	1.9494932
17.90624752372891	3.6639519	1.9141452
17.923990667050536	3.5458689	1.8830478
17.941734243646895	3.4388895	1.8544244
17.959478253975185	3.3593218	1.8328453
17.9772226984927	3.3428948	1.8283585
17.994967577656833	3.3303566	1.8249265
18.01271289192506	3.275843	1.809929
18.030458641754965	3.2719314	1.8088481
18.04820482760425	3.2518203	1.8032805
18.06595144993067	3.253724	1.8038082
18.083698509192125	3.2337284	1.798257
18.101446005846576	3.2152812	1.7931205
18.119193940352105	3.2357774	1.7988267
18.136942313166887	3.2092538	1.791439
18.1546911247492	3.1408026	1.772231
18.1724403755574	3.0628977	1.7501136
18.19019006604997	3.0321841	1.7413168
18.207940196685467	3.0648632	1.7506751
18.225690767922575	3.081864	1.7555239
18.243441780220046	3.0980146	1.7601178
18.261193234036764	3.080221	1.7550558
18.278945129831676	3.0198455	1.7377703
18.29669746806386	2.9686441	1.7229754
18.314450249192483	2.936995	1.7137663
18.3322034736768	2.969215	1.723141
18.349957141976184	3.0194347	1.7376521
18.3677112545501	3.034745	1.742052
18.385465811858108	3.0428815	1.7443857
18.403220814359884	3.0130937	1.7358265
18.420976262515172	3.0411983	1.7439032
18.43873215678387	3.058261	1.7487884
18.456488497625923	3.073191	1.7530519
18.474245285501407	3.1225939	1.7670863
18.492002520870486	3.1934135	1.7870125
18.50976020419343	3.2698464	1.8082716
18.527518335930615	3.5727465	1.890171
18.545276916542516	4.117736	2.0292206
18.563035946489688	4.2986293	2.0733137
18.580795426232832	4.7150064	2.1714065
18.598555356232698	4.6372786	2.153434
18.616315736950185	4.952594	2.2254424
18.63407656884626	4.6302514	2.1518018
18.65183785238201	4.766348	2.1831968
18.669599588018617	4.537452	2.1301296
18.68736177621737	4.500597	2.1214612
18.705124417439652	4.4799247	2.1165833
18.72288751214696	4.3019247	2.0741081
18.740651060800886	4.4291964	2.1045656
18.758415063863115	4.1907887	2.0471416
18.77617952179546	4.3410554	2.08352
18.793944435059814	4.1038246	2.02579
18.811709804118184	4.109033	2.027075
18.829475629432675	4.094535	2.0234957
18.8472419114655	3.8830976	1.9705577
18.86500865067897	3.9071102	1.9766412
18.88277584753551	3.6139386	1.9010361
18.90054350249763	3.6231084	1.9034464
18.918311616027957	3.3303194	1.8249162
18.936080188589226	3.2086563	1.7912723
18.953849220644265	2.957493	1.7197363
18.971618712656007	2.795218	1.6718905
18.9893886650875	2.749675	1.6582144
19.007159078401887	7.9099145	2.812457
19.024929953062408	32.812428	5.7282133
19.042701289532435	32.760693	5.7236958
19.060473088275405	25.31726	5.031626
19.07824534975489	2.588638	1.6089245
19.096018074434568	2.6023297	1.6131738
19.113791262778197	2.596395	1.6113333
19.13156491524966	2.5761504	1.6050391
19.149339032312945	2.504329	1.5825071
19.167113614432136	2.4693172	1.5714061
19.184888662071433	2.443643	1.5632156
19.202664175695123	2.4445407	1.5635027
19.220440155767623	2.4620252	1.5690842
19.238216602753447	2.4972029	1.5802541
19.2559935171172	2.5078883	1.5836314
19.27377089932361	2.5164168	1.5863218
19.291548749837514	2.5457652	1.5955454
19.309327069123835	2.544035	1.5950031
19.32710585764763	2.5385091	1.59327
19.344885115874032	2.4980488	1.5805217
19.362664844268313	2.462784	1.569326
19.380445043295822	2.455222	1.5669148
19.39822571342203	2.4745483	1.5730697
19.41600685511252	2.5035608	1.5822644
19.43378846883297	2.486488	1.5768602
19.451570555049173	2.46749	1.5708246
19.469353114227037	2.4915097	1.5784516
19.48713614683254	2.4820101	1.5754397
19.50491965333182	2.4827912	1.5756875
19.52270363419109	2.4733574	1.5726912
19.540488089876686	2.5115027	1.5847721
19.55827302085503	2.510164	1.5843498
19.576058427592674	2.4851289	1.5764291
19.593844310556282	2.448634	1.5648111
19.611630670212598	2.4395497	1.5619057
19.629417507028506	2.45971	1.5683463
19.64720482147098	2.487678	1.5772375
19.6649926140071	2.4981856	1.580565
19.682780885104084	2.4626145	1.5692719
19.70056963522921	2.4422257	1.5627621
19.718358864849908	2.464796	1.5699669
19.7361485744337	2.4843478	1.5761814
19.753938764448215	2.5005875	1.5813246
19.771729435361202	2.5064402	1.5831741
19.789520587640506	2.5227666	1.5883219
19.807312221754092	2.4806607	1.5750114
19.825104338170043	2.4592395	1.5681963
19.842896937356517	2.4382193	1.5614798
19.860690019781824	2.4368773	1.56105
19.87848358591436	2.421829	1.5562227
19.896277636222635	2.4533026	1.5663022
19.914072171175278	2.454605	1.566718
19.931867191241015	2.4495935	1.5651177
19.94966269688869	2.4659305	1.5703281
19.967458688587264	2.4522078	1.5659527
19.985255166805807	2.4417834	1.5626206
20.00305213201348	2.4388852	1.5616931
20.020849584679578	2.4252634	1.5573257
20.038647525273507	2.4411898	1.5624307
20.05644595426477	2.4261675	1.557616
20.07424487212299	2.381477	1.5432035
20.092044279317903	2.3412838	1.5301254
20.109844176319353	2.344302	1.5311114
20.127644563597304	2.3744166	1.5409142
20.145445441621817	2.4032614	1.5502456
20.16324681086307	2.40689	1.5514154
20.181048671791373	2.363448	1.5373509
20.198851024877122	2.3372743	1.5288147
20.216653870590836	2.3452811	1.5314311
20.234457209403146	2.344079	1.5310385
20.252261041784802	2.315085	1.5215403
20.270065368206662	2.2526186	1.5008726
20.287870189139685	2.2412314	1.4970742
20.305675505054968	2.2729933	1.507645
20.323481316423702	2.291796	1.5138679
20.341287623717207	2.3211973	1.5235476
20.359094427406884	2.2794406	1.5097816
20.376901727964288	2.2645786	1.5048517
20.39470952586107	2.2912967	1.513703
20.41251782156899	2.2909143	1.5135766
20.430326615559935	2.2870386	1.5122958
20.448135908305886	2.2788143	1.5095742
20.465945700278965	2.275377	1.5084352
20.483755991951384	2.2788436	1.509584
20.50156678379548	2.3317196	1.526997
20.519378076283708	2.3375232	1.5288961
20.537189869888635	2.3288903	1.5260702
20.55500216508294	2.3053591	1.518341
20.572814962339415	2.3069916	1.5188783
20.59062826213098	2.2765007	1.5088077
20.60844206493066	2.2732172	1.5077192
20.626256371211593	2.2954793	1.5150839
20.644071181447032	2.2870345	1.5122944
20.66188649611036	2.2942247	1.5146699
20.67970231567506	2.3003747	1.5166986
20.697518640614742	2.3169723	1.5221604
20.715335471403122	2.32642	1.5252607
20.73315280851404	2.308368	1.5193315
20.750970652421447	2.2671998	1.5057223
20.768789003599412	2.2739642	1.5079669
20.786607862522136	2.2363908	1.4954567
20.8044272296639	2.2307792	1.4935793
20.82224710549913	2.247327	1.4991088
20.84006749050237	2.2576926	1.502562
20.857888385148268	3.7962146	1.9483877
20.8757097899116	45.92377	6.776708
20.893531705267254	64.79334	8.049431
20.911354131690224	83.801575	9.15432
20.92917706965566	69.02722	8.308262
20.94700051963877	50.123116	7.079768
20.96482448211493	29.397373	5.4219346
20.982648957559622	4.121967	2.0302627
21.00047394644843	2.2042644	1.4846765
21.01829944925707	2.1864223	1.4786556
21.036125466461375	2.2197287	1.4898754
21.053951998537297	2.253225	1.5010747
21.071779045960906	2.2476592	1.4992195
21.089606609208378	2.181159	1.4768747
21.10743468875603	2.136514	1.4616818
21.12526328508028	2.0989897	1.448789
21.143092398657675	2.106123	1.4512488
21.16092202996488	2.1059473	1.4511882
21.17875217947867	2.1026804	1.4500623
21.19658284767596	2.0940816	1.4470942
21.21441403503377	2.115357	1.4544266
21.232245742029225	2.1294334	1.4592578
21.2500779691396	2.1577156	1.4689164
21.26791071684227	2.1340923	1.4608533
21.28574398561475	2.1379128	1.4621603
21.30357777593465	2.1314437	1.4599465
21.321412088279704	2.1289353	1.4590871
21.339246923127792	2.1249175	1.4577097
21.357082280956888	2.089923	1.4456565
21.3749181622451	2.0840757	1.4436328
21.392754567470647	2.0677097	1.4379534
21.41059149711187	2.053562	1.4330255
21.42842895164726	2.0341082	1.4262216
21.446266931555378	2.0280573	1.4240987
21.464105437314945	2.0466528	1.4306127
21.481944469404798	2.078772	1.4417948
21.49978402830388	2.1178832	1.4552948
21.51762411449127	2.1198192	1.4559599
21.53546472844617	2.0860336	1.4443108
21.553305870647876	2.0406497	1.428513
21.571147541575865	2.019752	1.4211798
21.58898974170967	2.0305052	1.424958
21.60683247152899	2.0155993	1.419718
21.62467573151363	2.0072117	1.416761
21.642519522143523	1.9930745	1.411763
21.660363843898722	2.0156388	1.419732
21.6782086972594	2.0163612	1.4199864
21.696054082705864	2.01235	1.4185733
21.713900000718535	2.0164948	1.4200333
21.73174645177795	1.9956251	1.412666
21.749593436364794	1.9804146	1.4072721
21.767440954959845	1.964085	1.4014581
21.785289008044032	1.9841436	1.4085963
21.803137596098388	1.972003	1.4042802
21.820986719604086	1.958985	1.3996375
21.838836379042412	1.94737	1.3954821
21.85668657489478	1.9495524	1.3962637
21.87453730764273	1.9842025	1.4086173
21.892388577767914	1.9820914	1.4078677
21.91024038575213	1.9506757	1.3966659
21.928092732077285	1.9432739	1.3940136
21.945945617225426	1.976337	1.4058225
21.963799041678694	2.0113142	1.4182081
21.981653005919398	31.337023	5.597948
21.999507510429943	78.09118	8.836922
22.01736255569286	73.046715	8.546737
22.035218142190818	4.1345615	2.0333622
22.05307427040661	1.9532131	1.397574
22.07093094082315	1.9312394	1.3896904
22.088788153923474	1.9209725	1.3859915
22.106645910190746	1.9404806	1.3930113
22.12450421010827	1.9601022	1.4000365
22.142363054159464	1.9709038	1.4038888
22.16022244282787	1.9560001	1.3985708
22.178082376597164	1.9522841	1.3972416
22.195942855951145	1.9925996	1.4115947
22.213803881373742	2.0267684	1.4236462
22.231665453349002	1.9982705	1.413602
22.24952757236111	1.9740351	1.4050037
22.26739023889438	1.9792833	1.40687
22.28525345343323	1.9465158	1.3951759
22.30311721646225	1.9013535	1.3788958
22.320981528466113	1.9122181	1.3828298
22.33884638992964	1.9740192	1.404998
22.356711801337788	1.9831204	1.408233
22.37457776317561	1.9354305	1.3911976
22.392444275928337	1.8877637	1.3739592
22.410311340081282	1.8713409	1.3679696
22.428178956119904	1.8896729	1.3746537
22.446047124529805	1.8734139	1.3687271
22.46391584579669	1.8901918	1.3748424
22.481785120406414	1.916063	1.3842193
22.49965494884496	1.9487207	1.3959658
22.51752533159841	1.9730045	1.4046367
22.53539626915302	1.98684	1.4095532
22.553267761995137	1.9621667	1.4007736
22.571139810611264	1.9200171	1.3856468
22.589012415488025	1.9071425	1.3809934
22.60688557711216	1.9045142	1.3800414
22.624759295970566	1.9174961	1.3847368
22.642633572550263	1.9359436	1.3913819
22.660508407338362	1.9626027	1.4009292
22.67838380082217	1.9740952	1.405025
22.696259753489077	1.978791	1.406695
22.714136265826614	1.9661217	1.4021846
22.73201333832246	1.9218599	1.3863117
22.74989097146439	1.8927853	1.3757854
22.76776916574035	1.9038603	1.3798045
22.785647921638393	1.9398324	1.3927786
22.803527239646712	1.9217073	1.3862566
22.82140712025363	1.9250205	1.387451
22.839287563947593	1.8979585	1.3776642
22.85716857121719	1.8765028	1.369855
22.875050142551135	1.8326715	1.353762
22.892932278438277	1.8474852	1.3592223
22.910814979367604	1.8891631	1.3744683
22.928698245828222	1.9119599	1.3827363
22.946582078309387	1.9395317	1.3926708
22.96446647730047	1.9244215	1.3872352
22.98235144329098	1.9338257	1.3906206
23.000236976770562	1.9101826	1.3820935
23.018123078229	1.8741856	1.369009
23.03600974815619	1.837759	1.3556397
23.053896987042194	1.8312678	1.3532435
23.071784795377173	1.8834798	1.3723993
23.08967317365145	1.9249775	1.3874356
23.10756212235546	1.8982433	1.3777676
23.125451641979787	1.8851784	1.373018
23.143341733015134	1.8427011	1.3574612
23.161232395952357	1.851886	1.3608402
23.179123631282426	1.8687654	1.3670279
23.197015439496468	1.8910893	1.3751688
23.214907821085717	1.8716381	1.3680782
23.23280077654157	1.8510984	1.3605508
23.250694306355538	1.8597672	1.3637328
23.268588411019277	1.8820385	1.3718741
23.28648309102458	1.9200443	1.3856566
23.304378346863356	1.9419911	1.3935534
23.322274179027676	1.9276372	1.3883938
23.340170588009723	1.9029187	1.3794632
23.358067574301852	1.909343	1.3817898
23.37596513839651	1.9207952	1.3859276
23.39386328078629	1.9352809	1.3911438
23.411762001963947	1.9338071	1.3906139
23.429661302422353	1.9351349	1.3910912
23.4475611826545	1.9529054	1.3974639
23.46546164315356	1.9583306	1.3994037
23.48336268441279	1.9385148	1.3923056
23.501264306925638	1.9203146	1.3857541
23.51916651118564	1.8922728	1.375599
23.537069297686497	1.8930987	1.3758992
23.554972666922037	1.9005073	1.3785889
23.57287661938623	1.8822483	1.3719505
23.59078115557318	1.8366646	1.3552359
23.608686275977128	1.7960684	1.3401748
23.62659198109246	1.8586953	1.3633398
23.6444982714137	1.9143889	1.3836144
23.66240514743549	1.9316425	1.3898355
23.68031260965263	1.9005378	1.3786
23.698220658560068	1.8913885	1.3752776
23.716129294652845	1.8808548	1.3714426
23.7340385184262	1.8776342	1.3702679
23.75194833037546	1.8260852	1.3513272
23.769858730996123	1.8162892	1.3476977
23.78776972078382	1.829155	1.3524625
23.80568130023431	1.8512747	1.3606156
23.823593469843495	1.8402077	1.3565426
23.841506230107424	1.8816832	1.3717446
23.859419581522275	1.9003973	1.378549
23.87733352458438	1.8964177	1.3771049
23.89524805979019	1.8788515	1.370712
23.913163187636318	1.9104766	1.3821999
23.931078908619508	1.9442041	1.3943472
23.948995223236633	1.9498962	1.3963869
23.966912131984735	1.9613438	1.4004798
23.98482963536096	1.9792104	1.4068441
24.002747733862616	1.9647754	1.4017044
24.020666427987155	1.9241234	1.3871278
24.038585718232156	1.9575175	1.399113
24.056505605095353	1.9762753	1.4058006
24.074426089074617	2.033505	1.4260101
24.092347170667946	2.0113757	1.4182298
24.110268850373515	2.0480623	1.4311053
24.128191128689586	2.0690193	1.4384086
24.146114006114626	2.06413	1.4367081
24.164037483147187	2.0663338	1.4374748
24.181961560286005	2.061665	1.4358499
24.199886238029926	2.0552588	1.4336174
24.21781151687797	2.0425348	1.4291728
24.235737397329274	2.0475352	1.4309211
24.253663879883135	2.034295	1.4262872
24.271590965038975	2.0389786	1.4279281
24.289518653296376	2.0359213	1.4268571
24.30744694515505	2.0308723	1.4250867
24.32537584111486	2.0158453	1.4198047
24.34330534167581	1.9991255	1.4139043
24.361235447338046	1.9970834	1.413182
24.379166158601876	1.9859191	1.4092264
24.39709747596772	1.9537234	1.3977566
24.41502939993615	1.9800586	1.4071455
24.432961931007917	1.9949907	1.4124414
24.450895069683856	1.9818468	1.4077808
24.468828816465	1.9382949	1.3922266
24.4867631718525	1.9570578	1.3989488
24.504698136347656	1.9529403	1.3974764
24.52263371045192	1.9398028	1.392768
24.540569894666874	1.8960363	1.3769664
24.558506689494266	1.8988326	1.3779813
24.57644409543597	1.8942931	1.3763332
24.594382112994012	1.884852	1.3728992
24.61232074267057	1.8788087	1.3706964
24.630259984967953	1.9533747	1.3976319
24.64819984038863	1.9718902	1.4042401
24.66614030943522	1.960792	1.4002829
24.684081392610462	1.9922885	1.4114845
24.702023090417274	2.0123508	1.4185735
24.7199654033587	2.0207338	1.4215251
24.737908331937927	2.030697	1.4250253
24.755851876658305	2.0300295	1.4247911
24.773796038023324	2.06003	1.4352804
24.79174081653661	2.1087859	1.452166
24.809686212701962	2.1295068	1.459283
24.827632227023294	2.0994782	1.4489577
24.8455788600047	2.0576618	1.4344553
24.8635261121504	2.0662382	1.4374416
24.88147398396475	2.108648	1.4521185
24.899422475952303	2.1152475	1.4543891
24.917371588617698	2.124149	1.4574461
24.935321322465768	2.1765122	1.4753007
24.953271678001478	2.2819114	1.5105997
24.97122265572994	2.4136527	1.5535935
24.989174256156414	2.7174945	1.6484824
25.00712647978632	3.335349	1.8262938
25.02507932712521	4.4013257	2.0979338
25.043032798678798	5.886981	2.42631
25.060986894952933	7.444637	2.728486
25.078941616453637	8.837891	2.972859
25.096896963687055	9.774458	3.1264129
25.114852937159508	10.445727	3.231985
25.132809537377444	10.180123	3.1906304
25.150766764847468	9.469115	3.0771928
25.168724620076347	8.229611	2.8687298
25.186683103570985	7.0989604	2.6643875
25.204642215838426	5.7165227	2.3909252
25.222601957385894	4.6000614	2.1447754
25.24056232872074	3.5350685	1.8801777
25.25852333035048	2.8617165	1.6916609
25.276484962782778	2.364267	1.5376173
25.294447226525435	2.12282	1.45699
25.312410122086423	2.0003798	1.4143479
25.330373649973843	1.9672511	1.4025873
25.348337810695988	1.9112278	1.3824717
25.366302604761245	1.904351	1.3799822
25.384268032678207	1.9072758	1.3810415
25.40223409495558	1.8694574	1.367281
25.420200792102257	1.8594803	1.3636276
25.438168124627246	1.8648752	1.3656043
25.45613609303974	1.8331242	1.3539292
25.474104697849057	1.8051702	1.3435662
25.492073939564698	1.828849	1.3523494
25.510043818696285	1.8418102	1.3571332
25.528014335753614	1.8509809	1.3605076
25.54598549124664	1.8413507	1.3569638
25.56395728568544	1.8577973	1.3630104
25.58192971958028	1.8547112	1.3618778
25.59990279344156	1.8419327	1.3571782
25.617876507779833	1.856014	1.3623561
25.635850863105826	1.8572937	1.3628256
25.653825859930386	1.8438427	1.3578817
25.671801498764548	1.8026302	1.3426206
25.68977778011949	1.7978078	1.3408235
25.707754704506524	1.7906921	1.3381674
25.725732272437153	1.8092241	1.345074
25.743710484423012	1.814858	1.3471667
25.761689340975888	1.7975138	1.340714
25.77966884260774	1.7887249	1.3374321
25.797648989830662	1.7726829	1.3314214
25.815629783156922	1.8010331	1.3420258
25.83361122309895	1.8536249	1.3614789
25.85159331016929	1.8679547	1.3667314
25.869576044880695	1.8519315	1.3608569
25.887559427746034	1.8092567	1.3450861
25.90554345927836	1.786601	1.336638
25.92352813999086	1.7965477	1.3403536
25.94151347039689	1.7938942	1.3393633
25.959499451009965	1.793316	1.3391474
25.97748608234374	1.760399	1.3268002
25.995473364912062	1.753818	1.3243179
26.013461299228904	1.8161831	1.3476584
26.03144988580839	1.8048159	1.3434343
26.04943912516483	1.8232595	1.3502812
26.067429017812675	1.8160979	1.3476268
26.085419564266537	1.8421488	1.3572578
26.103410765041186	1.814358	1.346981
26.12140262065155	1.8278123	1.3519661
26.139395131612723	1.8275006	1.3518507
26.157388298439948	1.8063086	1.3439898
26.17538212164861	1.7994142	1.3414224
26.193376601754295	1.7922157	1.3387367
26.211371739272714	1.8056873	1.3437587
26.229367534719746	1.7932676	1.3391294
26.247363988611433	1.8264637	1.3514673
26.26536110146397	1.855045	1.3620003
26.283358873793727	1.8341721	1.3543161
26.301357306117204	1.8051177	1.3435467
26.319356398951104	1.8392541	1.356191
26.33735615281224	1.8292258	1.3524888
26.35535656821762	1.7953914	1.3399222
26.373357645684404	1.829137	1.3524559
26.39135938572991	1.8743688	1.3690759
26.409361788871614	1.8005606	1.3418497
26.427364855627165	1.7230014	1.3126315
26.445368586514352	1.6857984	1.298383
26.46337298205115	1.7422018	1.319925
26.48137804275568	1.7748479	1.3322341
26.499383769146217	1.8194249	1.3488606
26.517390161741215	1.8046652	1.3433783
26.53539722105928	1.8244723	1.3507303
26.553404947619182	1.8275533	1.3518703
26.571413341939856	1.8275917	1.3518845
26.589422404540397	1.7809314	1.3345155
26.60743213594006	1.7556847	1.3250226
26.62544253665827	1.7778097	1.3333453
26.64345360721459	1.80571	1.343767
26.66146534812879	1.7659463	1.3288891
26.679477759920758	1.7759678	1.3326545
26.69749084311057	1.8199091	1.34904
26.71550459821847	1.8205647	1.3492831
26.733519025764842	1.8420905	1.3572364
26.751534126270258	1.832537	1.3537123
26.769549900255434	1.8032985	1.3428695
26.787566348241267	1.7838241	1.3355988
26.80558347074881	1.7715862	1.3310095
26.823601268299267	1.7427976	1.3201506
26.841619741414036	1.7239956	1.3130101
26.85963889061465	1.746352	1.3214961
26.877658716422832	1.7746024	1.332142
26.89567921936045	1.782627	1.3351506
26.913700399949544	1.7719437	1.3311437
26.93172225871233	1.7706869	1.3306715
26.949744796171174	1.8276821	1.351918
26.967768012848605	1.8450996	1.3583444
26.98579190926733	1.8077686	1.3445328
27.003816485950225	1.7920376	1.3386701
27.021841743420318	1.780424	1.3343253
27.039867682200814	1.7968066	1.3404502
27.057894302815072	1.7866846	1.3366692
27.07592160578664	1.772217	1.3312464
27.0939495916392	1.7758993	1.3326287
27.111978260896635	1.7952982	1.3398874
27.13000761408296	1.7934936	1.3392138
27.148037651722397	1.7907037	1.3381717
27.166068374339304	1.7879202	1.3371314
27.184099782458215	1.7978616	1.3408436
27.20213187660384	1.781571	1.3347551
27.22016465730105	1.782229	1.3350015
27.23819812507487	1.8454975	1.358491
27.256232280450533	1.85908	1.3634808
27.274267123953383	1.8260701	1.3513216
27.292302656108987	1.7716782	1.3310441
27.31033887744306	1.7408426	1.31941
27.32837578848146	1.7402205	1.3191742
27.34641338975026	1.751013	1.3232585
27.364451681775673	1.7787902	1.3337129
27.382490665084074	1.7854669	1.3362136
27.400530340202046	1.8144963	1.3470324
27.41857070765629	1.8075577	1.3444544
27.436611767973726	1.8077786	1.3445365
27.454653521681404	1.813391	1.3466221
27.472695969306564	1.7988484	1.3412116
27.490739111376627	1.8143368	1.3469732
27.508782948419153	1.7711741	1.3308547
27.526827480961902	1.7639022	1.3281198
27.54487270953279	1.8059629	1.3438612
27.562918634659898	1.8045156	1.3433226
27.580965256871508	1.8007737	1.3419291
27.599012576696026	1.8471032	1.3590817
27.617060594662068	1.8440918	1.3579735
27.63510931129842	1.823844	1.3504977
27.65315872713401	1.834992	1.3546188
27.67120884269797	1.8174688	1.3481352
27.68925965851958	1.818532	1.3485296
27.707311175128307	1.82577	1.3512106
27.725363393053787	1.856978	1.3627099
27.74341631282583	1.880201	1.3712043
27.7614699349744	1.878373	1.3705375
27.77952426002968	1.996882	1.4131107
27.797579288521973	2.0826886	1.4431523
27.815635020981784	2.4671023	1.5707012
27.83369145793979	2.5360115	1.5924859
27.85174859992682	2.3666403	1.5383888
27.869806447473923	2.2453742	1.4984573
27.887865001112267	1.9824712	1.4080026
27.905924261373233	1.8881458	1.3740982
27.92398422878836	1.8273132	1.3517815
27.94204490388936	1.7905849	1.3381274
27.96010628720813	1.797914	1.3408631
27.978168379276728	1.8256235	1.3511564
27.9962311806274	1.8022748	1.3424883
28.014294691792568	1.7850612	1.3360618
28.0323589133048	1.8160036	1.3475918
28.050423845696887	1.7893616	1.3376702
28.068489489501758	1.8057315	1.3437752
28.086555845252523	1.8510346	1.3605274
28.104622913482487	1.9094839	1.3818408
28.122690694725115	1.874713	1.3692015
28.14075918951405	1.8549564	1.3619678
28.15882839838312	1.8750073	1.3693091
28.176898321866304	1.9289366	1.3888617
28.1949689604978	1.8989679	1.3780304
28.213040314811945	1.8841264	1.3726349
28.23111238534327	1.860178	1.3638834
28.249185172626493	1.9231069	1.3867613
28.267258677196473	1.9779367	1.4063914
28.285332899588294	1.9484692	1.3958758
28.303407840337172	1.9394364	1.3926365
28.321483499978545	1.9895247	1.4105052
28.33955987904799	2.0157385	1.419767
28.357636978081285	1.9933054	1.4118447
28.37571479761439	1.9687085	1.4031067
28.393793338183425	1.9967777	1.4130738
28.41187260032469	2.0223289	1.4220861
28.429952584574686	2.018335	1.4206812
28.448033291470065	2.0282238	1.4241573
28.46611472154769	2.0679045	1.4380211
28.484196875344566	2.0807092	1.4424664
28.502279753397914	2.049764	1.4316996
28.52036335624511	1.9912306	1.4111097
28.538447684423716	1.9474128	1.3954973
28.556532738471482	1.9429379	1.393893
28.574618518926325	1.9963795	1.412933
28.59270502632635	1.994464	1.4122549
28.61079226120985	1.9997861	1.414138
28.628880224115274	1.9673827	1.4026341
28.646968915581287	1.9867548	1.4095229
28.66505833614671	1.9998988	1.4141778
28.68314848635055	2.0268815	1.4236859
28.701239366732004	2.0178528	1.4205115
28.71933097783044	2.0200474	1.4212837
28.737423320185403	2.093118	1.4467613
28.75551639433665	2.1465764	1.46512
28.773610200824074	2.1559343	1.46831
28.791704740187793	2.139909	1.4628428
28.80980001296809	2.0644293	1.4368122
28.827896019705413	2.0185354	1.4207517
28.845992760940433	2.061181	1.4356813
28.86409023721397	2.1802754	1.4765756
28.88218844906704	2.193601	1.481081
28.900287397040845	2.1939454	1.4811972
28.918387081676755	2.1787782	1.4760685
28.936487503516343	2.2101965	1.486673
28.954588663101365	2.2672668	1.5057446
28.97269056097374	2.2928035	1.5142006
28.990793197675597	2.3257627	1.5250452
29.00889657374923	2.3322668	1.5271761
29.027000689737125	2.299392	1.5163746
29.04510554618196	2.3418326	1.5303048
29.06321114362659	2.436982	1.5610836
29.08131748261405	2.5170128	1.5865096
29.099424563687567	2.5235424	1.5885662
29.11753238739057	2.5398118	1.5936787
29.13564095426663	2.5628793	1.6008996
29.15375026485954	2.612515	1.6163276
29.171860319713275	2.663465	1.6320126
29.18997111937199	2.6903164	1.6402184
29.20808266438002	2.7538137	1.6594619
29.226194955281898	2.7724288	1.6650612
29.244307992622335	2.786159	1.6691792
29.26242177694624	2.8491578	1.6879449
29.2805363087987	2.8383687	1.6847459
29.29865158872498	2.7954617	1.6719635
29.316767617270557	2.7651563	1.6628759
29.334884394981064	2.8674986	1.693369
29.353001922402367	2.978388	1.7258008
29.37112020008047	2.9704275	1.7234929
29.389239228561596	3.0377932	1.7429266
29.407359008392152	3.3077402	1.8187194
29.42547954011872	3.6748874	1.9169996
29.44360082428809	4.081769	2.0203388
29.46172286144722	4.884856	2.210171
29.479845652143283	6.527921	2.5549798
29.497969196923606	9.254748	3.0421617
29.516093496335728	13.076343	3.6161225
29.5342185509274	16.699194	4.086465
29.55234436124651	19.994947	4.471571
29.570470927841175	21.336544	4.6191497
29.588598251259686	21.08026	4.5913243
29.60672633205055	19.502438	4.4161563
29.624855170762405	16.449673	4.0558195
29.642984767944146	12.852539	3.585044
29.66111512414481	9.452939	3.0745633
29.67924623991366	6.9256964	2.6316717
29.697378115800138	5.183025	2.2766259
29.71551075235387	4.2610693	2.0642357
29.733644150124675	3.7406387	1.9340731
29.751778309662576	3.4912536	1.8684896
29.769913231517766	3.399295	1.8437177
29.78804891624066	3.3277318	1.8242072
29.806185364381818	3.3191164	1.8218442
29.82432257649206	3.3073428	1.8186101
29.842460553122333	3.2873473	1.8131043
29.86059929482382	3.306357	1.8183391
29.878738802147872	3.2819698	1.8116207
29.896879075646048	3.1982944	1.7883776
29.915020115870114	3.1898878	1.7860256
29.933161923371976	3.171698	1.7809262
29.951304498703777	3.186925	1.7851961
29.969447842417857	3.2837806	1.8121204
29.987591955066733	3.2411141	1.8003094
30.005736837203123	3.116859	1.7654629
30.023882489379943	3.1277657	1.7685491
30.04202891215028	3.2100039	1.7916484
30.060176106067455	3.1715798	1.780893
30.078324071684946	3.0985436	1.7602681
30.09647280955646	3.005857	1.7337408
30.114622320235863	3.0022926	1.7327125
30.132772604277257	3.081747	1.7554905
30.1509236622349	3.1065955	1.7625537
30.16907549466328	3.0935576	1.7588512
30.18722810211705	3.1034572	1.7616632
30.205381485151097	3.138134	1.7714779
30.22353564432045	3.0952704	1.759338
30.241690580180403	2.9969747	1.7311772
30.25984629328638	2.9770737	1.7254199
30.278002784194037	2.996819	1.7311323
30.296160053459246	3.0108867	1.7351906
30.314318101638033	2.9799128	1.7262424
30.332476929286646	2.9737291	1.7244503
30.35063653696153	2.913328	1.7068473
30.368796925219307	2.8782494	1.6965405
30.386958094616844	2.9184422	1.7083449
30.40512004571115	2.890835	1.7002456
30.423282779059463	2.8408039	1.6854684
30.441446295219233	2.8298166	1.6822059
30.459610594748067	2.7961624	1.6721729
30.47777567820382	2.7881718	1.6697819
30.495941546144504	2.849364	1.6880059
30.51410819912835	2.8653982	1.6927487
30.532275637713795	2.8734627	1.6951292
30.55044386245946	2.8311248	1.6825947
30.56861287392416	2.820805	1.6795253
30.586782672666956	2.8004267	1.6734476
30.604953259247047	2.7245889	1.6506329
30.623124634223885	2.6655798	1.6326604
30.641296798157075	2.683204	1.6380488
30.659469751606462	2.6987915	1.6427999
30.677643495132074	2.678694	1.6366717
30.695818029294152	2.7021601	1.6438248
30.713993354653116	2.70202	1.6437823
30.73216947176962	2.6684904	1.6335515
30.75034638120448	2.6976383	1.6424489
30.768524083518756	2.772635	1.6651231
30.786702579273673	2.8043027	1.6746053
30.80488186903069	2.8989768	1.7026381
30.82306195335144	2.9998271	1.732001
30.841242832797782	3.2418394	1.8005109
30.85942450793176	3.508543	1.8731105
30.877606979315637	3.8439887	1.9606092
30.895790247511883	4.2065525	2.0509882
30.913974313083134	4.742476	2.1777227
30.932159176592283	5.201858	2.2807581
30.95034483860237	5.515327	2.3484733
30.968531299676698	5.43538	2.3313901
30.98671856037873	5.1630287	2.27223
31.00490662127215	4.78347	2.1871145
31.023095482920848	4.289341	2.0710723
31.04128514588892	3.7633653	1.9399395
31.059475610740662	3.2104018	1.7917594
31.07766687804056	2.768164	1.66378
31.09585894835335	2.5441003	1.5950236
31.11405182224393	2.4501219	1.5652865
31.132245500277417	2.4168398	1.5546188
31.15043998301914	2.4371948	1.5611517
31.168635271034628	2.464379	1.5698341
31.18683136488964	2.4669697	1.570659
31.20502826515008	2.3912823	1.5463772
31.223225972382135	2.3990793	1.5488962
31.241424487152155	2.3517003	1.5335255
31.259623810026692	2.2995179	1.5164161
31.27782394157253	2.2528317	1.5009437
31.296024882356644	2.3605368	1.5364039
31.314226632946237	2.4418132	1.5626302
31.332429193908684	2.4633281	1.5694994
31.350632565811598	2.4347725	1.5603758
31.368836749222787	2.4350138	1.560453
31.387041744710295	2.4494162	1.5650611
31.40524755284232	2.4825697	1.5756172
31.423454174187317	2.4985921	1.5806936
31.441661609313922	2.5234675	1.5885426
31.459869858791002	2.458624	1.568
31.478078923187628	2.424511	1.5570841
31.496288803073064	2.419332	1.5554202
31.514499499016807	2.394016	1.5472608
31.532711011588546	2.2970352	1.5155973
31.550923341358178	2.2718582	1.5072684
31.56913648889584	2.246116	1.4987048
31.587350454771844	2.1859999	1.4785128
31.605565239556732	2.2182095	1.4893655
31.62378084382127	2.2021081	1.4839501
31.641997268136382	2.1975777	1.482423
31.660214513073274	2.2417977	1.4972634
31.67843257920331	2.243134	1.4977096
31.6966514670981	2.2609196	1.5036354
31.71487117732944	2.2689695	1.5063099
31.733091710469346	2.2255654	1.4918329
31.751313067090052	2.20459	1.4847862
31.769535247764008	2.2519155	1.5006384
31.787758253063878	2.290999	1.5136046
31.805982083562526	2.268872	1.5062776
31.824206739833024	2.2938442	1.5145442
31.84243222244869	2.2909477	1.5135877
31.860658531983013	2.249818	1.4999393
31.878885669009737	2.1952085	1.4816236
31.897113634102784	2.227983	1.492643
31.91534242783632	2.3607059	1.5364588
31.933572050784694	2.348784	1.5325743
31.951802503522508	2.2723672	1.5074373
31.970033786624548	2.2220585	1.4906571
31.988265900665834	2.1511197	1.4666696
32.006498846221575	2.0724459	1.4395992
32.02473262386724	2.0815184	1.4427469
32.04296723417845	2.1294765	1.4592726
32.0612026777311	2.1114938	1.453098
32.07943895510129	2.0713928	1.4392334
32.097676066865304	2.137316	1.4619563
32.115914013599685	2.1853313	1.4782866
32.13415279588115	2.0948267	1.4473516
32.152392414286666	2.1442559	1.4643278
32.1706328693934	2.2198594	1.4899193
32.18887416177875	2.191594	1.4804033
32.20711629202032	2.163485	1.470879
32.225359260695924	2.1688454	1.4727
32.243603068383614	2.1980488	1.4825819
32.26184771566166	2.1507316	1.4665372
32.28009320310852	2.0990531	1.4488109
32.2983395313029	2.0516584	1.4323611
32.31658670082372	2.04734	1.4308529
32.33483471225012	2.0890622	1.4453589
32.35308356616143	2.0525198	1.4326618
32.371333263137245	2.0253396	1.4231442
32.38958380375734	2.0746973	1.4403809
32.407835188601744	2.071871	1.4393996
32.42608741825067	2.06824	1.4381377
32.444340493284585	2.0322886	1.4255836
32.46259441428416	2.0032315	1.4153556
32.48084918183028	1.9983976	1.4136469
32.49910479650405	2.010325	1.4178593
32.51736125888683	1.9942806	1.41219
32.53561856956014	1.9818672	1.407788
32.5538767291058	2.04113	1.4286813
32.572135738105764	2.0118911	1.4184115
32.59039559714228	1.8754851	1.3694835
32.608656306797776	1.9083552	1.3814323
32.62691786765491	2.0143025	1.4192612
32.645180280296586	2.1015544	1.4496739
32.663443545305896	2.1087737	1.4521618
32.68170766326619	2.0290666	1.424453
32.69997263476099	1.9630042	1.4010725
32.7182384603741	1.9850616	1.4089222
32.7365051406895	2.0685186	1.4382346
32.75477267629144	2.06572	1.4372613
32.77304106776434	1.9913921	1.4111669
32.79131031569289	2.037441	1.4273896
32.809580420661966	2.0866132	1.4445114
32.827851383256714	2.0133047	1.4189097
32.84612320406245	1.9888773	1.4102756
32.86439588366476	2.064898	1.4369754
32.88266942264945	2.0714557	1.4392552
32.9009438216025	1.9361869	1.3914694
32.9192190811102	1.9317422	1.3898712
32.937495201758985	1.982581	1.4080416
32.95577218413556	2.0321429	1.4255325
32.974050028826866	2.0575118	1.434403
32.992328736420035	2.1087246	1.4521449
33.010608307502444	1.9928707	1.4116907
33.02888874266169	1.9111644	1.3824487
33.047170042485604	1.9507946	1.3967085
33.06545220756225	1.9403156	1.3929521
33.083735238479896	1.9377016	1.3920135
33.10201913582707	1.9782	1.406485
33.12030390019248	2.048174	1.4311442
33.138589532165135	2.044779	1.4299577
33.15687603233419	2.026447	1.4235333
33.17516340128909	2.0361257	1.4269288
33.19345163961947	2.0195563	1.421111
33.211740747915215	1.9896768	1.410559
33.23003072676643	2.0293596	1.4245559
33.248321576763466	2.011294	1.418201
33.266613298496885	1.930494	1.3894222
33.28490589255747	1.959897	1.3999633
33.30319935953626	1.9794837	1.4069413
33.32149370002451	1.9289414	1.3888633
33.339788914613706	1.8323102	1.3536285
33.358085003895575	1.8297843	1.3526952
33.376381968462034	1.8523515	1.3610113
33.39467980890529	1.8995371	1.3782369
33.41297852581774	2.0599046	1.4352368
33.43127811979204	2.0670025	1.4377074
33.44957859142105	1.9640124	1.4014323
33.467879941297866	1.8378425	1.3556705
33.486182170015844	1.8581799	1.3631507
33.50448527816853	1.9472916	1.3954539
33.522789266349754	1.976012	1.4057069
33.541094135153514	1.9734186	1.4047842
33.55939988517411	2.0104063	1.4178879
33.57770651700602	2.0148695	1.419461
33.59601403124398	1.9735	1.4048132
33.61432242848296	1.8541485	1.3616712
33.632631709318154	1.7565684	1.325356
33.650941874344994	1.8601147	1.3638602
33.66925292415916	2.0286953	1.4243227
33.68756485935654	2.0325239	1.4256661
33.70587768053328	1.9167392	1.3844635
33.724191388285746	1.9194348	1.3854367
33.74250598321054	2.0179217	1.4205357
33.760821465904506	2.0857723	1.4442203
33.77913783696474	2.0831697	1.443319
33.79745509698852	2.039444	1.428091
33.815773246573414	1.9123709	1.382885
33.8340922863172	2.0413218	1.4287484
33.852412216817896	2.1212628	1.4564556
33.87073303867377	1.9486048	1.3959243
33.889054752483304	1.8449458	1.3582878
33.907377358845245	1.8294852	1.3525846
33.92570085835853	1.7695166	1.3302318
33.94402525162239	1.8171694	1.3480242
33.96235053923627	1.9692584	1.4033027
33.980676721799824	2.0099165	1.4177153
33.999003799912984	2.0914469	1.4461836
34.01733177417592	2.1257198	1.4579848
34.03566064518901	2.0270832	1.4237567
34.0539904135529	1.8901074	1.3748118
34.07232107986846	1.7231898	1.3127033
34.090652644736785	1.7844683	1.3358399
34.108985108759235	1.8986688	1.3779219
34.12731847253742	1.9347854	1.3909656
34.14565273667313	1.9473232	1.3954653
34.16398790176847	2.0369713	1.427225
34.18232396842574	1.9169225	1.3845297
34.20066093724749	1.8762412	1.3697596
34.21899880883651	1.9758142	1.4056365
34.23733758379583	2.0739255	1.4401131
34.25567726272874	2.0512092	1.4322044
34.27401784623872	2.0353284	1.4266493
34.29235933492957	2.0816107	1.4427788
34.31070172940526	2.0532186	1.4329057
34.32904503027003	1.9152495	1.3839254
34.347389238128386	1.9081556	1.38136
34.36573435358502	1.9591671	1.3997025
34.38408037724492	1.954629	1.3980805
34.402427309713296	2.006243	1.416419
34.42077515159559	2.004954	1.415964
34.43912390349752	1.9892799	1.4104183
34.45747356602499	2.0329325	1.4258094
34.47582413978423	1.9804703	1.4072919
34.49417562538163	1.9187042	1.385173
34.51252802342388	1.8751495	1.3693609
34.53088133451789	1.9493387	1.3961872
34.54923555927084	1.8411704	1.3568974
34.567590698290104	1.7421013	1.3198868
34.58594675218336	1.8333806	1.3540238
34.6043037215585	1.9814711	1.4076474
34.62266160702365	1.9161077	1.3842354
34.641020409187234	1.8896723	1.3746535
34.65938012865785	1.8750713	1.3693324
34.677740766044394	1.8444637	1.3581103
34.69610232195598	1.862337	1.3646747
34.714464797002016	1.7174909	1.3105308
34.73282819179208	1.634248	1.278377
34.751192506936064	1.940771	1.3931155
34.76955774304408	2.0208066	1.4215508
34.7879239007265	1.8742744	1.3690414
34.80629098059391	1.9527177	1.3973968
34.824658983257194	2.0432127	1.4294099
34.843027909327446	1.9263326	1.3879238
34.86139775941603	1.7452297	1.3210714
34.879768534134534	1.7073416	1.3066528
34.89814023409483	1.788004	1.3371627
34.91651285990901	1.9095135	1.3818514
34.93488641218944	1.7011172	1.3042688
34.95326089154871	1.6992459	1.3035513
34.97163629859967	1.902615	1.379353
34.99001263395542	2.0153172	1.4196187
35.00838989822934	2.0755	1.4406595
35.02676809203499	2.0265326	1.4235634
35.04514721598624	2.1182046	1.4554054
35.063527270697215	2.0555193	1.4337082
35.081908256782256	2.0053957	1.4161199
35.10029017485597	2.1031413	1.4502212
35.11867302553321	1.9824181	1.4079837
35.137056809429104	1.7738525	1.3318605
35.155441527159006	1.8019795	1.3423783
35.173827179338524	1.8874983	1.3738625
35.19221376658354	1.9050989	1.3802532
35.21060128951017	2.1941164	1.4812549
35.2289897487348	2.3755505	1.541282
35.24737914487405	2.0800667	1.4422436
35.26576947854479	1.6931763	1.301221
35.28416075036418	1.7590736	1.3263007
35.30255296094958	1.8764191	1.3698244
35.32094611091867	1.7778733	1.3333691
35.33934020088932	1.8423165	1.3573196
35.35773523147969	1.9815929	1.4076906
35.3761312033082	2.240191	1.4967268
35.394528116993506	2.0558438	1.4338214
35.41292597315452	2.0408077	1.4285684
35.431324772410434	2.1425118	1.4637321
35.449724515380666	2.0106828	1.4179854
35.46812520268491	1.9482125	1.3957838
35.486526834943106	2.2163298	1.4887342
35.504929412775454	1.9893788	1.4104534
35.52333293680242	1.7648746	1.3284858
35.54173740764471	1.7138071	1.3091246
35.560142825923286	2.2392912	1.4964261
35.5785491922594	2.145492	1.4647498
35.59695650727454	1.8486693	1.3596578
35.61536477159042	2.5249293	1.5890026
