0.008763373481513119	0.0	0.0
0.026290120649546365	0.14626539	0.3824466
0.043816868432600686	0.18034895	0.4246751
0.06134361724069026	0.18723494	0.43270653
0.07887036748382949	0.1447072	0.380404
0.0963971195720331	0.103452034	0.3216396
0.11392387391531617	0.08614137	0.29349852
0.1314506309236943	0.07899012	0.2810518
0.1489773910071836	0.12262143	0.35017344
0.16650415457580078	0.13097337	0.36190242
0.18403092203956356	0.110797085	0.33286196
0.20155769380849	0.13755056	0.3708781
0.2190844702925996	0.1732535	0.41623732
0.2366112519019124	0.15078409	0.38830927
0.2541380390464497	0.1122097	0.33497715
0.27166483213623416	0.08724172	0.2953671
0.28919163158128947	0.11350962	0.3369119
0.3067184377916406	0.16408111	0.40506926
0.324245251177314	0.18200254	0.42661756
0.34177207214833777	0.19310933	0.43944207
0.3592989011147415	0.2294199	0.47897798
0.37682573848655654	0.21114855	0.45950902
0.39435258467381573	0.22100942	0.47011638
0.41187944008655414	0.1909174	0.43694097
0.42940630513480854	0.15559852	0.39445978
0.446933180228618	0.11496996	0.3390722
0.4644600657780234	0.12283219	0.35047424
0.48198696219306775	0.17147213	0.41409194
0.49951386988379676	0.17738855	0.4211752
0.5170407892602581	0.19007662	0.4359778
0.5345677207325025	0.14481904	0.38055095
0.5520946647105822	0.11463597	0.33857933
0.5696216216045534	0.11258986	0.3355441
0.5871485918244737	0.13067442	0.36148918
0.6046755757804043	0.12067074	0.34737694
0.6222025738824094	0.12015305	0.346631
0.6397295865405557	0.15134987	0.3890371
0.6572566141649129	0.190766	0.43676767
0.6747836571655547	0.21657038	0.46537122
0.6923107159525568	0.22232556	0.4715141
0.7098377909359992	0.23716266	0.4869935
0.7273648825259653	0.25303426	0.5030251
0.7448919911325411	0.24082205	0.49073622
0.762419117165817	0.21209721	0.46054015
0.7799462610358868	0.19812606	0.44511354
0.7974734231528482	0.18430471	0.42930725
0.8150006039268024	0.20955566	0.4577725
0.8325278037678551	0.20389482	0.45154715
0.8500550230861152	0.18128474	0.42577547
0.8675822622916969	0.15298912	0.39113823
0.8851095217947171	0.15050781	0.38795337
0.9026368020052984	0.19917984	0.44629568
0.9201641033335665	0.23961511	0.48950496
0.9376914261896523	0.24322413	0.4931776
0.9552187709836915	0.22087076	0.4699689
0.9727461381258234	0.20846456	0.4565792
0.990273528026193	0.18187717	0.42647058
1.0078009410949496	0.18508668	0.43021703
1.0253283777422473	0.25172308	0.50172013
1.0428558383782454	0.32605666	0.5710137
1.0603833234131086	0.34570858	0.5879699
1.0779108332570058	0.3664943	0.60538775
1.0954383683201119	0.3239708	0.5691843
1.112965929012607	0.40184703	0.63391405
1.1304935157446763	0.5506693	0.742071
1.1480211289265108	0.5730465	0.75699836
1.1655487689683062	1.4648103	1.2102934
1.1830764362802655	1.6908538	1.3003284
1.200604131272596	2.0123909	1.4185877
1.2181318543555117	2.2715743	1.5071743
1.235659605939232	2.2528303	1.5009432
1.253187386433982	3.8320014	1.9575498
1.270715196249994	6.316896	2.5133436
1.2882430357975057	11.676979	3.4171596
1.3057709054867608	16.669485	4.082828
1.3232988057280106	22.395117	4.732348
1.3408267369315112	27.424007	5.2367935
1.358354699507526	31.089916	5.5758333
1.3758826938663256	35.07056	5.9220405
1.3934107204181858	36.863503	6.0715322
1.410938779573391	37.14668	6.0948076
1.4284668717422309	37.58611	6.130751
1.4459949973350033	37.050735	6.0869317
1.4635231567620117	37.075283	6.088948
1.4810513504335687	36.36424	6.030277
1.4985795787599925	35.54014	5.961555
1.5161078421516088	34.875374	5.9055376
1.5336361410187505	34.334305	5.859548
1.5511644757717598	34.629078	5.884648
1.5686928468209842	35.407112	5.9503875
1.58622125457678	35.856087	5.987995
1.6037496994495108	36.720833	6.0597715
1.621278181849548	36.26418	6.0219746
1.6388067021872719	36.597347	6.0495744
1.6563352608730693	36.0948	6.0078945
1.673863858317336	35.532055	5.960877
1.6913924949304753	34.86374	5.9045525
1.7089211711228998	33.869244	5.819729
1.7264498873050296	32.9581	5.7409143
1.7439786438872935	32.15418	5.6704655
1.7615074412801288	31.266584	5.591653
1.779036279893981	30.672728	5.538296
1.796565160139305	29.880459	5.466302
1.814094082426564	29.430618	5.424999
1.8316230471662298	28.660019	5.353505
1.849152054768784	27.626085	5.256052
1.8666811056447168	27.078949	5.203744
1.8842102002045273	26.23585	5.122094
1.901739338858724	25.831898	5.082509
1.9192685220178245	25.335316	5.03342
1.9367977500923557	24.613956	4.9612455
1.9543270234928547	24.179737	4.9172897
1.971856342629867	23.374496	4.8347178
1.9893857079139496	23.073668	4.803506
2.006915119755667	22.647255	4.758913
2.0244445785655945	21.798887	4.6689277
2.0419740847543175	21.200157	4.604363
2.0595036387324317	20.780983	4.558616
2.0770332409105414	20.641665	4.5433097
2.094562891699263	20.426064	4.5195203
2.1120925915092217	20.005552	4.472757
2.129622340751053	19.740664	4.4430466
2.1471521398354043	187.90923	13.707998
2.1646819891729323	444.20023	21.076057
2.182211889174303	440.40042	20.98572
2.1997418402501974	452.74646	21.27784
2.2172718428113023	432.67984	20.800957
2.234801897268317	320.6362	17.906317
2.2523320040319548	16.858896	4.1059585
2.269862163512935	16.377863	4.046957
2.287392376121992	16.070253	4.008772
2.304922642269869	15.8635235	3.982904
2.322452962367322	15.84253	3.9802675
2.3399833368251164	15.6477585	3.9557247
2.357513766054032	15.408433	3.9253576
2.3750442504648586	15.112685	3.8875036
2.3925747904683963	14.778575	3.8442912
2.410105386475459	14.577337	3.818028
2.4276360388968707	14.224076	3.771482
2.445166748143469	13.899745	3.7282362
2.4626975146261025	13.609484	3.6891034
2.4802283387556323	13.330661	3.6511178
2.4977592209429305	13.295849	3.6463473
2.5152901615988825	13.090235	3.618043
2.5328211611343865	12.749056	3.570582
2.5503522199603523	12.457816	3.5295632
2.5678833384877024	12.27353	3.5033598
2.5854145171273712	11.975978	3.4606326
2.6029457562903064	11.748738	3.4276433
2.620477056387469	11.433703	3.381376
2.6380084178298326	11.269386	3.3569906
2.655539841028383	11.207904	3.3478208
2.673071326394119	11.241641	3.3528557
2.6906028743380523	11.112685	3.3335695
2.708134485271211	10.8117485	3.2881224
2.7256661596046325	10.61479	3.2580347
2.743197897749369	10.415492	3.2273042
2.760729700116486	10.419927	3.227991
2.778261567117063	10.253059	3.20204
2.795793499162193	10.040126	3.1686158
2.8133254966629817	9.821692	3.1339579
2.830857560030551	9.70592	3.1154325
2.8483896896760337	9.657236	3.1076093
2.865921886010578	9.586841	3.0962625
2.883454149445347	9.46562	3.0766249
2.9009864803915177	9.40111	3.066123
2.91851887926028	9.230641	3.038197
2.9360513464628384	9.154544	3.0256476
2.953583882410413	9.084038	3.0139737
2.9711164875142373	8.980426	2.9967358
2.9886491621855606	8.932229	2.9886835
3.0061819068356455	8.775691	2.9623792
3.023714721875769	8.628849	2.9374902
3.041247607717225	8.469404	2.9102242
3.0587805647713213	8.224664	2.8678675
3.0763135934493806	8.070171	2.8408048
3.0938466941627407	7.8898435	2.8088865
3.1113798673227544	7.830753	2.7983482
3.1289131133407904	7.88321	2.8077054
3.1464464326282315	7.7262244	2.7796087
3.1639798255964786	7.578912	2.7529824
3.1815132926569443	7.363978	2.713665
3.1990468342210603	7.2898173	2.6999662
3.216580450700272	7.279862	2.698122
3.2341141425060416	7.242685	2.6912236
3.251647910049847	7.178866	2.6793406
3.2691817537431813	7.106314	2.6657672
3.286715673997555	7.1155014	2.6674898
3.3042496712244938	7.120495	2.6684256
3.32178374583554	6.9691067	2.6399066
3.339317898242251	6.772418	2.602387
3.3568521288562034	6.738471	2.5958564
3.3743864380889876	6.756866	2.5993972
3.3919208263522127	6.6723924	2.5830975
3.4094552940575023	6.52468	2.5543454
3.4269898416164972	6.4903655	2.5476196
3.444524469440858	6.440213	2.5377574
3.4620591779422587	6.416976	2.533175
3.479593967532391	6.4231815	2.5343997
3.4971288386229658	6.321882	2.5143352
3.5146637916257086	6.2956214	2.5091076
3.5321988269523628	6.1945033	2.4888759
3.5497339450146903	6.181799	2.4863224
3.5672691462244708	6.2507796	2.500156
3.5848044309934988	6.1619964	2.4823368
3.60233979973359	6.042547	2.4581592
3.619875252856575	6.0456986	2.4588003
3.6374107907743034	6.121459	2.4741583
3.6549464138986427	6.2515135	2.5003028
3.6724821226414788	6.2384987	2.4976988
3.690017917414714	6.2236013	2.4947147
3.7075537986302702	6.2336574	2.4967294
3.7250897667000857	6.269079	2.503813
3.7426258220361235	6.381349	2.5261333
3.7601619650503553	6.705809	2.5895576
3.777698196154779	7.236826	2.690135
3.7952345157614067	8.426992	2.9029284
3.8127709242822716	9.297023	3.049102
3.830307422129425	11.685431	3.418396
3.847844009714936	30.451244	5.518265
3.8653806874508954	97.97236	9.898099
3.882917455749409	97.181366	9.858061
3.900454315022606	96.7891	9.838145
3.917991265682631	41.28093	6.4250236
3.9355283081416506	10.789638	3.2847583
3.9530654428118495	8.607099	2.9337857
3.970602670105433	7.3288956	2.7071934
3.9881399904346244	6.495989	2.548723
4.005677404211669	6.362301	2.52236
4.023214911848827	6.3252997	2.515015
4.0407525137583855	6.3027005	2.510518
4.058290210352644	6.3363514	2.517211
4.075828002043927	6.2240148	2.4947975
4.0933658892445814	6.179725	2.4859054
4.110903872366966	6.1698246	2.4839132
4.128441951823468	6.181506	2.4862635
4.145980128026488	6.135882	2.4770713
4.163518401388452	6.086426	2.4670682
4.181056772321807	5.958283	2.4409595
4.1985952412390155	5.8835855	2.4256103
4.216133808552567	5.9017515	2.429352
4.233672474674966	6.098654	2.4695454
4.251211240018741	6.3273168	2.515416
4.268750104996445	6.5838137	2.5658944
4.286289070020643	7.3956404	2.7194927
4.303828135503928	8.959479	2.993239
4.3213673018589125	29.219587	5.4055147
4.3389065694982305	90.45168	9.510609
4.356445938834537	165.83455	12.877676
4.3739854102805085	171.10323	13.080643
4.391524984248844	171.94965	13.112957
4.409064661152262	135.89113	11.657235
4.426604441403504	96.269226	9.811688
4.444144325415337	75.54026	8.69139
4.461684313600543	21.637218	4.6515822
4.47922440637193	22.005398	4.690991
4.496764604142329	20.358046	4.511989
4.5143049073245916	18.30767	4.2787466
4.531845316331589	16.176584	4.022012
4.5493858315762195	13.175401	3.6297934
4.566926453471405	10.944492	3.3082461
4.584467182430081	8.889514	2.9815288
4.602008018865218	7.830756	2.798349
4.619548963189798	7.29385	2.700713
4.637090015816834	6.841481	2.6156225
4.654631177159353	6.6365805	2.5761561
4.672172447630417	6.367455	2.5233817
4.689713827643102	6.170875	2.4841247
4.7072553176105085	5.8640223	2.4215744
4.724796917945764	5.7171307	2.3910522
4.742338629062015	5.635776	2.3739789
4.759880451372434	5.509036	2.3471336
4.777422385290215	5.5160246	2.3486218
4.794964431228581	5.4586024	2.3363652
4.812506589600768	5.512397	2.3478494
4.830048860820047	5.4829993	2.3415806
4.847591245299709	5.515269	2.348461
4.8651337434530655	5.499999	2.3452077
4.882676355693457	5.4545217	2.3354917
4.900219082434242	5.3768806	2.3188102
4.917761924088813	5.3591375	2.3149812
4.935304881070575	5.3957925	2.3228846
4.952847953792969	5.4556603	2.3357356
4.970391142669449	5.473752	2.339605
4.9879344481135055	5.4976153	2.3446994
5.005477870538642	5.4473143	2.3339481
5.023021410358394	5.3993797	2.3236566
5.040565067986324	5.380858	2.3196676
5.05810884383601	5.4143257	2.3268704
5.075652738321066	5.3729253	2.3179572
5.09319675185512	5.31538	2.3055108
5.110740884851836	5.293907	2.3008492
5.128285137724894	5.3091755	2.304165
5.145829510888007	5.2648954	2.294536
5.163374004754908	5.2822247	2.298309
5.1809186197393595	5.3175216	2.3059752
5.198463356255145	5.317676	2.3060086
5.216008214716077	5.310925	2.3045444
5.233553195535998	5.2593107	2.2933187
5.251098299128764	5.2451715	2.2902339
5.268643525908272	5.2460966	2.2904358
5.286188876288432	5.1638303	2.2724063
5.3037343506831895	5.1534886	2.2701297
5.32127994950651	5.2177505	2.2842395
5.3388256731723915	5.2891817	2.299822
5.356371522094851	5.3333244	2.3093991
5.373917496687938	5.271674	2.2960126
5.391463597365729	5.1509976	2.2695808
5.40900982454232	5.1205373	2.2628605
5.426556178631843	5.1096473	2.260453
5.444102660048449	5.1077223	2.2600272
5.4616492692063225	5.119154	2.2625546
5.479196006519669	5.1345525	2.2659552
5.496742872402727	5.182276	2.2764611
5.514289867269756	5.197831	2.2798753
5.531836991535049	5.1140633	2.2614295
5.549384245612924	5.1131935	2.2612371
5.566931629917724	5.079661	2.2538104
5.584479144863822	5.118529	2.2624166
5.6020267908656205	5.1756835	2.275013
5.619574568337545	5.198175	2.2799506
5.637122477694054	5.128034	2.2645164
5.654670519349629	5.054455	2.2482114
5.672218693718784	5.061864	2.2498586
5.689767001216059	5.112996	2.2611935
5.707315442256021	5.0842357	2.2548249
5.724864017253266	5.0483093	2.2468443
5.7424127266224225	4.977298	2.2309859
5.75996157077814	5.003995	2.2369611
5.777510550135105	5.003237	2.2367916
5.795059665108022	5.0425286	2.2455575
5.812608916111639	5.088534	2.2557778
5.830158303560715	5.270596	2.2957778
5.847707827870055	5.301302	2.3024557
5.86525748945448	5.2959547	2.301294
5.8828072887288485	5.339255	2.3106828
5.900357226108044	5.354601	2.314001
5.917907302006979	5.536109	2.3528938
5.9354575168406	6.1949816	2.488972
5.9530078710238765	6.928731	2.6322482
5.970558364971812	7.616498	2.7598004
5.988108999099438	7.9617677	2.8216605
6.005659773821818	8.425476	2.902667
6.023210689554039	8.093332	2.8448782
6.040761746711227	8.552305	2.9244325
6.058312945708531	7.9531546	2.8201337
6.075864286961132	7.4722576	2.7335432
6.093415770884244	6.767824	2.6015043
6.1109673978931065	6.151384	2.4801984
6.128519168402993	5.4289494	2.3300107
6.146071082829204	5.2809715	2.2980363
6.163623141587075	5.125932	2.2640522
6.181175345091969	5.151115	2.2696068
6.198727693759281	5.146479	2.2685852
6.216280188004435	5.1668196	2.273064
6.233832828242885	5.149422	2.269234
6.251385614890126	5.169831	2.2737262
6.268938548361669	5.178778	2.275693
6.286491629073067	5.067944	2.2512095
6.304044857439898	5.0412493	2.2452726
6.321598233877777	4.9773126	2.2309892
6.339151758802344	4.9470096	2.2241874
6.356705432629277	4.96506	2.2282414
6.37425925577428	4.985173	2.2327502
6.391813228653095	4.985556	2.232836
6.409367351681486	4.937868	2.2221315
6.426921625275259	4.910546	2.215975
6.44447604985025	4.936053	2.2217228
6.46203062582232	4.9773154	2.2309897
6.47958535360737	4.959422	2.226976
6.497140233621328	4.9158654	2.217175
6.514695266280161	4.893077	2.21203
6.532250451999859	4.9200025	2.218108
6.549805791196454	4.9422517	2.2231176
6.567361284286002	4.931465	2.2206903
6.584916931684597	4.9657607	2.2283988
6.602472733808367	4.944439	2.2236094
6.6200286910734665	4.966283	2.2285159
6.637584803896092	4.9899335	2.233816
6.655141072692462	4.969965	2.2293417
6.672697497878842	5.0071282	2.2376614
6.690254079871514	5.0293493	2.2426212
6.707810819086808	5.0577874	2.2489526
6.725367715941078	5.0437055	2.2458196
6.742924770850719	4.9896035	2.233742
6.760481984232151	4.9138975	2.2167313
6.778039356501836	4.9043107	2.214568
6.795596888076266	4.9403973	2.2227004
6.813154579371963	4.9688025	2.2290812
6.830712430805492	4.9562845	2.2262714
6.84827044279344	4.9745626	2.2303727
6.865828615752445	4.986506	2.2330487
6.883386950099159	5.0005994	2.236202
6.900945446250287	4.960643	2.22725
6.918504104622553	4.9133573	2.2166095
6.936062925632727	4.922171	2.2185967
6.953621909697607	4.916659	2.217354
6.971181057234028	4.976769	2.2308674
6.988740368658859	5.022454	2.2410831
7.006299844389007	5.063609	2.2502465
7.023859484841407	5.121244	2.2630165
7.041419290433036	5.2116423	2.2829022
7.058979261580902	5.434786	2.3312628
7.0765393987020495	5.66245	2.3795903
7.094099702213559	6.0219707	2.4539704
7.111660172532549	6.329722	2.515894
7.129220810076164	6.6486917	2.5785058
7.146781615261595	7.154935	2.674871
7.16434258850606	7.464543	2.7321315
7.181903730226821	7.8303885	2.798283
7.1994650408411704	7.9874363	2.8262053
7.217026520766437	8.142864	2.8535705
7.234588170419983	8.435675	2.9044232
7.252149990219215	8.532464	2.9210382
7.269711980581568	8.355163	2.8905299
7.2872741419245175	8.115693	2.8488057
7.304836474665574	7.706583	2.7760732
7.322398979222286	7.4097295	2.722082
7.339961656012233	7.15897	2.675625
7.357524505453039	6.789215	2.6056123
7.375087527962357	6.4535155	2.5403771
7.392650723957886	6.1847286	2.4869115
7.410214093857353	5.8427973	2.417188
7.427777638078528	5.6578	2.378613
7.445341357039213	5.4893003	2.3429255
7.4629052511572525	5.332699	2.3092637
7.480469320850524	5.1876836	2.2776487
7.498033566536948	5.101276	2.2586005
7.5155979886344735	5.0286994	2.2424762
7.5331625875610975	5.0354834	2.2439883
7.550727363734844	5.0551925	2.2483754
7.568292317573788	5.124336	2.2636995
7.585857449496025	5.097508	2.2577662
7.603422759919705	5.1084647	2.2601912
7.620988249263007	5.129986	2.2649472
7.638553917944147	5.19658	2.2796009
7.656119766381391	5.2163424	2.2839313
7.673685794993023	5.1890383	2.277946
7.691252004197388	5.1417017	2.267532
7.70881839441285	5.0946064	2.2571235
7.726384966057826	5.0818963	2.254306
7.743951719550762	5.176058	2.2750952
7.761518655310149	5.2206025	2.2848637
7.779085773754511	5.2523966	2.2918108
7.796653075302419	5.204001	2.281228
7.814220560372475	5.243986	2.2899752
7.831788229383323	5.255048	2.2923892
7.8493560827536495	5.2417316	2.2894828
7.866924120902174	5.2677026	2.2951477
7.884492344247663	5.266023	2.2947817
7.9020607532089135	5.290555	2.3001206
7.919629348204771	5.2601357	2.2934985
7.937198129654115	5.2544656	2.292262
7.954767097975865	5.283241	2.29853
7.972336253588986	5.3081594	2.3039443
7.989905596912472	5.3028364	2.3027887
8.007475128365371	5.3243732	2.3074603
8.025044848366756	5.298176	2.3017766
8.042614757335754	5.414421	2.326891
8.060184855691523	5.441252	2.3326492
8.07775514385327	5.5932155	2.364998
8.095325622240228	5.624515	2.371606
8.112896291271687	5.665473	2.3802254
8.130467151366968	5.7161274	2.3908424
8.148038202945436	5.7764287	2.4034202
8.165609446426497	5.760056	2.4000118
8.183180882229594	5.8807087	2.4250174
8.200752510774217	5.8884144	2.4266055
8.218324332479893	5.798795	2.4080687
8.235896347766193	5.7042623	2.3883598
8.253468557052724	5.7805047	2.404268
8.27104096075914	5.8380904	2.416214
8.288613559305137	5.9027123	2.42955
8.306186353110448	5.996009	2.448675
8.32375934259485	6.09148	2.4680924
8.341332528178162	6.1443276	2.4787755
8.358905910280246	6.130405	2.4759655
8.376479489321003	6.127994	2.4754786
8.394053265720377	6.1576114	2.4814534
8.411627239898356	6.2486215	2.4997244
8.42920141227497	6.293906	2.508766
8.44677578327029	6.3482146	2.5195663
8.464350353304427	6.2860065	2.507191
8.48192512279754	6.235488	2.4970958
8.499500092169827	6.197921	2.4895623
8.51707526184153	6.1112137	2.472087
8.534650632232934	6.06076	2.4618611
8.552226203764365	6.0152397	2.4525986
8.569801976856192	6.0724025	2.4642246
8.587377951928834	6.185393	2.487045
8.60495412940274	6.241928	2.4983852
8.622530509698416	6.2705116	2.504099
8.6401070932364	6.3760395	2.525082
8.657683880437283	6.491722	2.547886
8.675260871721695	6.6236587	2.573647
8.692838067510303	6.7381926	2.5958028
8.710415468223834	6.856656	2.6185217
8.727993074283043	7.0099688	2.6476345
8.745570886108737	7.041696	2.6536195
8.763148904121765	7.0461235	2.6544535
8.78072712874302	7.0105653	2.6477473
8.798305560393441	7.202974	2.6838357
8.815884199494006	7.366926	2.7142081
8.833463046465745	7.5949845	2.7559
8.851042101729728	7.7561736	2.7849908
8.86862136570707	7.95298	2.820103
8.886200838818924	8.054956	2.8381255
8.903780521486505	8.111167	2.848011
8.921360414131055	8.311334	2.8829384
8.938940517173874	8.47487	2.9111629
8.956520831036297	8.54062	2.9224339
8.97410135613971	8.782907	2.9635968
8.99168209290554	8.964168	2.994022
9.009263041755265	9.336906	3.0556352
9.026844203110405	9.654953	3.107242
9.044425577392525	9.808678	3.1318808
9.062007165023239	9.876356	3.142667
9.079588966424197	10.071344	3.1735382
9.097170982017108	10.234208	3.1990948
9.11475321222372	11.37414	3.372557
9.132335657465825	12.3513775	3.5144527
9.149918318165264	12.4734535	3.5317776
9.167501194743924	13.061395	3.6140552
9.18508428762374	12.676553	3.5604148
9.202667597226693	12.678462	3.5606828
9.220251123974803	12.337899	3.5125346
9.237834868290143	11.981319	3.4614043
9.255418830594836	11.839426	3.4408467
9.273003011311046	11.284002	3.3591669
9.290587410860985	11.040537	3.3227303
9.308172029666911	10.358574	3.218474
9.32575686815113	10.042427	3.168979
9.343341926735997	8.672417	2.9448967
9.360927205843916	8.425061	2.9025955
9.378512705897327	8.245177	2.8714416
9.396098427318728	8.086115	2.8436096
9.413684370530664	8.000054	2.8284369
9.431270535955722	7.907217	2.8119774
9.448856924016539	7.810661	2.794756
9.466443535135806	7.665378	2.768642
9.484030369736251	7.687147	2.7725706
9.501617428240658	7.706009	2.77597
9.519204711071852	7.677334	2.7708
9.536792218652714	7.6276507	2.76182
9.55437995140617	7.6309304	2.762414
9.571967909755191	7.674179	2.7702308
9.589556094122802	7.7503796	2.7839503
9.60714450493207	7.791615	2.7913465
9.624733142606116	7.7724514	2.7879117
9.642322007568108	7.8298984	2.7981956
9.659911100241267	7.8808002	2.8072762
9.677500421048851	7.957399	2.8208861
9.695089970414175	7.9614515	2.8216045
9.712679748760609	7.944008	2.8185117
9.730269756511557	8.021504	2.832226
9.747859994090492	8.058167	2.8386912
9.765450461920915	8.066504	2.8401592
9.78304116042639	8.108664	2.8475716
9.800632090030527	8.138931	2.8528812
9.81822325115699	8.10412	2.8467736
9.835814644229481	8.063077	2.8395557
9.853406269671762	8.077904	2.8421652
9.870998127907646	8.08	2.842534
9.888590219360985	8.085725	2.843541
9.906182544455698	8.181236	2.860286
9.923775103615734	8.22958	2.8687243
9.941367897265108	8.271183	2.8759665
9.958960925827878	8.214304	2.8660607
9.97655418972816	8.170677	2.8584397
9.994147689390106	8.154942	2.8556857
10.011741425237934	8.178156	2.8597474
10.029335397695904	8.309835	2.8826785
10.04692960718833	8.396299	2.897637
10.06452405413958	8.381412	2.8950667
10.082118738974064	8.329544	2.886095
10.099713662116246	8.21443	2.8660827
10.117308823990651	8.183435	2.8606706
10.134904225021844	8.132436	2.8517425
10.152499865634445	8.13682	2.8525112
10.170095746253125	8.137029	2.8525476
10.18769186730261	8.102174	2.8464317
10.205288229207675	8.030089	2.8337412
10.222884832393145	8.083405	2.843133
10.2404816772839	8.04732	2.8367798
10.258078764304868	8.0268545	2.8331704
10.275676093881035	7.9899397	2.8266482
10.293273666437438	8.037534	2.8350544
10.310871482399158	8.187273	2.8613412
10.32846954219134	8.148784	2.8546073
10.346067846239173	8.047909	2.8368835
10.363666394967908	7.945494	2.8187754
10.38126518880283	8.007891	2.8298216
10.398864228169298	8.198157	2.8632424
10.416463513492713	8.199962	2.8635576
10.434063045198531	8.078626	2.8422923
10.451662823712262	8.033705	2.8343792
10.469262849459467	8.036035	2.83479
10.486863122865758	8.055228	2.8381734
10.504463644356806	8.016194	2.8312886
10.522064414358338	7.9837627	2.8255553
10.539665433296118	7.926652	2.815431
10.557266701595987	7.8297095	2.7981617
10.574868219683818	7.73449	2.781095
10.592469987985552	7.6702824	2.7695274
10.610072006927185	7.5887256	2.754764
10.627674276934751	7.4651694	2.7322462
10.64527679843435	7.336281	2.708557
10.662879571852143	7.2799788	2.6981435
10.680482597614331	7.237744	2.6903055
10.698085876147173	7.1260815	2.6694722
10.715689407876988	6.9930444	2.6444366
10.733293193230146	6.885047	2.6239374
10.750897232633072	6.733268	2.594854
10.76850152651225	6.6117835	2.571339
10.786106075294207	6.4693246	2.5434866
10.803710879405534	6.417381	2.533255
10.821315939272877	6.3802133	2.5259085
10.83892125532294	6.2997837	2.509937
10.856526827982472	6.224648	2.4949245
10.874132657678285	6.202425	2.4904668
10.891738744837243	6.1594634	2.4818265
10.909345089886271	6.095546	2.468916
10.926951693252343	6.026863	2.454967
10.944558555362494	5.9895997	2.4473658
10.96216567664381	5.881512	2.4251828
10.979773057523436	5.82077	2.4126272
10.997380698428573	5.7896633	2.406172
11.014988599786477	5.7572536	2.399428
11.032596762024461	5.7657523	2.4011981
11.050205185569892	5.684845	2.3842914
11.067813870850198	5.6610155	2.379289
11.085422818292859	5.581721	2.3625665
11.10303202832541	5.486823	2.342397
11.120641501375454	5.4763002	2.3401496
11.138251237870636	5.399105	2.3235974
11.155861238238671	5.3511086	2.3132463
11.173471502907317	5.229288	2.2867637
11.191082032304402	5.153803	2.2701988
11.208692826857805	5.1096196	2.2604468
11.226303886995465	5.030872	2.2429605
11.243915213145371	4.9714117	2.2296662
11.261526805735578	4.9475045	2.2242987
11.279138665194196	4.8787484	2.2087889
11.296750791949393	4.7940836	2.1895397
11.314363186429393	4.7023983	2.1685014
11.331975849062479	4.7168336	2.1718273
11.34958878027699	4.7079926	2.169791
11.36720198050133	4.671712	2.1614144
11.384815450163948	4.6098623	2.147059
11.402429189693366	4.5814643	2.1404355
11.420043199518153	4.5166087	2.1252315
11.437657480066942	63.44338	7.965135
11.455272031768422	85.10786	9.225392
11.472886855051353	107.53346	10.369834
11.490501950344528	99.1645	9.9581375
11.508117318076819	84.55184	9.195208
11.52573295867715	45.951683	6.778767
11.543348872574514	4.2071247	2.0511277
11.560965060197946	4.1315203	2.0326142
11.57858152197655	4.0547304	2.013636
11.59619825833949	3.9937282	1.9984314
11.613815269715985	4.0006227	2.0001557
11.631432556535323	38.509857	6.2056313
11.649050119226837	83.06512	9.114007
11.666667958219929	93.43025	9.665933
11.68428607394406	107.69387	10.377565
11.701904466828756	82.52025	9.084065
11.719523137303586	65.359276	8.084508
11.737142085798196	4.567013	2.137057
11.754761312742286	3.7169821	1.9279476
11.772380818565619	3.6681058	1.9152299
11.790000603698015	3.6516967	1.9109414
11.80762066856935	3.6141074	1.9010806
11.825241013609572	3.5403738	1.8815881
11.842861639248683	3.4981425	1.8703322
11.860482545916748	3.4819348	1.8659943
11.878103734043883	3.4933753	1.8690573
11.895725204060282	3.4871955	1.8674034
11.91334695639619	3.4325256	1.8527076
11.930968991481919	3.3829157	1.8392705
11.948591309747824	3.315859	1.82095
11.966213911624347	3.2990236	1.8163215
11.98383679754198	3.2672617	1.8075569
12.001459967931268	3.266791	1.8074267
12.019083423222835	3.2359016	1.7988611
12.036707163847352	3.2174444	1.7937236
12.05433119023556	3.1637528	1.7786942
12.071955502818259	3.161416	1.7780372
12.089580102026313	3.148671	1.7744495
12.107204988290643	3.1487758	1.774479
12.12483016204224	3.1172493	1.7655734
12.142455623712152	3.1022463	1.7613195
12.16008137373149	3.0941057	1.759007
12.177707412531431	3.0843592	1.7562344
12.19533374054321	3.0844846	1.75627
12.212960358198126	3.0513597	1.7468141
12.230587265927545	3.0343032	1.7419251
12.248214464162889	2.9935887	1.730199
12.265841953335649	2.9811296	1.7265948
12.283469733877375	2.9115038	1.7063129
12.301097806219685	2.8855126	1.6986797
12.31872617079425	2.8982742	1.7024318
12.336354828032825	2.9406536	1.7148334
12.353983778367205	2.9239693	1.7099618
12.371613022229262	2.9149354	1.7073182
12.389242560050928	2.907615	1.705173
12.406872392264201	2.8888083	1.6996495
12.424502519301143	2.8646495	1.6925275
12.442132941593874	2.8237438	1.6803999
12.459763659574586	2.8271704	1.6814191
12.477394673675532	2.8325453	1.6830168
12.49502598432903	2.8178794	1.6786541
12.51265759196746	2.7938542	1.6714827
12.530289497023267	2.77156	1.6648003
12.547921699928967	2.7616227	1.661813
12.565554201117134	2.7555695	1.6599908
12.583187001020404	2.7141633	1.6474718
12.600820100071486	2.726349	1.651166
12.618453498703152	2.7625904	1.6621042
12.636087197348235	2.748579	1.6578839
12.65372119643964	2.7736936	1.6654409
12.671355496410326	2.7745714	1.6657045
12.68899009769333	2.837404	1.6844596
12.706625000721749	2.88242	1.6977692
12.724260205928752	2.9374287	1.7138928
12.741895713747551	2.9401188	1.7146775
12.759531524611454	2.9512205	1.7179117
12.777167638953818	2.9443917	1.715923
12.794804057208072	3.0227427	1.7386037
12.812440779807702	3.0519128	1.7469724
12.830077807186271	3.2364159	1.7990041
12.847715139777405	3.2400823	1.8000228
12.865352778014795	3.464646	1.861356
12.882990722332197	3.6096594	1.8999103
12.90062897316344	3.6827598	1.9190518
12.918267530942412	3.7590728	1.9388329
12.935906396103071	3.605969	1.8989389
12.953545569079449	3.754836	1.93774
12.971185050305628	3.5998495	1.897327
12.988824840215775	3.6359994	1.9068297
13.006464939244115	3.61477	1.9012548
13.024105347824943	3.4355252	1.8535169
13.041746066392617	3.5290163	1.8785676
13.05938709538157	3.3241715	1.8232311
13.077028435226296	3.31141	1.819728
13.094670086361363	3.2007759	1.7890712
13.112312049221401	3.1154597	1.7650665
13.129954324241112	3.0766687	1.7540436
13.147596911855258	2.8930144	1.7008864
13.165239812498685	2.8652823	1.6927145
13.182883026606293	2.7721057	1.6649642
13.200526554613058	2.6981218	1.642596
13.218170396954017	2.6506517	1.6280822
13.235814554064284	2.6740513	1.6352527
13.253459026379034	2.7198005	1.6491817
13.271103814333523	2.7234654	1.6502925
13.288748918363058	2.6969626	1.6422431
13.306394338903031	2.6649344	1.6324626
13.32404007638889	2.6551025	1.6294485
13.341686131256164	2.65175	1.6284195
13.359332503940449	2.6627274	1.6317866
13.376979194877402	2.6428328	1.6256791
13.394626204502751	2.6826699	1.6378858
13.412273533252307	2.684214	1.6383572
13.429921181561937	2.7234159	1.6502775
13.447569149867581	2.7279007	1.6516358
13.465217438605247	2.7144985	1.6475735
13.482866048211022	2.6736124	1.6351185
13.500514979121052	2.6751032	1.6355742
13.518164231771568	2.6677341	1.63332
13.535813806598844	2.6789918	1.6367626
13.553463704039254	2.6635742	1.632046
13.571113924529229	2.6642213	1.6322442
13.588764468505275	2.6992533	1.6429404
13.606415336403956	2.7248943	1.6507254
13.624066528661917	2.7575047	1.6605736
13.641718045715882	2.7929714	1.6712185
13.659369888002635	2.8282595	1.681743
13.67702205595903	2.8692005	1.6938715
13.694674550021993	2.9576616	1.7197853
13.712327370628532	3.0330265	1.7415587
13.729980518215713	3.11319	1.7644234
13.747633993220681	3.181988	1.7838128
13.765287796080647	3.2090228	1.7913746
13.7829419272329	3.2706685	1.808499
13.800596387114801	3.296634	1.8156635
13.818251176163775	3.3481288	1.8297893
13.835906294817324	3.3539345	1.831375
13.853561743513023	3.3672526	1.8350075
13.871217522688525	3.3960052	1.8428253
13.888873632781538	3.4408607	1.8549557
13.906530074229858	3.4886472	1.8677921
13.92418684747135	3.4833822	1.8663821
13.941843952943948	3.451425	1.8578012
13.959501391085665	3.4098113	1.8465674
13.977159162334578	3.3701196	1.8357885
13.994817267128846	3.335182	1.826248
14.012475705906693	3.2494562	1.8026248
14.030134479106424	3.1815667	1.7836946
14.047793587166414	3.1244664	1.767616
14.065453030525108	3.0420794	1.7441558
14.083112809621026	2.9721208	1.723984
14.100772924892766	2.84724	1.6873766
14.118433376778997	2.8128562	1.6771572
14.136094165718458	2.7492583	1.6580887
14.153755292149969	2.7291784	1.6520225
14.171416756512416	2.6903918	1.6402414
14.189078559244768	2.6297104	1.6216382
14.20674070078606	2.5807984	1.6064863
14.224403181575408	2.51166	1.5848218
14.242066002051999	2.4805124	1.5749643
14.259729162655093	2.4239624	1.5569079
14.277392663824022	2.368539	1.5390059
14.295056505998208	2.3539865	1.5342706
14.312720689617128	2.3456469	1.5315505
14.330385215120348	2.354042	1.5342888
14.348050082947497	2.343745	1.5309294
14.3657152935383	2.303147	1.5176123
14.383380847332528	2.2823915	1.5107586
14.401046744770051	2.2853093	1.511724
14.418712986290798	2.3413055	1.5301325
14.436379572334793	2.380533	1.5428976
14.454046503342123	2.3787365	1.5423152
14.471713779752946	2.3686814	1.5390521
14.489381402007504	2.3717258	1.5400409
14.507049370546113	2.3803043	1.5428236
14.524717685809168	2.3513489	1.5334109
14.542386348237134	2.3345451	1.5279218
14.560055358270553	2.3425455	1.5305376
14.577724716350051	2.377461	1.5419017
14.595394422916325	2.3930638	1.5469531
14.61306447841015	2.4593124	1.5682195
14.63073488327237	2.463155	1.5694442
14.648405637943917	2.4802551	1.5748826
14.6660767428658	2.427353	1.5579964
14.683748198479094	2.4804559	1.5749463
14.701420005224954	2.5304325	1.5907333
14.719092163544628	2.5974731	1.6116679
14.73676467387942	2.5869737	1.6084071
14.754437536670727	2.5828884	1.6071367
14.772110752360014	2.6177385	1.6179427
14.78978432138882	2.631671	1.6222426
14.807458244198777	2.6800041	1.6370718
14.82513252123159	2.6548653	1.6293757
14.842807152929028	2.6444945	1.6261902
14.860482139732962	2.61161	1.6160476
14.87815748208531	2.625879	1.6204565
14.8958331804281	2.6265333	1.6206583
14.91350923520342	2.5810335	1.6065595
14.931185646853438	2.6155937	1.6172798
14.948862415820408	2.6367877	1.6238189
14.966539542546656	2.666498	1.6329415
14.98421702747459	2.6347778	1.6231998
15.001894871046696	2.617085	1.6177408
15.019573073705542	2.5777652	1.6055421
15.037251635893766	2.571914	1.6037188
15.054930558054092	2.6125062	1.6163249
15.072609840629323	2.7086463	1.6457965
15.090289484062351	2.8613155	1.6915424
15.107969488796124	3.0972612	1.7599038
15.125649855273691	3.4401855	1.8547738
15.14333058393817	3.9198697	1.979866
15.161011675232768	4.9012384	2.213874
15.17869312960076	6.2513027	2.5002606
15.196374947485506	8.073184	2.8413348
15.214057129330447	11.061899	3.3259435
15.231739675579114	15.7433	3.9677827
15.249422586675102	20.92221	4.5740805
15.267105863062092	24.25673	4.9251122
15.284789505183847	24.74827	4.9747634
15.302473513484218	22.9004	4.785436
15.320157888407127	19.42238	4.407083
15.337842630396578	15.153764	3.8927836
15.355527739896656	11.746539	3.4273224
15.37321321735153	9.061593	3.010248
15.39089906320545	6.618166	2.5725796
15.408585277902748	4.9412932	2.222902
15.42627186188783	3.7756114	1.9430933
15.443958815605198	3.15182	1.7753366
15.461646139499424	2.8584194	1.6906861
15.479333834015168	2.738976	1.6549852
15.497021899597165	2.6930568	1.6410536
15.514710336690234	2.6277413	1.6210309
15.53239914573928	2.559245	1.5997641
15.550088327189297	2.4996507	1.5810283
15.567777881485336	2.4401934	1.5621119
15.58546780907256	2.41782	1.554934
15.6031581103962	2.430059	1.5588646
15.620848785901568	2.4492435	1.5650059
15.638539836034063	2.4511156	1.5656039
15.656231261239173	2.4332385	1.5598842
15.673923061962451	2.4203455	1.555746
15.691615238649552	2.3917117	1.546516
15.709307791746202	2.3572814	1.5353441
15.727000721698221	2.329285	1.5261995
15.744694028951498	2.3412242	1.530106
15.76238771395202	2.3325071	1.5272548
15.780081777145844	2.3388574	1.5293324
15.797776218979125	2.3099332	1.5198464
15.815471039898094	2.3258374	1.5250696
15.833166240349064	2.3171391	1.5222152
15.850861820778437	2.3367422	1.5286406
15.868557781632699	2.3423715	1.5304807
15.886254123358412	2.357076	1.5352771
15.903950846402232	2.4108315	1.5526853
15.921647951210897	2.4264517	1.5577072
15.939345438231225	2.425849	1.5575137
15.957043307910133	2.376689	1.5416514
15.974741560694602	2.386176	1.5447253
15.992440197031714	2.3805158	1.542892
16.01013921736862	2.361434	1.5366958
16.02783862215259	2.3384166	1.5291882
16.045538411830933	2.3534226	1.534087
16.06323858685107	2.3600326	1.5362397
16.080939147660512	2.3817775	1.5433009
16.09864009470684	2.3809223	1.5430237
16.11634142843774	2.3928032	1.5468688
16.134043149300954	2.38462	1.5442215
16.15174525774433	2.370307	1.5395801
16.169447754215817	2.3398736	1.5296645
16.18715063916342	2.3609352	1.5365335
16.204853913035244	2.3844478	1.5441657
16.222557576279478	2.4233787	1.5567205
16.240261629344403	22.415295	4.7344794
16.257966072678386	42.967827	6.554985
16.275670906729868	38.07355	6.170377
16.293376131947387	2.4870934	1.5770521
16.31108174877957	2.5031116	1.5821224
16.328787757675133	2.492819	1.5788664
16.34649415908287	2.5410585	1.5940698
16.364200953451657	2.5614989	1.6004683
16.38190814123048	2.618135	1.6180652
16.39961572286839	2.626463	1.6206366
16.41732369881455	2.648955	1.6275611
16.43503206951817	2.7045784	1.6445602
16.45274083542859	2.734903	1.6537542
16.47044999699522	2.7400048	1.655296
16.488159554667558	2.7368538	1.654344
16.505869508895184	2.7744682	1.6656735
16.523579860127786	2.7672346	1.6635007
16.541290608815117	2.8312862	1.6826426
16.559001755407035	2.913557	1.7069144
16.57671330035348	3.0407763	1.7437822
16.59442524410448	3.1264815	1.768186
16.61213758711015	3.2242963	1.7956326
16.629850329820705	3.2686782	1.8079486
16.647563472686436	3.3214219	1.8224769
16.665277016157724	3.345557	1.8290864
16.682990960685053	3.3970208	1.8431009
16.70070530671898	3.4484499	1.8570002
16.718420054710155	3.5091286	1.8732668
16.736135205109335	3.5582108	1.886322
16.753850758367335	3.5986428	1.8970089
16.771566714935087	3.6475866	1.9098656
16.789283075263597	3.7011652	1.9238412
16.80699983980398	3.7819443	1.9447222
16.82471700900741	3.850148	1.9621794
16.84243458332518	3.8752146	1.9685565
16.860152563208665	3.9063437	1.9764472
16.87787094910932	3.9372022	1.9842385
16.89558974147871	4.0153146	2.003825
16.913308940768466	4.055497	2.0138266
16.931028547430333	4.152771	2.037835
16.94874856191613	4.2491193	2.0613391
16.966468984677785	4.313557	2.0769105
16.98418981616729	4.3434772	2.084101
17.00191105683676	4.4166884	2.1015918
17.019632707138374	4.4488316	2.1092253
17.03735476752442	4.489556	2.1188571
17.05507723844728	4.4951797	2.120184
17.072800120359403	4.5173283	2.1254008
17.090523413713353	4.571152	2.1380253
17.108247118961785	4.6562257	2.157829
17.125971236557437	4.7109613	2.170475
17.143695766953133	4.676257	2.1624656
17.161420710601806	4.6307735	2.1519232
17.179146067956477	4.6817427	2.1637335
17.19687183947025	4.6780906	2.1628895
17.21459802559634	4.6619263	2.1591494
17.232324626788028	4.6207047	2.1495824
17.25005164349871	4.602352	2.1453094
17.267779076181863	4.582741	2.1407337
17.285506925291074	4.59036	2.1425126
17.30323519127999	4.601041	2.1450038
17.320963874602384	4.5651975	2.1366322
17.33869297571211	4.560574	2.13555
17.356422495063114	4.4913917	2.1192904
17.37415243310944	4.4430223	2.1078477
17.391882790305218	4.4422307	2.10766
17.40961356710468	4.4708424	2.1144366
17.42734476396215	4.477532	2.1160178
17.445076381332044	4.432223	2.1052845
17.462808419668868	4.4702463	2.1142957
17.48054087942723	4.599424	2.1446269
17.498273761061835	4.939148	2.2224195
17.51600706502747	5.383306	2.3201952
17.533740791779024	6.037694	2.457172
17.551474941771485	7.3629727	2.7134798
17.56920951545993	8.462119	2.9089723
17.586944513299528	10.838599	3.2922027
17.60467993574556	12.71611	3.5659657
17.622415783253373	14.690164	3.8327749
17.64015205627843	16.248203	4.030906
17.657888755276293	17.37303	4.1680965
17.675625880702604	17.904646	4.231388
17.69336343301311	17.74818	4.212859
17.71110141266366	16.78985	4.097542
17.728839820110178	15.634837	3.9540913
17.746578655808705	14.570399	3.8171191
17.764317920215372	12.932708	3.5962074
17.7820576137864	11.313848	3.3636062
17.79979773697811	9.264142	3.0437052
17.81753829024692	7.3698854	2.7147534
17.835279274049356	5.724032	2.392495
17.85302068884201	4.729131	2.1746566
17.870762535081607	4.086845	2.0215948
17.888504813224934	3.7614684	1.9394505
17.90624752372891	3.5993724	1.8972012
17.923990667050536	3.5603132	1.8868792
17.941734243646895	3.4990253	1.8705682
17.959478253975185	3.4213104	1.8496785
17.9772226984927	3.3880768	1.840673
17.994967577656833	3.4066076	1.8456998
18.01271289192506	3.4070914	1.8458308
18.030458641754965	3.3786314	1.8381053
18.04820482760425	3.3336542	1.8258297
18.06595144993067	3.3220775	1.8226568
18.083698509192125	3.3157363	1.8209163
18.101446005846576	3.2841892	1.8122332
18.119193940352105	3.2263215	1.7961963
18.136942313166887	3.2034428	1.7898164
18.1546911247492	3.159583	1.7775216
18.1724403755574	3.1476672	1.7741666
18.19019006604997	3.1165392	1.7653723
18.207940196685467	3.1098945	1.7634892
18.225690767922575	3.0626705	1.7500488
18.243441780220046	3.0486765	1.746046
18.261193234036764	3.041225	1.7439108
18.278945129831676	3.0385072	1.7431314
18.29669746806386	3.035084	1.7421492
18.314450249192483	3.0287125	1.7403196
18.3322034736768	3.0548537	1.7478139
18.349957141976184	3.0228813	1.7386435
18.3677112545501	3.0138888	1.7360555
18.385465811858108	3.0132263	1.7358648
18.403220814359884	3.0041468	1.7332475
18.420976262515172	3.0127673	1.7357326
18.43873215678387	3.0078583	1.7343178
18.456488497625923	3.079822	1.7549422
18.474245285501407	3.1671407	1.7796463
18.492002520870486	3.2874968	1.8131455
18.50976020419343	3.3718	1.8362461
18.527518335930615	3.6427145	1.9085897
18.545276916542516	4.1513677	2.0374906
18.563035946489688	4.3214974	2.0788212
18.580795426232832	4.8360696	2.1991065
18.598555356232698	4.759918	2.1817236
18.616315736950185	4.9989696	2.2358375
18.63407656884626	4.6189694	2.1491787
18.65183785238201	4.766008	2.1831188
18.669599588018617	4.540857	2.1309285
18.68736177621737	4.5366707	2.1299462
18.705124417439652	4.521032	2.1262717
18.72288751214696	4.362316	2.088616
18.740651060800886	4.5176005	2.1254647
18.758415063863115	4.248309	2.0611427
18.77617952179546	4.398052	2.0971534
18.793944435059814	4.163088	2.0403647
18.811709804118184	4.192544	2.0475702
18.829475629432675	4.1264553	2.0313678
18.8472419114655	3.9371455	1.9842242
18.86500865067897	4.0469637	2.0117066
18.88277584753551	3.765105	1.9403878
18.90054350249763	3.7670236	1.9408822
18.918311616027957	3.3873389	1.8404725
18.936080188589226	3.2603965	1.8056568
18.953849220644265	2.9464839	1.7165325
18.971618712656007	2.8077617	1.6756377
18.9893886650875	2.7820163	1.6679378
19.007159078401887	7.9762745	2.82423
19.024929953062408	32.858696	5.7322507
19.042701289532435	32.78395	5.725727
19.060473088275405	25.34064	5.033949
19.07824534975489	2.5872495	1.608493
19.096018074434568	2.5666451	1.6020752
19.113791262778197	2.576403	1.6051177
19.13156491524966	2.583718	1.6073948
19.149339032312945	2.5589626	1.5996758
19.167113614432136	2.5260148	1.5893441
19.184888662071433	2.5120487	1.5849444
19.202664175695123	2.5310168	1.590917
19.220440155767623	2.529622	1.5904785
19.238216602753447	2.546802	1.5958703
19.2559935171172	2.5387132	1.593334
19.27377089932361	2.572035	1.6037565
19.291548749837514	2.574142	1.6044133
19.309327069123835	2.5765114	1.6051515
19.32710585764763	2.542616	1.5945582
19.344885115874032	2.5224745	1.58823
19.362664844268313	2.502294	1.5818641
19.380445043295822	2.4794939	1.5746409
19.39822571342203	2.4643204	1.5698154
19.41600685511252	2.4670398	1.5706813
19.43378846883297	2.4878004	1.5772762
19.451570555049173	2.5021892	1.581831
19.469353114227037	2.4811447	1.5751649
19.48713614683254	2.4910815	1.578316
19.50491965333182	2.490361	1.5780878
19.52270363419109	2.4697585	1.5715466
19.540488089876686	2.4404275	1.5621868
19.55827302085503	2.4270754	1.5579073
19.576058427592674	2.4513183	1.5656686
19.593844310556282	2.4710672	1.5719628
19.611630670212598	2.4595385	1.5682915
19.629417507028506	2.4624557	1.5692214
19.64720482147098	2.4778693	1.5741249
19.6649926140071	2.4989686	1.5808127
19.682780885104084	2.5180714	1.5868433
19.70056963522921	2.4903512	1.5780847
19.718358864849908	2.4792807	1.5745732
19.7361485744337	2.491542	1.5784619
19.753938764448215	2.5353165	1.5922678
19.771729435361202	2.5359523	1.5924674
19.789520587640506	2.4955332	1.5797256
19.807312221754092	2.4327195	1.5597178
19.825104338170043	2.4464743	1.5641209
19.842896937356517	2.504586	1.5825884
19.860690019781824	2.535745	1.5924022
19.87848358591436	2.559394	1.5998106
19.896277636222635	2.5328074	1.5914797
19.914072171175278	2.5264702	1.5894874
19.931867191241015	2.4567373	1.5673983
19.94966269688869	2.4632602	1.5694777
19.967458688587264	2.4664202	1.570484
19.985255166805807	2.495707	1.5797807
20.00305213201348	2.4765902	1.5737185
20.020849584679578	2.4575138	1.5676459
20.038647525273507	2.4931247	1.5789632
20.05644595426477	2.480091	1.5748305
20.07424487212299	2.4550374	1.5668559
20.092044279317903	2.4000404	1.5492064
20.109844176319353	2.36348	1.5373614
20.127644563597304	2.3548305	1.5345457
20.145445441621817	2.3873549	1.5451068
20.16324681086307	2.403566	1.5503438
20.181048671791373	2.394022	1.5472628
20.198851024877122	2.3802028	1.5427905
20.216653870590836	2.387286	1.5450845
20.234457209403146	2.3527904	1.5338808
20.252261041784802	2.3474183	1.5321287
20.270065368206662	2.3305736	1.5266216
20.287870189139685	2.3198647	1.5231103
20.305675505054968	2.3196568	1.523042
20.323481316423702	2.3022647	1.5173216
20.341287623717207	2.2753408	1.5084233
20.359094427406884	2.2667124	1.5055605
20.376901727964288	2.3132193	1.5209271
20.39470952586107	2.342509	1.5305257
20.41251782156899	2.3122113	1.5205957
20.430326615559935	2.2885067	1.5127811
20.448135908305886	2.3149135	1.521484
20.465945700278965	2.3501441	1.533018
20.483755991951384	2.3451912	1.5314018
20.50156678379548	2.3161678	1.5218961
20.519378076283708	2.3077967	1.5191435
20.537189869888635	2.3035426	1.5177426
20.55500216508294	2.2876744	1.512506
20.572814962339415	2.2875512	1.5124652
20.59062826213098	2.307917	1.519183
20.60844206493066	2.338635	1.5292596
20.626256371211593	2.31429	1.5212791
20.644071181447032	2.2947075	1.5148292
20.66188649611036	2.2570653	1.5023533
20.67970231567506	2.2658503	1.5052742
20.697518640614742	2.2738373	1.5079248
20.715335471403122	2.2981155	1.5159537
20.73315280851404	2.2953503	1.5150414
20.750970652421447	2.262947	1.5043095
20.768789003599412	2.2670777	1.5056818
20.786607862522136	2.2455642	1.4985207
20.8044272296639	2.2267504	1.49223
20.82224710549913	2.1794794	1.476306
20.84006749050237	2.192042	1.4805547
20.857888385148268	3.7778158	1.9436604
20.8757097899116	45.92856	6.777061
20.893531705267254	64.795784	8.0495825
20.911354131690224	83.81332	9.154962
20.92917706965566	69.06249	8.310385
20.94700051963877	50.14054	7.0809984
20.96482448211493	29.420082	5.4240284
20.982648957559622	4.1315455	2.0326204
21.00047394644843	2.1971097	1.4822651
21.01829944925707	2.2050464	1.4849398
21.036125466461375	2.2360764	1.4953516
21.053951998537297	2.2353494	1.4951085
21.071779045960906	2.2059495	1.4852439
21.089606609208378	2.2137036	1.487852
21.10743468875603	2.2240725	1.4913324
21.12526328508028	2.2072856	1.4856937
21.143092398657675	2.1889622	1.4795142
21.16092202996488	2.172418	1.4739125
21.17875217947867	2.1710944	1.4734634
21.19658284767596	2.1751037	1.4748232
21.21441403503377	2.1723819	1.4739002
21.232245742029225	2.1884427	1.4793386
21.2500779691396	2.1866643	1.4787375
21.26791071684227	2.1870966	1.4788835
21.28574398561475	2.1878152	1.4791265
21.30357777593465	2.1607003	1.4699321
21.321412088279704	2.1640217	1.4710615
21.339246923127792	2.1659744	1.471725
21.357082280956888	2.1386757	1.4624212
21.3749181622451	2.1269376	1.4584024
21.392754567470647	2.1378384	1.4621348
21.41059149711187	2.1519663	1.4669582
21.42842895164726	2.1542785	1.467746
21.446266931555378	2.1404362	1.463023
21.464105437314945	2.1336327	1.460696
21.481944469404798	2.1017966	1.4497575
21.49978402830388	2.0881479	1.4450425
21.51762411449127	2.0924473	1.4465294
21.53546472844617	2.1310833	1.459823
21.553305870647876	2.1193721	1.4558064
21.571147541575865	2.085202	1.4440229
21.58898974170967	2.0673602	1.4378318
21.60683247152899	2.0618315	1.4359078
21.62467573151363	2.0694995	1.4385755
21.642519522143523	2.0738401	1.4400834
21.660363843898722	2.0593297	1.4350365
21.6782086972594	2.0433717	1.4294655
21.696054082705864	2.0631819	1.436378
21.713900000718535	2.0335095	1.4260118
21.73174645177795	1.9978846	1.4134655
21.749593436364794	1.9912541	1.411118
21.767440954959845	2.002812	1.4152074
21.785289008044032	2.0206866	1.4215086
21.803137596098388	2.0483456	1.4312042
21.820986719604086	2.0525413	1.4326693
21.838836379042412	2.013231	1.4188837
21.85668657489478	1.9736464	1.4048653
21.87453730764273	1.9634467	1.4012305
21.892388577767914	1.9783896	1.4065524
21.91024038575213	2.0111356	1.4181451
21.928092732077285	2.0368807	1.4271933
21.945945617225426	2.0463274	1.430499
21.963799041678694	2.0132587	1.4188935
21.981653005919398	31.31341	5.5958385
21.999507510429943	78.09721	8.837263
22.01736255569286	73.0502	8.546941
22.035218142190818	4.1477375	2.0365994
22.05307427040661	2.004883	1.415939
22.07093094082315	1.9956648	1.41268
22.088788153923474	2.0060725	1.416359
22.106645910190746	2.0023663	1.4150499
22.12450421010827	1.9525406	1.3973334
22.142363054159464	1.9181497	1.3849728
22.16022244282787	1.9394934	1.3926569
22.178082376597164	2.0158715	1.4198139
22.195942855951145	2.0203714	1.4213977
22.213803881373742	1.9785581	1.4066123
22.231665453349002	1.9460175	1.3949974
22.24952757236111	1.9484426	1.3958663
22.26739023889438	1.9347347	1.3909475
22.28525345343323	1.9481667	1.3957675
22.30311721646225	1.9538233	1.3977923
22.320981528466113	1.9280064	1.3885267
22.33884638992964	1.8740304	1.3689523
22.356711801337788	1.8635299	1.3651117
22.37457776317561	1.8789049	1.3707316
22.392444275928337	1.9265568	1.3880047
22.410311340081282	1.9156698	1.3840772
22.428178956119904	1.9163748	1.384332
22.446047124529805	1.9178673	1.3848709
22.46391584579669	1.9809384	1.4074582
22.481785120406414	1.9697418	1.4034749
22.49965494884496	1.9926828	1.4116242
22.51752533159841	1.9844656	1.4087106
22.53539626915302	1.9511292	1.3968283
22.553267761995137	1.906966	1.3809294
22.571139810611264	1.877834	1.3703408
22.589012415488025	1.908451	1.381467
22.60688557711216	1.946662	1.3952283
22.624759295970566	1.9736844	1.4048789
22.642633572550263	1.9657459	1.4020506
22.660508407338362	1.996087	1.4128294
22.67838380082217	1.9556323	1.3984393
22.696259753489077	1.9405236	1.3930268
22.714136265826614	1.8990477	1.3780594
22.73201333832246	1.8971586	1.3773738
22.74989097146439	1.905024	1.3802261
22.76776916574035	1.9209906	1.385998
22.785647921638393	1.9212356	1.3860865
22.803527239646712	1.8863928	1.3734602
22.82140712025363	1.8897341	1.374676
22.839287563947593	1.8778625	1.3703512
22.85716857121719	1.9163179	1.3843113
22.875050142551135	1.9185431	1.3851148
22.892932278438277	1.8879687	1.3740337
22.910814979367604	1.8531189	1.3612931
22.928698245828222	1.8895493	1.3746088
22.946582078309387	1.93028	1.3893452
22.96446647730047	1.919532	1.3854717
22.98235144329098	1.8760062	1.3696737
23.000236976770562	1.8883476	1.3741716
23.018123078229	1.9357498	1.3913122
23.03600974815619	1.9561952	1.3986405
23.053896987042194	1.9326888	1.3902118
23.071784795377173	1.9198749	1.3855956
23.08967317365145	1.9271965	1.388235
23.10756212235546	1.9080178	1.3813101
23.125451641979787	1.9245415	1.3872784
23.143341733015134	1.9187107	1.3851753
23.161232395952357	1.9109832	1.3823831
23.179123631282426	1.9316716	1.3898458
23.197015439496468	1.9535398	1.3976909
23.214907821085717	1.9495494	1.3962626
23.23280077654157	1.9469754	1.3953406
23.250694306355538	1.9523917	1.3972801
23.268588411019277	1.9303559	1.3893725
23.28648309102458	1.9320107	1.3899679
23.304378346863356	1.9431396	1.3939654
23.322274179027676	1.9521182	1.3971822
23.340170588009723	1.9336106	1.3905432
23.358067574301852	1.9248344	1.387384
23.37596513839651	1.9405735	1.3930447
23.39386328078629	1.9496108	1.3962847
23.411762001963947	1.9438835	1.3942323
23.429661302422353	1.9728434	1.4045794
23.4475611826545	2.0120869	1.4184805
23.46546164315356	2.0037398	1.4155352
23.48336268441279	1.9770856	1.4060887
23.501264306925638	1.9655007	1.4019631
23.51916651118564	1.9561048	1.3986082
23.537069297686497	1.9218321	1.3863016
23.554972666922037	1.9036065	1.3797125
23.57287661938623	1.8746396	1.3691748
23.59078115557318	1.8926675	1.3757426
23.608686275977128	1.918624	1.385144
23.62659198109246	1.9127265	1.3830136
23.6444982714137	1.9127985	1.3830396
23.66240514743549	1.9049145	1.3801864
23.68031260965263	1.9194442	1.3854401
23.698220658560068	1.9225423	1.3865577
23.716129294652845	1.9206676	1.3858815
23.7340385184262	1.9470136	1.3953543
23.75194833037546	1.9469585	1.3953346
23.769858730996123	1.9374794	1.3919337
23.78776972078382	1.8870022	1.373682
23.80568130023431	1.8733919	1.3687191
23.823593469843495	1.8911021	1.3751734
23.841506230107424	1.9059435	1.3805591
23.859419581522275	1.8884841	1.3742213
23.87733352458438	1.839847	1.3564095
23.89524805979019	1.8460243	1.3586848
23.913163187636318	1.911907	1.3827173
23.931078908619508	1.9913235	1.4111426
23.948995223236633	2.0492873	1.4315332
23.966912131984735	2.0158424	1.4198036
23.98482963536096	2.0169914	1.4202082
24.002747733862616	1.9821765	1.407898
24.020666427987155	2.006561	1.4165313
24.038585718232156	2.0188792	1.4208727
24.056505605095353	2.0418067	1.428918
24.074426089074617	2.0301344	1.4248278
24.092347170667946	2.0580497	1.4345905
24.110268850373515	2.0629869	1.4363102
24.128191128689586	2.0690055	1.4384038
24.146114006114626	2.0436444	1.4295609
24.164037483147187	2.0615435	1.4358076
24.181961560286005	2.0410604	1.4286568
24.199886238029926	2.022264	1.4220632
24.21781151687797	2.0264504	1.4235345
24.235737397329274	2.0722663	1.4395368
24.253663879883135	2.082058	1.4429338
24.271590965038975	2.0781152	1.441567
24.289518653296376	2.055498	1.4337008
24.30744694515505	2.0397243	1.4281892
24.32537584111486	1.9981289	1.4135519
24.34330534167581	1.9726533	1.4045118
24.361235447338046	2.001028	1.414577
24.379166158601876	2.051594	1.4323386
24.39709747596772	2.071774	1.4393659
24.41502939993615	2.0102668	1.4178388
24.432961931007917	1.9415045	1.3933789
24.450895069683856	1.9369688	1.3917502
24.468828816465	1.9592242	1.3997229
24.4867631718525	2.0072908	1.4167889
24.504698136347656	2.0236604	1.4225541
24.52263371045192	1.9920529	1.411401
24.540569894666874	1.9687182	1.4031101
24.558506689494266	1.9432322	1.3939986
24.57644409543597	1.9755735	1.405551
24.594382112994012	1.9759977	1.4057019
24.61232074267057	1.982996	1.4081889
24.630259984967953	1.962057	1.4007344
24.64819984038863	1.9465195	1.3951772
24.66614030943522	1.9171976	1.384629
24.684081392610462	1.9196529	1.3855155
24.702023090417274	1.9122965	1.3828582
24.7199654033587	1.932629	1.3901902
24.737908331937927	1.9753865	1.4054844
24.755851876658305	2.0086195	1.4172578
24.773796038023324	1.9841279	1.4085908
24.79174081653661	2.015449	1.4196651
24.809686212701962	2.0515423	1.4323206
24.827632227023294	2.0710106	1.4391006
24.8455788600047	2.043122	1.4293782
24.8635261121504	2.1005044	1.4493117
24.88147398396475	2.187798	1.4791207
24.899422475952303	2.203437	1.4843979
24.917371588617698	2.1564875	1.4684983
24.935321322465768	2.1147037	1.454202
24.953271678001478	2.190408	1.4800026
24.97122265572994	2.4115686	1.5529226
24.989174256156414	2.825566	1.680942
25.00712647978632	3.3594873	1.8328904
25.02507932712521	3.931839	1.9828866
25.043032798678798	4.3971252	2.0969324
25.060986894952933	5.0597243	2.2493832
25.078941616453637	5.8918834	2.4273202
25.096896963687055	6.97312	2.6406667
25.114852937159508	8.094425	2.8450704
25.132809537377444	8.475605	2.9112892
25.150766764847468	8.367409	2.8926473
25.168724620076347	7.685063	2.7721946
25.186683103570985	6.7258134	2.5934174
25.204642215838426	5.6504908	2.3770761
25.222601957385894	4.340682	2.0834303
25.24056232872074	3.2759862	1.8099686
25.25852333035048	2.597826	1.6117773
25.276484962782778	2.2273383	1.492427
25.294447226525435	2.0021298	1.4149663
25.312410122086423	1.9014618	1.378935
25.330373649973843	1.909845	1.3819714
25.348337810695988	1.9312735	1.3897027
25.366302604761245	1.9775938	1.4062694
25.384268032678207	1.9617915	1.4006397
25.40223409495558	1.910447	1.3821892
25.420200792102257	1.9416766	1.3934406
25.438168124627246	1.9548289	1.398152
25.45613609303974	1.9330333	1.3903357
25.474104697849057	1.9091421	1.3817171
25.492073939564698	1.8810266	1.3715053
25.510043818696285	1.9044251	1.380009
25.528014335753614	1.9309838	1.3895984
25.54598549124664	1.9237181	1.3869816
25.56395728568544	1.9056381	1.3804485
25.58192971958028	1.8930522	1.3758824
25.59990279344156	1.8626207	1.3647786
25.617876507779833	1.8432015	1.3576456
25.635850863105826	1.8547628	1.3618968
25.653825859930386	1.8386734	1.3559769
25.671801498764548	1.8100262	1.3453721
25.68977778011949	1.8052105	1.3435812
25.707754704506524	1.8132759	1.3465793
25.725732272437153	1.8064824	1.3440545
25.743710484423012	1.778693	1.3336765
25.761689340975888	1.8084599	1.3447899
25.77966884260774	1.8128762	1.3464309
25.797648989830662	1.7978164	1.3408267
25.815629783156922	1.796515	1.3403413
25.83361122309895	1.8561126	1.3623922
25.85159331016929	1.9016826	1.3790151
25.869576044880695	1.9024796	1.379304
25.887559427746034	1.8991327	1.3780903
25.90554345927836	1.8676108	1.3666056
25.92352813999086	1.8886902	1.3742963
25.94151347039689	1.8787091	1.3706601
25.959499451009965	1.8474548	1.3592111
25.97748608234374	1.8344238	1.354409
25.995473364912062	1.826075	1.3513234
26.013461299228904	1.8106279	1.3455957
26.03144988580839	1.8493316	1.3599013
26.04943912516483	1.8554908	1.362164
26.067429017812675	1.8474834	1.3592216
26.085419564266537	1.8309054	1.3531096
26.103410765041186	1.84932	1.359897
26.12140262065155	1.8441725	1.3580031
26.139395131612723	1.8477162	1.3593073
26.157388298439948	1.8089194	1.3449608
26.17538212164861	1.787036	1.3368007
26.193376601754295	1.7859449	1.3363925
26.211371739272714	1.8005311	1.3418387
26.229367534719746	1.799051	1.3412871
26.247363988611433	1.7650908	1.3285673
26.26536110146397	1.7496701	1.3227509
26.283358873793727	1.7519143	1.323599
26.301357306117204	1.7983927	1.3410417
26.319356398951104	1.825305	1.3510385
26.33735615281224	1.8376224	1.3555893
26.35535656821762	1.8360837	1.3550216
26.373357645684404	1.7996684	1.3415172
26.39135938572991	1.8115922	1.3459541
26.409361788871614	1.7943982	1.3395514
26.427364855627165	1.7815307	1.3347399
26.445368586514352	1.7761679	1.3327295
26.46337298205115	1.7964116	1.3403028
26.48137804275568	1.8237523	1.3504637
26.499383769146217	1.7948184	1.3397083
26.517390161741215	1.7702397	1.3305036
26.53539722105928	1.7515949	1.3234783
26.553404947619182	1.7859589	1.3363978
26.571413341939856	1.816917	1.3479307
26.589422404540397	1.7942001	1.3394775
26.60743213594006	1.7582883	1.3260046
26.62544253665827	1.7507764	1.3231691
26.64345360721459	1.7983308	1.3410186
26.66146534812879	1.8437667	1.3578537
26.679477759920758	1.8526355	1.3611156
26.69749084311057	1.8128254	1.3464121
26.71550459821847	1.8061666	1.343937
26.733519025764842	1.7859858	1.3364078
26.751534126270258	1.751921	1.3236016
26.769549900255434	1.7498248	1.3228095
26.787566348241267	1.7691542	1.3300955
26.80558347074881	1.8174733	1.348137
26.823601268299267	1.843703	1.3578303
26.841619741414036	1.8421228	1.3572482
26.85963889061465	1.8630952	1.3649524
26.877658716422832	1.8231547	1.3502425
26.89567921936045	1.8076751	1.344498
26.913700399949544	1.7837163	1.3355584
26.93172225871233	1.7859882	1.3364087
26.949744796171174	1.7851015	1.336077
26.967768012848605	1.7775425	1.333245
26.98579190926733	1.7688076	1.3299652
27.003816485950225	1.8059825	1.3438685
27.021841743420318	1.8350879	1.3546542
27.039867682200814	1.8639803	1.3652767
27.057894302815072	1.8102653	1.345461
27.07592160578664	1.7848446	1.3359808
27.0939495916392	1.7433217	1.3203491
27.111978260896635	1.7384726	1.3185115
27.13000761408296	1.7628053	1.3277068
27.148037651722397	1.8024168	1.3425412
27.166068374339304	1.8325526	1.353718
27.184099782458215	1.8328794	1.3538388
27.20213187660384	1.7971755	1.3405877
27.22016465730105	1.8118731	1.3460584
27.23819812507487	1.8298422	1.3527166
27.256232280450533	1.7877373	1.337063
27.274267123953383	1.796954	1.3405051
27.292302656108987	1.8247727	1.3508415
27.31033887744306	1.8342079	1.3543293
27.32837578848146	1.8270547	1.3516859
27.34641338975026	1.8286589	1.3522792
27.364451681775673	1.8419279	1.3571764
27.382490665084074	1.8407629	1.3567472
27.400530340202046	1.8573408	1.3628429
27.41857070765629	1.8515098	1.3607019
27.436611767973726	1.8058957	1.3438362
27.454653521681404	1.7999731	1.3416308
27.472695969306564	1.8353567	1.3547534
27.490739111376627	1.8310577	1.3531657
27.508782948419153	1.8085821	1.3448353
27.526827480961902	1.8050027	1.3435038
27.54487270953279	1.8356483	1.354861
27.562918634659898	1.8259541	1.3512787
27.580965256871508	1.8124809	1.3462842
27.599012576696026	1.8237498	1.3504628
27.617060594662068	1.8390535	1.3561171
27.63510931129842	1.8143628	1.3469828
27.65315872713401	1.7941751	1.3394682
27.67120884269797	1.8036877	1.3430144
27.68925965851958	1.8095921	1.3452108
27.707311175128307	1.804929	1.3434764
27.725363393053787	1.7730649	1.3315648
27.74341631282583	1.8169513	1.3479433
27.7614699349744	1.88126	1.3715904
27.77952426002968	2.0468564	1.4306839
27.797579288521973	2.0500274	1.4317917
27.815635020981784	2.343822	1.5309546
27.83369145793979	2.361728	1.5367914
27.85174859992682	2.2941723	1.5146525
27.869806447473923	2.189497	1.4796948
27.887865001112267	1.9783375	1.4065338
27.905924261373233	1.8961818	1.3770192
27.92398422878836	1.8677945	1.3666728
27.94204490388936	1.8694155	1.3672657
27.96010628720813	1.8918738	1.3754541
27.978168379276728	1.864234	1.3653696
27.9962311806274	1.8404627	1.3566365
28.014294691792568	1.8682818	1.3668511
28.0323589133048	1.8500849	1.3601782
28.050423845696887	1.8523396	1.3610069
28.068489489501758	1.8376046	1.3555827
28.086555845252523	1.8364935	1.3551729
28.104622913482487	1.8602682	1.3639165
28.122690694725115	1.9044875	1.3800317
28.14075918951405	1.8751909	1.3693761
28.15882839838312	1.8503559	1.3602779
28.176898321866304	1.8385284	1.3559234
28.1949689604978	1.8560607	1.3623732
28.213040314811945	1.9048796	1.3801738
28.23111238534327	1.9034009	1.379638
28.249185172626493	1.8795145	1.3709538
28.267258677196473	1.9480201	1.3957149
28.285332899588294	1.9960405	1.412813
28.303407840337172	1.975693	1.4055935
28.321483499978545	1.9344752	1.3908541
28.33955987904799	1.9236224	1.3869472
28.357636978081285	1.9058937	1.3805411
28.37571479761439	1.9049823	1.380211
28.393793338183425	1.9062316	1.3806635
28.41187260032469	1.9471359	1.3953981
28.429952584574686	1.9869518	1.4095927
28.448033291470065	1.9246775	1.3873274
28.46611472154769	1.8774377	1.3701962
28.484196875344566	1.9044251	1.380009
28.502279753397914	1.9644139	1.4015754
28.52036335624511	2.0409472	1.4286172
28.538447684423716	2.0242403	1.422758
28.556532738471482	1.991067	1.4110518
28.574618518926325	1.98184	1.4077784
28.59270502632635	2.054368	1.4333067
28.61079226120985	2.0430229	1.4293435
28.628880224115274	2.0186203	1.4207816
28.646968915581287	1.9724001	1.4044216
28.66505833614671	2.0153067	1.419615
28.68314848635055	2.0405755	1.4284872
28.701239366732004	2.0273778	1.4238602
28.71933097783044	1.9951378	1.4124935
28.737423320185403	2.0574532	1.4343826
28.75551639433665	2.1025403	1.4500139
28.773610200824074	2.1119263	1.4532468
28.791704740187793	2.1417384	1.463468
28.80980001296809	2.1500976	1.4663211
28.827896019705413	2.1559997	1.4683323
28.845992760940433	2.1662164	1.4718071
28.86409023721397	2.1445036	1.4644123
28.88218844906704	2.1572976	1.4687742
28.900287397040845	2.231369	1.4937768
28.918387081676755	2.276519	1.5088137
28.936487503516343	2.2766173	1.5088464
28.954588663101365	2.2693253	1.506428
28.97269056097374	2.2479467	1.4993154
28.990793197675597	2.2959442	1.5152373
29.00889657374923	2.3458946	1.5316314
29.027000689737125	2.359518	1.5360723
29.04510554618196	2.3596368	1.5361109
29.06321114362659	2.4053714	1.550926
29.08131748261405	2.4450493	1.5636654
29.099424563687567	2.4147608	1.5539501
29.11753238739057	2.4653878	1.5701554
29.13564095426663	2.51771	1.5867293
29.15375026485954	2.5884933	1.6088796
29.171860319713275	2.6233296	1.6196696
29.18997111937199	2.6483064	1.6273618
29.20808266438002	2.6673553	1.633204
29.226194955281898	2.699291	1.642952
29.244307992622335	2.6787963	1.6367029
29.26242177694624	2.694452	1.6414787
29.2805363087987	2.811461	1.6767411
29.29865158872498	2.9192145	1.7085708
29.316767617270557	2.977046	1.7254119
29.334884394981064	2.9436893	1.7157183
29.353001922402367	2.9570215	1.7195992
29.37112020008047	2.9623966	1.7211614
29.389239228561596	3.1126397	1.7642674
29.407359008392152	3.331032	1.8251115
29.42547954011872	3.7598827	1.9390417
29.44360082428809	4.2984757	2.0732765
29.46172286144722	5.3157573	2.3055925
29.479845652143283	6.957342	2.6376774
29.497969196923606	9.212782	3.0352564
29.516093496335728	11.86992	3.445275
29.5342185509274	14.686321	3.8322737
29.55234436124651	17.176147	4.1444116
29.570470927841175	18.708965	4.325386
29.588598251259686	18.59847	4.3125944
29.60672633205055	17.275595	4.156392
29.624855170762405	15.023679	3.876039
29.642984767944146	12.138806	3.484079
29.66111512414481	9.153872	3.0255365
29.67924623991366	6.7744265	2.602773
29.697378115800138	5.136262	2.2663321
29.71551075235387	4.0887136	2.0220568
29.733644150124675	3.6036928	1.8983395
29.751778309662576	3.4724216	1.8634435
29.769913231517766	3.410119	1.8466507
29.78804891624066	3.3011675	1.8169116
29.806185364381818	3.3166742	1.8211739
29.82432257649206	3.2841434	1.8122206
29.842460553122333	3.2806	1.8112427
29.86059929482382	3.2890666	1.8135784
29.878738802147872	3.304246	1.8177584
29.896879075646048	3.2936492	1.8148414
29.915020115870114	3.2504108	1.8028896
29.933161923371976	3.2350914	1.798636
29.951304498703777	3.23436	1.7984326
29.969447842417857	3.1790805	1.7829976
29.987591955066733	3.2214592	1.7948424
30.005736837203123	3.176242	1.7822015
30.023882489379943	3.112575	1.7642492
30.04202891215028	3.1141486	1.764695
30.060176106067455	3.141955	1.7725561
30.078324071684946	3.1202288	1.7664169
30.09647280955646	3.0864785	1.7568376
30.114622320235863	3.0935626	1.7588526
30.132772604277257	3.1818805	1.7837826
30.1509236622349	3.2122235	1.7922677
30.16907549466328	3.117221	1.7655654
30.18722810211705	3.0882432	1.7573398
30.205381485151097	3.0976458	1.760013
30.22353564432045	3.1052318	1.7621667
30.241690580180403	3.0605648	1.749447
30.25984629328638	2.9517243	1.7180583
30.278002784194037	2.9177673	1.7081473
30.296160053459246	2.961304	1.7208439
30.314318101638033	2.9359598	1.7134643
30.332476929286646	2.8922052	1.7006484
30.35063653696153	2.9103537	1.7059759
30.368796925219307	2.9188259	1.7084571
30.386958094616844	2.900046	1.7029521
30.40512004571115	2.885273	1.6986091
30.423282779059463	2.8786676	1.6966636
30.441446295219233	2.850459	1.6883303
30.459610594748067	2.800824	1.6735662
30.47777567820382	2.785712	1.6690452
30.495941546144504	2.8437862	1.686353
30.51410819912835	2.8544998	1.6895266
30.532275637713795	2.8346827	1.6836516
30.55044386245946	2.8106892	1.676511
30.56861287392416	2.8445523	1.6865801
30.586782672666956	2.847971	1.6875932
30.604953259247047	2.8101249	1.6763427
30.623124634223885	2.7770448	1.6664468
30.641296798157075	2.7719264	1.6649103
30.659469751606462	2.8033643	1.674325
30.677643495132074	2.7889633	1.6700189
30.695818029294152	2.8003323	1.6734194
30.713993354653116	2.7490788	1.6580346
30.73216947176962	2.6421788	1.625478
30.75034638120448	2.5874228	1.6085469
30.768524083518756	2.6277082	1.6210207
30.786702579273673	2.6590726	1.6306664
30.80488186903069	2.7294064	1.6520915
30.82306195335144	2.950859	1.7178065
30.841242832797782	3.149621	1.7747172
30.85942450793176	3.3177037	1.8214564
30.877606979315637	3.5931706	1.8955661
30.895790247511883	4.022792	2.0056899
30.913974313083134	4.5030966	2.12205
30.932159176592283	4.8983006	2.2132106
30.95034483860237	4.9983764	2.235705
30.968531299676698	4.6825185	2.1639128
30.98671856037873	4.323942	2.0794091
31.00490662127215	3.9714084	1.9928392
31.023095482920848	3.4590394	1.8598493
31.04128514588892	3.007383	1.7341808
31.059475610740662	2.7579908	1.66072
31.07766687804056	2.6158285	1.6173524
31.09585894835335	2.4909804	1.578284
31.11405182224393	2.4444427	1.5634714
31.132245500277417	2.437927	1.5613862
31.15043998301914	2.4311545	1.559216
31.168635271034628	2.3797514	1.5426443
31.18683136488964	2.372636	1.5403364
31.20502826515008	2.4015958	1.5497082
31.223225972382135	2.4491785	1.5649852
31.241424487152155	2.469089	1.5713335
31.259623810026692	2.4804735	1.5749519
31.27782394157253	2.4017916	1.5497714
31.296024882356644	2.406481	1.5512837
31.314226632946237	2.3532035	1.5340155
31.332429193908684	2.3319604	1.5270758
31.350632565811598	2.3643048	1.5376296
31.368836749222787	2.4362745	1.5608569
31.387041744710295	2.531275	1.5909982
31.40524755284232	2.6565251	1.629885
31.423454174187317	2.5659554	1.6018599
31.441661609313922	2.5060043	1.5830364
31.459869858791002	2.4326196	1.5596857
31.478078923187628	2.3800948	1.5427556
31.496288803073064	2.3570094	1.5352554
31.514499499016807	2.3082805	1.5193026
31.532711011588546	2.3049734	1.5182139
31.550923341358178	2.3515224	1.5334674
31.56913648889584	2.3602734	1.5363181
31.587350454771844	2.3092449	1.51962
31.605565239556732	2.2766714	1.5088643
31.62378084382127	2.2511866	1.5003955
31.641997268136382	2.2675316	1.5058326
31.660214513073274	2.2654994	1.5051576
31.67843257920331	2.313154	1.5209056
31.6966514670981	2.316856	1.5221221
31.71487117732944	2.3331523	1.5274659
31.733091710469346	2.3576038	1.535449
31.751313067090052	2.359602	1.5360996
31.769535247764008	2.2531478	1.5010489
31.787758253063878	2.194167	1.4812721
31.805982083562526	2.2951481	1.5149746
31.824206739833024	2.3281143	1.525816
31.84243222244869	2.3889132	1.5456109
31.860658531983013	2.395726	1.5478133
31.878885669009737	2.3789418	1.5423819
31.897113634102784	2.3187828	1.522755
31.91534242783632	2.2733476	1.5077624
31.933572050784694	2.1970623	1.482249
31.951802503522508	2.1302743	1.459546
31.970033786624548	2.1405792	1.4630718
31.988265900665834	2.2210763	1.4903276
32.006498846221575	2.232517	1.494161
32.02473262386724	2.2014823	1.4837393
32.04296723417845	2.1803021	1.4765847
32.0612026777311	2.1900492	1.4798815
32.07943895510129	2.1911838	1.4802648
32.097676066865304	2.122772	1.4569736
32.115914013599685	2.1011627	1.4495388
32.13415279588115	2.1282089	1.4588382
32.152392414286666	2.1313808	1.4599249
32.1706328693934	2.0385087	1.4277635
32.18887416177875	1.9381	1.3921566
32.20711629202032	2.0544693	1.433342
32.225359260695924	2.189484	1.4796904
32.243603068383614	2.1763308	1.4752393
32.26184771566166	2.0475998	1.4309437
32.28009320310852	2.082939	1.4432391
32.2983395313029	2.1979952	1.4825637
32.31658670082372	2.2724473	1.5074639
32.33483471225012	2.2118552	1.4872307
32.35308356616143	2.0885055	1.4451662
32.371333263137245	2.0600574	1.43529
32.38958380375734	2.1099923	1.4525813
32.407835188601744	2.121938	1.4566873
32.42608741825067	2.0506902	1.432023
32.444340493284585	2.0317576	1.4253974
32.46259441428416	2.0932322	1.4468007
32.48084918183028	2.0925138	1.4465524
32.49910479650405	2.0987039	1.4486904
32.51736125888683	2.1306665	1.4596803
32.53561856956014	2.151599	1.466833
32.5538767291058	2.0662348	1.4374404
32.572135738105764	1.9532136	1.3975742
32.59039559714228	1.8371753	1.3554244
32.608656306797776	1.823098	1.3502214
32.62691786765491	1.9233736	1.3868574
32.645180280296586	2.0557308	1.433782
32.663443545305896	2.0074947	1.4168608
32.68170766326619	1.8943644	1.3763591
32.69997263476099	1.9335241	1.3905122
32.7182384603741	1.9771363	1.4061068
32.7365051406895	1.974009	1.4049944
32.75477267629144	1.912868	1.3830647
32.77304106776434	1.9257135	1.3877008
32.79131031569289	2.0029204	1.4152457
32.809580420661966	2.0466022	1.430595
32.827851383256714	1.9784766	1.4065833
32.84612320406245	1.9218285	1.3863003
32.86439588366476	1.9162105	1.3842726
32.88266942264945	1.8635465	1.3651178
32.9009438216025	1.7984765	1.3410729
32.9192190811102	1.8986605	1.377919
32.937495201758985	1.9611715	1.4004183
32.95577218413556	1.9335612	1.3905255
32.974050028826866	1.9174082	1.3847051
32.992328736420035	1.9533345	1.3976175
33.010608307502444	1.970039	1.4035808
33.02888874266169	2.0391233	1.4279788
33.047170042485604	2.0468252	1.430673
33.06545220756225	1.9914935	1.4112028
33.083735238479896	1.8823982	1.3720052
33.10201913582707	1.8352684	1.3547208
33.12030390019248	1.8720961	1.3682456
33.138589532165135	1.9492557	1.3961575
33.15687603233419	1.9227983	1.38665
33.17516340128909	1.8585204	1.3632756
33.19345163961947	1.9174922	1.3847355
33.211740747915215	1.9986683	1.4137427
33.23003072676643	1.9611413	1.4004076
33.248321576763466	1.8541111	1.3616575
33.266613298496885	1.8924246	1.3756542
33.28490589255747	1.901452	1.3789314
33.30319935953626	1.9273119	1.3882766
33.32149370002451	1.9500917	1.3964568
33.339788914613706	1.9013553	1.3788964
33.358085003895575	1.9186655	1.385159
33.376381968462034	1.9705721	1.4037707
33.39467980890529	1.9046369	1.3800858
33.41297852581774	1.9119627	1.3827374
33.43127811979204	1.9530939	1.3975314
33.44957859142105	1.8945512	1.3764269
33.467879941297866	1.8285577	1.3522418
33.486182170015844	1.8250904	1.3509591
33.50448527816853	1.8578649	1.3630352
33.522789266349754	1.8983278	1.3777982
33.541094135153514	1.900332	1.3785253
33.55939988517411	1.8937016	1.3761183
33.57770651700602	1.917078	1.3845859
33.59601403124398	1.9162296	1.3842795
33.61432242848296	1.9578513	1.3992324
33.632631709318154	1.9735073	1.4048158
33.650941874344994	1.9524742	1.3973097
33.66925292415916	1.8028784	1.3427131
33.68756485935654	1.7641532	1.3282143
33.70587768053328	1.8286192	1.3522645
33.724191388285746	1.9472843	1.3954513
33.74250598321054	1.9728613	1.4045858
33.760821465904506	1.9988605	1.4138106
33.77913783696474	2.0009193	1.4145385
33.79745509698852	2.0011508	1.4146204
33.815773246573414	2.0072098	1.4167603
33.8340922863172	1.95744	1.3990854
33.852412216817896	1.8438026	1.3578669
33.87073303867377	1.8730898	1.3686087
33.889054752483304	1.9911841	1.4110932
33.907377358845245	2.0388536	1.4278843
33.92570085835853	2.0844777	1.4437721
33.94402525162239	2.0407681	1.4285545
33.96235053923627	1.9452224	1.3947123
33.980676721799824	1.9543699	1.3979878
33.999003799912984	2.056492	1.4340475
34.01733177417592	1.9867717	1.4095289
34.03566064518901	1.9524869	1.3973142
34.0539904135529	2.0665424	1.4375473
34.07232107986846	2.160041	1.4697078
34.090652644736785	2.109855	1.452534
34.108985108759235	2.0008051	1.4144982
34.12731847253742	1.8927659	1.3757783
34.14565273667313	1.786889	1.3367456
34.16398790176847	1.9080551	1.3813237
34.18232396842574	2.0314577	1.4252921
34.20066093724749	1.9513643	1.3969125
34.21899880883651	2.0158217	1.4197963
34.23733758379583	2.0547993	1.4334571
34.25567726272874	1.9951936	1.4125133
34.27401784623872	2.0559154	1.4338464
34.29235933492957	2.0533288	1.432944
34.31070172940526	1.9740514	1.4050094
34.32904503027003	1.8913076	1.3752482
34.347389238128386	1.8548168	1.3619165
34.36573435358502	1.9962071	1.412872
34.38408037724492	2.0539527	1.4331617
34.402427309713296	2.0286858	1.4243194
34.42077515159559	2.1062517	1.4512931
34.43912390349752	2.0163045	1.4199663
34.45747356602499	1.9012645	1.3788635
34.47582413978423	1.9753742	1.40548
34.49417562538163	2.085286	1.4440519
34.51252802342388	2.0351489	1.4265864
34.53088133451789	1.9980905	1.4135383
34.54923555927084	1.9355786	1.3912507
34.567590698290104	1.8876523	1.3739185
34.58594675218336	1.8381225	1.3557738
34.6043037215585	1.7320265	1.3160647
34.62266160702365	1.8248067	1.350854
34.641020409187234	2.1303535	1.459573
34.65938012865785	2.190894	1.4801668
34.677740766044394	1.9665691	1.4023441
34.69610232195598	1.7374495	1.3181235
34.714464797002016	1.695337	1.3020511
34.73282819179208	1.6921073	1.3008102
34.751192506936064	1.7866586	1.3366596
34.76955774304408	1.8229403	1.3501631
34.7879239007265	1.803862	1.3430793
34.80629098059391	1.8680402	1.3667626
34.824658983257194	1.9017226	1.3790295
34.843027909327446	1.9600623	1.4000223
34.86139775941603	1.9958165	1.4127337
34.879768534134534	2.0550416	1.4335417
34.89814023409483	1.9959698	1.4127879
34.91651285990901	1.9382974	1.3922275
34.93488641218944	1.8434318	1.3577304
34.95326089154871	1.89405	1.3762449
34.97163629859967	1.9137592	1.3833869
34.99001263395542	1.8086894	1.3448752
35.00838989822934	1.8378693	1.3556803
35.02676809203499	1.9772384	1.4061431
35.04514721598624	1.8415587	1.3570404
35.063527270697215	1.7347062	1.3170824
35.081908256782256	1.8897364	1.3746768
35.10029017485597	2.0856273	1.4441701
35.11867302553321	2.1328645	1.460433
35.137056809429104	1.9486647	1.3959458
35.155441527159006	2.0180535	1.420582
35.173827179338524	2.0737526	1.440053
35.19221376658354	1.9361284	1.3914483
35.21060128951017	1.9910835	1.4110576
35.2289897487348	1.8474073	1.3591937
35.24737914487405	1.9311013	1.3896407
35.26576947854479	2.04327	1.42943
35.28416075036418	2.1101122	1.4526225
35.30255296094958	2.0021963	1.4149898
35.32094611091867	1.9582969	1.3993917
35.33934020088932	2.0693657	1.438529
35.35773523147969	2.1480243	1.465614
35.3761312033082	2.0011477	1.4146193
35.394528116993506	2.1462364	1.4650038
35.41292597315452	2.054842	1.433472
35.431324772410434	1.7727437	1.3314443
35.449724515380666	1.8403738	1.3566037
35.46812520268491	2.2295048	1.4931526
35.486526834943106	2.1243386	1.4575111
35.504929412775454	2.1496677	1.4661745
35.52333293680242	2.087213	1.4447191
35.54173740764471	1.6275362	1.2757492
35.560142825923286	1.6762359	1.2946953
35.5785491922594	1.8263888	1.3514396
35.59695650727454	1.8447896	1.3582304
35.61536477159042	1.5075935	1.227841
