0.008763373481513119	0.0	0.0
0.026290120649546365	0.14626539	0.3824466
0.043816868432600686	0.1255995	0.3544002
0.06134361724069026	0.13924508	0.37315556
0.07887036748382949	0.14083742	0.37528312
0.0963971195720331	0.11319202	0.3364402
0.11392387391531617	0.11178102	0.3343367
0.1314506309236943	0.1739316	0.41705108
0.1489773910071836	0.19473311	0.44128576
0.16650415457580078	0.1857646	0.43100417
0.18403092203956356	0.1904297	0.43638253
0.20155769380849	0.15854034	0.39817125
0.2190844702925996	0.16193698	0.40241393
0.2366112519019124	0.13487716	0.36725625
0.2541380390464497	0.17611483	0.41966036
0.27166483213623416	0.17153074	0.4141627
0.28919163158128947	0.17287776	0.4157857
0.3067184377916406	0.09977594	0.3158733
0.324245251177314	0.09758944	0.3123931
0.34177207214833777	0.124443926	0.3527661
0.3592989011147415	0.13170362	0.3629099
0.37682573848655654	0.12836549	0.35828128
0.39435258467381573	0.11301286	0.33617386
0.41187944008655414	0.09555355	0.30911738
0.42940630513480854	0.13868819	0.37240863
0.446933180228618	0.21710508	0.46594536
0.4644600657780234	0.21714218	0.46598518
0.48198696219306775	0.15616603	0.39517847
0.49951386988379676	0.06893717	0.26255888
0.5170407892602581	0.076325744	0.27627113
0.5345677207325025	0.08209403	0.28652054
0.5520946647105822	0.10037872	0.31682602
0.5696216216045534	0.13157591	0.36273393
0.5871485918244737	0.16847704	0.41045955
0.6046755757804043	0.17565764	0.4191153
0.6222025738824094	0.17266802	0.41553342
0.6397295865405557	0.13520287	0.3676994
0.6572566141649129	0.1275584	0.35715318
0.6747836571655547	0.11103363	0.33321708
0.6923107159525568	0.14418581	0.37971807
0.7098377909359992	0.17683704	0.42051998
0.7273648825259653	0.18107212	0.4255257
0.7448919911325411	0.15754323	0.39691716
0.762419117165817	0.17589676	0.41940048
0.7799462610358868	0.17921351	0.42333618
0.7974734231528482	0.1910135	0.4370509
0.8150006039268024	0.16384266	0.40477484
0.8325278037678551	0.1852605	0.430419
0.8500550230861152	0.19762845	0.4445542
0.8675822622916969	0.23258364	0.48226926
0.8851095217947171	0.23218393	0.48185468
0.9026368020052984	0.27462372	0.5240455
0.9201641033335665	0.22283208	0.47205094
0.9376914261896523	0.23925728	0.48913932
0.9552187709836915	0.21744835	0.46631357
0.9727461381258234	0.25909483	0.5090136
0.990273528026193	0.29917142	0.54696566
1.0078009410949496	0.30500668	0.5522741
1.0253283777422473	0.31159747	0.5582092
1.0428558383782454	0.263956	0.51376647
1.0603833234131086	0.24376462	0.49372524
1.0779108332570058	0.23565689	0.48544505
1.0954383683201119	0.25809985	0.5080353
1.112965929012607	0.3795998	0.6161167
1.1304935157446763	0.54608506	0.7389757
1.1480211289265108	0.5650094	0.7516711
1.1655487689683062	1.36547	1.1685333
1.1830764362802655	1.6036047	1.2663351
1.200604131272596	2.0841465	1.4436573
1.2181318543555117	2.4375598	1.5612687
1.235659605939232	2.5179188	1.5867951
1.253187386433982	3.9330573	1.9831938
1.270715196249994	6.06445	2.4626102
1.2882430357975057	11.459936	3.3852527
1.3057709054867608	16.360228	4.044778
1.3232988057280106	22.385818	4.731365
1.3408267369315112	27.481693	5.2422986
1.358354699507526	31.30088	5.594719
1.3758826938663256	35.170906	5.930506
1.3934107204181858	37.091614	6.0902886
1.410938779573391	37.351006	6.111547
1.4284668717422309	38.00208	6.1645827
1.4459949973350033	37.520428	6.125392
1.4635231567620117	37.832153	6.150785
1.4810513504335687	36.585594	6.0486026
1.4985795787599925	36.074326	6.006191
1.5161078421516088	35.757446	5.979753
1.5336361410187505	35.132633	5.9272785
1.5511644757717598	35.22654	5.935195
1.5686928468209842	35.92286	5.993568
1.58622125457678	36.60242	6.0499935
1.6037496994495108	37.90704	6.1568694
1.621278181849548	37.62423	6.133859
1.6388067021872719	37.996174	6.1641035
1.6563352608730693	37.488503	6.1227856
1.673863858317336	36.33058	6.0274854
1.6913924949304753	35.96456	5.997046
1.7089211711228998	34.974392	5.913915
1.7264498873050296	34.109272	5.8403144
1.7439786438872935	33.185287	5.7606673
1.7615074412801288	32.180157	5.6727557
1.779036279893981	31.39141	5.6028037
1.796565160139305	30.150679	5.4909635
1.814094082426564	29.387495	5.4210234
1.8316230471662298	29.136887	5.3978596
1.849152054768784	28.55166	5.343375
1.8666811056447168	27.907562	5.2827606
1.8842102002045273	27.246672	5.2198343
1.901739338858724	26.72748	5.1698627
1.9192685220178245	26.105755	5.1093793
1.9367977500923557	25.36159	5.0360293
1.9543270234928547	24.73424	4.973353
1.971856342629867	24.026474	4.901681
1.9893857079139496	23.50704	4.848406
2.006915119755667	23.02986	4.7989435
2.0244445785655945	22.424078	4.735407
2.0419740847543175	22.012972	4.691798
2.0595036387324317	21.549389	4.642132
2.0770332409105414	21.1045	4.5939636
2.094562891699263	20.772558	4.557692
2.1120925915092217	20.327906	4.508648
2.129622340751053	20.066816	4.4796
2.1471521398354043	188.02554	13.71224
2.1646819891729323	444.4149	21.08115
2.182211889174303	440.82025	20.99572
2.1997418402501974	453.43674	21.294054
2.2172718428113023	433.44208	20.819271
2.234801897268317	321.32166	17.925447
2.2523320040319548	17.54539	4.1887217
2.269862163512935	17.004808	4.1236887
2.287392376121992	16.313095	4.038947
2.304922642269869	15.947631	3.9934485
2.322452962367322	15.991685	3.9989605
2.3399833368251164	15.812116	3.9764452
2.357513766054032	15.706325	3.9631205
2.3750442504648586	15.465721	3.9326482
2.3925747904683963	15.185955	3.8969162
2.410105386475459	14.922745	3.8629968
2.4276360388968707	14.559432	3.8156824
2.445166748143469	14.190891	3.7670798
2.4626975146261025	13.91592	3.7304049
2.4802283387556323	13.643504	3.6937115
2.4977592209429305	13.523249	3.677397
2.5152901615988825	13.297426	3.6465635
2.5328211611343865	13.077167	3.6162364
2.5503522199603523	12.858359	3.5858555
2.5678833384877024	12.642773	3.5556676
2.5854145171273712	12.314464	3.509197
2.6029457562903064	12.019878	3.4669697
2.620477056387469	11.88504	3.4474688
2.6380084178298326	11.769588	3.4306834
2.655539841028383	11.63182	3.4105453
2.673071326394119	11.391295	3.3750994
2.6906028743380523	11.256194	3.3550253
2.708134485271211	11.103937	3.332257
2.7256661596046325	11.002729	3.3170362
2.743197897749369	10.81376	3.288428
2.760729700116486	10.648281	3.2631705
2.778261567117063	10.376283	3.2212238
2.795793499162193	10.168582	3.1888213
2.8133254966629817	10.09752	3.1776595
2.830857560030551	9.872586	3.1420672
2.8483896896760337	9.784739	3.1280568
2.865921886010578	9.589122	3.0966308
2.883454149445347	9.457461	3.0752985
2.9009864803915177	9.357964	3.059079
2.91851887926028	9.176445	3.0292647
2.9360513464628384	9.034131	3.0056832
2.953583882410413	8.888824	2.9814131
2.9711164875142373	8.861514	2.9768295
2.9886491621855606	8.778371	2.9628315
3.0061819068356455	8.497914	2.9151182
3.023714721875769	8.408052	2.8996642
3.041247607717225	8.331068	2.886359
3.0587805647713213	8.396683	2.897703
3.0763135934493806	8.418161	2.9014068
3.0938466941627407	8.367286	2.892626
3.1113798673227544	8.266463	2.8751457
3.1289131133407904	8.127843	2.8509371
3.1464464326282315	8.0570755	2.8384988
3.1639798255964786	7.935918	2.8170762
3.1815132926569443	7.6731267	2.770041
3.1990468342210603	7.6180663	2.7600844
3.216580450700272	7.50203	2.7389834
3.2341141425060416	7.473641	2.7337961
3.251647910049847	7.4021564	2.7206905
3.2691817537431813	7.2468657	2.6920004
3.286715673997555	7.2425895	2.691206
3.3042496712244938	7.2148147	2.6860406
3.32178374583554	7.103906	2.6653154
3.339317898242251	6.9581165	2.6378243
3.3568521288562034	6.9003067	2.6268435
3.3743864380889876	6.9213157	2.6308393
3.3919208263522127	6.8904147	2.62496
3.4094552940575023	6.822874	2.6120632
3.4269898416164972	6.706085	2.589611
3.444524469440858	6.527127	2.554824
3.4620591779422587	6.4538913	2.540451
3.479593967532391	6.5088425	2.5512433
3.4971288386229658	6.4911237	2.5477684
3.5146637916257086	6.5627832	2.561793
3.5321988269523628	6.476927	2.5449808
3.5497339450146903	6.3829594	2.5264518
3.5672691462244708	6.337467	2.5174327
3.5848044309934988	6.2217884	2.4943514
3.60233979973359	6.2069173	2.4913685
3.619875252856575	6.217722	2.493536
3.6374107907743034	6.2257338	2.495142
3.6549464138986427	6.2994657	2.5098736
3.6724821226414788	6.2643485	2.502868
3.690017917414714	6.1900578	2.4879827
3.7075537986302702	6.278582	2.50571
3.7250897667000857	6.443796	2.5384634
3.7426258220361235	6.746096	2.5973248
3.7601619650503553	7.1724176	2.678137
3.777698196154779	7.55239	2.7481613
3.7952345157614067	8.577408	2.9287212
3.8127709242822716	9.214343	3.0355136
3.830307422129425	11.321169	3.3646944
3.847844009714936	30.18607	5.494185
3.8653806874508954	97.60513	9.879531
3.882917455749409	96.90902	9.844238
3.900454315022606	96.43401	9.820082
3.917991265682631	40.96734	6.4005733
3.9355283081416506	10.567918	3.2508335
3.9530654428118495	8.648821	2.9408877
3.970602670105433	7.621411	2.7606902
3.9881399904346244	6.8368526	2.6147375
4.005677404211669	6.7545147	2.598945
4.023214911848827	6.53641	2.5566404
4.0407525137583855	6.396255	2.5290818
4.058290210352644	6.447693	2.5392308
4.075828002043927	6.4418564	2.5380812
4.0933658892445814	6.457037	2.54107
4.110903872366966	6.421572	2.5340822
4.128441951823468	6.4060106	2.53101
4.145980128026488	6.352076	2.5203326
4.163518401388452	6.321825	2.514324
4.181056772321807	6.2976823	2.5095184
4.1985952412390155	6.295462	2.5090759
4.216133808552567	6.266838	2.5033653
4.233672474674966	6.323449	2.514647
4.251211240018741	6.4867845	2.5469167
4.268750104996445	6.7716827	2.6022458
4.286289070020643	7.7570868	2.7851548
4.303828135503928	9.542038	3.0890188
4.3213673018589125	29.858265	5.4642715
4.3389065694982305	90.89497	9.533886
4.356445938834537	166.04501	12.885845
4.3739854102805085	171.55719	13.097984
4.391524984248844	172.43547	13.131469
4.409064661152262	136.58565	11.686986
4.426604441403504	96.776115	9.837485
4.444144325415337	75.65405	8.697934
4.461684313600543	21.667015	4.654784
4.47922440637193	21.901949	4.6799517
4.496764604142329	20.291397	4.504597
4.5143049073245916	18.483543	4.299249
4.531845316331589	16.447128	4.0555058
4.5493858315762195	13.621154	3.6906848
4.566926453471405	11.289745	3.3600216
4.584467182430081	9.358987	3.059246
4.602008018865218	8.252263	2.8726752
4.619548963189798	7.5436573	2.746572
4.637090015816834	7.04474	2.654193
4.654631177159353	6.8452277	2.6163385
4.672172447630417	6.5376167	2.5568764
4.689713827643102	6.427408	2.5352333
4.7072553176105085	6.1099267	2.4718266
4.724796917945764	5.9379134	2.4367833
4.742338629062015	5.802651	2.4088693
4.759880451372434	5.6901317	2.3853996
4.777422385290215	5.686606	2.3846605
4.794964431228581	5.719678	2.3915849
4.812506589600768	5.7849436	2.405191
4.830048860820047	5.781302	2.4044337
4.847591245299709	5.7037206	2.3882463
4.8651337434530655	5.693101	2.386022
4.882676355693457	5.5701585	2.3601184
4.900219082434242	5.477265	2.3403556
4.917761924088813	5.4827995	2.341538
4.935304881070575	5.5379195	2.3532784
4.952847953792969	5.580357	2.362278
4.970391142669449	5.5481224	2.3554454
4.9879344481135055	5.5446115	2.3546999
5.005477870538642	5.451716	2.334891
5.023021410358394	5.3957024	2.322865
5.040565067986324	5.3440337	2.3117166
5.05810884383601	5.3171406	2.3058925
5.075652738321066	5.3861814	2.3208148
5.09319675185512	5.448337	2.3341672
5.110740884851836	5.4520164	2.3349552
5.128285137724894	5.459921	2.3366473
5.145829510888007	5.4113455	2.3262298
5.163374004754908	5.4331307	2.3309078
5.1809186197393595	5.423548	2.3288512
5.198463356255145	5.4187264	2.3278158
5.216008214716077	5.3500443	2.3130162
5.233553195535998	5.2586203	2.293168
5.251098299128764	5.263562	2.2942455
5.268643525908272	5.324278	2.3074396
5.286188876288432	5.4191394	2.3279045
5.3037343506831895	5.503082	2.3458648
5.32127994950651	5.4135547	2.3267047
5.3388256731723915	5.3767715	2.3187866
5.356371522094851	5.3863506	2.3208513
5.373917496687938	5.32495	2.3075855
5.391463597365729	5.3049984	2.3032582
5.40900982454232	5.2554507	2.292477
5.426556178631843	5.261045	2.2936969
5.444102660048449	5.263551	2.294243
5.4616492692063225	5.285916	2.299112
5.479196006519669	5.2595763	2.2933767
5.496742872402727	5.146592	2.2686102
5.514289867269756	5.1458297	2.2684422
5.531836991535049	5.2085247	2.2822192
5.549384245612924	5.2459054	2.290394
5.566931629917724	5.2205443	2.284851
5.584479144863822	5.153252	2.2700775
5.6020267908656205	5.127527	2.2644043
5.619574568337545	5.1488643	2.269111
5.637122477694054	5.157186	2.2709439
5.654670519349629	5.176344	2.275158
5.672218693718784	5.143291	2.2678826
5.689767001216059	5.142628	2.2677364
5.707315442256021	5.204359	2.2813065
5.724864017253266	5.2213807	2.2850342
5.7424127266224225	5.293798	2.3008256
5.75996157077814	5.324115	2.3074043
5.777510550135105	5.2977543	2.301685
5.795059665108022	5.1938663	2.2790055
5.812608916111639	5.105602	2.259558
5.830158303560715	5.184745	2.2770035
5.847707827870055	5.2839894	2.298693
5.86525748945448	5.3863196	2.3208447
5.8828072887288485	5.4268284	2.3295555
5.900357226108044	5.471888	2.3392067
5.917907302006979	5.5795317	2.3621032
5.9354575168406	6.187846	2.487538
5.9530078710238765	6.7394958	2.5960538
5.970558364971812	7.30169	2.702164
5.988108999099438	7.7387013	2.7818522
6.005659773821818	8.325816	2.885449
6.023210689554039	8.098911	2.8458586
6.040761746711227	8.521657	2.9191878
6.058312945708531	7.8584194	2.8032873
6.075864286961132	7.3162003	2.7048476
6.093415770884244	6.589626	2.5670266
6.1109673978931065	6.087964	2.46738
6.128519168402993	5.5209327	2.3496666
6.146071082829204	5.3481755	2.3126123
6.163623141587075	5.2058764	2.2816389
6.181175345091969	5.171884	2.2741776
6.198727693759281	5.178858	2.2757103
6.216280188004435	5.181225	2.2762303
6.233832828242885	5.201368	2.2806509
6.251385614890126	5.260198	2.293512
6.268938548361669	5.233096	2.2875962
6.286491629073067	5.179549	2.2758622
6.304044857439898	5.132137	2.265422
6.321598233877777	5.098441	2.2579727
6.339151758802344	5.136324	2.266346
6.356705432629277	5.1068687	2.259838
6.37425925577428	5.0686493	2.2513661
6.391813228653095	5.038797	2.2447264
6.409367351681486	5.035477	2.2439868
6.426921625275259	5.0470614	2.2465665
6.44447604985025	5.014683	2.2393486
6.46203062582232	4.9818916	2.2320151
6.47958535360737	4.9798756	2.2315636
6.497140233621328	5.017644	2.2400098
6.514695266280161	4.9762034	2.2307405
6.532250451999859	4.9448023	2.2236912
6.549805791196454	4.9867268	2.233098
6.567361284286002	5.08161	2.2542427
6.584916931684597	5.139145	2.2669683
6.602472733808367	5.1116304	2.2608914
6.6200286910734665	5.045947	2.2463186
6.637584803896092	5.0141163	2.2392223
6.655141072692462	4.9639463	2.2279916
6.672697497878842	4.9667697	2.228625
6.690254079871514	4.9370246	2.2219417
6.707810819086808	4.9206467	2.2182531
6.725367715941078	4.949841	2.2248237
6.742924770850719	4.9199214	2.2180896
6.760481984232151	4.986562	2.233061
6.778039356501836	4.9123964	2.2163928
6.795596888076266	4.943989	2.2235081
6.813154579371963	4.96241	2.2276468
6.830712430805492	5.014008	2.239198
6.84827044279344	5.0661106	2.2508023
6.865828615752445	5.0467644	2.2465005
6.883386950099159	5.0171933	2.2399092
6.900945446250287	5.010727	2.2384653
6.918504104622553	5.089924	2.2560859
6.936062925632727	5.0582323	2.2490513
6.953621909697607	4.986098	2.2329571
6.971181057234028	4.9675155	2.2287924
6.988740368658859	5.056566	2.248681
7.006299844389007	5.1695075	2.2736552
7.023859484841407	5.2870035	2.2993486
7.041419290433036	5.433022	2.3308845
7.058979261580902	5.601678	2.3667865
7.0765393987020495	5.7536874	2.3986845
7.094099702213559	6.023217	2.4542243
7.111660172532549	6.295276	2.509039
7.129220810076164	6.6478252	2.5783377
7.146781615261595	7.3529596	2.7116342
7.16434258850606	7.6143446	2.7594101
7.181903730226821	8.160254	2.8566158
7.1994650408411704	8.246706	2.871708
7.217026520766437	8.378007	2.8944788
7.234588170419983	8.580061	2.9291742
7.252149990219215	8.522031	2.9192517
7.269711980581568	8.409675	2.8999438
7.2872741419245175	8.238479	2.870275
7.304836474665574	7.8938856	2.8096058
7.322398979222286	7.5380363	2.7455485
7.339961656012233	7.281156	2.6983616
7.357524505453039	6.8827453	2.6234987
7.375087527962357	6.64408	2.5776114
7.392650723957886	6.3530555	2.520527
7.410214093857353	5.9758773	2.4445608
7.427777638078528	5.7535295	2.3986516
7.445341357039213	5.525339	2.350604
7.4629052511572525	5.3908896	2.3218288
7.480469320850524	5.32764	2.3081682
7.498033566536948	5.3093243	2.304197
7.5155979886344735	5.2124934	2.2830887
7.5331625875610975	5.183521	2.2767346
7.550727363734844	5.1304035	2.2650394
7.568292317573788	5.145617	2.2683952
7.585857449496025	5.1935296	2.2789316
7.603422759919705	5.1686068	2.273457
7.620988249263007	5.216705	2.2840106
7.638553917944147	5.211944	2.2829683
7.656119766381391	5.197604	2.2798254
7.673685794993023	5.1836553	2.2767642
7.691252004197388	5.2612185	2.2937346
7.70881839441285	5.3058305	2.303439
7.726384966057826	5.303181	2.3028636
7.743951719550762	5.257204	2.2928593
7.761518655310149	5.2778163	2.29735
7.779085773754511	5.2990923	2.3019757
7.796653075302419	5.3303514	2.3087554
7.814220560372475	5.3529663	2.3136477
7.831788229383323	5.378491	2.3191574
7.8493560827536495	5.4064913	2.3251863
7.866924120902174	5.3500395	2.3130152
7.884492344247663	5.3474402	2.3124533
7.9020607532089135	5.3460712	2.3121572
7.919629348204771	5.385847	2.3207428
7.937198129654115	5.3690224	2.317115
7.954767097975865	5.332906	2.3093085
7.972336253588986	5.335302	2.3098273
7.989905596912472	5.377144	2.318867
8.007475128365371	5.45933	2.336521
8.025044848366756	5.514854	2.3483727
8.042614757335754	5.627331	2.3721995
8.060184855691523	5.6093526	2.3684072
8.07775514385327	5.721097	2.3918815
8.095325622240228	5.772285	2.402558
8.112896291271687	5.8346534	2.4155028
8.130467151366968	5.870169	2.4228432
8.148038202945436	5.9119015	2.43144
8.165609446426497	5.9220214	2.4335203
8.183180882229594	6.0027623	2.4500535
8.200752510774217	6.0164967	2.4528549
8.218324332479893	6.051101	2.4598987
8.235896347766193	6.0282207	2.4552436
8.253468557052724	5.9832525	2.4460688
8.27104096075914	5.9364967	2.4364927
8.288613559305137	5.9895144	2.4473484
8.306186353110448	6.0217333	2.453922
8.32375934259485	6.130309	2.4759462
8.341332528178162	6.158645	2.4816618
8.358905910280246	6.2728066	2.5045571
8.376479489321003	6.2456474	2.4991293
8.394053265720377	6.297953	2.5095723
8.411627239898356	6.236321	2.4972627
8.42920141227497	6.2668905	2.5033758
8.44677578327029	6.26751	2.5034995
8.464350353304427	6.247595	2.4995189
8.48192512279754	6.202782	2.4905386
8.499500092169827	6.1764965	2.4852557
8.51707526184153	6.175416	2.4850385
8.534650632232934	6.1894355	2.4878576
8.552226203764365	6.202125	2.4904065
8.569801976856192	6.255376	2.501075
8.587377951928834	6.266218	2.5032415
8.60495412940274	6.256481	2.5012958
8.622530509698416	6.2551546	2.5010307
8.6401070932364	6.4098377	2.5317657
8.657683880437283	6.5193605	2.553304
8.675260871721695	6.7481966	2.5977292
8.692838067510303	6.9429436	2.6349466
8.710415468223834	7.0693045	2.6588163
8.727993074283043	7.1674905	2.677217
8.745570886108737	7.1388435	2.6718614
8.763148904121765	7.27328	2.696902
8.78072712874302	7.276622	2.6975214
8.798305560393441	7.452674	2.7299585
8.815884199494006	7.6151986	2.7595649
8.833463046465745	7.8138824	2.7953322
8.851042101729728	7.966231	2.822451
8.86862136570707	8.34792	2.8892767
8.886200838818924	8.53212	2.9209793
8.903780521486505	8.586789	2.9303224
8.921360414131055	8.602152	2.9329426
8.938940517173874	8.675399	2.945403
8.956520831036297	8.813734	2.9687934
8.97410135613971	9.133298	3.0221348
8.99168209290554	9.3470335	3.0572917
9.009263041755265	9.667945	3.1093318
9.026844203110405	9.915346	3.1488643
9.044425577392525	10.027188	3.1665735
9.062007165023239	10.068724	3.1731253
9.079588966424197	10.275612	3.2055595
9.097170982017108	10.3847885	3.2225437
9.11475321222372	11.301085	3.3617086
9.132335657465825	12.207336	3.4938998
9.149918318165264	12.245506	3.499358
9.167501194743924	12.760082	3.5721257
9.18508428762374	12.369106	3.516974
9.202667597226693	12.411803	3.5230389
9.220251123974803	12.1574	3.4867463
9.237834868290143	11.817016	3.4375887
9.255418830594836	11.608024	3.407055
9.273003011311046	11.158874	3.34049
9.290587410860985	11.048643	3.3239498
9.308172029666911	10.414124	3.227092
9.32575686815113	10.106173	3.1790206
9.343341926735997	8.880801	2.9800673
9.360927205843916	8.675435	2.945409
9.378512705897327	8.419173	2.901581
9.396098427318728	8.120973	2.849732
9.413684370530664	8.064638	2.8398306
9.431270535955722	7.99896	2.8282433
9.448856924016539	8.026836	2.8331673
9.466443535135806	7.869971	2.8053467
9.484030369736251	7.849261	2.8016531
9.501617428240658	7.818942	2.7962372
9.519204711071852	7.8613753	2.8038144
9.536792218652714	7.8638964	2.804264
9.55437995140617	7.873504	2.8059764
9.571967909755191	7.8846865	2.8079684
9.589556094122802	7.9039397	2.8113947
9.60714450493207	7.9427137	2.8182821
9.624733142606116	7.9473124	2.8190978
9.642322007568108	8.023937	2.8326554
9.659911100241267	8.044571	2.8362954
9.677500421048851	8.146215	2.8541577
9.695089970414175	8.172146	2.8586965
9.712679748760609	8.233735	2.8694487
9.730269756511557	8.222379	2.867469
9.747859994090492	8.243432	2.8711379
9.765450461920915	8.166812	2.8577635
9.78304116042639	8.188517	2.8615584
9.800632090030527	8.189229	2.861683
9.81822325115699	8.301292	2.8811963
9.835814644229481	8.335656	2.8871536
9.853406269671762	8.331794	2.8864846
9.870998127907646	8.347407	2.889188
9.888590219360985	8.260919	2.8741813
9.906182544455698	8.32732	2.8857095
9.923775103615734	8.334913	2.8870249
9.941367897265108	8.365848	2.8923776
9.958960925827878	8.342021	2.8882556
9.97655418972816	8.304914	2.881825
9.994147689390106	8.263514	2.8746328
10.011741425237934	8.274402	2.8765259
10.029335397695904	8.229904	2.8687809
10.04692960718833	8.192191	2.8622005
10.06452405413958	8.197831	2.8631854
10.082118738974064	8.277952	2.8771431
10.099713662116246	8.360413	2.8914378
10.117308823990651	8.347207	2.8891532
10.134904225021844	8.284494	2.8782797
10.152499865634445	8.24808	2.871947
10.170095746253125	8.238528	2.8702836
10.18769186730261	8.259142	2.8738723
10.205288229207675	8.228483	2.8685334
10.222884832393145	8.155534	2.8557894
10.2404816772839	8.084368	2.8433022
10.258078764304868	8.056883	2.838465
10.275676093881035	8.076856	2.841981
10.293273666437438	8.104162	2.846781
10.310871482399158	8.1634865	2.8571815
10.32846954219134	8.20028	2.8636131
10.346067846239173	8.21771	2.8666549
10.363666394967908	8.184965	2.8609378
10.38126518880283	8.163021	2.8571
10.398864228169298	8.221832	2.8673737
10.416463513492713	8.266332	2.8751228
10.434063045198531	8.325758	2.885439
10.451662823712262	8.362659	2.8918264
10.469262849459467	8.352252	2.8900263
10.486863122865758	8.25507	2.8731637
10.504463644356806	8.197069	2.8630524
10.522064414358338	8.045381	2.836438
10.539665433296118	7.9423966	2.8182259
10.557266701595987	7.9075093	2.8120294
10.574868219683818	7.853443	2.8023996
10.592469987985552	7.835222	2.7991467
10.610072006927185	7.7683706	2.7871797
10.627674276934751	7.667175	2.7689664
10.64527679843435	7.47875	2.7347305
10.662879571852143	7.3232465	2.7061498
10.680482597614331	7.0945144	2.663553
10.698085876147173	7.0338335	2.6521375
10.715689407876988	6.9829445	2.6425261
10.733293193230146	6.956206	2.637462
10.750897232633072	6.835875	2.6145506
10.76850152651225	6.7485313	2.5977936
10.786106075294207	6.6707306	2.5827758
10.803710879405534	6.558667	2.5609894
10.821315939272877	6.461051	2.5418599
10.83892125532294	6.3267922	2.5153115
10.856526827982472	6.279692	2.5059314
10.874132657678285	6.2701735	2.5040314
10.891738744837243	6.2609234	2.5021837
10.909345089886271	6.224136	2.4948218
10.926951693252343	6.1615005	2.482237
10.944558555362494	6.09971	2.469759
10.96216567664381	5.995839	2.4486403
10.979773057523436	5.8933334	2.427619
10.997380698428573	5.8162994	2.4117005
11.014988599786477	5.7411313	2.3960657
11.032596762024461	5.6865954	2.3846583
11.050205185569892	5.5943623	2.3652403
11.067813870850198	5.569292	2.3599348
11.085422818292859	5.5478444	2.3553863
11.10303202832541	5.4949856	2.3441386
11.120641501375454	5.3945947	2.3226266
11.138251237870636	5.368145	2.3169258
11.155861238238671	5.343992	2.3117077
11.173471502907317	5.263835	2.2943048
11.191082032304402	5.1348777	2.2660267
11.208692826857805	5.071001	2.2518883
11.226303886995465	4.9698963	2.2293265
11.243915213145371	4.9285254	2.2200282
11.261526805735578	4.8836493	2.209898
11.279138665194196	4.899292	2.2134345
11.296750791949393	4.8615203	2.2048855
11.314363186429393	4.8264894	2.1969273
11.331975849062479	4.78314	2.1870391
11.34958878027699	4.742231	2.1776664
11.36720198050133	4.7002015	2.1679947
11.384815450163948	4.606895	2.1463678
11.402429189693366	4.5477743	2.1325512
11.420043199518153	4.50226	2.121853
11.437657480066942	63.5193	7.9698997
11.455272031768422	85.24462	9.232801
11.472886855051353	107.624374	10.374217
11.490501950344528	99.215866	9.960716
11.508117318076819	84.54218	9.194682
11.52573295867715	45.908028	6.775546
11.543348872574514	4.19214	2.0474715
11.560965060197946	4.0803404	2.0199852
11.57858152197655	4.0615945	2.0153399
11.59619825833949	4.0632863	2.0157595
11.613815269715985	4.0455756	2.0113616
11.631432556535323	38.515884	6.2061167
11.649050119226837	83.017075	9.111371
11.666667958219929	93.4034	9.664543
11.68428607394406	107.72297	10.378967
11.701904466828756	82.58867	9.087831
11.719523137303586	65.487946	8.092463
11.737142085798196	4.6312075	2.152024
11.754761312742286	3.7007096	1.9237229
11.772380818565619	3.6316757	1.9056956
11.790000603698015	3.6431408	1.9087013
11.80762066856935	3.623477	1.9035432
11.825241013609572	3.6025646	1.8980423
11.842861639248683	3.566829	1.888605
11.860482545916748	3.5179186	1.8756115
11.878103734043883	3.498957	1.8705499
11.895725204060282	3.5154154	1.8749441
11.91334695639619	3.4827778	1.8662202
11.930968991481919	3.431353	1.8523911
11.948591309747824	3.350755	1.8305068
11.966213911624347	3.3398662	1.82753
11.98383679754198	3.325814	1.8236815
12.001459967931268	3.329047	1.8245676
12.019083423222835	3.3142064	1.8204962
12.036707163847352	3.307756	1.8187237
12.05433119023556	3.268044	1.8077732
12.071955502818259	3.2674298	1.8076034
12.089580102026313	3.231601	1.7976655
12.107204988290643	3.1753807	1.7819598
12.12483016204224	3.1231787	1.7672517
12.142455623712152	3.1294155	1.7690154
12.16008137373149	3.1379964	1.7714391
12.177707412531431	3.078714	1.7546264
12.19533374054321	3.04508	1.7450157
12.212960358198126	3.0559127	1.748117
12.230587265927545	3.0948865	1.759229
12.248214464162889	3.112028	1.7640941
12.265841953335649	3.094985	1.759257
12.283469733877375	3.0521312	1.747035
12.301097806219685	3.0022202	1.7326916
12.31872617079425	3.0010958	1.7323672
12.336354828032825	3.026724	1.7397482
12.353983778367205	3.000746	1.7322662
12.371613022229262	2.9604044	1.7205826
12.389242560050928	2.939026	1.7143588
12.406872392264201	2.9727728	1.7241731
12.424502519301143	2.9595819	1.7203435
12.442132941593874	2.913152	1.7067958
12.459763659574586	2.8521461	1.6888298
12.477394673675532	2.8141978	1.6775571
12.49502598432903	2.8091161	1.6760418
12.51265759196746	2.823668	1.6803774
12.530289497023267	2.8243966	1.6805941
12.547921699928967	2.8189914	1.6789852
12.565554201117134	2.8140137	1.6775023
12.583187001020404	2.8034017	1.6743362
12.600820100071486	2.8053484	1.6749175
12.618453498703152	2.793966	1.6715161
12.636087197348235	2.7903368	1.6704302
12.65372119643964	2.8133962	1.6773182
12.671355496410326	2.8200943	1.6793137
12.68899009769333	2.8452818	1.6867963
12.706625000721749	2.873013	1.6949965
12.724260205928752	2.9820325	1.7268562
12.741895713747551	3.0075295	1.734223
12.759531524611454	3.0286658	1.7403063
12.777167638953818	2.9724314	1.7240741
12.794804057208072	2.9655893	1.7220887
12.812440779807702	3.0119627	1.7355007
12.830077807186271	3.1937733	1.7871131
12.847715139777405	3.2169154	1.7935761
12.865352778014795	3.419049	1.8490671
12.882990722332197	3.502914	1.8716073
12.90062897316344	3.6068394	1.8991681
12.918267530942412	3.6970358	1.9227678
12.935906396103071	3.6233728	1.9035159
12.953545569079449	3.8252985	1.955837
12.971185050305628	3.666769	1.914881
12.988824840215775	3.6611931	1.9134245
13.006464939244115	3.6653483	1.9145099
13.024105347824943	3.4753788	1.8642368
13.041746066392617	3.560869	1.8870265
13.05938709538157	3.3690908	1.8355083
13.077028435226296	3.40691	1.8457817
13.094670086361363	3.2948	1.8151584
13.112312049221401	3.2045655	1.79013
13.129954324241112	3.086095	1.7567285
13.147596911855258	2.876658	1.6960714
13.165239812498685	2.8569553	1.690253
13.182883026606293	2.8166149	1.6782774
13.200526554613058	2.7751544	1.6658795
13.218170396954017	2.7341888	1.6535382
13.235814554064284	2.6837094	1.6382031
13.253459026379034	2.695933	1.6419297
13.271103814333523	2.6571677	1.6300821
13.288748918363058	2.7003114	1.6432624
13.306394338903031	2.7137103	1.6473343
13.32404007638889	2.698031	1.6425683
13.341686131256164	2.6944513	1.6414784
13.359332503940449	2.6684263	1.6335318
13.376979194877402	2.6830719	1.6380085
13.394626204502751	2.745659	1.657003
13.412273533252307	2.7829816	1.6682271
13.429921181561937	2.7910094	1.6706314
13.447569149867581	2.7610905	1.6616529
13.465217438605247	2.7502546	1.6583892
13.482866048211022	2.7140443	1.6474357
13.500514979121052	2.6833045	1.6380795
13.518164231771568	2.6610677	1.6312779
13.535813806598844	2.6678374	1.6333516
13.553463704039254	2.746205	1.6571678
13.571113924529229	2.7314947	1.6527234
13.588764468505275	2.7263398	1.6511632
13.606415336403956	2.711819	1.6467601
13.624066528661917	2.7453017	1.6568952
13.641718045715882	2.8031745	1.6742684
13.659369888002635	2.8777475	1.6963925
13.67702205595903	2.9523687	1.7182459
13.694674550021993	3.001911	1.7326024
13.712327370628532	3.0326967	1.741464
13.729980518215713	3.1113088	1.7638903
13.747633993220681	3.175574	1.782014
13.765287796080647	3.2219758	1.7949862
13.7829419272329	3.2724152	1.8089818
13.800596387114801	3.3193471	1.8219075
13.818251176163775	3.342728	1.8283129
13.835906294817324	3.3373282	1.8268355
13.853561743513023	3.3681598	1.8352547
13.871217522688525	3.4467764	1.8565496
13.888873632781538	3.4842017	1.8666016
13.906530074229858	3.5355244	1.880299
13.92418684747135	3.5593383	1.8866209
13.941843952943948	3.5470874	1.8833714
13.959501391085665	3.499011	1.8705643
13.977159162334578	3.40933	1.8464371
13.994817267128846	3.345603	1.8290989
14.012475705906693	3.2339363	1.7983148
14.030134479106424	3.1638565	1.7787232
14.047793587166414	3.1025765	1.7614132
14.065453030525108	3.0639696	1.7504199
14.083112809621026	3.001727	1.7325493
14.100772924892766	2.9516096	1.718025
14.118433376778997	2.9023902	1.7036403
14.136094165718458	2.8229432	1.6801617
14.153755292149969	2.7741456	1.6655767
14.171416756512416	2.7022731	1.6438593
14.189078559244768	2.6575015	1.6301845
14.20674070078606	2.6065352	1.6144768
14.224403181575408	2.577705	1.6055232
14.242066002051999	2.5412707	1.5941364
14.259729162655093	2.5060246	1.5830429
14.277392663824022	2.4541597	1.5665758
14.295056505998208	2.4441187	1.5633677
14.312720689617128	2.422351	1.5563903
14.330385215120348	2.3981395	1.5485927
14.348050082947497	2.4200706	1.5556576
14.3657152935383	2.4520519	1.565903
14.383380847332528	2.4596741	1.5683348
14.401046744770051	2.4504278	1.5653843
14.418712986290798	2.4135602	1.5535637
14.436379572334793	2.4192417	1.5553912
14.454046503342123	2.4163702	1.5544678
14.471713779752946	2.4025695	1.5500225
14.489381402007504	2.377069	1.5417746
14.507049370546113	2.364816	1.5377958
14.524717685809168	2.414449	1.5538497
14.542386348237134	2.4425821	1.5628762
14.560055358270553	2.4365742	1.560953
14.577724716350051	2.454937	1.5668238
14.595394422916325	2.4295642	1.5587059
14.61306447841015	2.4470453	1.5643035
14.63073488327237	2.461729	1.5689899
14.648405637943917	2.5421207	1.5944029
14.6660767428658	2.529078	1.5903075
14.683748198479094	2.5459652	1.5956081
14.701420005224954	2.5450048	1.5953071
14.719092163544628	2.6089864	1.6152357
14.73676467387942	2.6668916	1.633062
14.754437536670727	2.6874795	1.6393534
14.772110752360014	2.669502	1.6338611
14.78978432138882	2.6799805	1.6370646
14.807458244198777	2.7084274	1.64573
14.82513252123159	2.6887772	1.6397492
14.842807152929028	2.6980667	1.6425793
14.860482139732962	2.7021658	1.6438266
14.87815748208531	2.7041981	1.6444446
14.8958331804281	2.7495043	1.658163
14.91350923520342	2.700007	1.6431698
14.931185646853438	2.7081966	1.6456599
14.948862415820408	2.6316729	1.6222432
14.966539542546656	2.6257172	1.6204065
14.98421702747459	2.6270306	1.6208117
15.001894871046696	2.6991863	1.64292
15.019573073705542	2.7468557	1.6573641
15.037251635893766	2.7799027	1.667304
15.054930558054092	2.7854023	1.6689525
15.072609840629323	2.849314	1.6879911
15.090289484062351	2.9822855	1.7269295
15.107969488796124	3.2790391	1.8108118
15.125649855273691	3.6311839	1.9055666
15.14333058393817	4.1065884	2.0264719
15.161011675232768	5.014631	2.2393372
15.17869312960076	6.3895984	2.5277655
15.196374947485506	8.2193985	2.8669493
15.214057129330447	11.283877	3.3591483
15.231739675579114	15.911947	3.9889781
15.249422586675102	20.921041	4.5739527
15.267105863062092	24.03482	4.902532
15.284789505183847	24.370693	4.9366684
15.302473513484218	22.226215	4.714469
15.320157888407127	18.624355	4.315594
15.337842630396578	14.523042	3.810911
15.355527739896656	11.33655	3.3669794
15.37321321735153	8.874647	2.9790347
15.39089906320545	6.496263	2.5487769
15.408585277902748	4.903592	2.2144055
15.42627186188783	3.803206	1.950181
15.443958815605198	3.2421663	1.8006016
15.461646139499424	2.9256494	1.710453
15.479333834015168	2.7866483	1.6693257
15.497021899597165	2.7671373	1.6634715
15.514710336690234	2.73153	1.652734
15.53239914573928	2.6753404	1.6356468
15.550088327189297	2.5629008	1.6009063
15.567777881485336	2.5181682	1.5868738
15.58546780907256	2.475865	1.5734881
15.6031581103962	2.4571822	1.5675402
15.620848785901568	2.445893	1.5639352
15.638539836034063	2.4664054	1.5704794
15.656231261239173	2.452455	1.5660316
15.673923061962451	2.4265645	1.5577434
15.691615238649552	2.4109952	1.552738
15.709307791746202	2.4232502	1.5566792
15.727000721698221	2.453121	1.5662442
15.744694028951498	2.4523733	1.5660055
15.76238771395202	2.448518	1.5647742
15.780081777145844	2.443038	1.563022
15.797776218979125	2.4075322	1.5516224
15.815471039898094	2.382086	1.5434008
15.833166240349064	2.3978896	1.5485121
15.850861820778437	2.3906422	1.5461701
15.868557781632699	2.3703783	1.5396032
15.886254123358412	2.389981	1.5459564
15.903950846402232	2.381499	1.5432106
15.921647951210897	2.3939087	1.5472262
15.939345438231225	2.3893764	1.5457608
15.957043307910133	2.3624692	1.5370326
15.974741560694602	2.3257036	1.5250257
15.992440197031714	2.3531096	1.5339849
16.01013921736862	2.3914108	1.5464187
16.02783862215259	2.4299176	1.5588193
16.045538411830933	2.4222298	1.5563514
16.06323858685107	2.3630264	1.5372138
16.080939147660512	2.3431845	1.5307463
16.09864009470684	2.3631022	1.5372385
16.11634142843774	2.4062598	1.5512123
16.134043149300954	2.4176862	1.5548911
16.15174525774433	2.4045641	1.5506657
16.169447754215817	2.415964	1.5543371
16.18715063916342	2.4405725	1.5622332
16.204853913035244	2.4653316	1.5701374
16.222557576279478	2.4628253	1.5693392
16.240261629344403	22.424547	4.7354565
16.257966072678386	42.956223	6.5540996
16.275670906729868	38.068638	6.1699786
16.293376131947387	2.5075562	1.5835265
16.31108174877957	2.5423117	1.5944629
16.328787757675133	2.582385	1.6069801
16.34649415908287	2.6080465	1.6149447
16.364200953451657	2.6297896	1.6216626
16.38190814123048	2.6142566	1.6168664
16.39961572286839	2.6523697	1.6286098
16.41732369881455	2.7143319	1.6475229
16.43503206951817	2.7368283	1.6543362
16.45274083542859	2.7194526	1.6490763
16.47044999699522	2.7249298	1.6507361
16.488159554667558	2.8389554	1.68492
16.505869508895184	2.9463298	1.7164876
16.523579860127786	2.9700787	1.7233917
16.541290608815117	3.0006282	1.7322321
16.559001755407035	3.010001	1.7349354
16.57671330035348	3.0746582	1.7534703
16.59442524410448	3.1030185	1.7615386
16.61213758711015	3.205533	1.7904003
16.629850329820705	3.2655504	1.8070834
16.647563472686436	3.3359497	1.8264582
16.665277016157724	3.3599353	1.8330126
16.682990960685053	3.412132	1.8471957
16.70070530671898	3.4825246	1.8661524
16.718420054710155	3.53223	1.8794228
16.736135205109335	3.5570116	1.8860041
16.753850758367335	3.555624	1.8856362
16.771566714935087	3.5906754	1.8949077
16.789283075263597	3.701539	1.9239384
16.80699983980398	3.8160903	1.9534816
16.82471700900741	3.9155886	1.9787847
16.84243458332518	3.978432	1.9946007
16.860152563208665	4.0788393	2.0196137
16.87787094910932	4.0781484	2.0194426
16.89558974147871	4.0677795	2.0168736
16.913308940768466	4.1017504	2.0252779
16.931028547430333	4.2071147	2.0511253
16.94874856191613	4.3127594	2.0767183
16.966468984677785	4.366488	2.0896144
16.98418981616729	4.3358865	2.0822792
17.00191105683676	4.3895135	2.0951166
17.019632707138374	4.4384446	2.1067617
17.03735476752442	4.498338	2.1209285
17.05507723844728	4.494507	2.1200252
17.072800120359403	4.525543	2.1273324
17.090523413713353	4.625193	2.1506262
17.108247118961785	4.6999884	2.1679456
17.125971236557437	4.7711587	2.1842983
17.143695766953133	4.754079	2.180385
17.161420710601806	4.738479	2.1768048
17.179146067956477	4.7211075	2.172811
17.19687183947025	4.6771913	2.1626816
17.21459802559634	4.676686	2.1625648
17.232324626788028	4.6629357	2.1593833
17.25005164349871	4.670741	2.1611898
17.267779076181863	4.6327796	2.1523893
17.285506925291074	4.624063	2.1503634
17.30323519127999	4.631341	2.152055
17.320963874602384	4.6275053	2.1511638
17.33869297571211	4.6023974	2.14532
17.356422495063114	4.5354724	2.129665
17.37415243310944	4.5533648	2.1338615
17.391882790305218	4.572817	2.1384146
17.40961356710468	4.5721064	2.1382484
17.42734476396215	4.5752926	2.1389933
17.445076381332044	4.600006	2.1447625
17.462808419668868	4.6649184	2.1598423
17.48054087942723	4.8105097	2.1932874
17.498273761061835	5.10833	2.2601614
17.51600706502747	5.557854	2.35751
17.533740791779024	6.2564054	2.5012808
17.551474941771485	7.657538	2.7672257
17.56920951545993	8.7289	2.954471
17.586944513299528	10.823427	3.2898977
17.60467993574556	12.372259	3.5174222
17.622415783253373	14.028427	3.7454543
17.64015205627843	15.548969	3.9432182
17.657888755276293	16.62924	4.0778966
17.675625880702604	17.152905	4.1416063
17.69336343301311	16.885971	4.1092544
17.71110141266366	16.08153	4.010178
17.728839820110178	15.07626	3.8828158
17.746578655808705	14.245632	3.7743387
17.764317920215372	12.728736	3.5677354
17.7820576137864	11.213467	3.3486514
17.79979773697811	9.180271	3.0298963
17.81753829024692	7.4302173	2.7258425
17.835279274049356	5.8784647	2.4245546
17.85302068884201	4.9125834	2.2164347
17.870762535081607	4.2891483	2.0710258
17.888504813224934	3.9555328	1.9888521
17.90624752372891	3.7561653	1.9380829
17.923990667050536	3.6339273	1.9062862
17.941734243646895	3.5413978	1.8818603
17.959478253975185	3.5043883	1.8720012
17.9772226984927	3.4472966	1.8566897
17.994967577656833	3.414191	1.8477529
18.01271289192506	3.393323	1.8420974
18.030458641754965	3.3641374	1.8341585
18.04820482760425	3.312581	1.8200498
18.06595144993067	3.2810862	1.8113769
18.083698509192125	3.2568789	1.8046825
18.101446005846576	3.2513986	1.8031635
18.119193940352105	3.1987777	1.7885127
18.136942313166887	3.1880882	1.7855219
18.1546911247492	3.1604962	1.7777785
18.1724403755574	3.179503	1.7831161
18.19019006604997	3.1720695	1.7810304
18.207940196685467	3.198893	1.788545
18.225690767922575	3.1941848	1.7872282
18.243441780220046	3.1637542	1.7786945
18.261193234036764	3.1107814	1.7637408
18.278945129831676	3.0812187	1.7553401
18.29669746806386	3.0524735	1.7471329
18.314450249192483	3.0536067	1.7474573
18.3322034736768	3.081394	1.7553899
18.349957141976184	3.1022892	1.7613317
18.3677112545501	3.1096592	1.7634226
18.385465811858108	3.0754318	1.753691
18.403220814359884	3.0575337	1.7485805
18.420976262515172	3.0839446	1.7561163
18.43873215678387	3.1533287	1.7757615
18.456488497625923	3.1947312	1.787381
18.474245285501407	3.257937	1.8049756
18.492002520870486	3.2899952	1.8138344
18.50976020419343	3.3926146	1.8419051
18.527518335930615	3.6901476	1.9209757
18.545276916542516	4.3023963	2.0742218
18.563035946489688	4.4327016	2.1053982
18.580795426232832	4.8870506	2.2106674
18.598555356232698	4.765938	2.1831028
18.616315736950185	5.107557	2.2599905
18.63407656884626	4.7296367	2.1747727
18.65183785238201	4.989985	2.2338274
18.669599588018617	4.7845902	2.1873705
18.68736177621737	4.8168654	2.1947358
18.705124417439652	4.753847	2.180332
18.72288751214696	4.5426416	2.1313474
18.740651060800886	4.689832	2.165602
18.758415063863115	4.368308	2.0900497
18.77617952179546	4.527256	2.127735
18.793944435059814	4.269963	2.0663888
18.811709804118184	4.3414745	2.0836205
18.829475629432675	4.348228	2.0852406
18.8472419114655	4.150541	2.0372877
18.86500865067897	4.223362	2.055082
18.88277584753551	3.8628826	1.9654218
18.90054350249763	3.8529437	1.9628917
18.918311616027957	3.507537	1.872842
18.936080188589226	3.409726	1.8465443
18.953849220644265	3.0928457	1.7586489
18.971618712656007	2.9206922	1.7090033
18.9893886650875	2.8256154	1.6809567
19.007159078401887	7.986469	2.826034
19.024929953062408	32.863823	5.7326975
19.042701289532435	32.822998	5.729136
19.060473088275405	25.393358	5.039182
19.07824534975489	2.634098	1.6229905
19.096018074434568	2.6238723	1.6198372
19.113791262778197	2.6267223	1.6207166
19.13156491524966	2.6155703	1.6172725
19.149339032312945	2.6041183	1.613728
19.167113614432136	2.613374	1.6165934
19.184888662071433	2.6160817	1.6174306
19.202664175695123	2.575927	1.6049695
19.220440155767623	2.519215	1.5872035
19.238216602753447	2.5135064	1.5854042
19.2559935171172	2.4820855	1.5754635
19.27377089932361	2.5120356	1.5849402
19.291548749837514	2.5070534	1.5833677
19.309327069123835	2.5325055	1.5913848
19.32710585764763	2.5305796	1.5907795
19.344885115874032	2.4943337	1.579346
19.362664844268313	2.4598377	1.5683869
19.380445043295822	2.4893816	1.5777774
19.39822571342203	2.4872763	1.5771102
19.41600685511252	2.4678288	1.5709324
19.43378846883297	2.4641466	1.5697601
19.451570555049173	2.4662368	1.5704256
19.469353114227037	2.4844792	1.5762231
19.48713614683254	2.491324	1.5783929
19.50491965333182	2.4773993	1.5739757
19.52270363419109	2.446208	1.5640358
19.540488089876686	2.4660847	1.5703772
19.55827302085503	2.4833205	1.5758555
19.576058427592674	2.4764364	1.5736697
19.593844310556282	2.4728389	1.5725262
19.611630670212598	2.4908824	1.5782529
19.629417507028506	2.4969318	1.5801682
19.64720482147098	2.510976	1.5846059
19.6649926140071	2.5404	1.5938632
19.682780885104084	2.5755458	1.6048506
19.70056963522921	2.5769768	1.6052965
19.718358864849908	2.5202487	1.5875291
19.7361485744337	2.4846747	1.5762851
19.753938764448215	2.475405	1.573342
19.771729435361202	2.506547	1.5832078
19.789520587640506	2.473857	1.57285
19.807312221754092	2.5018525	1.5817245
19.825104338170043	2.533658	1.5917468
19.842896937356517	2.5592084	1.5997525
19.860690019781824	2.4978144	1.5804476
19.87848358591436	2.4844434	1.5762117
19.896277636222635	2.4528584	1.5661604
19.914072171175278	2.4586341	1.5680032
19.931867191241015	2.481927	1.5754132
19.94966269688869	2.5188313	1.5870826
19.967458688587264	2.4840534	1.576088
19.985255166805807	2.4400136	1.5620543
20.00305213201348	2.37991	1.5426956
20.020849584679578	2.4502082	1.565314
20.038647525273507	2.517914	1.5867937
20.05644595426477	2.5262835	1.5894287
20.07424487212299	2.5014274	1.5815902
20.092044279317903	2.491366	1.5784061
20.109844176319353	2.4832416	1.5758305
20.127644563597304	2.4795232	1.5746502
20.145445441621817	2.4629893	1.5693914
20.16324681086307	2.4191332	1.5553563
20.181048671791373	2.4115674	1.5529222
20.198851024877122	2.3951428	1.547625
20.216653870590836	2.3827338	1.5436107
20.234457209403146	2.3646548	1.5377434
20.252261041784802	2.3844593	1.5441694
20.270065368206662	2.3843274	1.5441267
20.287870189139685	2.3926802	1.5468291
20.305675505054968	2.3553076	1.5347011
20.323481316423702	2.3748899	1.5410677
20.341287623717207	2.389656	1.5458512
20.359094427406884	2.3777306	1.5419892
20.376901727964288	2.3424542	1.5305078
20.39470952586107	2.3319137	1.5270605
20.41251782156899	2.3583558	1.5356939
20.430326615559935	2.3638024	1.5374663
20.448135908305886	2.3635614	1.5373878
20.465945700278965	2.3309155	1.5267336
20.483755991951384	2.3017573	1.5171543
20.50156678379548	2.2609456	1.5036441
20.519378076283708	2.2498858	1.499962
20.537189869888635	2.2711906	1.5070469
20.55500216508294	2.283821	1.5112317
20.572814962339415	2.2796361	1.5098464
20.59062826213098	2.2923906	1.5140643
20.60844206493066	2.3073971	1.5190119
20.626256371211593	2.3410873	1.5300612
20.644071181447032	2.343275	1.530776
20.66188649611036	2.3361855	1.5284585
20.67970231567506	2.297525	1.5157589
20.697518640614742	2.2802126	1.5100373
20.715335471403122	2.298152	1.5159657
20.73315280851404	2.3257234	1.5250323
20.750970652421447	2.3137152	1.5210901
20.768789003599412	2.3314245	1.5269003
20.786607862522136	2.33751	1.5288918
20.8044272296639	2.3315952	1.5269562
20.82224710549913	2.331773	1.5270144
20.84006749050237	2.3327565	1.5273364
20.857888385148268	3.885083	1.9710613
20.8757097899116	45.971107	6.7801995
20.893531705267254	64.827835	8.051574
20.911354131690224	83.85153	9.157048
20.92917706965566	69.110344	8.313263
20.94700051963877	50.13092	7.0803194
20.96482448211493	29.362583	5.418725
20.982648957559622	4.0916	2.0227704
21.00047394644843	2.2063887	1.4853917
21.01829944925707	2.1861646	1.4785684
21.036125466461375	2.1941113	1.4812533
21.053951998537297	2.2353714	1.4951159
21.071779045960906	2.2899868	1.5132703
21.089606609208378	2.285622	1.5118273
21.10743468875603	2.2640896	1.5046892
21.12526328508028	2.2038124	1.4845243
21.143092398657675	2.156935	1.4686507
21.16092202996488	2.1931632	1.4809332
21.17875217947867	2.2262223	1.492053
21.19658284767596	2.2322662	1.4940771
21.21441403503377	2.2035818	1.4844466
21.232245742029225	2.2039247	1.4845622
21.2500779691396	2.1823075	1.4772636
21.26791071684227	2.149038	1.4659598
21.28574398561475	2.1380143	1.462195
21.30357777593465	2.1474404	1.4654148
21.321412088279704	2.1621523	1.4704258
21.339246923127792	2.1580489	1.4690299
21.357082280956888	2.1277118	1.4586678
21.3749181622451	2.1360164	1.4615117
21.392754567470647	2.1401074	1.4629105
21.41059149711187	2.152248	1.4670541
21.42842895164726	2.127227	1.4585017
21.446266931555378	2.1195998	1.4558846
21.464105437314945	2.1155782	1.4545027
21.481944469404798	2.120614	1.4562328
21.49978402830388	2.1147296	1.454211
21.51762411449127	2.1257527	1.4579961
21.53546472844617	2.125599	1.4579434
21.553305870647876	2.0878327	1.4449334
21.571147541575865	2.0681498	1.4381063
21.58898974170967	2.0951176	1.4474521
21.60683247152899	2.117231	1.4550707
21.62467573151363	2.1040313	1.4505279
21.642519522143523	2.0785189	1.4417069
21.660363843898722	2.0429068	1.4293029
21.6782086972594	2.0362113	1.4269588
21.696054082705864	2.0217059	1.421867
21.713900000718535	2.0349407	1.4265134
21.73174645177795	2.062095	1.4359996
21.749593436364794	2.0537806	1.4331018
21.767440954959845	2.0303442	1.4249015
21.785289008044032	2.0068316	1.4166268
21.803137596098388	2.023794	1.4226011
21.820986719604086	2.0301466	1.4248321
21.838836379042412	2.0654235	1.4371581
21.85668657489478	2.0486796	1.4313209
21.87453730764273	2.0777383	1.4414362
21.892388577767914	2.0350566	1.4265541
21.91024038575213	1.9925038	1.4115608
21.928092732077285	1.9345787	1.3908913
21.945945617225426	1.9496475	1.3962978
21.963799041678694	1.9618727	1.4006686
21.981653005919398	31.275908	5.592487
21.999507510429943	78.07771	8.83616
22.01736255569286	73.05335	8.547126
22.035218142190818	4.185697	2.0458977
22.05307427040661	1.997253	1.413242
22.07093094082315	1.9952105	1.4125192
22.088788153923474	2.0033953	1.4154135
22.106645910190746	2.0198166	1.4212025
22.12450421010827	1.9952626	1.4125377
22.142363054159464	1.9829415	1.4081695
22.16022244282787	1.9919018	1.4113475
22.178082376597164	2.0096874	1.4176345
22.195942855951145	1.9873142	1.4097214
22.213803881373742	2.0112407	1.4181821
22.231665453349002	2.0122135	1.4185251
22.24952757236111	1.9858831	1.4092137
22.26739023889438	1.9526231	1.397363
22.28525345343323	1.9453272	1.3947499
22.30311721646225	1.950453	1.3965862
22.320981528466113	1.9504752	1.3965942
22.33884638992964	1.9609221	1.4003292
22.356711801337788	1.9492762	1.3961648
22.37457776317561	1.9357402	1.3913088
22.392444275928337	1.9386911	1.3923689
22.410311340081282	1.9439468	1.3942549
22.428178956119904	1.954564	1.3980572
22.446047124529805	1.9461688	1.3950515
22.46391584579669	1.9896786	1.4105597
22.481785120406414	2.0051632	1.4160378
22.49965494884496	1.9618629	1.4006652
22.51752533159841	1.8965439	1.3771507
22.53539626915302	1.8960978	1.3769886
22.553267761995137	1.9264517	1.3879668
22.571139810611264	1.9518198	1.3970754
22.589012415488025	1.9622055	1.4007875
22.60688557711216	1.9642137	1.401504
22.624759295970566	1.9574007	1.3990713
22.642633572550263	1.9292166	1.3889624
22.660508407338362	1.9024838	1.3793056
22.67838380082217	1.903912	1.3798232
22.696259753489077	1.9473962	1.3954914
22.714136265826614	1.9715356	1.4041138
22.73201333832246	1.9613662	1.4004878
22.74989097146439	1.9131577	1.3831694
22.76776916574035	1.9013399	1.3788909
22.785647921638393	1.9120226	1.3827591
22.803527239646712	1.9433693	1.3940479
22.82140712025363	1.9577587	1.3991992
22.839287563947593	1.9324998	1.3901438
22.85716857121719	1.9153306	1.3839548
22.875050142551135	1.9473945	1.3954908
22.892932278438277	1.9726008	1.4044931
22.910814979367604	1.978126	1.4064587
22.928698245828222	1.9519061	1.3971063
22.946582078309387	1.9438154	1.3942078
22.96446647730047	1.9317648	1.3898795
22.98235144329098	1.9531436	1.3975492
23.000236976770562	1.9325962	1.3901784
23.018123078229	1.9377857	1.3920437
23.03600974815619	1.9135864	1.3833244
23.053896987042194	1.8833994	1.37237
23.071784795377173	1.8808644	1.3714461
23.08967317365145	1.8925078	1.3756845
23.10756212235546	1.8827512	1.3721339
23.125451641979787	1.8650466	1.3656671
23.143341733015134	1.8822725	1.3719593
23.161232395952357	1.9087738	1.3815838
23.179123631282426	1.9487132	1.3959632
23.197015439496468	1.9594468	1.3998024
23.214907821085717	1.9368302	1.3917005
23.23280077654157	1.9001051	1.378443
23.250694306355538	1.8836982	1.3724788
23.268588411019277	1.8962995	1.3770618
23.28648309102458	1.8620763	1.3645792
23.304378346863356	1.9051367	1.3802669
23.322274179027676	1.9302806	1.3893454
23.340170588009723	1.9216045	1.3862195
23.358067574301852	1.8896977	1.3746628
23.37596513839651	1.8962512	1.3770443
23.39386328078629	1.9076703	1.3811843
23.411762001963947	1.8982878	1.3777837
23.429661302422353	1.8794618	1.3709346
23.4475611826545	1.9185417	1.3851143
23.46546164315356	1.9385887	1.3923321
23.48336268441279	1.9690973	1.4032452
23.501264306925638	1.944068	1.3942983
23.51916651118564	1.9145598	1.3836762
23.537069297686497	1.8810186	1.3715023
23.554972666922037	1.8686284	1.3669778
23.57287661938623	1.8826048	1.3720804
23.59078115557318	1.9139285	1.383448
23.608686275977128	1.8927826	1.3757844
23.62659198109246	1.8397543	1.3563755
23.6444982714137	1.828919	1.3523754
23.66240514743549	1.8622357	1.3646376
23.68031260965263	1.8974869	1.377493
23.698220658560068	1.9140519	1.3834926
23.716129294652845	1.9386557	1.3923562
23.7340385184262	1.9460696	1.395016
23.75194833037546	1.9002266	1.3784871
23.769858730996123	1.8679676	1.3667362
23.78776972078382	1.828277	1.3521379
23.80568130023431	1.8695285	1.3673071
23.823593469843495	1.9099189	1.3819982
23.841506230107424	1.9199898	1.3856369
23.859419581522275	1.8706484	1.3677164
23.87733352458438	1.8571923	1.3627884
23.89524805979019	1.8728688	1.368528
23.913163187636318	1.933825	1.3906204
23.931078908619508	1.9458108	1.3949232
23.948995223236633	1.9522134	1.3972163
23.966912131984735	1.9417104	1.3934526
23.98482963536096	1.965857	1.4020902
24.002747733862616	1.9573662	1.399059
24.020666427987155	1.985325	1.4090157
24.038585718232156	2.0240395	1.4226874
24.056505605095353	2.028815	1.4243648
24.074426089074617	2.0940175	1.447072
24.092347170667946	2.0908015	1.4459604
24.110268850373515	2.0596921	1.4351628
24.128191128689586	2.0533502	1.4329516
24.146114006114626	2.069063	1.4384238
24.164037483147187	2.079902	1.4421865
24.181961560286005	2.0917041	1.4462725
24.199886238029926	2.1085331	1.4520789
24.21781151687797	2.1345224	1.4610004
24.235737397329274	2.0604305	1.43542
24.253663879883135	2.0303488	1.424903
24.271590965038975	2.0382042	1.4276569
24.289518653296376	2.0338418	1.4261283
24.30744694515505	2.0487602	1.431349
24.32537584111486	2.0675857	1.4379102
24.34330534167581	2.0612886	1.4357189
24.361235447338046	2.0778859	1.4414874
24.379166158601876	2.0477588	1.4309993
24.39709747596772	2.0265534	1.4235706
24.41502939993615	1.9865288	1.4094427
24.432961931007917	1.9993	1.4139661
24.450895069683856	2.0362144	1.4269599
24.468828816465	2.009808	1.417677
24.4867631718525	1.9859391	1.4092336
24.504698136347656	1.94904	1.3960803
24.52263371045192	1.9399905	1.3928354
24.540569894666874	1.9925641	1.4115821
24.558506689494266	2.0635066	1.4364911
24.57644409543597	2.0194824	1.4210849
24.594382112994012	1.9349209	1.3910143
24.61232074267057	1.9047977	1.3801441
24.630259984967953	1.9367445	1.3916696
24.64819984038863	1.9113778	1.3825259
24.66614030943522	1.9324499	1.3901259
24.684081392610462	1.9887855	1.410243
24.702023090417274	2.0245876	1.42288
24.7199654033587	1.9977082	1.413403
24.737908331937927	1.986114	1.4092956
24.755851876658305	2.0276978	1.4239725
24.773796038023324	2.010299	1.4178501
24.79174081653661	2.0271118	1.4237667
24.809686212701962	2.050457	1.4319417
24.827632227023294	2.0752544	1.4405743
24.8455788600047	2.111327	1.4530406
24.8635261121504	2.133242	1.4605622
24.88147398396475	2.0900757	1.4457095
24.899422475952303	2.1174982	1.4551626
24.917371588617698	2.1727717	1.4740324
24.935321322465768	2.1994872	1.4830668
24.953271678001478	2.2788525	1.5095868
24.97122265572994	2.4306335	1.5590489
24.989174256156414	2.71606	1.6480473
25.00712647978632	3.1859846	1.7849326
25.02507932712521	3.8250692	1.9557784
25.043032798678798	4.364018	2.089023
25.060986894952933	4.9159346	2.2171907
25.078941616453637	5.6014566	2.3667397
25.096896963687055	6.484052	2.5463803
25.114852937159508	7.7090197	2.7765121
25.132809537377444	8.243188	2.8710952
25.150766764847468	8.321475	2.8846967
25.168724620076347	7.658018	2.7673125
25.186683103570985	6.602863	2.5696037
25.204642215838426	5.5117235	2.347706
25.222601957385894	4.221812	2.054705
25.24056232872074	3.2433772	1.8009379
25.25852333035048	2.6424954	1.6255754
25.276484962782778	2.3168445	1.5221184
25.294447226525435	2.135705	1.4614052
25.312410122086423	2.0407784	1.4285581
25.330373649973843	1.961826	1.4006519
25.348337810695988	1.9119173	1.382721
25.366302604761245	1.9069394	1.3809198
25.384268032678207	1.9219664	1.38635
25.40223409495558	1.9352704	1.39114
25.420200792102257	1.915547	1.3840328
25.438168124627246	1.8902217	1.3748534
25.45613609303974	1.8466738	1.3589238
25.474104697849057	1.8317208	1.3534108
25.492073939564698	1.8091357	1.3450412
25.510043818696285	1.8485609	1.359618
25.528014335753614	1.8279785	1.3520275
25.54598549124664	1.880847	1.3714397
25.56395728568544	1.9346329	1.3909109
25.58192971958028	1.9428743	1.3938702
25.59990279344156	1.8729404	1.3685541
25.617876507779833	1.8812159	1.3715743
25.635850863105826	1.8666879	1.3662679
25.653825859930386	1.8517247	1.360781
25.671801498764548	1.8322163	1.3535938
25.68977778011949	1.8534296	1.3614072
25.707754704506524	1.8961148	1.3769948
25.725732272437153	1.8790241	1.370775
25.743710484423012	1.8319468	1.3534943
25.761689340975888	1.7906252	1.3381424
25.77966884260774	1.8295653	1.3526143
25.797648989830662	1.8242971	1.3506655
25.815629783156922	1.828344	1.3521627
25.83361122309895	1.8119911	1.3461022
25.85159331016929	1.8113027	1.3458464
25.869576044880695	1.753878	1.3243406
25.887559427746034	1.7573155	1.3256378
25.90554345927836	1.8448417	1.3582495
25.92352813999086	1.8884609	1.3742129
25.94151347039689	1.8366375	1.355226
25.959499451009965	1.8364148	1.3551438
25.97748608234374	1.8053309	1.343626
25.995473364912062	1.8072785	1.3443506
26.013461299228904	1.781791	1.3348374
26.03144988580839	1.8486239	1.3596411
26.04943912516483	1.8534697	1.361422
26.067429017812675	1.8782885	1.3705066
26.085419564266537	1.8862557	1.3734102
26.103410765041186	1.8988886	1.3780017
26.12140262065155	1.8371688	1.355422
26.139395131612723	1.8407156	1.3567297
26.157388298439948	1.8178027	1.3482591
26.17538212164861	1.8079906	1.3446153
26.193376601754295	1.8113189	1.3458525
26.211371739272714	1.8546902	1.36187
26.229367534719746	1.8253943	1.3510715
26.247363988611433	1.8069149	1.3442154
26.26536110146397	1.762826	1.3277146
26.283358873793727	1.7618809	1.3273586
26.301357306117204	1.7842824	1.3357704
26.319356398951104	1.8052417	1.3435929
26.33735615281224	1.8011203	1.3420582
26.35535656821762	1.774917	1.3322601
26.373357645684404	1.7664821	1.3290907
26.39135938572991	1.7856642	1.3362875
26.409361788871614	1.7999095	1.3416071
26.427364855627165	1.834659	1.3544959
26.445368586514352	1.8748344	1.3692459
26.46337298205115	1.8459258	1.3586485
26.48137804275568	1.8496197	1.3600073
26.499383769146217	1.8865023	1.3735
26.517390161741215	1.8820643	1.3718835
26.53539722105928	1.8335128	1.3540727
26.553404947619182	1.8077124	1.344512
26.571413341939856	1.7877905	1.3370829
26.589422404540397	1.8445872	1.3581558
26.60743213594006	1.8478783	1.3593669
26.62544253665827	1.8102816	1.3454671
26.64345360721459	1.774082	1.3319467
26.66146534812879	1.8132966	1.3465871
26.679477759920758	1.8453	1.3584182
26.69749084311057	1.8115553	1.3459402
26.71550459821847	1.7786379	1.3336558
26.733519025764842	1.8216902	1.3497001
26.751534126270258	1.8485402	1.3596103
26.769549900255434	1.8209894	1.3494403
26.787566348241267	1.7952226	1.3398591
26.80558347074881	1.8010556	1.3420341
26.823601268299267	1.8160311	1.347602
26.841619741414036	1.8508867	1.3604729
26.85963889061465	1.8378445	1.3556713
26.877658716422832	1.8167534	1.34787
26.89567921936045	1.8034911	1.3429412
26.913700399949544	1.8593215	1.3635694
26.93172225871233	1.8585618	1.3632908
26.949744796171174	1.8273146	1.351782
26.967768012848605	1.7960042	1.3401508
26.98579190926733	1.8142738	1.3469498
27.003816485950225	1.8517679	1.3607968
27.021841743420318	1.8370702	1.3553857
27.039867682200814	1.7921183	1.3387002
27.057894302815072	1.7798069	1.334094
27.07592160578664	1.8066716	1.3441248
27.0939495916392	1.7609048	1.3269908
27.111978260896635	1.7311223	1.3157212
27.13000761408296	1.7766777	1.3329208
27.148037651722397	1.8308752	1.3530984
27.166068374339304	1.8264022	1.3514445
27.184099782458215	1.8038412	1.3430716
27.20213187660384	1.8108555	1.3456804
27.22016465730105	1.8478805	1.3593677
27.23819812507487	1.8247783	1.3508435
27.256232280450533	1.8394754	1.3562726
27.274267123953383	1.8315563	1.35335
27.292302656108987	1.8268747	1.3516192
27.31033887744306	1.8028738	1.3427113
27.32837578848146	1.7793354	1.3339173
27.34641338975026	1.7829053	1.3352548
27.364451681775673	1.8318776	1.3534688
27.382490665084074	1.8345478	1.3544548
27.400530340202046	1.8010869	1.3420458
27.41857070765629	1.7919631	1.3386422
27.436611767973726	1.8207874	1.3493656
27.454653521681404	1.8204374	1.3492359
27.472695969306564	1.7952145	1.3398561
27.490739111376627	1.7707634	1.3307004
27.508782948419153	1.7862319	1.3364998
27.526827480961902	1.770928	1.3307621
27.54487270953279	1.8189459	1.348683
27.562918634659898	1.8586507	1.3633235
27.580965256871508	1.8498597	1.3600955
27.599012576696026	1.8276999	1.3519245
27.617060594662068	1.8497876	1.3600689
27.63510931129842	1.8522917	1.3609892
27.65315872713401	1.831926	1.3534867
27.67120884269797	1.8940685	1.3762516
27.68925965851958	1.8769946	1.3700346
27.707311175128307	1.8581393	1.3631358
27.725363393053787	1.8775257	1.3702283
27.74341631282583	1.9083863	1.3814436
27.7614699349744	1.9051639	1.3802768
27.77952426002968	2.0763433	1.4409522
27.797579288521973	2.145061	1.4646027
27.815635020981784	2.6442375	1.6261111
27.83369145793979	2.7148662	1.647685
27.85174859992682	2.4930732	1.5789468
27.869806447473923	2.3324997	1.5272523
27.887865001112267	2.0502691	1.4318761
27.905924261373233	1.9403183	1.3929532
27.92398422878836	1.9130261	1.3831218
27.94204490388936	1.892686	1.3757492
27.96010628720813	1.894336	1.3763487
27.978168379276728	1.856763	1.362631
27.9962311806274	1.85533	1.362105
28.014294691792568	1.8385248	1.3559221
28.0323589133048	1.8663827	1.3661562
28.050423845696887	1.862372	1.3646876
28.068489489501758	1.7975961	1.3407446
28.086555845252523	1.839772	1.3563819
28.104622913482487	1.9027792	1.3794127
28.122690694725115	1.9173827	1.3846959
28.14075918951405	1.9081337	1.3813522
28.15882839838312	1.8897724	1.3746899
28.176898321866304	1.9145244	1.3836634
28.1949689604978	1.9574362	1.3990841
28.213040314811945	1.9631233	1.4011151
28.23111238534327	1.9288862	1.3888434
28.249185172626493	1.9450543	1.394652
28.267258677196473	1.9783635	1.4065431
28.285332899588294	2.0018198	1.4148568
28.303407840337172	1.9859624	1.4092418
28.321483499978545	1.9386637	1.392359
28.33955987904799	1.9361994	1.3914739
28.357636978081285	1.9557412	1.3984782
28.37571479761439	1.9502712	1.3965211
28.393793338183425	1.946396	1.395133
28.41187260032469	1.927373	1.3882986
28.429952584574686	1.912049	1.3827686
28.448033291470065	1.9089866	1.3816608
28.46611472154769	1.9250231	1.387452
28.484196875344566	1.9501052	1.3964617
28.502279753397914	1.9972097	1.4132267
28.52036335624511	2.0173247	1.4203255
28.538447684423716	2.025426	1.4231746
28.556532738471482	2.077471	1.4413434
28.574618518926325	2.0979156	1.4484184
28.59270502632635	2.0601985	1.4353392
28.61079226120985	2.009521	1.4175757
28.628880224115274	1.9926542	1.4116141
28.646968915581287	1.9853327	1.4090184
28.66505833614671	1.9899917	1.4106706
28.68314848635055	2.029217	1.4245058
28.701239366732004	2.028165	1.4241366
28.71933097783044	2.0469878	1.4307297
28.737423320185403	2.0820842	1.4429429
28.75551639433665	2.0851846	1.4440168
28.773610200824074	2.1463797	1.4650528
28.791704740187793	2.1426623	1.4637835
28.80980001296809	2.1114838	1.4530946
28.827896019705413	2.1545532	1.4678396
28.845992760940433	2.2122653	1.4873686
28.86409023721397	2.2432985	1.4977645
28.88218844906704	2.2425456	1.4975132
28.900287397040845	2.271731	1.5072262
28.918387081676755	2.2225692	1.4908284
28.936487503516343	2.1762397	1.4752084
28.954588663101365	2.233557	1.494509
28.97269056097374	2.2877245	1.5125226
28.990793197675597	2.286595	1.5121492
29.00889657374923	2.2596645	1.503218
29.027000689737125	2.3095932	1.5197346
29.04510554618196	2.3344223	1.5278816
29.06321114362659	2.327148	1.5254992
29.08131748261405	2.3950589	1.5475978
29.099424563687567	2.4671214	1.5707073
29.11753238739057	2.4708898	1.5719064
29.13564095426663	2.4755087	1.573375
29.15375026485954	2.4995613	1.5810001
29.171860319713275	2.5357199	1.5923944
29.18997111937199	2.6514783	1.6283361
29.20808266438002	2.7400424	1.6553074
29.226194955281898	2.7551088	1.659852
29.244307992622335	2.7715511	1.6647977
29.26242177694624	2.862055	1.6917609
29.2805363087987	2.8913565	1.7003989
29.29865158872498	2.8823247	1.697741
29.316767617270557	2.8698978	1.6940773
29.334884394981064	2.9226449	1.7095745
29.353001922402367	2.9413664	1.7150413
29.37112020008047	2.9313345	1.7121141
29.389239228561596	3.0517702	1.7469317
29.407359008392152	3.2558727	1.8044037
29.42547954011872	3.5928655	1.8954855
29.44360082428809	4.2217026	2.0546782
29.46172286144722	5.2573214	2.2928848
29.479845652143283	6.7040334	2.5892148
29.497969196923606	8.660077	2.942801
29.516093496335728	11.166766	3.3416712
29.5342185509274	13.791777	3.7137282
29.55234436124651	16.142336	4.0177526
29.570470927841175	17.651533	4.2013726
29.588598251259686	17.552084	4.189521
29.60672633205055	16.135248	4.0168705
29.624855170762405	13.988463	3.7401154
29.642984767944146	11.541198	3.3972337
29.66111512414481	8.955126	2.9925115
29.67924623991366	6.7014384	2.5887136
29.697378115800138	5.1275206	2.2644029
29.71551075235387	4.1884894	2.0465798
29.733644150124675	3.7984774	1.9489683
29.751778309662576	3.5750802	1.8907882
29.769913231517766	3.4059703	1.8455272
29.78804891624066	3.326629	1.8239049
29.806185364381818	3.333935	1.8259066
29.82432257649206	3.3537607	1.8313276
29.842460553122333	3.3616073	1.8334687
29.86059929482382	3.3381941	1.8270725
29.878738802147872	3.3000278	1.8165978
29.896879075646048	3.28895	1.8135463
29.915020115870114	3.2503278	1.8028666
29.933161923371976	3.2560978	1.8044661
29.951304498703777	3.2611496	1.8058653
29.969447842417857	3.2595417	1.8054202
29.987591955066733	3.1546867	1.7761438
30.005736837203123	3.135591	1.77076
30.023882489379943	3.205077	1.7902728
30.04202891215028	3.2039688	1.7899634
30.060176106067455	3.1665797	1.7794886
30.078324071684946	3.1505983	1.7749925
30.09647280955646	3.2125206	1.7923505
30.114622320235863	3.2076235	1.7909839
30.132772604277257	3.1001189	1.7607155
30.1509236622349	3.041885	1.7441
30.16907549466328	3.0855181	1.7565643
30.18722810211705	3.0708356	1.75238
30.205381485151097	3.062824	1.7500926
30.22353564432045	3.071833	1.7526646
30.241690580180403	3.0296092	1.7405772
30.25984629328638	3.0126686	1.7357041
30.278002784194037	3.0010037	1.7323406
30.296160053459246	3.0079184	1.7343352
30.314318101638033	3.05104	1.7467226
30.332476929286646	2.9974961	1.7313279
30.35063653696153	2.8575997	1.6904436
30.368796925219307	2.857217	1.6903305
30.386958094616844	2.902999	1.7038189
30.40512004571115	2.9051452	1.7044487
30.423282779059463	2.91382	1.7069916
30.441446295219233	2.8682113	1.6935794
30.459610594748067	2.789438	1.6701611
30.47777567820382	2.8240178	1.6804814
30.495941546144504	2.832282	1.6829386
30.51410819912835	2.7555108	1.6599731
30.532275637713795	2.7791119	1.6670668
30.55044386245946	2.794545	1.6716893
30.56861287392416	2.791943	1.6709108
30.586782672666956	2.8629878	1.6920366
30.604953259247047	2.8764465	1.696009
30.623124634223885	2.7596025	1.6612052
30.641296798157075	2.6869035	1.6391777
30.659469751606462	2.716733	1.6482515
30.677643495132074	2.785532	1.6689913
30.695818029294152	2.7521927	1.6589735
30.713993354653116	2.7288892	1.651935
30.73216947176962	2.6972618	1.6423342
30.75034638120448	2.703857	1.6443409
30.768524083518756	2.736586	1.654263
30.786702579273673	2.764433	1.6626583
30.80488186903069	2.7820017	1.6679333
30.82306195335144	2.8768632	1.6961318
30.841242832797782	3.0566592	1.7483304
30.85942450793176	3.3049324	1.8179473
30.877606979315637	3.6963706	1.9225948
30.895790247511883	4.129801	2.032191
30.913974313083134	4.52639	2.1275315
30.932159176592283	4.806258	2.192318
30.95034483860237	4.817797	2.1949482
30.968531299676698	4.6828823	2.163997
30.98671856037873	4.33587	2.0822752
31.00490662127215	3.902781	1.9755458
31.023095482920848	3.450949	1.857673
31.04128514588892	3.0542414	1.7476388
31.059475610740662	2.665086	1.6325091
31.07766687804056	2.4711318	1.5719835
31.09585894835335	2.4903083	1.5780711
31.11405182224393	2.5043175	1.5825036
31.132245500277417	2.4059436	1.5511105
31.15043998301914	2.342851	1.5306374
31.168635271034628	2.4282966	1.5582993
31.18683136488964	2.4575014	1.567642
31.20502826515008	2.4382668	1.5614951
31.223225972382135	2.4124992	1.5532222
31.241424487152155	2.4274828	1.5580381
31.259623810026692	2.4356985	1.5606724
31.27782394157253	2.4731724	1.5726323
31.296024882356644	2.5138755	1.5855206
31.314226632946237	2.4574335	1.5676203
31.332429193908684	2.3460453	1.5316806
31.350632565811598	2.365042	1.5378693
31.368836749222787	2.4219053	1.5562472
31.387041744710295	2.470098	1.5716546
31.40524755284232	2.517464	1.5866518
31.423454174187317	2.4882398	1.5774156
31.441661609313922	2.4653125	1.5701313
31.459869858791002	2.4501672	1.565301
31.478078923187628	2.4403622	1.5621659
31.496288803073064	2.3623643	1.5369985
31.514499499016807	2.3513694	1.5334176
31.532711011588546	2.353382	1.5340737
31.550923341358178	2.393991	1.5472528
31.56913648889584	2.3925145	1.5467755
31.587350454771844	2.3614216	1.5366918
31.605565239556732	2.3656948	1.5380815
31.62378084382127	2.3537	1.5341773
31.641997268136382	2.3472404	1.5320706
31.660214513073274	2.333717	1.5276508
31.67843257920331	2.3159642	1.5218292
31.6966514670981	2.3107636	1.5201195
31.71487117732944	2.3049657	1.5182114
31.733091710469346	2.2611668	1.5037177
31.751313067090052	2.2240257	1.4913168
31.769535247764008	2.2170298	1.4889693
31.787758253063878	2.1867275	1.4787588
31.805982083562526	2.2048604	1.4848772
31.824206739833024	2.263151	1.5043772
31.84243222244869	2.2926357	1.5141453
31.860658531983013	2.231767	1.49391
31.878885669009737	2.2023413	1.4840287
31.897113634102784	2.293706	1.5144986
31.91534242783632	2.294934	1.514904
31.933572050784694	2.2179735	1.4892862
31.951802503522508	2.2078183	1.4858729
31.970033786624548	2.3240056	1.5244689
31.988265900665834	2.2889276	1.5129203
32.006498846221575	2.2526653	1.5008881
32.02473262386724	2.213768	1.4878737
32.04296723417845	2.2144191	1.4880924
32.0612026777311	2.2416563	1.4972162
32.07943895510129	2.224199	1.4913749
32.097676066865304	2.2008336	1.4835206
32.115914013599685	2.211035	1.4869549
32.13415279588115	2.1772735	1.4755588
32.152392414286666	2.08589	1.4442611
32.1706328693934	2.0612986	1.4357224
32.18887416177875	2.0988154	1.4487289
32.20711629202032	2.1768057	1.4754002
32.225359260695924	2.184406	1.4779736
32.243603068383614	2.1058438	1.4511526
32.26184771566166	2.0951772	1.4474727
32.28009320310852	2.062649	1.4361925
32.2983395313029	2.1259198	1.4580535
32.31658670082372	2.0946214	1.4472806
32.33483471225012	2.0659964	1.4373574
32.35308356616143	2.0467288	1.4306393
32.371333263137245	2.1273258	1.4585354
32.38958380375734	2.1482663	1.4656966
32.407835188601744	2.1915588	1.4803915
32.42608741825067	2.181221	1.4768957
32.444340493284585	2.1508029	1.4665616
32.46259441428416	2.0610476	1.4356349
32.48084918183028	1.992216	1.4114588
32.49910479650405	1.9889232	1.4102919
32.51736125888683	2.104705	1.4507601
32.53561856956014	2.1021564	1.4498816
32.5538767291058	2.05055	1.4319742
32.572135738105764	1.9637434	1.4013363
32.59039559714228	1.9162388	1.3842828
32.608656306797776	1.9810594	1.4075011
32.62691786765491	2.0407097	1.4285342
32.645180280296586	2.0506244	1.4320002
32.663443545305896	2.1505086	1.4664613
32.68170766326619	2.1384451	1.4623424
32.69997263476099	2.0586941	1.434815
32.7182384603741	2.0374167	1.427381
32.7365051406895	2.0826352	1.4431338
32.75477267629144	2.0540395	1.433192
32.77304106776434	1.9925084	1.4115624
32.79131031569289	2.0319836	1.4254767
32.809580420661966	2.0354292	1.4266847
32.827851383256714	1.9568477	1.3988737
32.84612320406245	2.0000997	1.4142488
32.86439588366476	2.0255165	1.4232064
32.88266942264945	1.9674498	1.4026581
32.9009438216025	1.8974532	1.3774807
32.9192190811102	2.0089366	1.4173696
32.937495201758985	2.0113325	1.4182146
32.95577218413556	1.9661855	1.4022074
32.974050028826866	1.9743198	1.4051049
32.992328736420035	1.989869	1.4106271
33.010608307502444	1.9921964	1.4114519
33.02888874266169	2.0437343	1.4295924
33.047170042485604	2.1014187	1.4496272
33.06545220756225	2.0647833	1.4369354
33.083735238479896	2.0227854	1.4222466
33.10201913582707	1.9845477	1.4087398
33.12030390019248	1.9751396	1.4053966
33.138589532165135	2.0459633	1.4303718
33.15687603233419	2.0832071	1.443332
33.17516340128909	2.0048113	1.4159136
33.19345163961947	1.9356897	1.3912907
33.211740747915215	1.8750118	1.3693107
33.23003072676643	1.9160122	1.3842009
33.248321576763466	2.013745	1.4190649
33.266613298496885	2.0436044	1.429547
33.28490589255747	2.0248802	1.4229828
33.30319935953626	1.9838985	1.4085094
33.32149370002451	1.9606509	1.4002324
33.339788914613706	1.9211639	1.3860606
33.358085003895575	1.9532145	1.3975745
33.376381968462034	1.8866271	1.3735454
33.39467980890529	1.773007	1.3315431
33.41297852581774	1.8064704	1.34405
33.43127811979204	1.8327422	1.3537881
33.44957859142105	1.9361327	1.3914498
33.467879941297866	2.0516055	1.4323426
33.486182170015844	2.0522418	1.4325647
33.50448527816853	2.001174	1.4146285
33.522789266349754	2.053691	1.4330704
33.541094135153514	2.061968	1.4359554
33.55939988517411	1.9802032	1.4071969
33.57770651700602	2.047271	1.4308288
33.59601403124398	2.0378816	1.4275439
33.61432242848296	1.9293402	1.389007
33.632631709318154	1.8290045	1.352407
33.650941874344994	1.9361337	1.3914503
33.66925292415916	1.9549763	1.3982047
33.68756485935654	1.9738508	1.404938
33.70587768053328	1.948743	1.3959738
33.724191388285746	1.9060627	1.3806024
33.74250598321054	1.883962	1.3725749
33.760821465904506	1.8615848	1.3643991
33.77913783696474	1.8608525	1.3641306
33.79745509698852	1.7851522	1.3360959
33.815773246573414	1.7919222	1.338627
33.8340922863172	1.8707545	1.3677553
33.852412216817896	1.8132262	1.3465608
33.87073303867377	1.7680126	1.3296664
33.889054752483304	1.9013488	1.3788941
33.907377358845245	1.9311087	1.3896434
33.92570085835853	1.7815253	1.3347379
33.94402525162239	1.7658265	1.3288441
33.96235053923627	1.8275468	1.3518679
33.980676721799824	1.8842461	1.3726784
33.999003799912984	1.8754476	1.3694699
34.01733177417592	1.8077748	1.3445351
34.03566064518901	1.8331754	1.3539481
34.0539904135529	2.0067112	1.4165844
34.07232107986846	2.107504	1.4517244
34.090652644736785	2.083582	1.4434618
34.108985108759235	1.9876448	1.4098386
34.12731847253742	1.9031115	1.379533
34.14565273667313	1.9336927	1.3905728
34.16398790176847	2.041621	1.428853
34.18232396842574	2.0529716	1.4328195
34.20066093724749	1.9412042	1.3932711
34.21899880883651	1.8726964	1.368465
34.23733758379583	1.8569344	1.3626938
34.25567726272874	1.875271	1.3694054
34.27401784623872	1.8849156	1.3729223
34.29235933492957	1.9640856	1.4014584
34.31070172940526	1.9835128	1.4083724
34.32904503027003	2.002462	1.4150838
34.347389238128386	1.9741971	1.4050612
34.36573435358502	1.8991796	1.3781072
34.38408037724492	2.0521538	1.4325341
34.402427309713296	2.0491917	1.4314998
34.42077515159559	2.0162864	1.41996
34.43912390349752	1.970961	1.4039092
34.45747356602499	1.9363129	1.3915147
34.47582413978423	2.0296087	1.4246434
34.49417562538163	2.0436668	1.4295688
34.51252802342388	1.9911213	1.411071
34.53088133451789	1.9629087	1.4010384
34.54923555927084	1.8862472	1.3734071
34.567590698290104	1.9582282	1.3993671
34.58594675218336	1.9196254	1.3855054
34.6043037215585	1.9770656	1.4060817
34.62266160702365	1.9787548	1.4066821
34.641020409187234	1.9685711	1.4030578
34.65938012865785	2.0454009	1.4301751
34.677740766044394	2.120626	1.456237
34.69610232195598	2.1140883	1.4539905
34.714464797002016	2.02418	1.4227368
34.73282819179208	2.027503	1.4239042
34.751192506936064	2.175177	1.4748482
34.76955774304408	2.1527443	1.4672233
34.7879239007265	1.9981043	1.4135432
34.80629098059391	1.9614252	1.4005089
34.824658983257194	2.0862582	1.4443885
34.843027909327446	1.9203608	1.3857708
34.86139775941603	1.7731278	1.3315885
34.879768534134534	1.7761419	1.3327197
34.89814023409483	2.0235407	1.4225122
34.91651285990901	2.0832899	1.4433606
34.93488641218944	1.968488	1.4030281
34.95326089154871	1.9843662	1.4086753
34.97163629859967	2.0966609	1.447985
34.99001263395542	2.1173215	1.4551018
35.00838989822934	1.9989592	1.4138455
35.02676809203499	1.9044048	1.3800018
35.04514721598624	1.9461391	1.3950409
35.063527270697215	1.8046935	1.3433888
35.081908256782256	1.6139278	1.2704046
35.10029017485597	1.6461364	1.2830185
35.11867302553321	1.6686112	1.2917473
35.137056809429104	1.8060281	1.3438854
35.155441527159006	2.19909	1.4829329
35.173827179338524	2.1488874	1.4659084
35.19221376658354	1.820843	1.3493861
35.21060128951017	1.7121656	1.3084974
35.2289897487348	1.7749208	1.3322616
35.24737914487405	1.7404879	1.3192755
35.26576947854479	1.9385645	1.3923234
35.28416075036418	2.145243	1.4646648
35.30255296094958	2.3359993	1.5283976
35.32094611091867	2.316372	1.5219631
35.33934020088932	2.0037909	1.4155532
35.35773523147969	1.9794856	1.4069419
35.3761312033082	1.6670558	1.2911452
35.394528116993506	1.6656777	1.2906114
35.41292597315452	1.7488245	1.3224313
35.431324772410434	1.6262293	1.275237
35.449724515380666	1.9181044	1.3849565
35.46812520268491	2.262472	1.5041516
35.486526834943106	2.5400748	1.5937612
35.504929412775454	2.5325792	1.5914079
35.52333293680242	2.292702	1.5141671
35.54173740764471	2.0859041	1.444266
35.560142825923286	1.7655166	1.3287275
35.5785491922594	1.7921722	1.3387203
35.59695650727454	1.450723	1.2044597
35.61536477159042	1.8569168	1.3626873
