0.008763373481513119	0.0	0.0
0.026290120649546365	0.0	0.0
0.043816868432600686	0.054749444	0.23398599
0.06134361724069026	0.10053836	0.31707785
0.07887036748382949	0.079171516	0.28137434
0.0963971195720331	0.14962938	0.38681957
0.11392387391531617	0.16871227	0.410746
0.1314506309236943	0.16980404	0.41207287
0.1489773910071836	0.13030031	0.36097136
0.16650415457580078	0.051176995	0.22622333
0.18403092203956356	0.09099899	0.3016604
0.20155769380849	0.08493757	0.29144052
0.2190844702925996	0.101870045	0.31917086
0.2366112519019124	0.11852073	0.3442684
0.2541380390464497	0.103792764	0.32216886
0.27166483213623416	0.09988141	0.31604022
0.28919163158128947	0.10328457	0.32137915
0.3067184377916406	0.16397808	0.40494207
0.324245251177314	0.22053593	0.46961254
0.34177207214833777	0.190522	0.43648827
0.3592989011147415	0.15690137	0.3961078
0.37682573848655654	0.09187593	0.30311042
0.39435258467381573	0.09323231	0.30533966
0.41187944008655414	0.15362348	0.3919483
0.42940630513480854	0.14603724	0.38214818
0.446933180228618	0.17549148	0.41891703
0.4644600657780234	0.2002968	0.44754532
0.48198696219306775	0.18935475	0.4351491
0.49951386988379676	0.21063966	0.45895496
0.5170407892602581	0.18567352	0.43089852
0.5345677207325025	0.22210495	0.47128013
0.5520946647105822	0.2308602	0.48047915
0.5696216216045534	0.19674622	0.44356084
0.5871485918244737	0.15290217	0.39102706
0.6046755757804043	0.16524781	0.40650684
0.6222025738824094	0.19440787	0.44091707
0.6397295865405557	0.21472666	0.4633861
0.6572566141649129	0.2171051	0.4659454
0.6747836571655547	0.2243483	0.4736542
0.6923107159525568	0.20578101	0.45363092
0.7098377909359992	0.192646	0.43891457
0.7273648825259653	0.14116248	0.37571597
0.7448919911325411	0.12238014	0.34982872
0.762419117165817	0.097486086	0.3122276
0.7799462610358868	0.11066978	0.33267066
0.7974734231528482	0.13203701	0.363369
0.8150006039268024	0.17162935	0.41428173
0.8325278037678551	0.19368859	0.44010064
0.8500550230861152	0.215416	0.4641293
0.8675822622916969	0.21043974	0.4587371
0.8851095217947171	0.20247944	0.44997716
0.9026368020052984	0.19854191	0.44558042
0.9201641033335665	0.20111245	0.44845563
0.9376914261896523	0.22145429	0.4705893
0.9552187709836915	0.22612691	0.47552803
0.9727461381258234	0.23265523	0.48234347
0.990273528026193	0.21671763	0.4655294
1.0078009410949496	0.23130214	0.48093882
1.0253283777422473	0.2264061	0.4758215
1.0428558383782454	0.22731553	0.47677618
1.0603833234131086	0.2461123	0.49609706
1.0779108332570058	0.28830633	0.53694165
1.0954383683201119	0.3255135	0.5705379
1.112965929012607	0.37661922	0.6136931
1.1304935157446763	0.5042006	0.71007085
1.1480211289265108	0.5312813	0.7288905
1.1655487689683062	1.4824278	1.2175499
1.1830764362802655	1.8153105	1.3473346
1.200604131272596	2.155892	1.4682956
1.2181318543555117	2.2583616	1.5027846
1.235659605939232	2.2211933	1.4903668
1.253187386433982	3.651197	1.9108106
1.270715196249994	6.025296	2.4546478
1.2882430357975057	11.294143	3.360676
1.3057709054867608	16.27008	4.033619
1.3232988057280106	22.378832	4.730627
1.3408267369315112	27.302296	5.2251596
1.358354699507526	31.03899	5.5712647
1.3758826938663256	34.802074	5.899328
1.3934107204181858	36.437904	6.0363817
1.410938779573391	36.537724	6.0446444
1.4284668717422309	37.061996	6.0878563
1.4459949973350033	36.531754	6.0441504
1.4635231567620117	36.782772	6.0648804
1.4810513504335687	36.317917	6.026435
1.4985795787599925	35.451103	5.954083
1.5161078421516088	34.778366	5.8973184
1.5336361410187505	33.790916	5.8129954
1.5511644757717598	33.930885	5.825022
1.5686928468209842	34.748104	5.894752
1.58622125457678	35.252148	5.9373517
1.6037496994495108	36.30851	6.0256543
1.621278181849548	36.101524	6.0084543
1.6388067021872719	37.00877	6.083483
1.6563352608730693	36.524902	6.0435834
1.673863858317336	35.82148	5.985105
1.6913924949304753	35.029884	5.918605
1.7089211711228998	34.17486	5.845927
1.7264498873050296	33.230175	5.764562
1.7439786438872935	32.212826	5.6756344
1.7615074412801288	31.47574	5.6103244
1.779036279893981	30.756989	5.5458984
1.796565160139305	29.601046	5.4406843
1.814094082426564	29.012625	5.386337
1.8316230471662298	28.203318	5.3106794
1.849152054768784	27.46562	5.240765
1.8666811056447168	27.009773	5.1970925
1.8842102002045273	26.246094	5.123094
1.901739338858724	25.86403	5.085669
1.9192685220178245	25.391092	5.0389576
1.9367977500923557	24.759422	4.975884
1.9543270234928547	24.114084	4.9106092
1.971856342629867	23.167065	4.8132176
1.9893857079139496	22.597452	4.753678
2.006915119755667	22.089025	4.6998963
2.0244445785655945	21.430578	4.6293173
2.0419740847543175	20.780891	4.558606
2.0595036387324317	20.343056	4.510328
2.0770332409105414	19.96809	4.468567
2.094562891699263	19.733511	4.4422417
2.1120925915092217	19.31931	4.395374
2.129622340751053	19.151464	4.376239
2.1471521398354043	187.57257	13.695714
2.1646819891729323	444.19943	21.076038
2.182211889174303	440.5129	20.9884
2.1997418402501974	452.85748	21.280449
2.2172718428113023	432.48996	20.796392
2.234801897268317	320.32068	17.897505
2.2523320040319548	16.785957	4.097067
2.269862163512935	16.374527	4.046545
2.287392376121992	16.075624	4.009442
2.304922642269869	15.98203	3.9977531
2.322452962367322	15.676431	3.9593472
2.3399833368251164	15.316307	3.9136055
2.357513766054032	14.904656	3.8606548
2.3750442504648586	14.71869	3.8364944
2.3925747904683963	14.593564	3.8201523
2.410105386475459	14.358477	3.789258
2.4276360388968707	14.247569	3.7745953
2.445166748143469	13.877617	3.7252674
2.4626975146261025	13.508602	3.675405
2.4802283387556323	13.116916	3.6217282
2.4977592209429305	12.906011	3.5924935
2.5152901615988825	12.800037	3.577714
2.5328211611343865	12.64628	3.556161
2.5503522199603523	12.308003	3.5082765
2.5678833384877024	12.013032	3.4659822
2.5854145171273712	11.915467	3.4518788
2.6029457562903064	11.771291	3.4309316
2.620477056387469	11.518752	3.3939288
2.6380084178298326	11.312123	3.36335
2.655539841028383	11.188332	3.3448963
2.673071326394119	11.098509	3.3314424
2.6906028743380523	11.095182	3.330943
2.708134485271211	10.904721	3.3022296
2.7256661596046325	10.881533	3.2987168
2.743197897749369	10.645924	3.2628093
2.760729700116486	10.400799	3.2250268
2.778261567117063	9.99798	3.1619582
2.795793499162193	9.745349	3.1217542
2.8133254966629817	9.535843	3.088016
2.830857560030551	9.34494	3.0569494
2.8483896896760337	9.366376	3.0604537
2.865921886010578	9.3188925	3.0526862
2.883454149445347	9.311816	3.0515268
2.9009864803915177	9.189049	3.0313444
2.91851887926028	9.0763445	3.0126972
2.9360513464628384	9.019044	3.0031724
2.953583882410413	8.873808	2.9788938
2.9711164875142373	8.851923	2.975218
2.9886491621855606	8.784682	2.9638965
3.0061819068356455	8.551509	2.9242964
3.023714721875769	8.251108	2.8724742
3.041247607717225	8.036143	2.8348093
3.0587805647713213	7.9481344	2.8192437
3.0763135934493806	8.014771	2.8310373
3.0938466941627407	7.8613954	2.803818
3.1113798673227544	7.814948	2.795523
3.1289131133407904	7.7515883	2.7841675
3.1464464326282315	7.6869454	2.7725341
3.1639798255964786	7.575384	2.7523415
3.1815132926569443	7.4328356	2.7263227
3.1990468342210603	7.250037	2.6925893
3.216580450700272	7.1595116	2.6757264
3.2341141425060416	7.164847	2.6767232
3.251647910049847	7.1550307	2.6748888
3.2691817537431813	7.076878	2.6602402
3.286715673997555	7.0300713	2.6514282
3.3042496712244938	7.0552845	2.6561785
3.32178374583554	7.014201	2.6484337
3.339317898242251	6.8293114	2.613295
3.3568521288562034	6.6887484	2.5862615
3.3743864380889876	6.6136236	2.5716968
3.3919208263522127	6.513466	2.5521493
3.4094552940575023	6.4233513	2.5344331
3.4269898416164972	6.3867764	2.5272071
3.444524469440858	6.3947177	2.5287778
3.4620591779422587	6.471325	2.54388
3.479593967532391	6.4978642	2.5490909
3.4971288386229658	6.411497	2.5320935
3.5146637916257086	6.4499125	2.5396678
3.5321988269523628	6.3901463	2.5278738
3.5497339450146903	6.264564	2.502911
3.5672691462244708	6.253282	2.5006564
3.5848044309934988	6.2053347	2.491051
3.60233979973359	6.148402	2.479597
3.619875252856575	6.115559	2.4729657
3.6374107907743034	6.060566	2.4618216
3.6549464138986427	6.0698338	2.4637032
3.6724821226414788	6.0581727	2.4613357
3.690017917414714	6.09285	2.46837
3.7075537986302702	6.1091824	2.471676
3.7250897667000857	6.15146	2.4802136
3.7426258220361235	6.3004827	2.5100763
3.7601619650503553	6.6491866	2.5786016
3.777698196154779	7.215884	2.6862397
3.7952345157614067	8.262126	2.8743913
3.8127709242822716	9.08657	3.0143938
3.830307422129425	11.397223	3.3759775
3.847844009714936	30.333433	5.50758
3.8653806874508954	97.7992	9.889348
3.882917455749409	96.954254	9.846535
3.900454315022606	96.60393	9.82873
3.917991265682631	41.164425	6.415951
3.9355283081416506	10.782169	3.2836213
3.9530654428118495	8.591907	2.9311955
3.970602670105433	7.220496	2.687098
3.9881399904346244	6.282887	2.5065687
4.005677404211669	6.1563253	2.4811943
4.023214911848827	6.2095556	2.491898
4.0407525137583855	6.289199	2.5078275
4.058290210352644	6.286921	2.5073733
4.075828002043927	6.199953	2.4899704
4.0933658892445814	6.250105	2.500021
4.110903872366966	6.197636	2.4895053
4.128441951823468	6.1837707	2.486719
4.145980128026488	6.1453323	2.4789782
4.163518401388452	6.050629	2.4598026
4.181056772321807	5.9513807	2.4395452
4.1985952412390155	5.8827367	2.4254353
4.216133808552567	5.9020395	2.4294114
4.233672474674966	5.9745607	2.4442914
4.251211240018741	6.252474	2.5004947
4.268750104996445	6.512303	2.5519214
4.286289070020643	7.605301	2.757771
4.303828135503928	9.194923	3.032313
4.3213673018589125	29.409344	5.423038
4.3389065694982305	90.572365	9.516952
4.356445938834537	165.81946	12.87709
4.3739854102805085	170.96367	13.075308
4.391524984248844	171.76387	13.105871
4.409064661152262	135.75844	11.651543
4.426604441403504	96.0353	9.79976
4.444144325415337	75.27227	8.67596
4.461684313600543	21.183071	4.602507
4.47922440637193	21.770784	4.6659174
4.496764604142329	20.198456	4.4942694
4.5143049073245916	18.301245	4.2779956
4.531845316331589	16.148224	4.018485
4.5493858315762195	13.1762295	3.6299076
4.566926453471405	10.950455	3.3091471
4.584467182430081	8.961767	2.993621
4.602008018865218	7.891428	2.8091686
4.619548963189798	7.241439	2.690992
4.637090015816834	6.7570004	2.5994232
4.654631177159353	6.5343776	2.556243
4.672172447630417	6.3413725	2.5182083
4.689713827643102	6.160991	2.4821343
4.7072553176105085	5.959452	2.4411988
4.724796917945764	5.8133245	2.4110837
4.742338629062015	5.7570295	2.3993812
4.759880451372434	5.721262	2.391916
4.777422385290215	5.631023	2.3729777
4.794964431228581	5.501257	2.345476
4.812506589600768	5.4951186	2.344167
4.830048860820047	5.491316	2.3433557
4.847591245299709	5.5420327	2.3541522
4.8651337434530655	5.494803	2.3440995
4.882676355693457	5.407623	2.3254297
4.900219082434242	5.3822017	2.3199573
4.917761924088813	5.3648586	2.3162165
4.935304881070575	5.431302	2.3305154
4.952847953792969	5.387881	2.3211808
4.970391142669449	5.3483276	2.3126452
4.9879344481135055	5.3822417	2.3199658
5.005477870538642	5.367019	2.3166828
5.023021410358394	5.3978777	2.3233333
5.040565067986324	5.407764	2.32546
5.05810884383601	5.3485627	2.312696
5.075652738321066	5.2671394	2.2950249
5.09319675185512	5.173041	2.274432
5.110740884851836	5.1699915	2.2737615
5.128285137724894	5.2012506	2.280625
5.145829510888007	5.275368	2.296817
5.163374004754908	5.2730436	2.296311
5.1809186197393595	5.2730093	2.2963035
5.198463356255145	5.225358	2.2859042
5.216008214716077	5.1761065	2.2751057
5.233553195535998	5.146555	2.268602
5.251098299128764	5.122833	2.2633677
5.268643525908272	5.104471	2.2593076
5.286188876288432	5.134071	2.2658489
5.3037343506831895	5.11312	2.261221
5.32127994950651	5.1378536	2.2666833
5.3388256731723915	5.094684	2.2571406
5.356371522094851	5.1285353	2.264627
5.373917496687938	5.1396194	2.267073
5.391463597365729	5.10351	2.259095
5.40900982454232	5.1389604	2.2669275
5.426556178631843	5.0699587	2.2516568
5.444102660048449	5.035578	2.2440093
5.4616492692063225	4.98718	2.2331996
5.479196006519669	5.0080914	2.2378767
5.496742872402727	5.0074005	2.2377222
5.514289867269756	5.037134	2.2443562
5.531836991535049	5.026791	2.2420506
5.549384245612924	4.9451056	2.2237594
5.566931629917724	4.924616	2.2191474
5.584479144863822	5.0043936	2.2370503
5.6020267908656205	5.045345	2.2461846
5.619574568337545	5.102518	2.2588754
5.637122477694054	5.0435667	2.2457886
5.654670519349629	5.0155787	2.2395487
5.672218693718784	5.0319037	2.2431905
5.689767001216059	5.081714	2.2542658
5.707315442256021	4.95496	2.2259738
5.724864017253266	4.9308376	2.2205489
5.7424127266224225	4.9478073	2.2243667
5.75996157077814	4.9792013	2.2314124
5.777510550135105	5.0978575	2.2578435
5.795059665108022	5.181556	2.2763033
5.812608916111639	5.2416105	2.2894564
5.830158303560715	5.2819767	2.2982552
5.847707827870055	5.1739388	2.2746294
5.86525748945448	5.1904597	2.278258
5.8828072887288485	5.3688	2.3170671
5.900357226108044	5.471598	2.3391447
5.917907302006979	5.577993	2.3617775
5.9354575168406	6.257614	2.5015223
5.9530078710238765	6.9346185	2.6333663
5.970558364971812	7.524801	2.7431371
5.988108999099438	7.746422	2.7832394
6.005659773821818	8.351675	2.8899264
6.023210689554039	8.140307	2.8531225
6.040761746711227	8.678514	2.9459317
6.058312945708531	7.857661	2.8031518
6.075864286961132	7.249402	2.6924713
6.093415770884244	6.5225635	2.553931
6.1109673978931065	6.0259814	2.4547875
6.128519168402993	5.5131326	2.348006
6.146071082829204	5.313155	2.3050282
6.163623141587075	5.1561174	2.2707086
6.181175345091969	5.048176	2.2468145
6.198727693759281	5.000532	2.236187
6.216280188004435	5.0104194	2.2383966
6.233832828242885	5.023979	2.2414234
6.251385614890126	4.979207	2.2314136
6.268938548361669	4.883543	2.209874
6.286491629073067	4.8687406	2.2065222
6.304044857439898	4.863484	2.2053308
6.321598233877777	4.815598	2.194447
6.339151758802344	4.762289	2.182267
6.356705432629277	4.801964	2.1913383
6.37425925577428	4.778343	2.1859422
6.391813228653095	4.772506	2.1846066
6.409367351681486	4.7687936	2.1837568
6.426921625275259	4.744929	2.1782858
6.44447604985025	4.8048296	2.191992
6.46203062582232	4.83072	2.1978898
6.47958535360737	4.9091167	2.2156527
6.497140233621328	4.8672447	2.2061832
6.514695266280161	4.844456	2.2010126
6.532250451999859	4.912113	2.2163289
6.549805791196454	4.928398	2.2199996
6.567361284286002	4.893897	2.2122154
6.584916931684597	4.873256	2.2075453
6.602472733808367	4.8900266	2.2113404
6.6200286910734665	4.9380083	2.222163
6.637584803896092	4.9242406	2.219063
6.655141072692462	4.863605	2.2053583
6.672697497878842	4.8407454	2.2001693
6.690254079871514	4.9086185	2.2155402
6.707810819086808	4.9578147	2.2266152
6.725367715941078	4.9723425	2.229875
6.742924770850719	4.9603205	2.2271776
6.760481984232151	4.9248195	2.2191935
6.778039356501836	4.877281	2.2084568
6.795596888076266	4.848664	2.2019682
6.813154579371963	4.847768	2.2017648
6.830712430805492	4.8589444	2.2043014
6.84827044279344	4.8728814	2.2074604
6.865828615752445	4.8419514	2.2004435
6.883386950099159	4.846532	2.201484
6.900945446250287	4.8362603	2.1991498
6.918504104622553	4.858288	2.2041523
6.936062925632727	4.9120483	2.216314
6.953621909697607	4.943622	2.2234259
6.971181057234028	5.002691	2.2366695
6.988740368658859	5.0297523	2.2427108
7.006299844389007	5.0660543	2.2507896
7.023859484841407	5.137571	2.266621
7.041419290433036	5.1672997	2.2731695
7.058979261580902	5.311306	2.3046272
7.0765393987020495	5.5060644	2.3465004
7.094099702213559	5.85389	2.4194813
7.111660172532549	6.273798	2.504755
7.129220810076164	6.532574	2.55589
7.146781615261595	6.9965377	2.645097
7.16434258850606	7.2151647	2.686106
7.181903730226821	7.598372	2.7565145
7.1994650408411704	7.843959	2.8007069
7.217026520766437	8.000372	2.8284929
7.234588170419983	8.309156	2.8825607
7.252149990219215	8.346479	2.8890274
7.269711980581568	8.24491	2.871395
7.2872741419245175	7.983704	2.8255448
7.304836474665574	7.6018844	2.7571516
7.322398979222286	7.296724	2.7012448
7.339961656012233	7.0619984	2.657442
7.357524505453039	6.727592	2.5937603
7.375087527962357	6.458268	2.5413122
7.392650723957886	6.1652303	2.482988
7.410214093857353	5.801014	2.4085295
7.427777638078528	5.5884037	2.3639805
7.445341357039213	5.3940597	2.3225114
7.4629052511572525	5.2769904	2.2971702
7.480469320850524	5.1911316	2.2784054
7.498033566536948	5.1259613	2.2640586
7.5155979886344735	5.086385	2.2553015
7.5331625875610975	5.0636973	2.250266
7.550727363734844	5.0418253	2.245401
7.568292317573788	4.9524193	2.225403
7.585857449496025	4.9216223	2.218473
7.603422759919705	4.9397354	2.2225516
7.620988249263007	4.987174	2.2331982
7.638553917944147	5.0227585	2.241151
7.656119766381391	5.041709	2.245375
7.673685794993023	5.0720797	2.252128
7.691252004197388	5.1109257	2.2607358
7.70881839441285	5.1237516	2.2635705
7.726384966057826	5.154511	2.2703547
7.743951719550762	5.172874	2.2743952
7.761518655310149	5.1095967	2.2604418
7.779085773754511	5.0735846	2.252462
7.796653075302419	5.0560713	2.248571
7.814220560372475	5.1430426	2.2678277
7.831788229383323	5.1287394	2.264672
7.8493560827536495	5.166777	2.2730546
7.866924120902174	5.172335	2.2742767
7.884492344247663	5.2080703	2.2821198
7.9020607532089135	5.24879	2.2910237
7.919629348204771	5.236019	2.288235
7.937198129654115	5.235255	2.2880678
7.954767097975865	5.229591	2.28683
7.972336253588986	5.2493587	2.291148
7.989905596912472	5.2757516	2.2969005
8.007475128365371	5.2799435	2.2978127
8.025044848366756	5.362175	2.315637
8.042614757335754	5.501135	2.34545
8.060184855691523	5.522686	2.3500395
8.07775514385327	5.61198	2.3689618
8.095325622240228	5.6155815	2.369722
8.112896291271687	5.6538105	2.3777742
8.130467151366968	5.776697	2.403476
8.148038202945436	5.8414636	2.416912
8.165609446426497	5.8747616	2.4237907
8.183180882229594	5.8870482	2.4263241
8.200752510774217	5.823822	2.4132597
8.218324332479893	5.8207765	2.4126287
8.235896347766193	5.839808	2.4165695
8.253468557052724	5.8951554	2.427994
8.27104096075914	5.8723946	2.4233024
8.288613559305137	5.892301	2.4274063
8.306186353110448	5.889774	2.4268856
8.32375934259485	6.0227895	2.4541373
8.341332528178162	6.053238	2.4603329
8.358905910280246	6.0839267	2.4665618
8.376479489321003	6.06116	2.4619424
8.394053265720377	6.1567154	2.481273
8.411627239898356	6.211322	2.4922523
8.42920141227497	6.267599	2.5035174
8.44677578327029	6.2053094	2.491046
8.464350353304427	6.1095524	2.471751
8.48192512279754	6.0420814	2.4580646
8.499500092169827	6.0097704	2.4514832
8.51707526184153	6.0606956	2.461848
8.534650632232934	6.0596647	2.4616387
8.552226203764365	6.0834417	2.4664633
8.569801976856192	6.1108327	2.47201
8.587377951928834	6.184506	2.4868667
8.60495412940274	6.171309	2.484212
8.622530509698416	6.2145658	2.492903
8.6401070932364	6.2725863	2.5045133
8.657683880437283	6.333909	2.5167258
8.675260871721695	6.527829	2.5549617
8.692838067510303	6.6200333	2.5729425
8.710415468223834	6.7436614	2.596856
8.727993074283043	6.849937	2.6172385
8.745570886108737	6.92259	2.6310816
8.763148904121765	6.972721	2.6405911
8.78072712874302	6.995447	2.6448908
8.798305560393441	7.1517425	2.6742742
8.815884199494006	7.3210955	2.7057524
8.833463046465745	7.529715	2.7440326
8.851042101729728	7.6532974	2.7664595
8.86862136570707	7.918099	2.8139117
8.886200838818924	8.028283	2.8334224
8.903780521486505	8.10391	2.846737
8.921360414131055	8.23363	2.8694303
8.938940517173874	8.406616	2.8994164
8.956520831036297	8.562624	2.926196
8.97410135613971	8.815165	2.9690342
8.99168209290554	8.99317	2.9988613
9.009263041755265	9.227461	3.0376737
9.026844203110405	9.396448	3.0653627
9.044425577392525	9.608821	3.09981
9.062007165023239	9.787528	3.1285026
9.079588966424197	10.140957	3.1844869
9.097170982017108	10.234286	3.1991072
9.11475321222372	11.38798	3.3746083
9.132335657465825	12.329245	3.5113025
9.149918318165264	12.519348	3.538269
9.167501194743924	13.107772	3.6204658
9.18508428762374	12.64247	3.5556252
9.202667597226693	12.5623665	3.544343
9.220251123974803	12.218254	3.495462
9.237834868290143	11.891414	3.4483929
9.255418830594836	11.714887	3.4227016
9.273003011311046	11.199353	3.3465436
9.290587410860985	11.011026	3.3182867
9.308172029666911	10.372016	3.2205615
9.32575686815113	10.055727	3.1710765
9.343341926735997	8.696378	2.9489622
9.360927205843916	8.470965	2.9104922
9.378512705897327	8.213739	2.8659623
9.396098427318728	8.01151	2.830461
9.413684370530664	7.904272	2.8114538
9.431270535955722	7.810515	2.79473
9.448856924016539	7.712986	2.7772262
9.466443535135806	7.56699	2.750816
9.484030369736251	7.527605	2.743648
9.501617428240658	7.469792	2.733092
9.519204711071852	7.4773674	2.7344775
9.536792218652714	7.6124644	2.7590694
9.55437995140617	7.723287	2.7790802
9.571967909755191	7.765659	2.786693
9.589556094122802	7.7689414	2.787282
9.60714450493207	7.797687	2.792434
9.624733142606116	7.8419213	2.800343
9.642322007568108	7.947662	2.8191597
9.659911100241267	7.92608	2.8153296
9.677500421048851	7.893436	2.809526
9.695089970414175	7.8912005	2.809128
9.712679748760609	7.905299	2.8116364
9.730269756511557	7.9471555	2.8190699
9.747859994090492	7.932757	2.816515
9.765450461920915	7.9706435	2.823233
9.78304116042639	7.951949	2.81992
9.800632090030527	8.022394	2.8323832
9.81822325115699	8.082178	2.8429172
9.835814644229481	8.192467	2.8622487
9.853406269671762	8.203186	2.8641205
9.870998127907646	8.1862755	2.8611667
9.888590219360985	8.189627	2.8617523
9.906182544455698	8.170147	2.858347
9.923775103615734	8.135702	2.8523152
9.941367897265108	8.125933	2.8506021
9.958960925827878	8.13725	2.8525865
9.97655418972816	8.131018	2.8514938
9.994147689390106	8.156993	2.856045
10.011741425237934	8.12846	2.8510454
10.029335397695904	8.111652	2.8480964
10.04692960718833	8.118797	2.8493502
10.06452405413958	8.090587	2.8443956
10.082118738974064	8.06806	2.8404331
10.099713662116246	8.046799	2.836688
10.117308823990651	8.040344	2.83555
10.134904225021844	8.012175	2.8305786
10.152499865634445	8.069347	2.8406596
10.170095746253125	8.087581	2.8438673
10.18769186730261	8.127485	2.8508744
10.205288229207675	8.131697	2.851613
10.222884832393145	8.066769	2.8402057
10.2404816772839	8.034995	2.8346066
10.258078764304868	7.9280033	2.815671
10.275676093881035	7.9248986	2.8151197
10.293273666437438	7.951653	2.8198676
10.310871482399158	7.998226	2.8281136
10.32846954219134	8.044203	2.8362303
10.346067846239173	8.001057	2.828614
10.363666394967908	7.9170647	2.8137279
10.38126518880283	7.8563824	2.802924
10.398864228169298	7.8968096	2.8101263
10.416463513492713	8.019059	2.8317943
10.434063045198531	7.9962215	2.827759
10.451662823712262	7.9804707	2.8249726
10.469262849459467	8.002995	2.8289564
10.486863122865758	7.9902105	2.8266962
10.504463644356806	8.037814	2.835104
10.522064414358338	7.9748745	2.823982
10.539665433296118	7.956677	2.8207583
10.557266701595987	7.861778	2.8038862
10.574868219683818	7.748794	2.7836657
10.592469987985552	7.5709343	2.751533
10.610072006927185	7.3905067	2.7185485
10.627674276934751	7.3122663	2.7041202
10.64527679843435	7.213651	2.6858242
10.662879571852143	7.1157618	2.6675384
10.680482597614331	6.994559	2.644723
10.698085876147173	6.87358	2.6217513
10.715689407876988	6.816071	2.6107607
10.733293193230146	6.7351837	2.5952232
10.750897232633072	6.6375484	2.576344
10.76850152651225	6.5574136	2.5607448
10.786106075294207	6.451372	2.5399551
10.803710879405534	6.421651	2.5340977
10.821315939272877	6.3399878	2.5179331
10.83892125532294	6.244711	2.498942
10.856526827982472	6.096237	2.469056
10.874132657678285	5.97064	2.4434893
10.891738744837243	5.946457	2.438536
10.909345089886271	5.9847794	2.4463809
10.926951693252343	6.041696	2.457986
10.944558555362494	5.920195	2.433145
10.96216567664381	5.8245025	2.4134007
10.979773057523436	5.7426553	2.3963838
10.997380698428573	5.707759	2.3890917
11.014988599786477	5.6590085	2.3788671
11.032596762024461	5.6628175	2.3796675
11.050205185569892	5.587354	2.3637586
11.067813870850198	5.5303326	2.351666
11.085422818292859	5.430664	2.3303785
11.10303202832541	5.405269	2.3249235
11.120641501375454	5.3864074	2.3208635
11.138251237870636	5.338945	2.3106158
11.155861238238671	5.2352676	2.2880707
11.173471502907317	5.119136	2.2625508
11.191082032304402	5.082355	2.254408
11.208692826857805	5.054855	2.2483006
11.226303886995465	4.9794345	2.2314646
11.243915213145371	4.907745	2.215343
11.261526805735578	4.8655176	2.205792
11.279138665194196	4.8245006	2.1964746
11.296750791949393	4.7738423	2.1849124
11.314363186429393	4.7277274	2.1743338
11.331975849062479	4.692244	2.166159
11.34958878027699	4.629159	2.1515481
11.36720198050133	4.515854	2.125054
11.384815450163948	4.461625	2.1122558
11.402429189693366	4.397908	2.097119
11.420043199518153	4.369425	2.090317
11.437657480066942	63.284397	7.955149
11.455272031768422	85.04044	9.221738
11.472886855051353	107.53555	10.369935
11.490501950344528	99.19612	9.959725
11.508117318076819	84.4918	9.191942
11.52573295867715	45.81222	6.7684727
11.543348872574514	4.098163	2.0243921
11.560965060197946	4.0665584	2.016571
11.57858152197655	4.012461	2.0031128
11.59619825833949	3.9332507	1.9832425
11.613815269715985	3.9222412	1.9804649
11.631432556535323	38.44015	6.200012
11.649050119226837	82.99004	9.109887
11.666667958219929	93.35039	9.6618
11.68428607394406	107.56255	10.371237
11.701904466828756	82.34452	9.0743885
11.719523137303586	65.17788	8.073282
11.737142085798196	4.432804	2.1054225
11.754761312742286	3.6429498	1.9086514
11.772380818565619	3.6919577	1.9214468
11.790000603698015	3.6912694	1.9212676
11.80762066856935	3.6351256	1.9066006
11.825241013609572	3.6006448	1.8975365
11.842861639248683	3.5586736	1.8864447
11.860482545916748	3.5038438	1.8718557
11.878103734043883	3.4538677	1.8584584
11.895725204060282	3.3927016	1.8419287
11.91334695639619	3.3161058	1.8210179
11.930968991481919	3.2772593	1.8103203
11.948591309747824	3.2925487	1.8145381
11.966213911624347	3.338074	1.8270397
11.98383679754198	3.3452296	1.8289969
12.001459967931268	3.299847	1.8165481
12.019083423222835	3.2347417	1.7985388
12.036707163847352	3.2212815	1.7947929
12.05433119023556	3.2403924	1.800109
12.071955502818259	3.2347221	1.7985333
12.089580102026313	3.1524103	1.7755028
12.107204988290643	3.1041484	1.7618593
12.12483016204224	3.061147	1.7496134
12.142455623712152	3.057583	1.7485946
12.16008137373149	3.0617836	1.7497953
12.177707412531431	3.0477233	1.745773
12.19533374054321	3.0000236	1.7320576
12.212960358198126	2.9734676	1.7243745
12.230587265927545	2.9839988	1.7274255
12.248214464162889	2.9969218	1.731162
12.265841953335649	2.993484	1.7301688
12.283469733877375	2.9128056	1.7066944
12.301097806219685	2.904711	1.7043213
12.31872617079425	2.8840253	1.6982418
12.336354828032825	2.90563	1.7045909
12.353983778367205	2.88924	1.6997764
12.371613022229262	2.875851	1.6958334
12.389242560050928	2.8473687	1.6874148
12.406872392264201	2.8473456	1.687408
12.424502519301143	2.7956111	1.6720082
12.442132941593874	2.7691126	1.6640651
12.459763659574586	2.696789	1.6421903
12.477394673675532	2.6981099	1.6425924
12.49502598432903	2.7274725	1.6515062
12.51265759196746	2.7221758	1.6499017
12.530289497023267	2.7435656	1.6563712
12.547921699928967	2.7412992	1.6556869
12.565554201117134	2.7598107	1.6612678
12.583187001020404	2.7599292	1.6613034
12.600820100071486	2.7801692	1.6673839
12.618453498703152	2.7724912	1.66508
12.636087197348235	2.7248743	1.6507193
12.65372119643964	2.7099915	1.6462052
12.671355496410326	2.7079957	1.6455989
12.68899009769333	2.7445617	1.6566719
12.706625000721749	2.7957633	1.6720536
12.724260205928752	2.8397858	1.6851664
12.741895713747551	2.8241239	1.680513
12.759531524611454	2.8270366	1.6813794
12.777167638953818	2.852076	1.688809
12.794804057208072	2.8620794	1.6917682
12.812440779807702	2.9150684	1.7073572
12.830077807186271	3.1176233	1.7656792
12.847715139777405	3.1935997	1.7870646
12.865352778014795	3.4180465	1.848796
12.882990722332197	3.5056255	1.8723316
12.90062897316344	3.572998	1.8902376
12.918267530942412	3.6580765	1.9126098
12.935906396103071	3.583552	1.8930272
12.953545569079449	3.763749	1.9400383
12.971185050305628	3.579702	1.89201
12.988824840215775	3.5823846	1.8927188
13.006464939244115	3.6018143	1.8978447
13.024105347824943	3.4327404	1.8527657
13.041746066392617	3.5311673	1.87914
13.05938709538157	3.3289053	1.8245288
13.077028435226296	3.3368547	1.8267059
13.094670086361363	3.2397244	1.7999234
13.112312049221401	3.1383495	1.7715387
13.129954324241112	3.0258632	1.7395009
13.147596911855258	2.793866	1.6714861
13.165239812498685	2.7525117	1.6590695
13.182883026606293	2.6909637	1.6404157
13.200526554613058	2.6843703	1.6384048
13.218170396954017	2.697505	1.6424083
13.235814554064284	2.7055502	1.6448556
13.253459026379034	2.6839817	1.6382862
13.271103814333523	2.590258	1.6094278
13.288748918363058	2.5840027	1.6074834
13.306394338903031	2.6370182	1.6238898
13.32404007638889	2.6571813	1.6300863
13.341686131256164	2.669311	1.6338027
13.359332503940449	2.615518	1.6172564
13.376979194877402	2.6255937	1.6203684
13.394626204502751	2.6629448	1.6318532
13.412273533252307	2.7090364	1.645915
13.429921181561937	2.6626334	1.6317577
13.447569149867581	2.6374645	1.6240273
13.465217438605247	2.6290193	1.621425
13.482866048211022	2.6254349	1.6203194
13.500514979121052	2.6285396	1.6212771
13.518164231771568	2.5746214	1.6045626
13.535813806598844	2.542152	1.5944127
13.553463704039254	2.5551052	1.5984696
13.571113924529229	2.5935597	1.6104532
13.588764468505275	2.6385489	1.624361
13.606415336403956	2.67098	1.6343133
13.624066528661917	2.681487	1.6375247
13.641718045715882	2.747292	1.6574957
13.659369888002635	2.7804604	1.6674713
13.67702205595903	2.850318	1.6882885
13.694674550021993	2.934582	1.7130622
13.712327370628532	2.994922	1.7305843
13.729980518215713	3.096762	1.7597619
13.747633993220681	3.196353	1.7878348
13.765287796080647	3.2402112	1.8000587
13.7829419272329	3.2509089	1.8030277
13.800596387114801	3.2587435	1.805199
13.818251176163775	3.313899	1.8204118
13.835906294817324	3.3311539	1.8251449
13.853561743513023	3.3329866	1.8256469
13.871217522688525	3.3333309	1.8257412
13.888873632781538	3.381744	1.8389518
13.906530074229858	3.4535809	1.8583813
13.92418684747135	3.528068	1.8783152
13.941843952943948	3.5162256	1.8751601
13.959501391085665	3.4852657	1.8668866
13.977159162334578	3.4304967	1.85216
13.994817267128846	3.3547916	1.831609
14.012475705906693	3.2038233	1.7899227
14.030134479106424	3.11352	1.764517
14.047793587166414	3.0393019	1.7433593
14.065453030525108	3.0109177	1.7351996
14.083112809621026	2.9347339	1.7131065
14.100772924892766	2.855088	1.6897006
14.118433376778997	2.7834892	1.6683792
14.136094165718458	2.7622561	1.6620036
14.153755292149969	2.7408147	1.6555406
14.171416756512416	2.6889398	1.6397988
14.189078559244768	2.61061	1.6157383
14.20674070078606	2.5368795	1.5927584
14.224403181575408	2.4887104	1.5775647
14.242066002051999	2.4584737	1.567952
14.259729162655093	2.4327354	1.5597229
14.277392663824022	2.3980095	1.5485508
14.295056505998208	2.4125533	1.5532396
14.312720689617128	2.39008	1.5459883
14.330385215120348	2.3895051	1.5458025
14.348050082947497	2.3901606	1.5460144
14.3657152935383	2.4177084	1.5548981
14.383380847332528	2.4169164	1.5546435
14.401046744770051	2.395172	1.5476344
14.418712986290798	2.3559325	1.5349047
14.436379572334793	2.3031662	1.5176185
14.454046503342123	2.318467	1.5226513
14.471713779752946	2.336633	1.5286049
14.489381402007504	2.383913	1.5439925
14.507049370546113	2.3667204	1.538415
14.524717685809168	2.3613224	1.5366595
14.542386348237134	2.3682442	1.53891
14.560055358270553	2.3662467	1.5382609
14.577724716350051	2.3955286	1.5477495
14.595394422916325	2.4016418	1.5497231
14.61306447841015	2.4538507	1.5664772
14.63073488327237	2.476836	1.5737966
14.648405637943917	2.478415	1.5742983
14.6660767428658	2.4295566	1.5587035
14.683748198479094	2.4498758	1.565208
14.701420005224954	2.4725206	1.572425
14.719092163544628	2.5603502	1.6001095
14.73676467387942	2.6170387	1.6177264
14.754437536670727	2.6425295	1.6255859
14.772110752360014	2.619875	1.6186028
14.78978432138882	2.6055841	1.6141822
14.807458244198777	2.631638	1.6222324
14.82513252123159	2.6406276	1.6250008
14.842807152929028	2.64594	1.6266346
14.860482139732962	2.6525056	1.6286515
14.87815748208531	2.6336157	1.6228418
14.8958331804281	2.6442869	1.6261263
14.91350923520342	2.619081	1.6183575
14.931185646853438	2.6232452	1.6196436
14.948862415820408	2.5620968	1.6006551
14.966539542546656	2.5591407	1.5997314
14.98421702747459	2.5518298	1.5974448
15.001894871046696	2.5973332	1.6116244
15.019573073705542	2.6185462	1.6181923
15.037251635893766	2.6473198	1.6270586
15.054930558054092	2.64792	1.627243
15.072609840629323	2.6563325	1.629826
15.090289484062351	2.77552	1.6659893
15.107969488796124	3.0245922	1.7391355
15.125649855273691	3.374486	1.8369774
15.14333058393817	3.8439734	1.9606054
15.161011675232768	4.8173637	2.1948493
15.17869312960076	6.1798716	2.4859347
15.196374947485506	7.984494	2.8256848
15.214057129330447	11.022412	3.3200018
15.231739675579114	15.769857	3.971128
15.249422586675102	21.10856	4.594405
15.267105863062092	24.450687	4.9447637
15.284789505183847	25.023924	5.002392
15.302473513484218	23.049421	4.8009815
15.320157888407127	19.509146	4.416916
15.337842630396578	15.130446	3.8897874
15.355527739896656	11.692236	3.4193912
15.37321321735153	8.993939	2.9989898
15.39089906320545	6.5313034	2.5556414
15.408585277902748	4.8532624	2.2030122
15.42627186188783	3.6964705	1.9226208
15.443958815605198	3.1044939	1.7619574
15.461646139499424	2.807363	1.6755188
15.479333834015168	2.684799	1.6385356
15.497021899597165	2.6478994	1.6272367
15.514710336690234	2.5836804	1.6073831
15.53239914573928	2.5150912	1.5859039
15.550088327189297	2.4380572	1.561428
15.567777881485336	2.3816662	1.5432647
15.58546780907256	2.3985214	1.5487161
15.6031581103962	2.4016297	1.5497192
15.620848785901568	2.4344304	1.5602661
15.638539836034063	2.4416013	1.5625625
15.656231261239173	2.4291933	1.558587
15.673923061962451	2.4002194	1.5492642
15.691615238649552	2.4026353	1.5500437
15.709307791746202	2.4220622	1.5562975
15.727000721698221	2.4180427	1.5550057
15.744694028951498	2.3946738	1.5474733
15.76238771395202	2.345925	1.5316414
15.780081777145844	2.3286102	1.5259784
15.797776218979125	2.2953384	1.5150374
15.815471039898094	2.290657	1.5134916
15.833166240349064	2.2850387	1.5116345
15.850861820778437	2.302767	1.517487
15.868557781632699	2.3285677	1.5259645
15.886254123358412	2.3260348	1.5251343
15.903950846402232	2.3225737	1.5239992
15.921647951210897	2.3487465	1.5325621
15.939345438231225	2.3454783	1.5314955
15.957043307910133	2.3373694	1.5288458
15.974741560694602	2.322984	1.5241338
15.992440197031714	2.344601	1.531209
16.01013921736862	2.3433404	1.5307974
16.02783862215259	2.3540394	1.5342879
16.045538411830933	2.377375	1.5418738
16.06323858685107	2.3860922	1.5446981
16.080939147660512	2.379397	1.5425293
16.09864009470684	2.3777008	1.5419796
16.11634142843774	2.3686223	1.5390329
16.134043149300954	2.3472564	1.5320759
16.15174525774433	2.3281376	1.5258236
16.169447754215817	2.3222535	1.5238942
16.18715063916342	2.3861241	1.5447084
16.204853913035244	2.4144046	1.5538355
16.222557576279478	2.4353735	1.5605683
16.240261629344403	22.371733	4.7298765
16.257966072678386	42.898087	6.549663
16.275670906729868	38.00318	6.164672
16.293376131947387	2.4423916	1.5628153
16.31108174877957	2.4580934	1.5678308
16.328787757675133	2.4683475	1.5710976
16.34649415908287	2.479134	1.5745267
16.364200953451657	2.5182223	1.5868908
16.38190814123048	2.5533202	1.5979112
16.39961572286839	2.6092997	1.6153327
16.41732369881455	2.638656	1.624394
16.43503206951817	2.6438437	1.62599
16.45274083542859	2.623079	1.6195923
16.47044999699522	2.6750827	1.635568
16.488159554667558	2.7495248	1.6581692
16.505869508895184	2.7922196	1.6709936
16.523579860127786	2.7911792	1.6706822
16.541290608815117	2.819949	1.6792704
16.559001755407035	2.8798037	1.6969985
16.57671330035348	2.9681082	1.7228198
16.59442524410448	3.041726	1.7440546
16.61213758711015	3.1225448	1.7670723
16.629850329820705	3.214371	1.7928667
16.647563472686436	3.3201222	1.8221203
16.665277016157724	3.331506	1.8252413
16.682990960685053	3.3735344	1.8367184
16.70070530671898	3.3735797	1.8367307
16.718420054710155	3.4134665	1.8475568
16.736135205109335	3.4227798	1.8500756
16.753850758367335	3.4231827	1.8501846
16.771566714935087	3.5077236	1.8728918
16.789283075263597	3.6348274	1.9065223
16.80699983980398	3.7285953	1.9309571
16.82471700900741	3.7566428	1.9382061
16.84243458332518	3.8178434	1.9539303
16.860152563208665	3.8783264	1.9693466
16.87787094910932	3.9264362	1.9815238
16.89558974147871	3.9752724	1.9938085
16.913308940768466	4.083132	2.0206761
16.931028547430333	4.1922975	2.0475101
16.94874856191613	4.237109	2.058424
16.966468984677785	4.2879124	2.0707276
16.98418981616729	4.278641	2.0684876
17.00191105683676	4.332494	2.0814643
17.019632707138374	4.401462	2.0979662
17.03735476752442	4.453769	2.1103954
17.05507723844728	4.4618106	2.1123
17.072800120359403	4.4871893	2.1182988
17.090523413713353	4.5224986	2.1266167
17.108247118961785	4.5633116	2.136191
17.125971236557437	4.5838137	2.1409843
17.143695766953133	4.611208	2.1473722
17.161420710601806	4.604068	2.1457093
17.179146067956477	4.620389	2.149509
17.19687183947025	4.587978	2.1419566
17.21459802559634	4.581188	2.140371
17.232324626788028	4.585914	2.1414747
17.25005164349871	4.595286	2.1436617
17.267779076181863	4.626331	2.1508908
17.285506925291074	4.5688024	2.1374757
17.30323519127999	4.552992	2.133774
17.320963874602384	4.507358	2.123054
17.33869297571211	4.507855	2.1231709
17.356422495063114	4.519824	2.1259878
17.37415243310944	4.4752994	2.1154904
17.391882790305218	4.390279	2.0952992
17.40961356710468	4.3446555	2.0843837
17.42734476396215	4.454	2.1104503
17.445076381332044	4.487459	2.1183624
17.462808419668868	4.545663	2.132056
17.48054087942723	4.5931664	2.1431673
17.498273761061835	4.847769	2.2017648
17.51600706502747	5.250549	2.2914076
17.533740791779024	5.9749084	2.4443626
17.551474941771485	7.383557	2.7172701
17.56920951545993	8.576138	2.9285042
17.586944513299528	10.979714	3.3135653
17.60467993574556	12.776904	3.5744796
17.622415783253373	14.668329	3.8299255
17.64015205627843	16.24637	4.0306787
17.657888755276293	17.450619	4.177394
17.675625880702604	18.072199	4.251141
17.69336343301311	17.916737	4.2328167
17.71110141266366	16.95472	4.117611
17.728839820110178	15.834423	3.979249
17.746578655808705	14.657392	3.8284974
17.764317920215372	12.902957	3.5920687
17.7820576137864	11.179149	3.3435235
17.79979773697811	9.130088	3.0216036
17.81753829024692	7.3011084	2.7020564
17.835279274049356	5.658711	2.3788044
17.85302068884201	4.6675034	2.1604404
17.870762535081607	4.0680757	2.016947
17.888504813224934	3.8073463	1.9512422
17.90624752372891	3.6391113	1.9076455
17.923990667050536	3.5350614	1.8801758
17.941734243646895	3.492655	1.8688647
17.959478253975185	3.5165346	1.8752426
17.9772226984927	3.4868994	1.8673241
17.994967577656833	3.4098399	1.8465751
18.01271289192506	3.4039676	1.8449844
18.030458641754965	3.3901608	1.841239
18.04820482760425	3.3499944	1.830299
18.06595144993067	3.255565	1.8043184
18.083698509192125	3.2131832	1.7925354
18.101446005846576	3.195649	1.7876378
18.119193940352105	3.2041683	1.790019
18.136942313166887	3.1672595	1.7796795
18.1546911247492	3.1306427	1.7693622
18.1724403755574	3.0963318	1.7596397
18.19019006604997	3.1140478	1.7646664
18.207940196685467	3.124415	1.7676015
18.225690767922575	3.0705304	1.7522929
18.243441780220046	2.976686	1.7253075
18.261193234036764	2.9429452	1.7155014
18.278945129831676	2.9800596	1.7262849
18.29669746806386	3.005317	1.733585
18.314450249192483	3.0097098	1.7348515
18.3322034736768	2.9951782	1.7306583
18.349957141976184	2.9615202	1.7209069
18.3677112545501	2.9384723	1.7141973
18.385465811858108	2.9450035	1.7161013
18.403220814359884	2.958501	1.7200294
18.420976262515172	3.0126092	1.735687
18.43873215678387	3.0408762	1.7438108
18.456488497625923	3.073475	1.7531328
18.474245285501407	3.1611452	1.777961
18.492002520870486	3.2750418	1.8097076
18.50976020419343	3.3550215	1.8316717
18.527518335930615	3.5695257	1.8893188
18.545276916542516	4.118521	2.029414
18.563035946489688	4.3126283	2.0766869
18.580795426232832	4.773903	2.1849263
18.598555356232698	4.639376	2.1539211
18.616315736950185	4.8860373	2.2104383
18.63407656884626	4.5483575	2.1326878
18.65183785238201	4.711433	2.1705835
18.669599588018617	4.550324	2.133149
18.68736177621737	4.481437	2.1169405
18.705124417439652	4.4460497	2.1085658
18.72288751214696	4.233664	2.057587
18.740651060800886	4.400072	2.0976348
18.758415063863115	4.126637	2.0314126
18.77617952179546	4.3038287	2.074567
18.793944435059814	4.0926523	2.0230305
18.811709804118184	4.0950003	2.0236106
18.829475629432675	4.0423083	2.0105493
18.8472419114655	3.825236	1.955821
18.86500865067897	3.9302223	1.9824789
18.88277584753551	3.6867092	1.9200805
18.90054350249763	3.7025619	1.9242042
18.918311616027957	3.3722336	1.8363643
18.936080188589226	3.2213237	1.7948047
18.953849220644265	2.9080136	1.7052898
18.971618712656007	2.7709708	1.6646234
18.9893886650875	2.776315	1.6662278
19.007159078401887	7.986067	2.825963
19.024929953062408	32.869083	5.7331567
19.042701289532435	32.7848	5.7258015
19.060473088275405	25.324308	5.032326
19.07824534975489	2.5747902	1.6046153
19.096018074434568	2.5299542	1.590583
19.113791262778197	2.5106795	1.5845124
19.13156491524966	2.50233	1.5818754
19.149339032312945	2.5095572	1.5841582
19.167113614432136	2.5091152	1.5840187
19.184888662071433	2.4904273	1.5781088
19.202664175695123	2.501513	1.5816172
19.220440155767623	2.493116	1.5789604
19.238216602753447	2.4834106	1.5758841
19.2559935171172	2.4194674	1.5554638
19.27377089932361	2.4312425	1.5592442
19.291548749837514	2.456092	1.5671923
19.309327069123835	2.442008	1.5626925
19.32710585764763	2.4383876	1.5615337
19.344885115874032	2.4307678	1.5590919
19.362664844268313	2.418584	1.5551797
19.380445043295822	2.4107327	1.5526534
19.39822571342203	2.415481	1.5541818
19.41600685511252	2.465237	1.5701073
19.43378846883297	2.4652686	1.5701174
19.451570555049173	2.4568045	1.5674196
19.469353114227037	2.429118	1.5585628
19.48713614683254	2.414529	1.5538754
19.50491965333182	2.4029248	1.550137
19.52270363419109	2.4265997	1.5577548
19.540488089876686	2.453014	1.56621
19.55827302085503	2.4564772	1.5673152
19.576058427592674	2.4395452	1.5619043
19.593844310556282	2.4244044	1.5570499
19.611630670212598	2.4480648	1.5646293
19.629417507028506	2.4676914	1.5708888
19.64720482147098	2.470375	1.5717427
19.6649926140071	2.476068	1.5735527
19.682780885104084	2.4533193	1.5663075
19.70056963522921	2.4353096	1.5605478
19.718358864849908	2.4253442	1.5573517
19.7361485744337	2.4746504	1.5731021
19.753938764448215	2.479061	1.5745034
19.771729435361202	2.4454794	1.5638028
19.789520587640506	2.397323	1.5483291
19.807312221754092	2.4060187	1.5511347
19.825104338170043	2.4200237	1.5556425
19.842896937356517	2.442131	1.5627319
19.860690019781824	2.474209	1.5729619
19.87848358591436	2.4865031	1.576865
19.896277636222635	2.4663723	1.5704688
19.914072171175278	2.4509034	1.5655361
19.931867191241015	2.4275737	1.5580673
19.94966269688869	2.401758	1.5497606
19.967458688587264	2.4097078	1.5523233
19.985255166805807	2.407949	1.5517567
20.00305213201348	2.4158094	1.5542874
20.020849584679578	2.380843	1.5429981
20.038647525273507	2.4297915	1.5587789
20.05644595426477	2.415948	1.554332
20.07424487212299	2.3575656	1.5354366
20.092044279317903	2.3135064	1.5210215
20.109844176319353	2.342476	1.530515
20.127644563597304	2.399137	1.5489148
20.145445441621817	2.453229	1.5662787
20.16324681086307	2.3808186	1.5429902
20.181048671791373	2.3065815	1.5187434
20.198851024877122	2.2895732	1.5131335
20.216653870590836	2.3089542	1.5195243
20.234457209403146	2.3271258	1.525492
20.252261041784802	2.3327017	1.5273185
20.270065368206662	2.337151	1.5287744
20.287870189139685	2.3204386	1.5232986
20.305675505054968	2.3068147	1.5188202
20.323481316423702	2.3100686	1.519891
20.341287623717207	2.3334339	1.5275581
20.359094427406884	2.291975	1.513927
20.376901727964288	2.2546327	1.5015434
20.39470952586107	2.2481236	1.4993744
20.41251782156899	2.2713475	1.507099
20.430326615559935	2.3053088	1.5183244
20.448135908305886	2.3110476	1.520213
20.465945700278965	2.3203533	1.5232706
20.483755991951384	2.3123856	1.520653
20.50156678379548	2.295704	1.515158
20.519378076283708	2.2638874	1.504622
20.537189869888635	2.2146776	1.4881793
20.55500216508294	2.2176082	1.4891636
20.572814962339415	2.2159812	1.4886172
20.59062826213098	2.2191052	1.4896661
20.60844206493066	2.226483	1.4921404
20.626256371211593	2.2564301	1.5021418
20.644071181447032	2.275176	1.5083687
20.66188649611036	2.2817407	1.5105432
20.67970231567506	2.2956731	1.5151479
20.697518640614742	2.3352895	1.5281653
20.715335471403122	2.318562	1.5226825
20.73315280851404	2.297049	1.5156019
20.750970652421447	2.2760432	1.508656
20.768789003599412	2.277654	1.5091898
20.786607862522136	2.2373955	1.4957926
20.8044272296639	2.2441485	1.4980482
20.82224710549913	2.2156487	1.4885055
20.84006749050237	2.219432	1.4897759
20.857888385148268	3.79084	1.9470079
20.8757097899116	45.932484	6.777351
20.893531705267254	64.79261	8.049386
20.911354131690224	83.78971	9.153672
20.92917706965566	69.04498	8.309331
20.94700051963877	50.09295	7.077637
20.96482448211493	29.337444	5.416405
20.982648957559622	4.080636	2.0200584
21.00047394644843	2.2069705	1.4855876
21.01829944925707	2.2121053	1.4873148
21.036125466461375	2.2376728	1.4958853
21.053951998537297	2.2237296	1.4912175
21.071779045960906	2.184916	1.4781462
21.089606609208378	2.15858	1.4692107
21.10743468875603	2.1973598	1.4823494
21.12526328508028	2.1984017	1.4827008
21.143092398657675	2.1934862	1.4810423
21.16092202996488	2.160459	1.4698501
21.17875217947867	2.132294	1.4602376
21.19658284767596	2.0933604	1.4468449
21.21441403503377	2.0991383	1.4488403
21.232245742029225	2.123308	1.4571575
21.2500779691396	2.1483438	1.4657229
21.26791071684227	2.143332	1.4640123
21.28574398561475	2.104276	1.4506123
21.30357777593465	2.0969803	1.4480954
21.321412088279704	2.125881	1.4580401
21.339246923127792	2.1416428	1.4634353
21.357082280956888	2.1184297	1.4554826
21.3749181622451	2.0891552	1.445391
21.392754567470647	2.089283	1.4454352
21.41059149711187	2.0853627	1.4440784
21.42842895164726	2.0806499	1.4424458
21.446266931555378	2.0801048	1.4422568
21.464105437314945	2.0727966	1.439721
21.481944469404798	2.0606816	1.4355074
21.49978402830388	2.0341806	1.426247
21.51762411449127	2.0490308	1.4314436
21.53546472844617	2.0746605	1.4403682
21.553305870647876	2.0755186	1.4406661
21.571147541575865	2.0264788	1.4235444
21.58898974170967	2.008416	1.4171859
21.60683247152899	2.0383997	1.4277253
21.62467573151363	2.0862253	1.4443771
21.642519522143523	2.0722868	1.439544
21.660363843898722	2.0446613	1.4299165
21.6782086972594	2.0163987	1.4199995
21.696054082705864	2.031483	1.425301
21.713900000718535	2.0075579	1.4168831
21.73174645177795	2.0009482	1.4145488
21.749593436364794	1.9823438	1.4079573
21.767440954959845	1.9901222	1.4107169
21.785289008044032	1.9915195	1.4112121
21.803137596098388	1.97809	1.4064459
21.820986719604086	1.9500324	1.3964356
21.838836379042412	1.9789973	1.4067684
21.85668657489478	1.9865177	1.4094387
21.87453730764273	1.9856423	1.4091282
21.892388577767914	1.9744872	1.4051645
21.91024038575213	1.9193223	1.385396
21.928092732077285	1.8936961	1.3761163
21.945945617225426	1.905423	1.3803706
21.963799041678694	1.9367567	1.391674
21.981653005919398	31.285051	5.593304
21.999507510429943	78.09611	8.8372
22.01736255569286	73.034065	8.545997
22.035218142190818	4.1006174	2.0249982
22.05307427040661	1.9125961	1.3829664
22.07093094082315	1.9190875	1.3853114
22.088788153923474	1.9573491	1.3990529
22.106645910190746	2.0017936	1.4148476
22.12450421010827	2.0014365	1.4147214
22.142363054159464	2.0069036	1.4166523
22.16022244282787	1.9906418	1.4109011
22.178082376597164	1.9723506	1.404404
22.195942855951145	1.9214863	1.3861768
22.213803881373742	1.9261452	1.3878564
22.231665453349002	1.9189931	1.3852773
22.24952757236111	1.9330208	1.3903311
22.26739023889438	1.9347488	1.3909525
22.28525345343323	1.9571344	1.3989762
22.30311721646225	1.9522454	1.3972278
22.320981528466113	1.9421165	1.3935984
22.33884638992964	1.914166	1.3835338
22.356711801337788	1.9326376	1.3901933
22.37457776317561	1.9238317	1.3870226
22.392444275928337	1.9354783	1.3912147
22.410311340081282	1.9456859	1.3948784
22.428178956119904	1.9438881	1.3942338
22.446047124529805	1.9339303	1.3906583
22.46391584579669	1.8921003	1.3755363
22.481785120406414	1.8816131	1.371719
22.49965494884496	1.8855854	1.3731662
22.51752533159841	1.8697764	1.3673977
22.53539626915302	1.8953837	1.3767294
22.553267761995137	1.9003044	1.3785152
22.571139810611264	1.9069669	1.3809297
22.589012415488025	1.867686	1.366633
22.60688557711216	1.8719616	1.3681965
22.624759295970566	1.9148307	1.383774
22.642633572550263	1.941338	1.393319
22.660508407338362	1.9703819	1.4037029
22.67838380082217	1.9488269	1.396004
22.696259753489077	1.934003	1.3906844
22.714136265826614	1.9072325	1.3810259
22.73201333832246	1.902302	1.3792397
22.74989097146439	1.8958871	1.3769121
22.76776916574035	1.8831893	1.3722935
22.785647921638393	1.8628606	1.3648665
22.803527239646712	1.8821378	1.3719102
22.82140712025363	1.9028764	1.3794478
22.839287563947593	1.9044825	1.3800299
22.85716857121719	1.9101623	1.3820863
22.875050142551135	1.895674	1.3768348
22.892932278438277	1.8692284	1.3671973
22.910814979367604	1.8699946	1.3674774
22.928698245828222	1.9031897	1.3795614
22.946582078309387	1.8868425	1.3736238
22.96446647730047	1.8532108	1.3613268
22.98235144329098	1.8384243	1.355885
23.000236976770562	1.8523949	1.3610271
23.018123078229	1.8665222	1.3662072
23.03600974815619	1.8492304	1.3598641
23.053896987042194	1.8613617	1.3643173
23.071784795377173	1.8584225	1.3632398
23.08967317365145	1.8899848	1.3747672
23.10756212235546	1.9084771	1.3814764
23.125451641979787	1.9125255	1.3829409
23.143341733015134	1.9373845	1.3918996
23.161232395952357	1.9293913	1.3890253
23.179123631282426	1.9201669	1.3857008
23.197015439496468	1.8939148	1.3761958
23.214907821085717	1.9202167	1.3857188
23.23280077654157	1.9423033	1.3936654
23.250694306355538	1.9149894	1.3838314
23.268588411019277	1.861221	1.3642657
23.28648309102458	1.8421183	1.3572465
23.304378346863356	1.8930792	1.3758922
23.322274179027676	1.9199588	1.3856258
23.340170588009723	1.9175811	1.3847675
23.358067574301852	1.8689597	1.367099
23.37596513839651	1.8529944	1.3612474
23.39386328078629	1.9023763	1.3792666
23.411762001963947	1.9378057	1.3920509
23.429661302422353	1.9565701	1.3987745
23.4475611826545	1.9238122	1.3870156
23.46546164315356	1.894531	1.3764197
23.48336268441279	1.8591996	1.3635247
23.501264306925638	1.8787354	1.3706697
23.51916651118564	1.8872561	1.3737744
23.537069297686497	1.913286	1.3832158
23.554972666922037	1.9257755	1.3877231
23.57287661938623	1.920974	1.385992
23.59078115557318	1.8856508	1.37319
23.608686275977128	1.8363953	1.3551366
23.62659198109246	1.8293685	1.3525414
23.6444982714137	1.8434042	1.3577203
23.66240514743549	1.8421535	1.3572596
23.68031260965263	1.8229291	1.3501589
23.698220658560068	1.8348132	1.3545527
23.716129294652845	1.8256466	1.3511649
23.7340385184262	1.83628	1.3550941
23.75194833037546	1.8720667	1.3682349
23.769858730996123	1.9075601	1.3811445
23.78776972078382	1.91316	1.3831702
23.80568130023431	1.8740678	1.368966
23.823593469843495	1.8667791	1.3663013
23.841506230107424	1.8828461	1.3721684
23.859419581522275	1.8563957	1.3624961
23.87733352458438	1.8338012	1.3541791
23.89524805979019	1.810655	1.3456059
23.913163187636318	1.8340081	1.3542556
23.931078908619508	1.871598	1.3680636
23.948995223236633	1.958667	1.3995239
23.966912131984735	2.0281231	1.4241219
23.98482963536096	2.0896025	1.4455458
24.002747733862616	2.0293012	1.4245354
24.020666427987155	1.9998244	1.4141514
24.038585718232156	1.97632	1.4058166
24.056505605095353	2.0059316	1.4163091
24.074426089074617	2.0372717	1.4273303
24.092347170667946	2.0385916	1.4277925
24.110268850373515	2.0339203	1.4261558
24.128191128689586	2.061375	1.4357489
24.146114006114626	2.0425055	1.4291625
24.164037483147187	2.000101	1.4142493
24.181961560286005	1.958363	1.3994153
24.199886238029926	1.9440376	1.3942875
24.21781151687797	1.9532919	1.3976022
24.235737397329274	1.9712112	1.4039983
24.253663879883135	2.0281105	1.4241174
24.271590965038975	2.0767317	1.441087
24.289518653296376	2.0190818	1.420944
24.30744694515505	1.9805067	1.4073048
24.32537584111486	1.9691937	1.4032797
24.34330534167581	1.9866183	1.4094745
24.361235447338046	1.9845898	1.4087547
24.379166158601876	1.9960686	1.412823
24.39709747596772	2.008767	1.4173098
24.41502939993615	1.9853997	1.4090421
24.432961931007917	1.9424992	1.3937356
24.450895069683856	1.9359286	1.3913765
24.468828816465	1.9546392	1.3980842
24.4867631718525	1.9741259	1.4050359
24.504698136347656	1.981411	1.407626
24.52263371045192	1.97205	1.404297
24.540569894666874	1.9604818	1.400172
24.558506689494266	1.9197832	1.3855624
24.57644409543597	1.9141648	1.3835335
24.594382112994012	1.9384812	1.3922935
24.61232074267057	1.9383337	1.3922405
24.630259984967953	1.9106089	1.3822478
24.64819984038863	1.9139098	1.3834413
24.66614030943522	1.9162714	1.3842945
24.684081392610462	1.9359411	1.391381
24.702023090417274	1.9634702	1.4012388
24.7199654033587	1.9585735	1.3994905
24.737908331937927	1.9009145	1.3787366
24.755851876658305	1.9229414	1.3867016
24.773796038023324	1.9478093	1.3956394
24.79174081653661	2.0271244	1.4237711
24.809686212701962	2.0728822	1.4397508
24.827632227023294	2.0988376	1.4487365
24.8455788600047	2.0802124	1.4422941
24.8635261121504	2.0652616	1.4371018
24.88147398396475	2.0660067	1.437361
24.899422475952303	2.08047	1.4423835
24.917371588617698	2.0638041	1.4365946
24.935321322465768	2.1095014	1.4524122
24.953271678001478	2.1777685	1.4757264
24.97122265572994	2.3687675	1.53908
24.989174256156414	2.6817875	1.6376164
25.00712647978632	3.21307	1.7925038
25.02507932712521	3.7990072	1.9491042
25.043032798678798	4.398861	2.097346
25.060986894952933	5.1238294	2.2635877
25.078941616453637	5.9307804	2.4353194
25.096896963687055	6.9556465	2.637356
25.114852937159508	8.152274	2.8552186
25.132809537377444	8.637585	2.9389768
25.150766764847468	8.549337	2.923925
25.168724620076347	7.866464	2.8047218
25.186683103570985	6.806674	2.6089604
25.204642215838426	5.5950704	2.36539
25.222601957385894	4.161995	2.0400968
25.24056232872074	3.0919156	1.7583843
25.25852333035048	2.530378	1.5907162
25.276484962782778	2.245289	1.4984288
25.294447226525435	2.0696833	1.4386394
25.312410122086423	1.9449726	1.3946228
25.330373649973843	1.9057009	1.3804712
25.348337810695988	1.9008747	1.3787222
25.366302604761245	1.8805723	1.3713396
25.384268032678207	1.878644	1.3706363
25.40223409495558	1.8745551	1.369144
25.420200792102257	1.8869468	1.3736619
25.438168124627246	1.8720714	1.3682365
25.45613609303974	1.889391	1.3745512
25.474104697849057	1.8890326	1.3744209
25.492073939564698	1.8553618	1.3621167
25.510043818696285	1.8349382	1.3545989
25.528014335753614	1.7830654	1.3353148
25.54598549124664	1.7692986	1.3301498
25.56395728568544	1.7578685	1.3258463
25.58192971958028	1.7872248	1.3368713
25.59990279344156	1.8131566	1.3465351
25.617876507779833	1.8598461	1.3637618
25.635850863105826	1.8514119	1.360666
25.653825859930386	1.8314666	1.3533169
25.671801498764548	1.8440579	1.3579609
25.68977778011949	1.8515912	1.3607318
25.707754704506524	1.8642535	1.3653767
25.725732272437153	1.8720435	1.3682264
25.743710484423012	1.8823869	1.372001
25.761689340975888	1.8405099	1.3566539
25.77966884260774	1.7779359	1.3333926
25.797648989830662	1.7651011	1.3285711
25.815629783156922	1.7911804	1.3383498
25.83361122309895	1.7795329	1.3339913
25.85159331016929	1.7652577	1.32863
25.869576044880695	1.7758769	1.3326203
25.887559427746034	1.8061885	1.3439451
25.90554345927836	1.8687035	1.3670053
25.92352813999086	1.8722221	1.3682916
25.94151347039689	1.8600874	1.3638502
25.959499451009965	1.8574202	1.362872
25.97748608234374	1.8330469	1.3539007
25.995473364912062	1.8473182	1.3591608
26.013461299228904	1.8201493	1.3491291
26.03144988580839	1.776175	1.3327322
26.04943912516483	1.7348149	1.3171238
26.067429017812675	1.7326173	1.3162892
26.085419564266537	1.731195	1.3157488
26.103410765041186	1.7322562	1.316152
26.12140262065155	1.7960804	1.3401792
26.139395131612723	1.8167536	1.34787
26.157388298439948	1.7917142	1.3385493
26.17538212164861	1.7670888	1.3293189
26.193376601754295	1.7783318	1.333541
26.211371739272714	1.7579188	1.3258653
26.229367534719746	1.7348328	1.3171304
26.247363988611433	1.7269045	1.3141174
26.26536110146397	1.7421497	1.3199052
26.283358873793727	1.7766834	1.3329229
26.301357306117204	1.7700008	1.3304138
26.319356398951104	1.7654221	1.3286918
26.33735615281224	1.7444342	1.3207703
26.35535656821762	1.758736	1.3261734
26.373357645684404	1.7567209	1.3254135
26.39135938572991	1.7638906	1.3281155
26.409361788871614	1.7888348	1.3374733
26.427364855627165	1.8051541	1.3435602
26.445368586514352	1.777393	1.333189
26.46337298205115	1.7259538	1.3137556
26.48137804275568	1.7291758	1.3149813
26.499383769146217	1.7661849	1.3289789
26.517390161741215	1.8129287	1.3464504
26.53539722105928	1.7895048	1.3377237
26.553404947619182	1.8343873	1.3543955
26.571413341939856	1.8274078	1.3518165
26.589422404540397	1.8079115	1.344586
26.60743213594006	1.7635394	1.3279833
26.62544253665827	1.752114	1.3236744
26.64345360721459	1.7705497	1.33062
26.66146534812879	1.7926973	1.3389164
26.679477759920758	1.8067878	1.3441681
26.69749084311057	1.7775704	1.3332555
26.71550459821847	1.7472404	1.3218322
26.733519025764842	1.7523538	1.323765
26.751534126270258	1.7833942	1.3354379
26.769549900255434	1.7846541	1.3359095
26.787566348241267	1.8170315	1.3479731
26.80558347074881	1.8476645	1.3592882
26.823601268299267	1.7889011	1.3374981
26.841619741414036	1.7278534	1.3144784
26.85963889061465	1.7355038	1.3173852
26.877658716422832	1.8090342	1.3450035
26.89567921936045	1.8059767	1.3438663
26.913700399949544	1.8138278	1.3467842
26.93172225871233	1.8318423	1.3534557
26.949744796171174	1.8317816	1.3534333
26.967768012848605	1.7642778	1.3282613
26.98579190926733	1.7316455	1.31592
27.003816485950225	1.7602869	1.326758
27.021841743420318	1.835273	1.3547225
27.039867682200814	1.8292321	1.352491
27.057894302815072	1.7994745	1.341445
27.07592160578664	1.809064	1.3450145
27.0939495916392	1.8313856	1.353287
27.111978260896635	1.8213326	1.3495675
27.13000761408296	1.7418506	1.3197919
27.148037651722397	1.7232543	1.3127278
27.166068374339304	1.743257	1.3203245
27.184099782458215	1.7791648	1.3338534
27.20213187660384	1.7996783	1.3415209
27.22016465730105	1.7916936	1.3385416
27.23819812507487	1.8129001	1.3464397
27.256232280450533	1.8153867	1.3473629
27.274267123953383	1.8412069	1.3569108
27.292302656108987	1.846843	1.358986
27.31033887744306	1.7711706	1.3308533
27.32837578848146	1.7081796	1.3069735
27.34641338975026	1.7053856	1.3059042
27.364451681775673	1.6805137	1.2963463
27.382490665084074	1.7184943	1.3109136
27.400530340202046	1.7683371	1.3297883
27.41857070765629	1.7508037	1.3231794
27.436611767973726	1.7419469	1.3198284
27.454653521681404	1.7747017	1.3321793
27.472695969306564	1.7910894	1.3383158
27.490739111376627	1.7778226	1.3333502
27.508782948419153	1.7734295	1.3317018
27.526827480961902	1.7481736	1.3221852
27.54487270953279	1.7535732	1.3242255
27.562918634659898	1.7987442	1.3411727
27.580965256871508	1.8295109	1.3525941
27.599012576696026	1.8243183	1.3506733
27.617060594662068	1.7869681	1.3367753
27.63510931129842	1.8035734	1.3429718
27.65315872713401	1.8121129	1.3461474
27.67120884269797	1.8086044	1.3448436
27.68925965851958	1.8220955	1.3498502
27.707311175128307	1.8505161	1.3603368
27.725363393053787	1.8349724	1.3546115
27.74341631282583	1.8375286	1.3555547
27.7614699349744	1.8492181	1.3598596
27.77952426002968	1.968412	1.4030011
27.797579288521973	2.0013564	1.414693
27.815635020981784	2.2984276	1.5160565
27.83369145793979	2.3827262	1.5436082
27.85174859992682	2.283246	1.5110414
27.869806447473923	2.1312225	1.4598707
27.887865001112267	1.8919185	1.3754703
27.905924261373233	1.8209362	1.3494207
27.92398422878836	1.8015199	1.3422071
27.94204490388936	1.8676682	1.3666265
27.96010628720813	1.8421822	1.3572701
27.978168379276728	1.8324283	1.3536721
27.9962311806274	1.8134156	1.3466312
28.014294691792568	1.783433	1.3354523
28.0323589133048	1.8020037	1.3423873
28.050423845696887	1.8399616	1.3564519
28.068489489501758	1.846051	1.3586946
28.086555845252523	1.8338186	1.3541856
28.104622913482487	1.8408748	1.3567884
28.122690694725115	1.8540436	1.3616327
28.14075918951405	1.8388617	1.3560463
28.15882839838312	1.8793863	1.3709071
28.176898321866304	1.939802	1.3927678
28.1949689604978	1.9464488	1.3951519
28.213040314811945	1.8961227	1.3769977
28.23111238534327	1.8529155	1.3612185
28.249185172626493	1.9098239	1.3819637
28.267258677196473	1.9300597	1.3892659
28.285332899588294	1.8857194	1.373215
28.303407840337172	1.9035804	1.379703
28.321483499978545	1.9453776	1.3947679
28.33955987904799	1.9143351	1.383595
28.357636978081285	1.8558894	1.3623103
28.37571479761439	1.886334	1.3734387
28.393793338183425	1.8580793	1.3631139
28.41187260032469	1.8598238	1.3637536
28.429952584574686	1.9428695	1.3938686
28.448033291470065	2.0165834	1.4200646
28.46611472154769	2.0213726	1.4217498
28.484196875344566	1.9817023	1.4077295
28.502279753397914	1.9503998	1.3965671
28.52036335624511	1.8859724	1.3733071
28.538447684423716	1.8604033	1.363966
28.556532738471482	1.8965142	1.3771398
28.574618518926325	1.9590975	1.3996776
28.59270502632635	1.9542679	1.3979514
28.61079226120985	1.9487829	1.3959881
28.628880224115274	2.0108085	1.4180298
28.646968915581287	2.0298119	1.4247147
28.66505833614671	1.9833431	1.4083122
28.68314848635055	1.9602138	1.4000764
28.701239366732004	1.9409741	1.3931885
28.71933097783044	1.9504304	1.3965781
28.737423320185403	1.9681321	1.4029013
28.75551639433665	1.9964519	1.4129585
28.773610200824074	1.9805601	1.4073237
28.791704740187793	1.9785304	1.4066024
28.80980001296809	2.0058525	1.4162812
28.827896019705413	2.0552332	1.4336084
28.845992760940433	2.1038647	1.4504704
28.86409023721397	2.1770964	1.4754987
28.88218844906704	2.1455512	1.46477
28.900287397040845	2.1521132	1.4670082
28.918387081676755	2.2046351	1.4848014
28.936487503516343	2.2466323	1.498877
28.954588663101365	2.2397099	1.496566
28.97269056097374	2.2330759	1.4943479
28.990793197675597	2.290812	1.5135429
29.00889657374923	2.3145547	1.5213661
29.027000689737125	2.3087928	1.5194713
29.04510554618196	2.3296256	1.5263112
29.06321114362659	2.3444364	1.5311552
29.08131748261405	2.3944583	1.5474037
29.099424563687567	2.4286666	1.558418
29.11753238739057	2.483903	1.5760403
29.13564095426663	2.5111234	1.5846524
29.15375026485954	2.515977	1.5861831
29.171860319713275	2.5510325	1.5971953
29.18997111937199	2.6296537	1.6216207
29.20808266438002	2.6691194	1.633744
29.226194955281898	2.6586418	1.6305342
29.244307992622335	2.7405813	1.6554701
29.26242177694624	2.7596843	1.6612297
29.2805363087987	2.790899	1.6705984
29.29865158872498	2.8341436	1.6834915
29.316767617270557	2.8742502	1.6953614
29.334884394981064	2.875334	1.695681
29.353001922402367	2.8901818	1.7000535
29.37112020008047	2.986849	1.7282503
29.389239228561596	3.114749	1.7648652
29.407359008392152	3.2308872	1.7974669
29.42547954011872	3.5612307	1.8871223
29.44360082428809	4.26813	2.0659451
29.46172286144722	5.425724	2.3293183
29.479845652143283	7.00617	2.646917
29.497969196923606	9.243476	3.0403085
29.516093496335728	12.020797	3.467102
29.5342185509274	15.280802	3.9090667
29.55234436124651	17.800425	4.219055
29.570470927841175	19.233133	4.3855596
29.588598251259686	19.000492	4.3589554
29.60672633205055	17.537125	4.187735
29.624855170762405	15.131284	3.8898952
29.642984767944146	12.056183	3.4722013
29.66111512414481	9.04724	3.007863
29.67924623991366	6.503211	2.5501394
29.697378115800138	4.890615	2.2114735
29.71551075235387	4.062383	2.0155354
29.733644150124675	3.7263362	1.930372
29.751778309662576	3.5649393	1.8881047
29.769913231517766	3.4670918	1.8620129
29.78804891624066	3.3384082	1.8271312
29.806185364381818	3.263925	1.8066336
29.82432257649206	3.2607048	1.8057421
29.842460553122333	3.275214	1.8097552
29.86059929482382	3.2847345	1.8123837
29.878738802147872	3.2569556	1.8047037
29.896879075646048	3.2396584	1.7999051
29.915020115870114	3.2983375	1.8161325
29.933161923371976	3.2783818	1.8106302
29.951304498703777	3.257995	1.8049916
29.969447842417857	3.2816935	1.8115445
29.987591955066733	3.2321756	1.7978252
30.005736837203123	3.1960008	1.7877362
30.023882489379943	3.160093	1.777665
30.04202891215028	3.14254	1.772721
30.060176106067455	3.1239994	1.767484
30.078324071684946	3.160961	1.7779092
30.09647280955646	3.1300588	1.7691972
30.114622320235863	3.1418695	1.772532
30.132772604277257	3.1658397	1.7792807
30.1509236622349	3.111307	1.7638897
30.16907549466328	3.0571527	1.7484715
30.18722810211705	3.0301435	1.7407308
30.205381485151097	3.0185428	1.7373954
30.22353564432045	3.017909	1.737213
30.241690580180403	3.0000117	1.7320542
30.25984629328638	2.9934938	1.7301716
30.278002784194037	2.9674296	1.7226229
30.296160053459246	2.9008927	1.7032007
30.314318101638033	2.8711028	1.6944329
30.332476929286646	2.909476	1.7057186
30.35063653696153	2.9199822	1.7087955
30.368796925219307	2.9468546	1.7166405
30.386958094616844	2.9631796	1.7213888
30.40512004571115	2.8726122	1.6948782
30.423282779059463	2.8432188	1.6861846
30.441446295219233	2.8727233	1.694911
30.459610594748067	2.781047	1.6676471
30.47777567820382	2.6926818	1.6409394
30.495941546144504	2.7524245	1.6590432
30.51410819912835	2.7457914	1.657043
30.532275637713795	2.7672672	1.6635106
30.55044386245946	2.8343053	1.6835395
30.56861287392416	2.7883048	1.6698217
30.586782672666956	2.7431388	1.6562424
30.604953259247047	2.8174882	1.6785375
30.623124634223885	2.790542	1.6704915
30.641296798157075	2.6909988	1.6404264
30.659469751606462	2.690043	1.640135
30.677643495132074	2.7493322	1.658111
30.695818029294152	2.7177024	1.6485455
30.713993354653116	2.7146082	1.6476068
30.73216947176962	2.741298	1.6556865
30.75034638120448	2.6609454	1.6312405
30.768524083518756	2.5893853	1.6091567
30.786702579273673	2.6260438	1.6205072
30.80488186903069	2.7550218	1.6598258
30.82306195335144	2.9103224	1.7059667
30.841242832797782	3.0847027	1.7563322
30.85942450793176	3.4211445	1.8496336
30.877606979315637	3.7747443	1.9428701
30.895790247511883	4.1456556	2.0360882
30.913974313083134	4.5965285	2.1439517
30.932159176592283	4.941557	2.2229612
30.95034483860237	5.018972	2.2403061
30.968531299676698	4.745157	2.178338
30.98671856037873	4.326842	2.0801063
31.00490662127215	3.9254775	1.9812818
31.023095482920848	3.5196555	1.8760744
31.04128514588892	3.0693865	1.7519665
31.059475610740662	2.6701853	1.6340702
31.07766687804056	2.5039475	1.5823866
31.09585894835335	2.4607852	1.568689
31.11405182224393	2.4901521	1.5780215
31.132245500277417	2.514331	1.5856643
31.15043998301914	2.5201068	1.5874845
31.168635271034628	2.4635458	1.5695686
31.18683136488964	2.5175576	1.5866814
31.20502826515008	2.4204183	1.5557693
31.223225972382135	2.3674307	1.5386457
31.241424487152155	2.346009	1.5316687
31.259623810026692	2.372008	1.5401325
31.27782394157253	2.344343	1.5311247
31.296024882356644	2.3227777	1.5240662
31.314226632946237	2.3554149	1.534736
31.332429193908684	2.3671854	1.538566
31.350632565811598	2.350087	1.5329993
31.368836749222787	2.425293	1.5573353
31.387041744710295	2.4510548	1.5655845
31.40524755284232	2.511695	1.5848328
31.423454174187317	2.5566943	1.5989666
31.441661609313922	2.5288055	1.5902219
31.459869858791002	2.4696274	1.5715048
31.478078923187628	2.3541675	1.5343297
31.496288803073064	2.3079364	1.5191894
31.514499499016807	2.2926655	1.514155
31.532711011588546	2.2968972	1.5155518
31.550923341358178	2.2942932	1.5146924
31.56913648889584	2.2547	1.5015658
31.587350454771844	2.2794487	1.5097843
31.605565239556732	2.2951775	1.5149844
31.62378084382127	2.3515477	1.5334758
31.641997268136382	2.3635592	1.5373871
31.660214513073274	2.2728004	1.507581
31.67843257920331	2.176139	1.4751743
31.6966514670981	2.218957	1.4896164
31.71487117732944	2.286814	1.5122216
31.733091710469346	2.258489	1.5028269
31.751313067090052	2.1907895	1.4801316
31.769535247764008	2.1399627	1.4628612
31.787758253063878	2.1608512	1.4699835
31.805982083562526	2.2191248	1.4896727
31.824206739833024	2.1724331	1.4739176
31.84243222244869	2.19855	1.4827508
31.860658531983013	2.2281475	1.4926981
31.878885669009737	2.2273662	1.4924363
31.897113634102784	2.1757107	1.475029
31.91534242783632	2.1718948	1.473735
31.933572050784694	2.1109936	1.4529259
31.951802503522508	2.1334531	1.4606345
31.970033786624548	2.1329594	1.4604654
31.988265900665834	2.1366687	1.4617348
32.006498846221575	2.1432853	1.4639963
32.02473262386724	2.1805031	1.4766526
32.04296723417845	2.150804	1.466562
32.0612026777311	2.1395543	1.4627215
32.07943895510129	2.070277	1.4388458
32.097676066865304	2.0260167	1.4233822
32.115914013599685	2.0767648	1.4410985
32.13415279588115	2.1773906	1.4755983
32.152392414286666	2.215557	1.4884747
32.1706328693934	2.163136	1.4707603
32.18887416177875	2.0577	1.4344685
32.20711629202032	2.0226712	1.4222065
32.225359260695924	1.9929152	1.4117064
32.243603068383614	1.976996	1.4060569
32.26184771566166	2.0310452	1.4251474
32.28009320310852	2.1391914	1.4625975
32.2983395313029	2.1789012	1.4761101
32.31658670082372	2.093292	1.4468213
32.33483471225012	2.0871027	1.4446808
32.35308356616143	2.1017094	1.4497273
32.371333263137245	2.1364207	1.46165
32.38958380375734	2.1697223	1.4729978
32.407835188601744	2.0582416	1.4346573
32.42608741825067	2.0018673	1.4148736
32.444340493284585	2.0037975	1.4155556
32.46259441428416	2.0451908	1.4301016
32.48084918183028	2.0304008	1.4249213
32.49910479650405	2.04213	1.4290311
32.51736125888683	1.9969747	1.4131435
32.53561856956014	1.9778335	1.4063547
32.5538767291058	2.0128176	1.418738
32.572135738105764	2.024355	1.4227983
32.59039559714228	2.0907996	1.4459597
32.608656306797776	2.0792384	1.4419564
32.62691786765491	1.9732553	1.404726
32.645180280296586	1.8340849	1.3542839
32.663443545305896	1.9090983	1.3817012
32.68170766326619	2.023782	1.4225969
32.69997263476099	2.027788	1.4240042
32.7182384603741	1.9489497	1.3960478
32.7365051406895	1.9380769	1.3921483
32.75477267629144	1.9513977	1.3969244
32.77304106776434	1.9782416	1.4064997
32.79131031569289	1.8961143	1.3769947
32.809580420661966	1.8863966	1.3734616
32.827851383256714	1.9272488	1.3882539
32.84612320406245	1.9523357	1.3972601
32.86439588366476	1.9263058	1.3879142
32.88266942264945	1.9879175	1.4099354
32.9009438216025	2.0112545	1.418187
32.9192190811102	1.9495983	1.3962802
32.937495201758985	1.8974229	1.3774698
32.95577218413556	1.8624665	1.3647221
32.974050028826866	1.8644975	1.365466
32.992328736420035	1.9578032	1.3992152
33.010608307502444	2.0001857	1.4142792
33.02888874266169	2.0140166	1.4191605
33.047170042485604	1.9939395	1.4120692
33.06545220756225	1.9484519	1.3958696
33.083735238479896	1.9395572	1.3926798
33.10201913582707	1.9046311	1.3800838
33.12030390019248	1.9421462	1.393609
33.138589532165135	1.921811	1.386294
33.15687603233419	1.8502867	1.3602525
33.17516340128909	1.7371167	1.3179972
33.19345163961947	1.7611786	1.3270941
33.211740747915215	1.7882938	1.3372711
33.23003072676643	1.8452605	1.3584037
33.248321576763466	1.8774586	1.3702039
33.266613298496885	1.9441516	1.3943284
33.28490589255747	2.0058637	1.4162852
33.30319935953626	2.1061552	1.4512599
33.32149370002451	2.0917745	1.4462968
33.339788914613706	1.9303513	1.3893708
33.358085003895575	1.8694988	1.3672962
33.376381968462034	1.8920003	1.3755001
33.39467980890529	1.9570726	1.3989542
33.41297852581774	1.9024603	1.379297
33.43127811979204	1.8377762	1.355646
33.44957859142105	1.8080143	1.3446242
33.467879941297866	1.9181111	1.3849589
33.486182170015844	2.0268788	1.423685
33.50448527816853	2.0504453	1.4319376
33.522789266349754	2.0463433	1.4305046
33.541094135153514	1.9939593	1.4120762
33.55939988517411	1.8855401	1.3731498
33.57770651700602	1.8349882	1.3546174
33.59601403124398	1.9801997	1.4071957
33.61432242848296	1.9216553	1.3862379
33.632631709318154	1.8421223	1.3572481
33.650941874344994	1.8548656	1.3619345
33.66925292415916	1.9189935	1.3852774
33.68756485935654	2.0177417	1.4204724
33.70587768053328	1.9668247	1.4024353
33.724191388285746	1.9756432	1.4055758
33.74250598321054	1.9203717	1.3857747
33.760821465904506	1.9133029	1.383222
33.77913783696474	1.8866895	1.3735682
33.79745509698852	1.9744786	1.4051614
33.815773246573414	1.9301758	1.3893076
33.8340922863172	1.9063017	1.3806889
33.852412216817896	1.9250998	1.3874797
33.87073303867377	1.9552838	1.3983146
33.889054752483304	1.9901788	1.410737
33.907377358845245	2.012379	1.4185834
33.92570085835853	2.0214975	1.4217937
33.94402525162239	1.9682682	1.4029498
33.96235053923627	1.9419752	1.3935478
33.980676721799824	1.9667706	1.402416
33.999003799912984	2.0364454	1.4270408
34.01733177417592	1.9390615	1.392502
34.03566064518901	1.8816053	1.3717161
34.0539904135529	1.8946979	1.3764802
34.07232107986846	1.8042486	1.3432232
34.090652644736785	1.809172	1.3450546
34.108985108759235	1.9584872	1.3994596
34.12731847253742	1.9859654	1.4092429
34.14565273667313	1.9803494	1.4072489
34.16398790176847	1.9464908	1.3951669
34.18232396842574	1.8949227	1.3765619
34.20066093724749	1.8549546	1.3619672
34.21899880883651	1.9096242	1.3818915
34.23733758379583	1.9631292	1.4011171
34.25567726272874	1.9473568	1.3954773
34.27401784623872	1.8769501	1.3700182
34.29235933492957	1.9189603	1.3852655
34.31070172940526	1.9392143	1.3925568
34.32904503027003	1.9250964	1.3874785
34.347389238128386	1.95901	1.3996464
34.36573435358502	1.8846803	1.3728366
34.38408037724492	1.7787644	1.3337033
34.402427309713296	1.8382869	1.3558344
34.42077515159559	1.9184471	1.3850802
34.43912390349752	1.9800172	1.4071308
34.45747356602499	1.9661664	1.4022006
34.47582413978423	2.0482228	1.4311613
34.49417562538163	2.156805	1.4686065
34.51252802342388	2.0313318	1.425248
34.53088133451789	1.9056574	1.3804555
34.54923555927084	1.9309844	1.3895986
34.567590698290104	1.9310626	1.3896267
34.58594675218336	1.7171584	1.310404
34.6043037215585	1.6644815	1.2901479
34.62266160702365	1.8076328	1.3444823
34.641020409187234	2.0256624	1.4232577
34.65938012865785	2.0847228	1.443857
34.677740766044394	2.122853	1.4570013
34.69610232195598	2.120149	1.4560732
34.714464797002016	2.1446168	1.4644511
34.73282819179208	2.0417686	1.4289047
34.751192506936064	1.9679381	1.4028322
34.76955774304408	1.9807456	1.4073896
34.7879239007265	2.0449343	1.430012
34.80629098059391	2.0447857	1.42996
34.824658983257194	2.1521578	1.4670235
34.843027909327446	2.2059774	1.4852533
34.86139775941603	2.0186384	1.4207879
34.879768534134534	1.8386279	1.3559601
34.89814023409483	1.7794124	1.3339462
34.91651285990901	1.7765715	1.3328809
34.93488641218944	1.9797698	1.407043
34.95326089154871	2.1514559	1.4667842
34.97163629859967	2.1388485	1.4624803
34.99001263395542	2.1665304	1.4719138
35.00838989822934	2.1431644	1.463955
35.02676809203499	1.9651927	1.4018533
35.04514721598624	1.941802	1.3934855
35.063527270697215	1.9695308	1.4033997
35.081908256782256	2.0444987	1.4298596
35.10029017485597	2.129718	1.4593554
35.11867302553321	1.9923644	1.4115114
35.137056809429104	1.6785753	1.2955984
35.155441527159006	1.5315347	1.2375519
35.173827179338524	1.6483871	1.2838953
35.19221376658354	1.8466315	1.3589082
35.21060128951017	1.6090126	1.2684686
35.2289897487348	1.5531629	1.2462596
35.24737914487405	1.6721056	1.2930992
35.26576947854479	2.0384614	1.427747
35.28416075036418	2.1938293	1.4811581
35.30255296094958	1.8782525	1.3704935
35.32094611091867	1.7474296	1.3219038
35.33934020088932	2.079259	1.4419636
35.35773523147969	2.0164218	1.4200077
35.3761312033082	1.7103118	1.3077888
35.394528116993506	1.8095369	1.3451903
35.41292597315452	2.1211555	1.4564188
35.431324772410434	2.2420626	1.4973519
35.449724515380666	2.2506008	1.5002003
35.46812520268491	2.75361	1.6594005
35.486526834943106	2.6697116	1.6339252
35.504929412775454	1.9994705	1.4140264
35.52333293680242	1.6285096	1.2761307
35.54173740764471	1.8461995	1.3587493
35.560142825923286	1.939524	1.392668
35.5785491922594	2.0100515	1.4177629
35.59695650727454	2.036961	1.4272214
35.61536477159042	2.1007197	1.449386
