0.008763373481513119	0.0	0.0
0.026290120649546365	0.14626539	0.3824466
0.043816868432600686	0.18034895	0.4246751
0.06134361724069026	0.23978344	0.48967686
0.07887036748382949	0.20037208	0.4476294
0.0963971195720331	0.14954107	0.3867054
0.11392387391531617	0.20211169	0.44956833
0.1314506309236943	0.18514888	0.4302893
0.1489773910071836	0.24766526	0.49765977
0.16650415457580078	0.12996693	0.36050928
0.18403092203956356	0.17800443	0.4219057
0.20155769380849	0.15042932	0.3878522
0.2190844702925996	0.18790315	0.43347797
0.2366112519019124	0.17197202	0.41469508
0.2541380390464497	0.13595644	0.3687227
0.27166483213623416	0.12724736	0.3567175
0.28919163158128947	0.18212833	0.42676497
0.3067184377916406	0.17933543	0.42348015
0.324245251177314	0.14976127	0.38699
0.34177207214833777	0.15768385	0.39709425
0.3592989011147415	0.17380154	0.41689512
0.37682573848655654	0.18571879	0.43095103
0.39435258467381573	0.17360553	0.41665998
0.41187944008655414	0.13932927	0.37326837
0.42940630513480854	0.14331213	0.37856588
0.446933180228618	0.14542307	0.38134378
0.4644600657780234	0.114703335	0.3386788
0.48198696219306775	0.10538602	0.32463214
0.49951386988379676	0.10753444	0.32792443
0.5170407892602581	0.13946423	0.3734491
0.5345677207325025	0.17283241	0.4157312
0.5520946647105822	0.20345159	0.4510561
0.5696216216045534	0.22731873	0.47677955
0.5871485918244737	0.22865938	0.47818342
0.6046755757804043	0.20950721	0.45771956
0.6222025738824094	0.19356845	0.43996415
0.6397295865405557	0.18573736	0.43097258
0.6572566141649129	0.15844443	0.39805079
0.6747836571655547	0.11983328	0.34616944
0.6923107159525568	0.10428398	0.3229303
0.7098377909359992	0.15103503	0.38863224
0.7273648825259653	0.18967211	0.43551362
0.7448919911325411	0.22360031	0.47286394
0.762419117165817	0.20183204	0.44925722
0.7799462610358868	0.19675623	0.44357213
0.7974734231528482	0.1786028	0.42261425
0.8150006039268024	0.1857463	0.43098295
0.8325278037678551	0.18751635	0.4330316
0.8500550230861152	0.19963388	0.44680408
0.8675822622916969	0.21222338	0.4606771
0.8851095217947171	0.21104604	0.45939746
0.9026368020052984	0.19526923	0.44189277
0.9201641033335665	0.1852568	0.43041468
0.9376914261896523	0.21254653	0.46102768
0.9552187709836915	0.18864265	0.4343301
0.9727461381258234	0.20871842	0.45685712
0.990273528026193	0.19513425	0.44174004
1.0078009410949496	0.23556319	0.48534852
1.0253283777422473	0.2471345	0.49712625
1.0428558383782454	0.23957908	0.48946816
1.0603833234131086	0.2438979	0.49386021
1.0779108332570058	0.26616484	0.51591164
1.0954383683201119	0.25147447	0.5014723
1.112965929012607	0.3090013	0.5558789
1.1304935157446763	0.4179905	0.64652187
1.1480211289265108	0.4707716	0.68612796
1.1655487689683062	1.298411	1.1394784
1.1830764362802655	1.5838261	1.2585015
1.200604131272596	2.0490098	1.4314363
1.2181318543555117	2.4296598	1.5587366
1.235659605939232	2.5070932	1.5833803
1.253187386433982	3.8628833	1.9654219
1.270715196249994	6.0307097	2.4557502
1.2882430357975057	11.265839	3.3564622
1.3057709054867608	15.883931	3.985465
1.3232988057280106	21.777407	4.666627
1.3408267369315112	27.22752	5.2179995
1.358354699507526	31.31351	5.5958476
1.3758826938663256	35.580036	5.9649005
1.3934107204181858	37.326836	6.109569
1.410938779573391	37.865643	6.1535068
1.4284668717422309	38.64023	6.2161264
1.4459949973350033	37.979374	6.1627407
1.4635231567620117	37.881744	6.1548147
1.4810513504335687	36.887543	6.0735116
1.4985795787599925	36.274815	6.0228577
1.5161078421516088	35.99008	5.9991736
1.5336361410187505	35.086872	5.923417
1.5511644757717598	35.095066	5.924109
1.5686928468209842	35.314587	5.942608
1.58622125457678	35.75937	5.9799137
1.6037496994495108	36.417698	6.0347075
1.621278181849548	36.215588	6.0179386
1.6388067021872719	37.14052	6.094302
1.6563352608730693	37.010185	6.0835996
1.673863858317336	36.281242	6.0233912
1.6913924949304753	35.44126	5.953256
1.7089211711228998	34.302498	5.8568335
1.7264498873050296	33.257103	5.766897
1.7439786438872935	32.455288	5.6969543
1.7615074412801288	32.17913	5.672665
1.779036279893981	31.723122	5.632328
1.796565160139305	30.895884	5.5584064
1.814094082426564	29.89769	5.467878
1.8316230471662298	29.091564	5.3936596
1.849152054768784	28.329008	5.3225
1.8666811056447168	27.870504	5.279252
1.8842102002045273	27.061888	5.202104
1.901739338858724	26.30624	5.128961
1.9192685220178245	25.566038	5.056287
1.9367977500923557	24.809175	4.980881
1.9543270234928547	24.211264	4.920494
1.971856342629867	23.866758	4.8853617
1.9893857079139496	23.413698	4.8387704
2.006915119755667	23.15445	4.811907
2.0244445785655945	22.589846	4.7528777
2.0419740847543175	22.107872	4.701901
2.0595036387324317	21.61181	4.6488504
2.0770332409105414	21.019367	4.584688
2.094562891699263	20.417496	4.5185723
2.1120925915092217	19.806992	4.450505
2.129622340751053	19.5446	4.4209275
2.1471521398354043	187.79982	13.704007
2.1646819891729323	444.06134	21.072763
2.182211889174303	440.357	20.984684
2.1997418402501974	452.85745	21.280447
2.2172718428113023	432.8401	20.80481
2.234801897268317	321.10785	17.919483
2.2523320040319548	17.47201	4.179953
2.269862163512935	17.279932	4.1569138
2.287392376121992	16.842688	4.1039844
2.304922642269869	16.54166	4.067144
2.322452962367322	16.221361	4.027575
2.3399833368251164	15.7958355	3.9743974
2.357513766054032	15.482519	3.9347832
2.3750442504648586	15.036943	3.8777497
2.3925747904683963	14.788683	3.8456056
2.410105386475459	14.576238	3.817884
2.4276360388968707	14.165998	3.7637744
2.445166748143469	13.981326	3.7391613
2.4626975146261025	13.673346	3.6977487
2.4802283387556323	13.484428	3.672115
2.4977592209429305	13.165692	3.6284559
2.5152901615988825	13.040855	3.6112125
2.5328211611343865	13.026325	3.6092
2.5503522199603523	13.169763	3.6290166
2.5678833384877024	12.895479	3.5910275
2.5854145171273712	12.477368	3.532332
2.6029457562903064	12.036065	3.4693034
2.620477056387469	11.859912	3.4438224
2.6380084178298326	11.701302	3.4207165
2.655539841028383	11.603759	3.406429
2.673071326394119	11.532223	3.3959126
2.6906028743380523	11.210975	3.3482795
2.708134485271211	10.923585	3.3050847
2.7256661596046325	10.627299	3.259954
2.743197897749369	10.554545	3.248776
2.760729700116486	10.453587	3.2332008
2.778261567117063	10.245159	3.200806
2.795793499162193	10.09153	3.1767168
2.8133254966629817	9.95737	3.15553
2.830857560030551	9.784626	3.1280386
2.8483896896760337	9.667073	3.1091917
2.865921886010578	9.572215	3.0938997
2.883454149445347	9.575633	3.094452
2.9009864803915177	9.492537	3.080996
2.91851887926028	9.401567	3.0661976
2.9360513464628384	9.273589	3.0452569
2.953583882410413	9.093882	3.0156064
2.9711164875142373	8.977697	2.9962807
2.9886491621855606	8.853412	2.9754684
3.0061819068356455	8.602418	2.932988
3.023714721875769	8.405027	2.8991425
3.041247607717225	8.259546	2.8739426
3.0587805647713213	8.179465	2.8599765
3.0763135934493806	8.267859	2.8753886
3.0938466941627407	8.192062	2.8621778
3.1113798673227544	8.14423	2.8538098
3.1289131133407904	7.9570074	2.8208168
3.1464464326282315	7.8281665	2.7978861
3.1639798255964786	7.7546353	2.7847147
3.1815132926569443	7.6869373	2.7725327
3.1990468342210603	7.702296	2.775301
3.216580450700272	7.708148	2.7763553
3.2341141425060416	7.650514	2.7659562
3.251647910049847	7.509593	2.7403636
3.2691817537431813	7.364541	2.7137687
3.286715673997555	7.289307	2.6998718
3.3042496712244938	7.170807	2.6778362
3.32178374583554	7.0934486	2.663353
3.339317898242251	7.008714	2.6473975
3.3568521288562034	6.961139	2.638397
3.3743864380889876	6.8609223	2.6193361
3.3919208263522127	6.6969705	2.5878506
3.4094552940575023	6.506649	2.5508134
3.4269898416164972	6.5130334	2.5520644
3.444524469440858	6.5297637	2.5553403
3.4620591779422587	6.5919847	2.567486
3.479593967532391	6.557466	2.560755
3.4971288386229658	6.5116296	2.5517895
3.5146637916257086	6.468338	2.5432928
3.5321988269523628	6.3872476	2.5273004
3.5497339450146903	6.3453903	2.5190058
3.5672691462244708	6.2933583	2.5086567
3.5848044309934988	6.2781615	2.505626
3.60233979973359	6.3008614	2.5101516
3.619875252856575	6.4096384	2.5317264
3.6374107907743034	6.437302	2.537184
3.6549464138986427	6.376374	2.5251482
3.6724821226414788	6.378401	2.5255497
3.690017917414714	6.4333386	2.5364027
3.7075537986302702	6.4761763	2.5448332
3.7250897667000857	6.479004	2.5453887
3.7426258220361235	6.525529	2.5545115
3.7601619650503553	6.830857	2.6135907
3.777698196154779	7.4481773	2.7291348
3.7952345157614067	8.491271	2.9139786
3.8127709242822716	9.257586	3.042628
3.830307422129425	11.475444	3.3875425
3.847844009714936	30.390463	5.5127544
3.8653806874508954	97.92495	9.895703
3.882917455749409	97.17102	9.857536
3.900454315022606	96.90664	9.844117
3.917991265682631	41.526962	6.444142
3.9355283081416506	11.220625	3.3497202
3.9530654428118495	8.947429	2.9912252
3.970602670105433	7.7063694	2.7760348
3.9881399904346244	6.6264734	2.5741937
4.005677404211669	6.4164524	2.5330718
4.023214911848827	6.241619	2.4983232
4.0407525137583855	6.2873144	2.5074518
4.058290210352644	6.3517194	2.5202618
4.075828002043927	6.396709	2.5291717
4.0933658892445814	6.31462	2.5128908
4.110903872366966	6.3192024	2.5138023
4.128441951823468	6.2674103	2.5034797
4.145980128026488	6.277158	2.5054257
4.163518401388452	6.190885	2.488149
4.181056772321807	6.206391	2.491263
4.1985952412390155	6.2022915	2.4904401
4.216133808552567	6.167258	2.4833965
4.233672474674966	6.314326	2.5128322
4.251211240018741	6.4771237	2.5450194
4.268750104996445	6.6527057	2.579284
4.286289070020643	7.51091	2.740604
4.303828135503928	9.10707	3.0177922
4.3213673018589125	29.398153	5.4220066
4.3389065694982305	90.60731	9.518787
4.356445938834537	165.86577	12.878888
4.3739854102805085	171.32613	13.089161
4.391524984248844	172.39857	13.130064
4.409064661152262	136.60106	11.687646
4.426604441403504	96.821625	9.839798
4.444144325415337	75.68981	8.699989
4.461684313600543	21.479881	4.6346393
4.47922440637193	21.82726	4.671965
4.496764604142329	20.264866	4.5016513
4.5143049073245916	18.643154	4.317772
4.531845316331589	16.598642	4.074143
4.5493858315762195	13.771065	3.7109385
4.566926453471405	11.379699	3.373381
4.584467182430081	9.255978	3.042364
4.602008018865218	8.16027	2.8566186
4.619548963189798	7.408661	2.7218854
4.637090015816834	6.9860554	2.6431148
4.654631177159353	6.7465715	2.5974164
4.672172447630417	6.477033	2.5450015
4.689713827643102	6.345586	2.5190446
4.7072553176105085	6.0847597	2.4667306
4.724796917945764	5.9640937	2.4421494
4.742338629062015	5.8617377	2.4211025
4.759880451372434	5.853622	2.419426
4.777422385290215	5.860752	2.420899
4.794964431228581	5.8686743	2.4225347
4.812506589600768	5.8317766	2.4149072
4.830048860820047	5.7549067	2.3989387
4.847591245299709	5.740142	2.3958592
4.8651337434530655	5.72231	2.3921351
4.882676355693457	5.6342506	2.3736577
4.900219082434242	5.578115	2.3618033
4.917761924088813	5.4805083	2.3410485
4.935304881070575	5.4969068	2.3445482
4.952847953792969	5.481643	2.341291
4.970391142669449	5.4234877	2.3288383
4.9879344481135055	5.4669657	2.3381543
5.005477870538642	5.4851956	2.3420494
5.023021410358394	5.509049	2.3471363
5.040565067986324	5.451419	2.3348274
5.05810884383601	5.40367	2.3245795
5.075652738321066	5.358681	2.3148825
5.09319675185512	5.3647804	2.3161995
5.110740884851836	5.3575974	2.3146484
5.128285137724894	5.3462925	2.312205
5.145829510888007	5.404785	2.3248193
5.163374004754908	5.4519196	2.3349347
5.1809186197393595	5.390855	2.3218215
5.198463356255145	5.329598	2.3085923
5.216008214716077	5.2895784	2.2999084
5.233553195535998	5.357499	2.3146272
5.251098299128764	5.401101	2.3240268
5.268643525908272	5.4182386	2.327711
5.286188876288432	5.363624	2.31595
5.3037343506831895	5.3780713	2.319067
5.32127994950651	5.322185	2.306986
5.3388256731723915	5.2486978	2.2910037
5.356371522094851	5.2463245	2.2904856
5.373917496687938	5.306185	2.3035157
5.391463597365729	5.34979	2.3129613
5.40900982454232	5.345525	2.3120391
5.426556178631843	5.3052735	2.303318
5.444102660048449	5.250765	2.2914548
5.4616492692063225	5.242481	2.2896466
5.479196006519669	5.193022	2.2788203
5.496742872402727	5.1491117	2.2691655
5.514289867269756	5.121455	2.2630632
5.531836991535049	5.096038	2.2574406
5.549384245612924	5.0804253	2.25398
5.566931629917724	5.0473914	2.24664
5.584479144863822	5.086233	2.2552679
5.6020267908656205	5.057476	2.2488832
5.619574568337545	5.0510125	2.2474458
5.637122477694054	5.129513	2.2648427
5.654670519349629	5.198405	2.2800012
5.672218693718784	5.2755966	2.2968667
5.689767001216059	5.23775	2.288613
5.707315442256021	5.167649	2.2732463
5.724864017253266	5.1132374	2.261247
5.7424127266224225	5.1525364	2.2699199
5.75996157077814	5.117234	2.2621305
5.777510550135105	5.1719246	2.2741866
5.795059665108022	5.1268907	2.2642639
5.812608916111639	5.102307	2.2588286
5.830158303560715	5.234472	2.2878969
5.847707827870055	5.251891	2.2917006
5.86525748945448	5.419969	2.3280828
5.8828072887288485	5.4897537	2.3430223
5.900357226108044	5.554221	2.3567395
5.917907302006979	5.6293583	2.3726268
5.9354575168406	6.2644653	2.5028913
5.9530078710238765	6.874234	2.621876
5.970558364971812	7.428476	2.725523
5.988108999099438	7.6995087	2.7747989
6.005659773821818	8.232165	2.869175
6.023210689554039	8.035872	2.8347614
6.040761746711227	8.514684	2.917993
6.058312945708531	7.8877497	2.8085139
6.075864286961132	7.4122314	2.7225413
6.093415770884244	6.7018332	2.58879
6.1109673978931065	6.1354303	2.47698
6.128519168402993	5.556793	2.357285
6.146071082829204	5.417867	2.3276312
6.163623141587075	5.3198996	2.3064907
6.181175345091969	5.2433243	2.2898307
6.198727693759281	5.1613536	2.2718613
6.216280188004435	5.1886973	2.2778711
6.233832828242885	5.1431417	2.2678497
6.251385614890126	5.2246604	2.2857516
6.268938548361669	5.223227	2.285438
6.286491629073067	5.1556277	2.2706008
6.304044857439898	5.140496	2.267266
6.321598233877777	5.0605536	2.2495675
6.339151758802344	5.0737696	2.252503
6.356705432629277	5.073255	2.2523887
6.37425925577428	4.9923096	2.2343476
6.391813228653095	5.0283947	2.2424083
6.409367351681486	5.057872	2.2489712
6.426921625275259	5.077549	2.2533417
6.44447604985025	5.1166835	2.2620087
6.46203062582232	5.1290083	2.2647314
6.47958535360737	5.134454	2.2659333
6.497140233621328	5.09331	2.2568362
6.514695266280161	5.013372	2.239056
6.532250451999859	4.967948	2.2288895
6.549805791196454	4.987994	2.2333817
6.567361284286002	4.987396	2.2332478
6.584916931684597	5.013265	2.2390323
6.602472733808367	5.0217786	2.2409325
6.6200286910734665	5.0269527	2.2420866
6.637584803896092	5.0184565	2.2401912
6.655141072692462	5.019446	2.240412
6.672697497878842	4.952751	2.2254777
6.690254079871514	4.952002	2.2253094
6.707810819086808	4.972726	2.229961
6.725367715941078	4.9698234	2.22931
6.742924770850719	5.036531	2.2442217
6.760481984232151	5.0654497	2.2506554
6.778039356501836	5.074454	2.2526548
6.795596888076266	5.042619	2.2455778
6.813154579371963	4.968892	2.2291012
6.830712430805492	4.9883637	2.2334645
6.84827044279344	4.996677	2.2353249
6.865828615752445	4.9876237	2.2332988
6.883386950099159	4.9877467	2.2333264
6.900945446250287	4.951521	2.2252014
6.918504104622553	4.9403896	2.2226987
6.936062925632727	4.9326687	2.220961
6.953621909697607	4.9101596	2.215888
6.971181057234028	4.9320006	2.220811
6.988740368658859	5.006243	2.2374635
7.006299844389007	5.186138	2.2773094
7.023859484841407	5.3096724	2.3042727
7.041419290433036	5.374376	2.31827
7.058979261580902	5.4941807	2.343967
7.0765393987020495	5.7011924	2.387717
7.094099702213559	6.0916815	2.4681332
7.111660172532549	6.4384565	2.5374115
7.129220810076164	6.7519183	2.5984454
7.146781615261595	7.2987514	2.70162
7.16434258850606	7.48146	2.7352257
7.181903730226821	7.936611	2.8171992
7.1994650408411704	8.128701	2.8510878
7.217026520766437	8.34617	2.888974
7.234588170419983	8.565391	2.926669
7.252149990219215	8.491857	2.914079
7.269711980581568	8.341754	2.8882096
7.2872741419245175	8.099118	2.845895
7.304836474665574	7.7144704	2.7774935
7.322398979222286	7.3490963	2.7109218
7.339961656012233	7.0802093	2.6608663
7.357524505453039	6.736638	2.5955033
7.375087527962357	6.4997034	2.5494516
7.392650723957886	6.270733	2.5041432
7.410214093857353	5.955633	2.4404166
7.427777638078528	5.7829356	2.4047735
7.445341357039213	5.548344	2.3554924
7.4629052511572525	5.3891177	2.3214474
7.480469320850524	5.26975	2.2955937
7.498033566536948	5.2028866	2.2809837
7.5155979886344735	5.2051377	2.2814772
7.5331625875610975	5.2108197	2.282722
7.550727363734844	5.2068467	2.2818515
7.568292317573788	5.161429	2.2718778
7.585857449496025	5.182075	2.2764173
7.603422759919705	5.2260613	2.286058
7.620988249263007	5.2482004	2.2908952
7.638553917944147	5.2277827	2.2864344
7.656119766381391	5.225866	2.2860153
7.673685794993023	5.2260075	2.2860463
7.691252004197388	5.212399	2.283068
7.70881839441285	5.184436	2.2769356
7.726384966057826	5.2192607	2.2845702
7.743951719550762	5.240446	2.289202
7.761518655310149	5.3188386	2.3062608
7.779085773754511	5.328295	2.30831
7.796653075302419	5.3309855	2.3088927
7.814220560372475	5.318894	2.3062727
7.831788229383323	5.278981	2.2976034
7.8493560827536495	5.317552	2.3059819
7.866924120902174	5.3536296	2.3137913
7.884492344247663	5.3749638	2.3183968
7.9020607532089135	5.3400545	2.3108559
7.919629348204771	5.370291	2.3173888
7.937198129654115	5.449266	2.3343663
7.954767097975865	5.4364495	2.3316195
7.972336253588986	5.3772774	2.3188958
7.989905596912472	5.3071804	2.303732
8.007475128365371	5.341565	2.3111827
8.025044848366756	5.4282174	2.3298535
8.042614757335754	5.6100245	2.368549
8.060184855691523	5.663061	2.3797188
8.07775514385327	5.8440847	2.4174542
8.095325622240228	5.872889	2.4234045
8.112896291271687	5.861399	2.4210327
8.130467151366968	5.7946033	2.4071982
8.148038202945436	5.7730227	2.4027116
8.165609446426497	5.825783	2.4136658
8.183180882229594	5.932597	2.4356923
8.200752510774217	5.999675	2.4494233
8.218324332479893	6.0276313	2.4551234
8.235896347766193	6.0457673	2.4588141
8.253468557052724	6.0338793	2.4563956
8.27104096075914	6.0706654	2.463872
8.288613559305137	6.1660056	2.4831443
8.306186353110448	6.2361484	2.4972281
8.32375934259485	6.3251476	2.5149846
8.341332528178162	6.3204722	2.514055
8.358905910280246	6.336709	2.517282
8.376479489321003	6.3099775	2.511967
8.394053265720377	6.3431864	2.5185683
8.411627239898356	6.3743296	2.5247436
8.42920141227497	6.360059	2.5219157
8.44677578327029	6.338962	2.5177295
8.464350353304427	6.2787647	2.5057464
8.48192512279754	6.2275295	2.4955018
8.499500092169827	6.182838	2.4865313
8.51707526184153	6.217396	2.4934707
8.534650632232934	6.203767	2.4907362
8.552226203764365	6.2018914	2.4903598
8.569801976856192	6.1749244	2.4849396
8.587377951928834	6.187188	2.487406
8.60495412940274	6.171987	2.4843485
8.622530509698416	6.2143593	2.4928617
8.6401070932364	6.322951	2.5145478
8.657683880437283	6.5114226	2.551749
8.675260871721695	6.7257056	2.5933964
8.692838067510303	6.838691	2.6150892
8.710415468223834	6.947246	2.635763
8.727993074283043	7.096929	2.6640062
8.745570886108737	7.132331	2.6706424
8.763148904121765	7.209938	2.6851327
8.78072712874302	7.265759	2.6955073
8.798305560393441	7.535044	2.7450035
8.815884199494006	7.7013745	2.775135
8.833463046465745	7.887498	2.808469
8.851042101729728	8.008074	2.829854
8.86862136570707	8.270973	2.87593
8.886200838818924	8.36191	2.8916967
8.903780521486505	8.423581	2.9023407
8.921360414131055	8.494253	2.9144902
8.938940517173874	8.647239	2.9406188
8.956520831036297	8.79642	2.9658759
8.97410135613971	9.082477	3.0137148
8.99168209290554	9.228166	3.0377896
9.009263041755265	9.438692	3.0722454
9.026844203110405	9.756994	3.1236188
9.044425577392525	9.986242	3.1601017
9.062007165023239	10.10218	3.1783926
9.079588966424197	10.364957	3.2194653
9.097170982017108	10.423069	3.2284777
9.11475321222372	11.420389	3.3794067
9.132335657465825	12.322076	3.5102816
9.149918318165264	12.383508	3.5190208
9.167501194743924	13.03482	3.6103766
9.18508428762374	12.724488	3.56714
9.202667597226693	12.646145	3.5561419
9.220251123974803	12.302528	3.507496
9.237834868290143	11.906103	3.4505222
9.255418830594836	11.695832	3.419917
9.273003011311046	11.217988	3.3493266
9.290587410860985	11.042955	3.3230944
9.308172029666911	10.439735	3.231058
9.32575686815113	10.105192	3.1788664
9.343341926735997	8.809083	2.96801
9.360927205843916	8.645795	2.9403732
9.378512705897327	8.484441	2.9128063
9.396098427318728	8.235565	2.8697674
9.413684370530664	8.127834	2.8509357
9.431270535955722	8.019309	2.8318384
9.448856924016539	7.96063	2.8214588
9.466443535135806	7.829943	2.7982035
9.484030369736251	7.8143244	2.7954113
9.501617428240658	7.8205824	2.7965305
9.519204711071852	7.862047	2.8039343
9.536792218652714	7.8418694	2.8003337
9.55437995140617	7.8358254	2.7992544
9.571967909755191	7.863206	2.8041408
9.589556094122802	7.931846	2.8163533
9.60714450493207	7.932189	2.816414
9.624733142606116	7.939861	2.817776
9.642322007568108	8.02956	2.8336477
9.659911100241267	8.093162	2.8448482
9.677500421048851	8.148614	2.8545778
9.695089970414175	8.080037	2.8425405
9.712679748760609	8.047132	2.8367467
9.730269756511557	8.025018	2.8328462
9.747859994090492	8.013724	2.8308523
9.765450461920915	8.141891	2.8533998
9.78304116042639	8.220472	2.8671367
9.800632090030527	8.280172	2.877529
9.81822325115699	8.250857	2.8724306
9.835814644229481	8.2199955	2.8670535
9.853406269671762	8.223325	2.867634
9.870998127907646	8.254184	2.8730094
9.888590219360985	8.240339	2.870599
9.906182544455698	8.297345	2.8805113
9.923775103615734	8.292864	2.8797333
9.941367897265108	8.296269	2.8803246
9.958960925827878	8.299865	2.8809485
9.97655418972816	8.30559	2.881942
9.994147689390106	8.24103	2.8707194
10.011741425237934	8.289214	2.8790996
10.029335397695904	8.349852	2.889611
10.04692960718833	8.443385	2.9057503
10.06452405413958	8.38646	2.8959386
10.082118738974064	8.347351	2.8891783
10.099713662116246	8.334719	2.8869913
10.117308823990651	8.357443	2.8909242
10.134904225021844	8.328383	2.8858938
10.152499865634445	8.318624	2.8842025
10.170095746253125	8.32625	2.8855243
10.18769186730261	8.288259	2.8789337
10.205288229207675	8.2452965	2.8714623
10.222884832393145	8.202892	2.8640692
10.2404816772839	8.1598015	2.8565366
10.258078764304868	8.163584	2.8571985
10.275676093881035	8.139621	2.853002
10.293273666437438	8.107666	2.8473964
10.310871482399158	8.149677	2.854764
10.32846954219134	8.104311	2.8468072
10.346067846239173	8.187015	2.861296
10.363666394967908	8.105313	2.8469832
10.38126518880283	8.0899515	2.844284
10.398864228169298	8.103877	2.846731
10.416463513492713	8.151133	2.8550189
10.434063045198531	8.207352	2.8648477
10.451662823712262	8.255689	2.8732715
10.469262849459467	8.256579	2.8734264
10.486863122865758	8.181981	2.8604162
10.504463644356806	8.124164	2.850292
10.522064414358338	8.011639	2.830484
10.539665433296118	7.946586	2.818969
10.557266701595987	7.8361444	2.7993114
10.574868219683818	7.72581	2.779534
10.592469987985552	7.6596613	2.7676094
10.610072006927185	7.6282578	2.76193
10.627674276934751	7.55748	2.749087
10.64527679843435	7.4167795	2.7233765
10.662879571852143	7.30675	2.7031
10.680482597614331	7.1838593	2.6802723
10.698085876147173	7.1055765	2.6656287
10.715689407876988	6.956917	2.6375968
10.733293193230146	6.8763537	2.6222804
10.750897232633072	6.766056	2.6011643
10.76850152651225	6.7054963	2.5894973
10.786106075294207	6.6348467	2.5758197
10.803710879405534	6.5536265	2.5600052
10.821315939272877	6.4655	2.5427346
10.83892125532294	6.359243	2.521754
10.856526827982472	6.2623076	2.5024602
10.874132657678285	6.2863245	2.5072544
10.891738744837243	6.274023	2.5048
10.909345089886271	6.2312922	2.4962556
10.926951693252343	6.2055855	2.4911013
10.944558555362494	6.169958	2.4839401
10.96216567664381	6.0421596	2.4580805
10.979773057523436	5.9756474	2.4445138
10.997380698428573	5.847115	2.4180808
11.014988599786477	5.7977233	2.4078462
11.032596762024461	5.7118263	2.3899426
11.050205185569892	5.6177564	2.3701806
11.067813870850198	5.5645366	2.358927
11.085422818292859	5.5207996	2.3496382
11.10303202832541	5.524324	2.350388
11.120641501375454	5.5159655	2.3486092
11.138251237870636	5.416212	2.3272758
11.155861238238671	5.3351364	2.3097913
11.173471502907317	5.2458525	2.2903826
11.191082032304402	5.196461	2.2795749
11.208692826857805	5.1429157	2.2677999
11.226303886995465	5.0709186	2.25187
11.243915213145371	5.0370226	2.2443311
11.261526805735578	4.9400444	2.222621
11.279138665194196	4.908348	2.2154791
11.296750791949393	4.8126273	2.1937702
11.314363186429393	4.735797	2.1761887
11.331975849062479	4.6948795	2.1667671
11.34958878027699	4.675498	2.16229
11.36720198050133	4.6957555	2.1669693
11.384815450163948	4.591559	2.1427922
11.402429189693366	4.522715	2.1266675
11.420043199518153	4.4397287	2.1070664
11.437657480066942	63.433296	7.9645023
11.455272031768422	85.20197	9.230492
11.472886855051353	107.63599	10.374777
11.490501950344528	99.19686	9.959763
11.508117318076819	84.50496	9.192657
11.52573295867715	45.847248	6.7710595
11.543348872574514	4.168825	2.0417702
11.560965060197946	4.0857325	2.0213194
11.57858152197655	4.0556464	2.0138636
11.59619825833949	4.023729	2.0059235
11.613815269715985	4.026691	2.0066617
11.631432556535323	38.51184	6.205791
11.649050119226837	83.00985	9.110974
11.666667958219929	93.38296	9.663486
11.68428607394406	107.64559	10.375239
11.701904466828756	82.49643	9.082754
11.719523137303586	65.3079	8.08133
11.737142085798196	4.543382	2.131521
11.754761312742286	3.666082	1.9147015
11.772380818565619	3.6432183	1.9087217
11.790000603698015	3.634756	1.9065037
11.80762066856935	3.6014128	1.8977388
11.825241013609572	3.5864768	1.8937995
11.842861639248683	3.520981	1.8764278
11.860482545916748	3.4884117	1.8677291
11.878103734043883	3.503354	1.8717248
11.895725204060282	3.4912958	1.868501
11.91334695639619	3.4693222	1.8626117
11.930968991481919	3.4207804	1.8495352
11.948591309747824	3.3796813	1.838391
11.966213911624347	3.3770282	1.8376693
11.98383679754198	3.401071	1.8441993
12.001459967931268	3.3694267	1.8355998
12.019083423222835	3.3543115	1.831478
12.036707163847352	3.2802181	1.8111372
12.05433119023556	3.2565377	1.804588
12.071955502818259	3.204485	1.7901075
12.089580102026313	3.214547	1.7929157
12.107204988290643	3.202097	1.7894404
12.12483016204224	3.1760967	1.7821606
12.142455623712152	3.1270514	1.768347
12.16008137373149	3.1122289	1.764151
12.177707412531431	3.1138425	1.7646083
12.19533374054321	3.1546805	1.776142
12.212960358198126	3.1654541	1.7791723
12.230587265927545	3.1470761	1.774
12.248214464162889	3.0905967	1.7580093
12.265841953335649	3.0254724	1.7393885
12.283469733877375	3.01409	1.7361135
12.301097806219685	3.0194612	1.7376597
12.31872617079425	3.026556	1.7397
12.336354828032825	3.0135994	1.7359722
12.353983778367205	2.9505026	1.7177027
12.371613022229262	2.9251213	1.7102987
12.389242560050928	2.898295	1.7024379
12.406872392264201	2.880223	1.697122
12.424502519301143	2.86963	1.6939982
12.442132941593874	2.848359	1.6877083
12.459763659574586	2.8375876	1.684514
12.477394673675532	2.805528	1.674971
12.49502598432903	2.7795618	1.6672018
12.51265759196746	2.8030403	1.6742283
12.530289497023267	2.7877133	1.6696447
12.547921699928967	2.7938898	1.6714933
12.565554201117134	2.8060105	1.6751151
12.583187001020404	2.8196158	1.6791712
12.600820100071486	2.8304987	1.6824086
12.618453498703152	2.808752	1.6759332
12.636087197348235	2.7965806	1.672298
12.65372119643964	2.7679648	1.6637201
12.671355496410326	2.7432015	1.6562613
12.68899009769333	2.7643661	1.6626383
12.706625000721749	2.8230247	1.6801859
12.724260205928752	2.9349036	1.713156
12.741895713747551	2.9665363	1.7223636
12.759531524611454	2.9851465	1.7277577
12.777167638953818	2.9442842	1.7158917
12.794804057208072	2.9558167	1.7192489
12.812440779807702	3.0063775	1.7338909
12.830077807186271	3.2009466	1.7891189
12.847715139777405	3.2542064	1.803942
12.865352778014795	3.4845552	1.8666964
12.882990722332197	3.62384	1.9036386
12.90062897316344	3.71024	1.9261982
12.918267530942412	3.8051784	1.9506867
12.935906396103071	3.646016	1.9094543
12.953545569079449	3.8019614	1.9498619
12.971185050305628	3.6350415	1.9065784
12.988824840215775	3.6393178	1.9076996
13.006464939244115	3.6600978	1.9131383
13.024105347824943	3.4870248	1.8673577
13.041746066392617	3.5970721	1.8965949
13.05938709538157	3.392599	1.841901
13.077028435226296	3.3914342	1.8415847
13.094670086361363	3.2847288	1.8123821
13.112312049221401	3.1762733	1.7822102
13.129954324241112	3.0776098	1.7543118
13.147596911855258	2.911721	1.7063766
13.165239812498685	2.9147632	1.7072678
13.182883026606293	2.8435688	1.6862885
13.200526554613058	2.800841	1.6735713
13.218170396954017	2.7611947	1.6616843
13.235814554064284	2.76332	1.6623237
13.253459026379034	2.7524505	1.6590511
13.271103814333523	2.7300391	1.652283
13.288748918363058	2.7361174	1.6541213
13.306394338903031	2.7421162	1.6559336
13.32404007638889	2.7160099	1.6480321
13.341686131256164	2.747301	1.6574985
13.359332503940449	2.729551	1.6521353
13.376979194877402	2.6978278	1.6425066
13.394626204502751	2.7032392	1.644153
13.412273533252307	2.7227454	1.6500744
13.429921181561937	2.7310355	1.6525844
13.447569149867581	2.7550395	1.6598312
13.465217438605247	2.7745636	1.6657021
13.482866048211022	2.7540042	1.6595193
13.500514979121052	2.77419	1.6655899
13.518164231771568	2.7276328	1.6515547
13.535813806598844	2.6838284	1.6382394
13.553463704039254	2.657182	1.6300865
13.571113924529229	2.6609273	1.6312349
13.588764468505275	2.709625	1.6460938
13.606415336403956	2.7269957	1.6513618
13.624066528661917	2.7265594	1.6512296
13.641718045715882	2.7899811	1.6703236
13.659369888002635	2.8453834	1.6868265
13.67702205595903	2.9178972	1.7081853
13.694674550021993	2.9641907	1.7216825
13.712327370628532	3.0251067	1.7392833
13.729980518215713	3.1335068	1.7701714
13.747633993220681	3.2148383	1.792997
13.765287796080647	3.2424376	1.800677
13.7829419272329	3.2899938	1.813834
13.800596387114801	3.3556695	1.8318486
13.818251176163775	3.4059467	1.8455207
13.835906294817324	3.406717	1.8457295
13.853561743513023	3.4243896	1.8505106
13.871217522688525	3.4693553	1.8626206
13.888873632781538	3.5082839	1.8730414
13.906530074229858	3.5615964	1.8872192
13.92418684747135	3.541135	1.8817904
13.941843952943948	3.5280342	1.8783062
13.959501391085665	3.5304124	1.8789392
13.977159162334578	3.4858313	1.8670381
13.994817267128846	3.4076352	1.8459781
14.012475705906693	3.2639136	1.8066305
14.030134479106424	3.1987987	1.7885185
14.047793587166414	3.1605463	1.7777926
14.065453030525108	3.1094215	1.7633551
14.083112809621026	3.0553524	1.7479566
14.100772924892766	2.970609	1.7235454
14.118433376778997	2.9154751	1.7074763
14.136094165718458	2.8062637	1.6751907
14.153755292149969	2.7241118	1.6504884
14.171416756512416	2.7042284	1.6444539
14.189078559244768	2.6887257	1.6397334
14.20674070078606	2.6393037	1.6245934
14.224403181575408	2.5850594	1.607812
14.242066002051999	2.559205	1.5997516
14.259729162655093	2.5437164	1.5949032
14.277392663824022	2.5053337	1.5828246
14.295056505998208	2.4984615	1.5806522
14.312720689617128	2.4858124	1.576646
14.330385215120348	2.4466023	1.5641619
14.348050082947497	2.411762	1.5529848
14.3657152935383	2.4479492	1.5645924
14.383380847332528	2.4460309	1.5639791
14.401046744770051	2.423204	1.5566643
14.418712986290798	2.3729868	1.5404502
14.436379572334793	2.3685415	1.5390067
14.454046503342123	2.3943365	1.5473644
14.471713779752946	2.4041152	1.5505209
14.489381402007504	2.3982859	1.54864
14.507049370546113	2.3985739	1.548733
14.524717685809168	2.4199274	1.5556116
14.542386348237134	2.4628348	1.5693421
14.560055358270553	2.4430437	1.5630239
14.577724716350051	2.462257	1.5691581
14.595394422916325	2.4561343	1.5672059
14.61306447841015	2.4858756	1.576666
14.63073488327237	2.5310209	1.5909183
14.648405637943917	2.5894022	1.609162
14.6660767428658	2.5630946	1.6009668
14.683748198479094	2.6020517	1.6130877
14.701420005224954	2.6143258	1.6168877
14.719092163544628	2.6620147	1.6315682
14.73676467387942	2.6993086	1.6429573
14.754437536670727	2.7424533	1.6560354
14.772110752360014	2.7390056	1.6549941
14.78978432138882	2.7115774	1.6466868
14.807458244198777	2.7054257	1.6448178
14.82513252123159	2.7027562	1.6440061
14.842807152929028	2.728458	1.6518044
14.860482139732962	2.682993	1.6379844
14.87815748208531	2.657341	1.6301353
14.8958331804281	2.6408708	1.6250756
14.91350923520342	2.6126819	1.6163793
14.931185646853438	2.6714048	1.6344433
14.948862415820408	2.6882555	1.63959
14.966539542546656	2.746706	1.657319
14.98421702747459	2.7160406	1.6480415
15.001894871046696	2.7201908	1.6493001
15.019573073705542	2.717807	1.6485773
15.037251635893766	2.70774	1.6455212
15.054930558054092	2.7183518	1.6487426
15.072609840629323	2.7383783	1.6548046
15.090289484062351	2.8335378	1.6833116
15.107969488796124	3.1034875	1.7616718
15.125649855273691	3.4762993	1.8644836
15.14333058393817	3.9597218	1.989905
15.161011675232768	4.949217	2.2246835
15.17869312960076	6.452784	2.5402331
15.196374947485506	8.492482	2.9141865
15.214057129330447	11.794531	3.4343166
15.231739675579114	16.67204	4.083141
15.249422586675102	21.87529	4.6771026
15.267105863062092	24.791111	4.9790673
15.284789505183847	24.888031	4.9887905
15.302473513484218	22.546574	4.7483234
15.320157888407127	18.938074	4.35179
15.337842630396578	14.649867	3.8275144
15.355527739896656	11.370518	3.3720198
15.37321321735153	8.829358	2.9714236
15.39089906320545	6.401441	2.530107
15.408585277902748	4.798911	2.1906416
15.42627186188783	3.681928	1.918835
15.443958815605198	3.1826167	1.783989
15.461646139499424	2.9253776	1.7103735
15.479333834015168	2.789135	1.6700704
15.497021899597165	2.7108397	1.6464628
15.514710336690234	2.6552522	1.6294944
15.53239914573928	2.6150208	1.6171026
15.550088327189297	2.5722675	1.603829
15.567777881485336	2.5425355	1.594533
15.58546780907256	2.5295086	1.5904429
15.6031581103962	2.5133882	1.5853668
15.620848785901568	2.50602	1.5830414
15.638539836034063	2.4839535	1.5760564
15.656231261239173	2.4636517	1.5696024
15.673923061962451	2.432051	1.5595034
15.691615238649552	2.408445	1.5519165
15.709307791746202	2.4154088	1.5541586
15.727000721698221	2.4164925	1.5545071
15.744694028951498	2.4287112	1.5584323
15.76238771395202	2.4044952	1.5506434
15.780081777145844	2.3875449	1.5451683
15.797776218979125	2.3704395	1.5396231
15.815471039898094	2.3545535	1.5344554
15.833166240349064	2.3488624	1.5325999
15.850861820778437	2.3728385	1.540402
15.868557781632699	2.3990226	1.5488778
15.886254123358412	2.4220176	1.5562832
15.903950846402232	2.422463	1.5564263
15.921647951210897	2.4207294	1.5558693
15.939345438231225	2.4387279	1.5616426
15.957043307910133	2.4248352	1.5571883
15.974741560694602	2.4415586	1.5625488
15.992440197031714	2.4364166	1.5609025
16.01013921736862	2.403116	1.5501987
16.02783862215259	2.3934665	1.5470833
16.045538411830933	2.3810513	1.5430655
16.06323858685107	2.4030082	1.550164
16.080939147660512	2.3935955	1.5471249
16.09864009470684	2.41084	1.552688
16.11634142843774	2.4161828	1.5544075
16.134043149300954	2.4076326	1.5516548
16.15174525774433	2.4126463	1.5532695
16.169447754215817	2.4619966	1.5690751
16.18715063916342	2.480756	1.5750417
16.204853913035244	2.4548178	1.5667858
16.222557576279478	2.4646928	1.569934
16.240261629344403	22.427391	4.735757
16.257966072678386	42.9861	6.5563784
16.275670906729868	38.104168	6.1728573
16.293376131947387	2.579275	1.6060121
16.31108174877957	2.574591	1.6045532
16.328787757675133	2.54422	1.5950611
16.34649415908287	2.5352232	1.5922384
16.364200953451657	2.5755427	1.6048497
16.38190814123048	2.6284516	1.62125
16.39961572286839	2.6483803	1.6273845
16.41732369881455	2.6880164	1.6395172
16.43503206951817	2.724833	1.6507068
16.45274083542859	2.7461143	1.6571404
16.47044999699522	2.7705646	1.6645013
16.488159554667558	2.7943163	1.6716208
16.505869508895184	2.8827093	1.6978543
16.523579860127786	2.9409666	1.7149247
16.541290608815117	3.0135124	1.7359471
16.559001755407035	3.0160873	1.7366886
16.57671330035348	3.0537424	1.747496
16.59442524410448	3.0988183	1.760346
16.61213758711015	3.1937132	1.7870963
16.629850329820705	3.2830837	1.8119282
16.647563472686436	3.3507738	1.8305119
16.665277016157724	3.3748174	1.8370676
16.682990960685053	3.4312174	1.8523545
16.70070530671898	3.5189838	1.8758955
16.718420054710155	3.5259068	1.8777398
16.736135205109335	3.5084155	1.8730764
16.753850758367335	3.5778391	1.8915176
16.771566714935087	3.6630228	1.9139025
16.789283075263597	3.7814882	1.9446049
16.80699983980398	3.8649275	1.9659419
16.82471700900741	3.935454	1.9837978
16.84243458332518	3.9398632	1.9849088
16.860152563208665	3.9604442	1.9900864
16.87787094910932	3.9632883	1.990801
16.89558974147871	4.019761	2.004934
16.913308940768466	4.133044	2.0329888
16.931028547430333	4.2394924	2.0590029
16.94874856191613	4.2698956	2.0663726
16.966468984677785	4.272233	2.0669382
16.98418981616729	4.2753563	2.0676935
17.00191105683676	4.2947607	2.0723805
17.019632707138374	4.3930035	2.0959494
17.03735476752442	4.4952426	2.1201987
17.05507723844728	4.571049	2.1380012
17.072800120359403	4.57227	2.1382866
17.090523413713353	4.624966	2.1505735
17.108247118961785	4.6156173	2.1483989
17.125971236557437	4.634014	2.152676
17.143695766953133	4.617358	2.148804
17.161420710601806	4.6398606	2.1540337
17.179146067956477	4.646314	2.1555312
17.19687183947025	4.6974006	2.1673486
17.21459802559634	4.703251	2.168698
17.232324626788028	4.686243	2.1647732
17.25005164349871	4.647455	2.1557958
17.267779076181863	4.6299195	2.1517248
17.285506925291074	4.642073	2.154547
17.30323519127999	4.701401	2.1682715
17.320963874602384	4.6770287	2.162644
17.33869297571211	4.5746574	2.138845
17.356422495063114	4.527113	2.1277013
17.37415243310944	4.511787	2.1240966
17.391882790305218	4.4898677	2.1189308
17.40961356710468	4.4502873	2.1095705
17.42734476396215	4.4420023	2.107606
17.445076381332044	4.451054	2.1097522
17.462808419668868	4.5609536	2.135639
17.48054087942723	4.734217	2.1758256
17.498273761061835	5.0903482	2.25618
17.51600706502747	5.5721235	2.3605347
17.533740791779024	6.348634	2.5196495
17.551474941771485	7.8934617	2.8095305
17.56920951545993	9.057442	3.0095584
17.586944513299528	11.35524	3.3697536
17.60467993574556	13.108239	3.6205301
17.622415783253373	14.805373	3.847775
17.64015205627843	16.20449	4.0254803
17.657888755276293	17.175127	4.1442885
17.675625880702604	17.564823	4.191041
17.69336343301311	17.34712	4.1649876
17.71110141266366	16.583405	4.072273
17.728839820110178	15.870399	3.983767
17.746578655808705	15.0346575	3.877455
17.764317920215372	13.484485	3.6721227
17.7820576137864	11.72289	3.4238706
17.79979773697811	9.431566	3.0710855
17.81753829024692	7.426184	2.7251027
17.835279274049356	5.711871	2.3899522
17.85302068884201	4.6788325	2.163061
17.870762535081607	4.097783	2.0242982
17.888504813224934	3.823468	1.955369
17.90624752372891	3.6322541	1.9058473
17.923990667050536	3.5787802	1.8917664
17.941734243646895	3.5535471	1.8850855
17.959478253975185	3.4935405	1.8691015
17.9772226984927	3.4583716	1.8596698
17.994967577656833	3.4384458	1.8543047
18.01271289192506	3.4450285	1.8560789
18.030458641754965	3.4004323	1.8440261
18.04820482760425	3.3563297	1.8320289
18.06595144993067	3.3789315	1.838187
18.083698509192125	3.3330731	1.8256706
18.101446005846576	3.2962246	1.8155508
18.119193940352105	3.2533944	1.8037168
18.136942313166887	3.2323294	1.797868
18.1546911247492	3.2297552	1.7971519
18.1724403755574	3.203302	1.789777
18.19019006604997	3.1950822	1.7874793
18.207940196685467	3.1515915	1.7752723
18.225690767922575	3.1369941	1.7711562
18.243441780220046	3.0981905	1.7601677
18.261193234036764	3.0895584	1.7577139
18.278945129831676	3.0719774	1.7527057
18.29669746806386	3.040032	1.7435688
18.314450249192483	3.0431676	1.7444677
18.3322034736768	3.0612261	1.749636
18.349957141976184	3.0788307	1.7546598
18.3677112545501	3.0757966	1.7537949
18.385465811858108	3.0989463	1.7603824
18.403220814359884	3.1096144	1.7634099
18.420976262515172	3.126071	1.7680699
18.43873215678387	3.1416457	1.7724688
18.456488497625923	3.1570046	1.7767961
18.474245285501407	3.2411761	1.8003267
18.492002520870486	3.3184876	1.8216716
18.50976020419343	3.4606376	1.8602788
18.527518335930615	3.756722	1.9382265
18.545276916542516	4.326297	2.0799751
18.563035946489688	4.424739	2.1035063
18.580795426232832	4.813576	2.1939864
18.598555356232698	4.689987	2.1656377
18.616315736950185	5.0138946	2.2391727
18.63407656884626	4.679656	2.1632512
18.65183785238201	4.8541365	2.2032106
18.669599588018617	4.5985484	2.1444225
18.68736177621737	4.6269403	2.1510324
18.705124417439652	4.6068635	2.1463606
18.72288751214696	4.445751	2.108495
18.740651060800886	4.58623	2.1415484
18.758415063863115	4.3664875	2.0896142
18.77617952179546	4.5423884	2.131288
18.793944435059814	4.309427	2.0759158
18.811709804118184	4.334988	2.0820634
18.829475629432675	4.3290896	2.0806465
18.8472419114655	4.0892816	2.0221972
18.86500865067897	4.092541	2.023003
18.88277584753551	3.7560308	1.9380482
18.90054350249763	3.7810082	1.9444815
18.918311616027957	3.449553	1.8572972
18.936080188589226	3.3340049	1.8259257
18.953849220644265	3.0575764	1.7485927
18.971618712656007	2.897163	1.7021054
18.9893886650875	2.8520005	1.6887867
19.007159078401887	8.019622	2.8318937
19.024929953062408	32.89489	5.735407
19.042701289532435	32.82054	5.7289214
19.060473088275405	25.359943	5.035866
19.07824534975489	2.649692	1.6277875
19.096018074434568	2.6551092	1.6294506
19.113791262778197	2.6527665	1.6287316
19.13156491524966	2.578803	1.6058652
19.149339032312945	2.5539823	1.5981183
19.167113614432136	2.5768216	1.6052481
19.184888662071433	2.6112792	1.6159453
19.202664175695123	2.6034195	1.6135116
19.220440155767623	2.58257	1.6070377
19.238216602753447	2.5675082	1.6023446
19.2559935171172	2.5737407	1.6042882
19.27377089932361	2.5956218	1.6110934
19.291548749837514	2.5670743	1.6022092
19.309327069123835	2.4931579	1.5789737
19.32710585764763	2.4949288	1.5795344
19.344885115874032	2.4936852	1.5791407
19.362664844268313	2.5171916	1.586566
19.380445043295822	2.5123284	1.5850326
19.39822571342203	2.5272815	1.5897425
19.41600685511252	2.5400455	1.593752
19.43378846883297	2.5261834	1.5893972
19.451570555049173	2.51485	1.5858278
19.469353114227037	2.4738054	1.5728335
19.48713614683254	2.4361615	1.5608208
19.50491965333182	2.3995583	1.5490508
19.52270363419109	2.4334388	1.5599483
19.540488089876686	2.463849	1.5696653
19.55827302085503	2.5097754	1.5842271
19.576058427592674	2.5060124	1.583039
19.593844310556282	2.4925563	1.5787832
19.611630670212598	2.4733589	1.5726916
19.629417507028506	2.4778283	1.5741119
19.64720482147098	2.5087283	1.5838965
19.6649926140071	2.5513873	1.5973063
19.682780885104084	2.530699	1.5908171
19.70056963522921	2.534982	1.5921627
19.718358864849908	2.548186	1.5963038
19.7361485744337	2.572518	1.6039071
19.753938764448215	2.547926	1.5962224
19.771729435361202	2.5224307	1.5882162
19.789520587640506	2.517218	1.5865743
19.807312221754092	2.5236654	1.5886049
19.825104338170043	2.5508776	1.5971467
19.842896937356517	2.55352	1.5979737
19.860690019781824	2.5701075	1.6031555
19.87848358591436	2.5826972	1.6070772
19.896277636222635	2.561884	1.6005886
19.914072171175278	2.5325956	1.5914131
19.931867191241015	2.5538123	1.5980651
19.94966269688869	2.543242	1.5947546
19.967458688587264	2.5386262	1.5933067
19.985255166805807	2.516647	1.5863944
20.00305213201348	2.4948902	1.5795221
20.020849584679578	2.4501157	1.5652845
20.038647525273507	2.4795566	1.5746608
20.05644595426477	2.514794	1.5858102
20.07424487212299	2.5033934	1.5822116
20.092044279317903	2.4702559	1.5717047
20.109844176319353	2.4177282	1.5549046
20.127644563597304	2.4178264	1.5549362
20.145445441621817	2.4298213	1.5587884
20.16324681086307	2.4460387	1.5639817
20.181048671791373	2.4166868	1.5545696
20.198851024877122	2.3830228	1.5437043
20.216653870590836	2.3585835	1.535768
20.234457209403146	2.3454502	1.5314863
20.252261041784802	2.3397572	1.5296265
20.270065368206662	2.3376281	1.5289304
20.287870189139685	2.3715005	1.5399677
20.305675505054968	2.383615	1.5438961
20.323481316423702	2.3460872	1.5316942
20.341287623717207	2.3670328	1.5385164
20.359094427406884	2.4197035	1.5555396
20.376901727964288	2.4313974	1.5592939
20.39470952586107	2.347092	1.5320221
20.41251782156899	2.2893093	1.5130464
20.430326615559935	2.2863016	1.5120522
20.448135908305886	2.299796	1.5165079
20.465945700278965	2.3079135	1.5191818
20.483755991951384	2.3134346	1.5209979
20.50156678379548	2.32214	1.523857
20.519378076283708	2.3210325	1.5234935
20.537189869888635	2.3255465	1.5249742
20.55500216508294	2.345953	1.5316504
20.572814962339415	2.3882875	1.5454085
20.59062826213098	2.3691826	1.539215
20.60844206493066	2.3592052	1.5359704
20.626256371211593	2.3455284	1.5315118
20.644071181447032	2.324952	1.5247793
20.66188649611036	2.283106	1.510995
20.67970231567506	2.28624	1.5120318
20.697518640614742	2.2882583	1.512699
20.715335471403122	2.3113744	1.5203205
20.73315280851404	2.3200798	1.5231808
20.750970652421447	2.3148873	1.5214753
20.768789003599412	2.2882793	1.5127059
20.786607862522136	2.2747388	1.5082238
20.8044272296639	2.3035922	1.517759
20.82224710549913	2.3307495	1.5266793
20.84006749050237	2.303002	1.5175645
20.857888385148268	3.8639686	1.965698
20.8757097899116	45.957226	6.7791758
20.893531705267254	64.823494	8.051304
20.911354131690224	83.823944	9.155541
20.92917706965566	69.045006	8.309333
20.94700051963877	50.09809	7.0780005
20.96482448211493	29.353056	5.417846
20.982648957559622	4.1095667	2.0272067
21.00047394644843	2.2306623	1.4935402
21.01829944925707	2.2532887	1.5010959
21.036125466461375	2.284771	1.5115459
21.053951998537297	2.2913826	1.5137314
21.071779045960906	2.2313464	1.4937692
21.089606609208378	2.1882143	1.4792614
21.10743468875603	2.1768863	1.4754275
21.12526328508028	2.2073412	1.4857124
21.143092398657675	2.204949	1.484907
21.16092202996488	2.2012818	1.4836717
21.17875217947867	2.188781	1.479453
21.19658284767596	2.2183628	1.489417
21.21441403503377	2.2448943	1.4982971
21.232245742029225	2.2739208	1.5079525
21.2500779691396	2.2381816	1.4960554
21.26791071684227	2.212456	1.4874327
21.28574398561475	2.2017694	1.483836
21.30357777593465	2.178045	1.4758201
21.321412088279704	2.1724558	1.4739254
21.339246923127792	2.1719568	1.473756
21.357082280956888	2.159884	1.4696543
21.3749181622451	2.151017	1.4666345
21.392754567470647	2.1664429	1.4718841
21.41059149711187	2.1888175	1.4794652
21.42842895164726	2.1950326	1.4815643
21.446266931555378	2.1448607	1.4645343
21.464105437314945	2.1203108	1.4561287
21.481944469404798	2.1141546	1.4540132
21.49978402830388	2.1396906	1.4627682
21.51762411449127	2.1511743	1.4666882
21.53546472844617	2.145501	1.4647528
21.553305870647876	2.1019258	1.449802
21.571147541575865	2.0875442	1.4448336
21.58898974170967	2.0452456	1.4301208
21.60683247152899	2.0548327	1.4334688
21.62467573151363	2.0813482	1.4426879
21.642519522143523	2.087345	1.4447646
21.660363843898722	2.0413697	1.428765
21.6782086972594	2.0208156	1.421554
21.696054082705864	2.0185907	1.4207711
21.713900000718535	2.0534868	1.4329993
21.73174645177795	2.0617697	1.4358864
21.749593436364794	2.034724	1.4264375
21.767440954959845	2.0088344	1.4173335
21.785289008044032	2.035193	1.4266019
21.803137596098388	2.0523481	1.4326019
21.820986719604086	2.0448542	1.429984
21.838836379042412	2.0140703	1.4191794
21.85668657489478	2.0099368	1.4177223
21.87453730764273	2.044586	1.4298902
21.892388577767914	2.0613754	1.435749
21.91024038575213	2.050622	1.4319993
21.928092732077285	2.0389056	1.4279026
21.945945617225426	2.0211377	1.4216672
21.963799041678694	2.008299	1.4171447
21.981653005919398	31.289736	5.593723
21.999507510429943	78.09094	8.836908
22.01736255569286	73.04387	8.546571
22.035218142190818	4.1551094	2.0384085
22.05307427040661	1.9917082	1.411279
22.07093094082315	1.9941705	1.412151
22.088788153923474	2.0287373	1.4243375
22.106645910190746	2.0423555	1.42911
22.12450421010827	2.0505571	1.4319767
22.142363054159464	2.0186746	1.4208007
22.16022244282787	2.005561	1.4161783
22.178082376597164	1.9811922	1.4075483
22.195942855951145	1.9612609	1.4004502
22.213803881373742	1.9578571	1.3992345
22.231665453349002	1.9538797	1.3978125
22.24952757236111	1.9631737	1.4011331
22.26739023889438	1.9745275	1.4051788
22.28525345343323	1.9541675	1.3979154
22.30311721646225	1.9517094	1.397036
22.320981528466113	1.9614362	1.4005128
22.33884638992964	1.9977607	1.4134216
22.356711801337788	1.9988182	1.4137957
22.37457776317561	1.9637194	1.4013277
22.392444275928337	1.9301158	1.389286
22.410311340081282	1.949154	1.396121
22.428178956119904	1.9530711	1.3975232
22.446047124529805	1.9712647	1.4040173
22.46391584579669	1.9683483	1.4029783
22.481785120406414	1.9775198	1.4062431
22.49965494884496	1.9777081	1.4063101
22.51752533159841	1.9766983	1.405951
22.53539626915302	1.981123	1.4075238
22.553267761995137	1.9979793	1.413499
22.571139810611264	1.9345092	1.3908663
22.589012415488025	1.9243623	1.3872138
22.60688557711216	1.9273564	1.3882926
22.624759295970566	1.9371742	1.391824
22.642633572550263	1.9026992	1.3793837
22.660508407338362	1.8935213	1.3760529
22.67838380082217	1.9428607	1.3938653
22.696259753489077	1.9628688	1.4010242
22.714136265826614	1.9658998	1.4021055
22.73201333832246	1.9671704	1.4025584
22.74989097146439	1.9527268	1.3974
22.76776916574035	1.920953	1.3859845
22.785647921638393	1.8852731	1.3730525
22.803527239646712	1.8848555	1.3729004
22.82140712025363	1.9139664	1.3834617
22.839287563947593	1.9332721	1.3904215
22.85716857121719	1.9359144	1.3913714
22.875050142551135	1.9397506	1.3927493
22.892932278438277	1.9323955	1.3901063
22.910814979367604	1.9305301	1.3894352
22.928698245828222	1.9461459	1.3950434
22.946582078309387	1.9220268	1.3863719
22.96446647730047	1.8857396	1.3732224
22.98235144329098	1.8840489	1.3726066
23.000236976770562	1.924068	1.3871077
23.018123078229	1.9217994	1.3862898
23.03600974815619	1.9077368	1.3812084
23.053896987042194	1.8813852	1.3716359
23.071784795377173	1.8795252	1.3709577
23.08967317365145	1.9259608	1.3877898
23.10756212235546	1.9717219	1.4041802
23.125451641979787	1.9627552	1.4009837
23.143341733015134	1.9326373	1.3901932
23.161232395952357	1.9465308	1.3951813
23.179123631282426	1.9681604	1.4029114
23.197015439496468	1.9321172	1.3900062
23.214907821085717	1.9204812	1.3858143
23.23280077654157	1.9437623	1.3941888
23.250694306355538	1.9708843	1.4038819
23.268588411019277	1.9291943	1.3889544
23.28648309102458	1.9045765	1.380064
23.304378346863356	1.8890356	1.374422
23.322274179027676	1.9310932	1.3896378
23.340170588009723	1.9290928	1.3889178
23.358067574301852	1.955779	1.3984916
23.37596513839651	1.9588673	1.3995954
23.39386328078629	1.9458555	1.3949393
23.411762001963947	1.9294802	1.3890573
23.429661302422353	1.9319797	1.3899567
23.4475611826545	1.9421929	1.3936259
23.46546164315356	1.9673389	1.4026186
23.48336268441279	1.9528525	1.397445
23.501264306925638	1.9308103	1.389536
23.51916651118564	1.9100044	1.382029
23.537069297686497	1.9197608	1.3855543
23.554972666922037	1.9343437	1.3908068
23.57287661938623	1.9652566	1.4018761
23.59078115557318	1.9791851	1.4068351
23.608686275977128	1.9329427	1.3903031
23.62659198109246	1.8978059	1.3776088
23.6444982714137	1.9250753	1.3874708
23.66240514743549	1.9652946	1.4018897
23.68031260965263	1.9640405	1.4014423
23.698220658560068	1.9357361	1.3913074
23.716129294652845	1.8965518	1.3771535
23.7340385184262	1.8910438	1.3751522
23.75194833037546	1.8948087	1.3765205
23.769858730996123	1.8958501	1.3768988
23.78776972078382	1.9041942	1.3799255
23.80568130023431	1.9182081	1.3849939
23.823593469843495	1.9273876	1.3883039
23.841506230107424	1.9246988	1.3873352
23.859419581522275	1.9176134	1.3847792
23.87733352458438	1.885001	1.3729534
23.89524805979019	1.8755409	1.3695039
23.913163187636318	1.8629385	1.3648951
23.931078908619508	1.908208	1.381379
23.948995223236633	1.9829217	1.4081625
23.966912131984735	2.0333395	1.4259522
23.98482963536096	2.0684347	1.4382054
24.002747733862616	2.0781221	1.4415693
24.020666427987155	2.0740929	1.4401711
24.038585718232156	2.1155617	1.4544971
24.056505605095353	2.131006	1.4597965
24.074426089074617	2.1402411	1.4629563
24.092347170667946	2.107265	1.4516422
24.110268850373515	2.0721607	1.4395002
24.128191128689586	2.0582561	1.4346623
24.146114006114626	2.0781772	1.4415884
24.164037483147187	2.070829	1.4390374
24.181961560286005	2.03609	1.4269162
24.199886238029926	1.9891405	1.4103689
24.21781151687797	1.9600049	1.4000018
24.235737397329274	1.9734026	1.4047785
24.253663879883135	1.9993713	1.4139912
24.271590965038975	2.0491292	1.431478
24.289518653296376	2.0404441	1.4284412
24.30744694515505	2.0041525	1.4156809
24.32537584111486	2.028403	1.4242202
24.34330534167581	2.045107	1.4300723
24.361235447338046	2.0756547	1.4407133
24.379166158601876	2.0510218	1.4321389
24.39709747596772	2.0423405	1.4291048
24.41502939993615	2.0199895	1.4212633
24.432961931007917	1.9913656	1.4111575
24.450895069683856	1.9565938	1.398783
24.468828816465	1.9729753	1.4046264
24.4867631718525	2.0225394	1.4221601
24.504698136347656	2.036177	1.4269468
24.52263371045192	2.0087266	1.4172956
24.540569894666874	1.9701744	1.4036291
24.558506689494266	1.9371605	1.3918191
24.57644409543597	1.952806	1.3974284
24.594382112994012	1.9710788	1.4039512
24.61232074267057	2.0111759	1.4181594
24.630259984967953	1.9967363	1.4130592
24.64819984038863	1.9857545	1.409168
24.66614030943522	1.9881101	1.4100035
24.684081392610462	1.9779482	1.4063954
24.702023090417274	1.9674395	1.4026544
24.7199654033587	1.9862906	1.4093583
24.737908331937927	2.0273743	1.4238589
24.755851876658305	2.0733333	1.4399074
24.773796038023324	2.0565438	1.4340655
24.79174081653661	2.1037698	1.4504378
24.809686212701962	2.1251123	1.4577765
24.827632227023294	2.0963855	1.44789
24.8455788600047	2.0678215	1.4379922
24.8635261121504	2.074328	1.4402528
24.88147398396475	2.1298034	1.4593846
24.899422475952303	2.1465778	1.4651204
24.917371588617698	2.1183727	1.455463
24.935321322465768	2.1661806	1.4717951
24.953271678001478	2.3043518	1.5180092
24.97122265572994	2.5536509	1.5980147
24.989174256156414	2.967301	1.7225856
25.00712647978632	3.4559915	1.8590298
25.02507932712521	3.988602	1.9971484
25.043032798678798	4.4833255	2.1173866
25.060986894952933	5.142105	2.267621
25.078941616453637	5.9369826	2.4365923
25.096896963687055	6.9540195	2.6370475
25.114852937159508	8.030439	2.833803
25.132809537377444	8.366671	2.8925197
25.150766764847468	8.30098	2.8811421
25.168724620076347	7.699837	2.774858
25.186683103570985	6.641214	2.5770552
25.204642215838426	5.423688	2.3288813
25.222601957385894	4.055985	2.0139477
25.24056232872074	3.1078923	1.7629216
25.25852333035048	2.5591834	1.5997448
25.276484962782778	2.2003038	1.483342
25.294447226525435	2.0586543	1.4348011
25.312410122086423	2.0781693	1.4415857
25.330373649973843	2.0667253	1.437611
25.348337810695988	2.0250878	1.4230558
25.366302604761245	1.9776318	1.406283
25.384268032678207	1.9618077	1.4006455
25.40223409495558	1.9275789	1.3883728
25.420200792102257	1.915192	1.3839046
25.438168124627246	1.9324665	1.3901318
25.45613609303974	1.9504771	1.3965949
25.474104697849057	1.974226	1.4050715
25.492073939564698	1.947107	1.3953878
25.510043818696285	1.9015428	1.3789644
25.528014335753614	1.8719599	1.3681959
25.54598549124664	1.8211164	1.3494874
25.56395728568544	1.8382275	1.3558125
25.58192971958028	1.8821999	1.3719329
25.59990279344156	1.9186589	1.3851566
25.617876507779833	1.9447168	1.394531
25.635850863105826	1.9368471	1.3917066
25.653825859930386	1.9407299	1.3931009
25.671801498764548	1.9205546	1.3858408
25.68977778011949	1.8905914	1.3749877
25.707754704506524	1.8567286	1.3626183
25.725732272437153	1.8452429	1.3583971
25.743710484423012	1.8872879	1.373786
25.761689340975888	1.8813639	1.3716282
25.77966884260774	1.9225376	1.386556
25.797648989830662	1.8470501	1.3590622
25.815629783156922	1.8376685	1.3556063
25.83361122309895	1.8482239	1.359494
25.85159331016929	1.8558166	1.3622836
25.869576044880695	1.8572338	1.3628037
25.887559427746034	1.8524289	1.3610396
25.90554345927836	1.9000435	1.3784206
25.92352813999086	1.8882203	1.3741252
25.94151347039689	1.8445016	1.3581243
25.959499451009965	1.8251063	1.3509649
25.97748608234374	1.843299	1.3576815
25.995473364912062	1.8744506	1.3691057
26.013461299228904	1.9104966	1.3822072
26.03144988580839	1.934057	1.3907038
26.04943912516483	1.9092661	1.3817619
26.067429017812675	1.8592916	1.3635584
26.085419564266537	1.8580683	1.3631098
26.103410765041186	1.8347842	1.354542
26.12140262065155	1.8452873	1.3584136
26.139395131612723	1.8192364	1.3487908
26.157388298439948	1.8189765	1.3486943
26.17538212164861	1.7817708	1.3348299
26.193376601754295	1.8043545	1.3432627
26.211371739272714	1.835442	1.3547848
26.229367534719746	1.8036473	1.3429993
26.247363988611433	1.7988725	1.3412205
26.26536110146397	1.8327632	1.3537959
26.283358873793727	1.8162521	1.347684
26.301357306117204	1.7731389	1.3315926
26.319356398951104	1.787728	1.3370595
26.33735615281224	1.8448805	1.3582637
26.35535656821762	1.9130876	1.3831441
26.373357645684404	1.9480897	1.3957398
26.39135938572991	1.9226861	1.3866096
26.409361788871614	1.9116405	1.3826209
26.427364855627165	1.9218771	1.3863178
26.445368586514352	1.8826538	1.3720983
26.46337298205115	1.822047	1.3498322
26.48137804275568	1.802197	1.3424593
26.499383769146217	1.8280461	1.3520526
26.517390161741215	1.8525972	1.3611015
26.53539722105928	1.8408821	1.3567911
26.553404947619182	1.8292061	1.3524815
26.571413341939856	1.8035173	1.3429509
26.589422404540397	1.7803807	1.3343091
26.60743213594006	1.804652	1.3433733
26.62544253665827	1.8367068	1.3552516
26.64345360721459	1.8526475	1.36112
26.66146534812879	1.8483288	1.3595326
26.679477759920758	1.8227569	1.3500952
26.69749084311057	1.8019755	1.3423768
26.71550459821847	1.8310556	1.353165
26.733519025764842	1.8124317	1.3462658
26.751534126270258	1.7789582	1.3337759
26.769549900255434	1.779797	1.3340904
26.787566348241267	1.8167878	1.3478827
26.80558347074881	1.812383	1.3462478
26.823601268299267	1.7945476	1.3396072
26.841619741414036	1.7883973	1.3373097
26.85963889061465	1.8033894	1.3429034
26.877658716422832	1.790651	1.338152
26.89567921936045	1.7848775	1.335993
26.913700399949544	1.8347183	1.3545177
26.93172225871233	1.8326522	1.3537549
26.949744796171174	1.8300952	1.3528101
26.967768012848605	1.8015022	1.3422005
26.98579190926733	1.8262061	1.3513719
27.003816485950225	1.8199289	1.3490474
27.021841743420318	1.8172257	1.3480451
27.039867682200814	1.810076	1.3453907
27.057894302815072	1.8020895	1.3424193
27.07592160578664	1.8014094	1.342166
27.0939495916392	1.7906079	1.338136
27.111978260896635	1.808978	1.3449825
27.13000761408296	1.799449	1.3414354
27.148037651722397	1.8381268	1.3557754
27.166068374339304	1.8258177	1.3512282
27.184099782458215	1.8013647	1.3421493
27.20213187660384	1.8221538	1.3498718
27.22016465730105	1.8631575	1.3649753
27.23819812507487	1.8676351	1.3666145
27.256232280450533	1.8362758	1.3550925
27.274267123953383	1.823165	1.3502463
27.292302656108987	1.8057873	1.3437959
27.31033887744306	1.7783008	1.3335295
27.32837578848146	1.7963393	1.3402758
27.34641338975026	1.7850549	1.3360595
27.364451681775673	1.772139	1.331217
27.382490665084074	1.7847499	1.3359452
27.400530340202046	1.764068	1.3281822
27.41857070765629	1.814453	1.3470163
27.436611767973726	1.8251697	1.3509884
27.454653521681404	1.7836776	1.3355439
27.472695969306564	1.7410991	1.3195071
27.490739111376627	1.7497685	1.3227881
27.508782948419153	1.797804	1.3408221
27.526827480961902	1.8495317	1.3599749
27.54487270953279	1.8337175	1.3541483
27.562918634659898	1.8152312	1.3473052
27.580965256871508	1.7945248	1.3395988
27.599012576696026	1.8281822	1.3521029
27.617060594662068	1.7928876	1.3389875
27.63510931129842	1.7640599	1.3281791
27.65315872713401	1.7587719	1.326187
27.67120884269797	1.7735748	1.3317564
27.68925965851958	1.747626	1.3219781
27.707311175128307	1.7675345	1.3294866
27.725363393053787	1.8136749	1.3467275
27.74341631282583	1.8355272	1.3548163
27.7614699349744	1.8605937	1.3640358
27.77952426002968	2.0543122	1.4332873
27.797579288521973	2.1122518	1.4533588
27.815635020981784	2.4712062	1.5720071
27.83369145793979	2.5648186	1.6015052
27.85174859992682	2.4599946	1.568437
27.869806447473923	2.2796173	1.5098401
27.887865001112267	1.962689	1.4009601
27.905924261373233	1.848842	1.3597213
27.92398422878836	1.8790576	1.3707873
27.94204490388936	1.904758	1.3801297
27.96010628720813	1.8779393	1.3703793
27.978168379276728	1.8388127	1.3560283
27.9962311806274	1.8674443	1.3665446
28.014294691792568	1.8943267	1.3763454
28.0323589133048	1.9034301	1.3796486
28.050423845696887	1.8604561	1.3639854
28.068489489501758	1.8651739	1.3657137
28.086555845252523	1.8966181	1.3771776
28.104622913482487	1.9271791	1.3882288
28.122690694725115	1.9094933	1.3818442
28.14075918951405	1.8798714	1.371084
28.15882839838312	1.9125837	1.382962
28.176898321866304	1.9183776	1.3850551
28.1949689604978	1.8856144	1.3731767
28.213040314811945	1.8830519	1.3722434
28.23111238534327	1.9033538	1.3796209
28.249185172626493	1.9160341	1.3842088
28.267258677196473	1.940805	1.3931278
28.285332899588294	1.9081223	1.381348
28.303407840337172	1.8966625	1.3771937
28.321483499978545	1.8619769	1.3645427
28.33955987904799	1.8994896	1.3782197
28.357636978081285	1.9689299	1.4031856
28.37571479761439	1.9963626	1.4129269
28.393793338183425	2.0038943	1.4155897
28.41187260032469	1.978308	1.4065233
28.429952584574686	1.9782933	1.4065181
28.448033291470065	2.003249	1.4153618
28.46611472154769	2.013332	1.4189193
28.484196875344566	2.0113301	1.4182137
28.502279753397914	1.976134	1.4057503
28.52036335624511	1.9865627	1.4094548
28.538447684423716	2.0139742	1.4191456
28.556532738471482	1.9915929	1.4112381
28.574618518926325	2.0010989	1.414602
28.59270502632635	1.9719652	1.4042668
28.61079226120985	1.9707804	1.4038448
28.628880224115274	1.9978869	1.4134662
28.646968915581287	1.9890069	1.4103216
28.66505833614671	2.0137367	1.4190619
28.68314848635055	2.093447	1.4468749
28.701239366732004	2.0804572	1.442379
28.71933097783044	2.0487294	1.4313383
28.737423320185403	2.0449264	1.4300092
28.75551639433665	2.105343	1.4509801
28.773610200824074	2.1024525	1.4499836
28.791704740187793	2.0906367	1.4459034
28.80980001296809	2.0841053	1.4436431
28.827896019705413	2.1193275	1.455791
28.845992760940433	2.1569302	1.4686491
28.86409023721397	2.2160127	1.4886278
28.88218844906704	2.20777	1.4858567
28.900287397040845	2.2198827	1.489927
28.918387081676755	2.2518346	1.5006114
28.936487503516343	2.3286176	1.5259808
28.954588663101365	2.3617392	1.5367951
28.97269056097374	2.3347533	1.52799
28.990793197675597	2.3236628	1.5243565
29.00889657374923	2.3135915	1.5210495
29.027000689737125	2.3652384	1.5379331
29.04510554618196	2.3921146	1.5466462
29.06321114362659	2.421462	1.5561048
29.08131748261405	2.4271758	1.5579395
29.099424563687567	2.426139	1.5576068
29.11753238739057	2.4866188	1.5769017
29.13564095426663	2.5346105	1.592046
29.15375026485954	2.5477188	1.5961576
29.171860319713275	2.5555077	1.5985955
29.18997111937199	2.6679842	1.6333965
29.20808266438002	2.772811	1.6651759
29.226194955281898	2.7965822	1.6722984
29.244307992622335	2.818562	1.6788573
29.26242177694624	2.8642485	1.692409
29.2805363087987	2.91603	1.7076387
29.29865158872498	2.938916	1.7143267
29.316767617270557	3.0206466	1.7380008
29.334884394981064	3.0672123	1.7513459
29.353001922402367	3.1001787	1.7607324
29.37112020008047	3.1680317	1.7798965
29.389239228561596	3.2876153	1.8131782
29.407359008392152	3.4752016	1.8641893
29.42547954011872	3.8115249	1.9523127
29.44360082428809	4.4677067	2.1136951
29.46172286144722	5.6096153	2.3684626
29.479845652143283	7.365443	2.713935
29.497969196923606	9.650675	3.1065536
29.516093496335728	12.282899	3.5046966
29.5342185509274	15.099331	3.8857858
29.55234436124651	17.335176	4.163553
29.570470927841175	18.475237	4.298283
29.588598251259686	17.959108	4.2378187
29.60672633205055	16.489958	4.060783
29.624855170762405	14.2641535	3.7767913
29.642984767944146	11.473339	3.3872318
29.66111512414481	8.656725	2.9422312
29.67924623991366	6.325069	2.5149689
29.697378115800138	4.867595	2.2062628
29.71551075235387	4.107519	2.0267015
29.733644150124675	3.7573023	1.9383762
29.751778309662576	3.5731337	1.8902735
29.769913231517766	3.4347324	1.8533031
29.78804891624066	3.360944	1.8332877
29.806185364381818	3.3332527	1.8257197
29.82432257649206	3.329592	1.8247169
29.842460553122333	3.2635229	1.8065224
29.86059929482382	3.2700706	1.8083336
29.878738802147872	3.3277874	1.8242224
29.896879075646048	3.2801044	1.8111058
29.915020115870114	3.2181246	1.7939132
29.933161923371976	3.231646	1.797678
29.951304498703777	3.2818973	1.8116008
29.969447842417857	3.3265672	1.823888
29.987591955066733	3.2794929	1.810937
30.005736837203123	3.2372532	1.7992369
30.023882489379943	3.2461433	1.8017057
30.04202891215028	3.2054567	1.7903789
30.060176106067455	3.1835685	1.7842557
30.078324071684946	3.1640253	1.7787707
30.09647280955646	3.1854992	1.7847967
30.114622320235863	3.1076708	1.7628587
30.132772604277257	3.0305805	1.7408563
30.1509236622349	3.058774	1.7489351
30.16907549466328	3.1147976	1.7648789
30.18722810211705	3.1143155	1.7647424
30.205381485151097	3.1402974	1.7720884
30.22353564432045	3.076544	1.7540079
30.241690580180403	3.0455868	1.7451609
30.25984629328638	3.0708299	1.7523783
30.278002784194037	3.0696516	1.7520422
30.296160053459246	3.0642867	1.7505105
30.314318101638033	3.0215242	1.7382532
30.332476929286646	2.9561136	1.7193352
30.35063653696153	2.9091518	1.7056236
30.368796925219307	2.9277587	1.7110695
30.386958094616844	2.8971484	1.7021011
30.40512004571115	2.8112931	1.6766912
30.423282779059463	2.8288333	1.6819136
30.441446295219233	2.8442323	1.6864852
30.459610594748067	2.8635871	1.6922137
30.47777567820382	2.851805	1.6887288
30.495941546144504	2.8813684	1.6974593
30.51410819912835	2.9063132	1.7047912
30.532275637713795	2.8627279	1.6919597
30.55044386245946	2.8468428	1.687259
30.56861287392416	2.8255363	1.6809331
30.586782672666956	2.814483	1.6776421
30.604953259247047	2.8407133	1.6854416
30.623124634223885	2.8658788	1.6928906
30.641296798157075	2.8072414	1.6754824
30.659469751606462	2.8081605	1.6757567
30.677643495132074	2.7893941	1.6701479
30.695818029294152	2.7956493	1.6720195
30.713993354653116	2.7776148	1.6666178
30.73216947176962	2.757179	1.6604755
30.75034638120448	2.725529	1.6509176
30.768524083518756	2.7323794	1.652991
30.786702579273673	2.759242	1.6610967
30.80488186903069	2.8983912	1.7024662
30.82306195335144	3.0177567	1.7371691
30.841242832797782	3.173665	1.7814783
30.85942450793176	3.4636612	1.8610914
30.877606979315637	3.8274567	1.9563887
30.895790247511883	4.1993036	2.0492203
30.913974313083134	4.673148	2.1617465
30.932159176592283	4.9864883	2.2330446
30.95034483860237	4.938195	2.222205
30.968531299676698	4.6517215	2.156785
30.98671856037873	4.3501554	2.0857027
31.00490662127215	3.9116557	1.9777906
31.023095482920848	3.4343414	1.8531976
31.04128514588892	3.0041015	1.7332344
31.059475610740662	2.7069054	1.6452676
31.07766687804056	2.5704455	1.6032609
31.09585894835335	2.5485427	1.5964156
31.11405182224393	2.583126	1.6072106
31.132245500277417	2.5500488	1.5968872
31.15043998301914	2.5103428	1.5844061
31.168635271034628	2.4924748	1.5787574
31.18683136488964	2.430585	1.5590333
31.20502826515008	2.3887742	1.545566
31.223225972382135	2.3884869	1.545473
31.241424487152155	2.410451	1.5525627
31.259623810026692	2.46568	1.5702484
31.27782394157253	2.4546037	1.5667175
31.296024882356644	2.448455	1.564754
31.314226632946237	2.4608474	1.5687088
31.332429193908684	2.3889878	1.5456351
31.350632565811598	2.3241317	1.5245103
31.368836749222787	2.350406	1.5331033
31.387041744710295	2.4726698	1.5724726
31.40524755284232	2.518683	1.5870359
31.423454174187317	2.5197246	1.5873641
31.441661609313922	2.531855	1.5911804
31.459869858791002	2.5282316	1.5900414
31.478078923187628	2.4623187	1.5691777
31.496288803073064	2.4256816	1.55746
31.514499499016807	2.4079523	1.5517578
31.532711011588546	2.4012752	1.5496049
31.550923341358178	2.352242	1.533702
31.56913648889584	2.3567624	1.5351751
31.587350454771844	2.3285906	1.525972
31.605565239556732	2.3071122	1.5189182
31.62378084382127	2.2932348	1.514343
31.641997268136382	2.3271236	1.5254912
31.660214513073274	2.4119189	1.5530354
31.67843257920331	2.448412	1.5647402
31.6966514670981	2.4139447	1.5536875
31.71487117732944	2.3486893	1.5325434
31.733091710469346	2.2014818	1.4837391
31.751313067090052	2.1164894	1.454816
31.769535247764008	2.157863	1.4689666
31.787758253063878	2.2666602	1.5055431
31.805982083562526	2.275787	1.5085713
31.824206739833024	2.341091	1.5300624
31.84243222244869	2.3454525	1.531487
31.860658531983013	2.3280458	1.5257936
31.878885669009737	2.2784374	1.5094494
31.897113634102784	2.2461104	1.4987029
31.91534242783632	2.277904	1.5092727
31.933572050784694	2.3149853	1.5215076
31.951802503522508	2.3118944	1.5204915
31.970033786624548	2.217014	1.4889641
31.988265900665834	2.1900897	1.4798951
32.006498846221575	2.1484323	1.4657531
32.02473262386724	2.1207287	1.4562722
32.04296723417845	2.1240718	1.4574196
32.0612026777311	2.178477	1.4759665
32.07943895510129	2.2342267	1.494733
32.097676066865304	2.2526584	1.5008858
32.115914013599685	2.249428	1.4998094
32.13415279588115	2.1788359	1.476088
32.152392414286666	2.1019154	1.4497983
32.1706328693934	2.1082132	1.4519687
32.18887416177875	2.1449125	1.4645519
32.20711629202032	2.1291802	1.459171
32.225359260695924	2.1524444	1.4671211
32.243603068383614	2.1670802	1.4721006
32.26184771566166	2.1300008	1.4594523
32.28009320310852	2.0680993	1.4380888
32.2983395313029	1.998557	1.4137033
32.31658670082372	2.0823197	1.4430245
32.33483471225012	2.2483063	1.4994353
32.35308356616143	2.2941647	1.51465
32.371333263137245	2.2974865	1.5157462
32.38958380375734	2.203138	1.4842972
32.407835188601744	2.1803272	1.4765931
32.42608741825067	2.1384003	1.462327
32.444340493284585	2.0959044	1.4477239
32.46259441428416	2.1485507	1.4657936
32.48084918183028	2.1609657	1.4700223
32.49910479650405	2.1788373	1.4760885
32.51736125888683	2.1593044	1.4694571
32.53561856956014	2.1448767	1.4645398
32.5538767291058	2.154819	1.4679302
32.572135738105764	2.1501966	1.4663548
32.59039559714228	2.0797126	1.4421209
32.608656306797776	2.013278	1.4189003
32.62691786765491	1.9435097	1.3940982
32.645180280296586	1.9026383	1.3793615
32.663443545305896	1.9930046	1.4117382
32.68170766326619	2.0844798	1.4437728
32.69997263476099	2.164199	1.4711217
32.7182384603741	2.130471	1.4596133
32.7365051406895	2.0065553	1.4165293
32.75477267629144	2.009962	1.4177313
32.77304106776434	1.9752045	1.4054197
32.79131031569289	2.0075605	1.4168841
32.809580420661966	2.0329075	1.4258007
32.827851383256714	2.041509	1.4288138
32.84612320406245	2.0658286	1.437299
32.86439588366476	2.1605566	1.4698832
32.88266942264945	2.185192	1.4782395
32.9009438216025	2.1644182	1.4711962
32.9192190811102	2.18028	1.4765772
32.937495201758985	2.1673138	1.47218
32.95577218413556	2.0623324	1.4360824
32.974050028826866	1.9498609	1.3963742
32.992328736420035	1.995589	1.4126532
33.010608307502444	2.0793383	1.4419911
33.02888874266169	2.113259	1.4537053
33.047170042485604	2.0747714	1.4404067
33.06545220756225	2.006039	1.416347
33.083735238479896	1.9044616	1.3800223
33.10201913582707	1.8842776	1.37269
33.12030390019248	1.8594502	1.3636166
33.138589532165135	1.8996799	1.3782887
33.15687603233419	2.0242171	1.4227499
33.17516340128909	2.0983884	1.4485816
33.19345163961947	2.0208051	1.4215503
33.211740747915215	1.9557666	1.3984872
33.23003072676643	2.047901	1.4310489
33.248321576763466	2.1089559	1.4522245
33.266613298496885	1.9765836	1.4059103
33.28490589255747	1.9070624	1.3809643
33.30319935953626	1.9641902	1.4014957
33.32149370002451	1.9717475	1.4041892
33.339788914613706	1.9743048	1.4050995
33.358085003895575	2.0217328	1.4218765
33.376381968462034	2.0508153	1.4320668
33.39467980890529	2.0153346	1.4196248
33.41297852581774	1.9479425	1.3956871
33.43127811979204	1.894115	1.3762685
33.44957859142105	1.8374265	1.355517
33.467879941297866	1.9365792	1.3916103
33.486182170015844	1.9693798	1.403346
33.50448527816853	1.9641111	1.4014674
33.522789266349754	1.9477893	1.3956323
33.541094135153514	1.988667	1.4102011
33.55939988517411	2.0387626	1.4278524
33.57770651700602	1.9575965	1.3991413
33.59601403124398	1.8678061	1.366677
33.61432242848296	1.8203512	1.349204
33.632631709318154	1.803596	1.3429803
33.650941874344994	1.8653225	1.3657681
33.66925292415916	1.9378079	1.3920517
33.68756485935654	1.9314586	1.3897693
33.70587768053328	1.9004121	1.3785543
33.724191388285746	1.9138759	1.383429
33.74250598321054	1.9876691	1.4098471
33.760821465904506	2.0705602	1.4389441
33.77913783696474	2.115435	1.4544535
33.79745509698852	2.0401967	1.4283545
33.815773246573414	1.954789	1.3981377
33.8340922863172	1.9264958	1.3879826
33.852412216817896	1.8795918	1.370982
33.87073303867377	1.9157943	1.3841223
33.889054752483304	1.989085	1.4103492
33.907377358845245	1.93952	1.3926665
33.92570085835853	1.7910668	1.3383074
33.94402525162239	1.7474132	1.3218975
33.96235053923627	1.8365537	1.355195
33.980676721799824	1.839996	1.3564645
33.999003799912984	1.8402654	1.3565638
34.01733177417592	1.9464792	1.3951628
34.03566064518901	1.9720216	1.4042869
34.0539904135529	1.9012382	1.3788539
34.07232107986846	1.8239431	1.3505344
34.090652644736785	1.9274861	1.3883393
34.108985108759235	2.0129325	1.4187785
34.12731847253742	1.9528707	1.3974515
34.14565273667313	1.9550288	1.3982234
34.16398790176847	1.9994113	1.4140054
34.18232396842574	2.005161	1.4160371
34.20066093724749	1.9560195	1.3985777
34.21899880883651	1.9130574	1.3831332
34.23733758379583	1.8458698	1.3586279
34.25567726272874	1.9380299	1.3921314
34.27401784623872	1.9241854	1.38715
34.29235933492957	1.890243	1.3748611
34.31070172940526	1.8611593	1.3642431
34.32904503027003	1.8084941	1.3448026
34.347389238128386	1.97902	1.4067764
34.36573435358502	2.1050167	1.4508675
34.38408037724492	2.2409754	1.4969888
34.402427309713296	2.2230453	1.490988
34.42077515159559	2.0064874	1.4165053
34.43912390349752	1.8746079	1.3691633
34.45747356602499	1.8649596	1.3656353
34.47582413978423	1.853191	1.3613195
34.49417562538163	1.7956464	1.3400173
34.51252802342388	1.8306024	1.3529975
34.53088133451789	1.8465375	1.3588736
34.54923555927084	1.8933715	1.3759984
34.567590698290104	2.0633116	1.4364232
34.58594675218336	2.0405781	1.428488
34.6043037215585	1.9416698	1.3934381
34.62266160702365	1.9565554	1.3987693
34.641020409187234	2.053778	1.4331008
34.65938012865785	1.9560349	1.3985832
34.677740766044394	1.9068062	1.3808715
34.69610232195598	1.9473702	1.3954821
34.714464797002016	1.9773366	1.406178
34.73282819179208	2.0208244	1.4215571
34.751192506936064	2.054128	1.4332229
34.76955774304408	2.0646868	1.4369018
34.7879239007265	1.9967453	1.4130625
34.80629098059391	2.0436988	1.42958
34.824658983257194	2.0369644	1.4272226
34.843027909327446	1.8557477	1.3622583
34.86139775941603	1.8013333	1.3421376
34.879768534134534	1.8596734	1.3636984
34.89814023409483	1.8992097	1.3781182
34.91651285990901	2.1026998	1.4500688
34.93488641218944	2.027479	1.4238957
34.95326089154871	1.8856099	1.3731751
34.97163629859967	2.1011982	1.449551
34.99001263395542	2.1116514	1.4531522
35.00838989822934	1.972607	1.4044952
35.02676809203499	1.939984	1.3928331
35.04514721598624	2.1004877	1.4493059
35.063527270697215	2.214636	1.4881654
35.081908256782256	2.1623719	1.4705006
35.10029017485597	2.1032212	1.4502487
35.11867302553321	2.0370677	1.4272587
35.137056809429104	1.9756079	1.4055632
35.155441527159006	1.9618018	1.4006433
35.173827179338524	2.0528393	1.4327732
35.19221376658354	2.1423936	1.4636917
35.21060128951017	2.2678173	1.5059273
35.2289897487348	2.1593177	1.4694617
35.24737914487405	2.0186107	1.4207782
35.26576947854479	2.0019114	1.4148892
35.28416075036418	2.273083	1.5076747
35.30255296094958	2.5137048	1.5854667
35.32094611091867	2.3776925	1.5419768
35.33934020088932	2.1189926	1.455676
35.35773523147969	1.9178011	1.3848469
35.3761312033082	1.6191957	1.2724762
35.394528116993506	1.784762	1.3359499
35.41292597315452	2.3607373	1.5364691
35.431324772410434	2.5695944	1.6029954
35.449724515380666	2.2908266	1.5135477
35.46812520268491	2.4122126	1.5531299
35.486526834943106	2.3670528	1.538523
35.504929412775454	2.2081475	1.4859837
35.52333293680242	2.2699294	1.5066285
35.54173740764471	2.1792157	1.4762167
35.560142825923286	1.7680137	1.3296667
35.5785491922594	1.4882541	1.2199402
35.59695650727454	1.7432427	1.3203192
35.61536477159042	1.7820303	1.3349271
