0.008763373481513119	0.0	0.0
0.026290120649546365	0.17179282	0.414479
0.043816868432600686	0.12005361	0.34648752
0.06134361724069026	0.13541695	0.36799043
0.07887036748382949	0.11155609	0.33400014
0.0963971195720331	0.112144694	0.3348801
0.11392387391531617	0.08507851	0.2916822
0.1314506309236943	0.049549732	0.22259769
0.1489773910071836	0.0020050595	0.044777893
0.16650415457580078	0.08050488	0.28373381
0.18403092203956356	0.17216638	0.41492936
0.20155769380849	0.19064748	0.43663198
0.2190844702925996	0.20372687	0.45136112
0.2366112519019124	0.16217446	0.40270892
0.2541380390464497	0.2329103	0.4826078
0.27166483213623416	0.28480464	0.5336709
0.28919163158128947	0.24998283	0.49998283
0.3067184377916406	0.15734838	0.39667162
0.324245251177314	0.08479935	0.2912033
0.34177207214833777	0.083140485	0.28834093
0.3592989011147415	0.09999232	0.31621563
0.37682573848655654	0.16631803	0.4078211
0.39435258467381573	0.167321	0.4090489
0.41187944008655414	0.15428732	0.39279425
0.42940630513480854	0.1123383	0.33516905
0.446933180228618	0.09412123	0.30679184
0.4644600657780234	0.13545394	0.36804068
0.48198696219306775	0.1511906	0.38883236
0.49951386988379676	0.20472613	0.45246673
0.5170407892602581	0.19839108	0.44541115
0.5345677207325025	0.21650818	0.4653044
0.5520946647105822	0.19862862	0.4456777
0.5696216216045534	0.23075643	0.48037115
0.5871485918244737	0.24032274	0.49022722
0.6046755757804043	0.23064204	0.48025206
0.6222025738824094	0.16420701	0.40522465
0.6397295865405557	0.14837211	0.38519102
0.6572566141649129	0.17875421	0.42279333
0.6747836571655547	0.17367317	0.41674113
0.6923107159525568	0.19483636	0.44140273
0.7098377909359992	0.18564212	0.43086207
0.7273648825259653	0.18113321	0.4255975
0.7448919911325411	0.20701666	0.45499083
0.762419117165817	0.2613399	0.51121414
0.7799462610358868	0.2837639	0.53269494
0.7974734231528482	0.27072987	0.5203171
0.8150006039268024	0.21599445	0.46475202
0.8325278037678551	0.17229713	0.4150869
0.8500550230861152	0.1818632	0.42645422
0.8675822622916969	0.16559698	0.40693608
0.8851095217947171	0.18773897	0.43328854
0.9026368020052984	0.2070638	0.45504263
0.9201641033335665	0.20730303	0.45530543
0.9376914261896523	0.18984511	0.4357122
0.9552187709836915	0.1873887	0.43288416
0.9727461381258234	0.22817762	0.4776794
0.990273528026193	0.2762981	0.52564067
1.0078009410949496	0.2927851	0.5410962
1.0253283777422473	0.26222128	0.5120755
1.0428558383782454	0.22403695	0.4733254
1.0603833234131086	0.21139383	0.45977587
1.0779108332570058	0.25935712	0.50927114
1.0954383683201119	0.27223372	0.5217602
1.112965929012607	0.34725413	0.58928275
1.1304935157446763	0.4654273	0.6822223
1.1480211289265108	0.5418393	0.73609734
1.1655487689683062	1.340277	1.1577033
1.1830764362802655	1.6153044	1.2709463
1.200604131272596	2.0075607	1.4168842
1.2181318543555117	2.228793	1.4929142
1.235659605939232	2.2624195	1.5041342
1.253187386433982	3.8308308	1.9572508
1.270715196249994	6.1897755	2.487926
1.2882430357975057	11.578663	3.4027433
1.3057709054867608	16.333307	4.0414486
1.3232988057280106	22.272745	4.719401
1.3408267369315112	27.353134	5.2300224
1.358354699507526	30.91796	5.560392
1.3758826938663256	34.906193	5.9081464
1.3934107204181858	36.49165	6.040832
1.410938779573391	36.85671	6.0709724
1.4284668717422309	37.416546	6.1169066
1.4459949973350033	36.79623	6.0659895
1.4635231567620117	36.80867	6.0670147
1.4810513504335687	35.912857	5.9927335
1.4985795787599925	35.191788	5.9322667
1.5161078421516088	34.567444	5.8794084
1.5336361410187505	33.915493	5.823701
1.5511644757717598	34.180595	5.8464174
1.5686928468209842	35.198765	5.9328547
1.58622125457678	36.0866	6.0072126
1.6037496994495108	36.961338	6.0795836
1.621278181849548	36.528347	6.0438685
1.6388067021872719	37.236126	6.102141
1.6563352608730693	36.66566	6.0552177
1.673863858317336	35.86847	5.989029
1.6913924949304753	35.0765	5.9225416
1.7089211711228998	33.807705	5.8144393
1.7264498873050296	32.929955	5.738463
1.7439786438872935	31.79534	5.638736
1.7615074412801288	30.97518	5.565535
1.779036279893981	30.482286	5.5210767
1.796565160139305	29.728104	5.452348
1.814094082426564	29.243862	5.4077597
1.8316230471662298	28.400635	5.3292246
1.849152054768784	27.452248	5.239489
1.8666811056447168	27.042553	5.2002454
1.8842102002045273	26.307755	5.1291084
1.901739338858724	25.887842	5.08801
1.9192685220178245	25.431252	5.0429406
1.9367977500923557	24.947975	4.994795
1.9543270234928547	24.507109	4.9504657
1.971856342629867	23.81596	4.88016
1.9893857079139496	23.138302	4.810229
2.006915119755667	22.37001	4.7296944
2.0244445785655945	21.938335	4.683838
2.0419740847543175	21.547197	4.641896
2.0595036387324317	21.187838	4.603025
2.0770332409105414	20.730608	4.5530877
2.094562891699263	20.261871	4.501319
2.1120925915092217	19.689161	4.4372473
2.129622340751053	19.241726	4.386539
2.1471521398354043	187.46538	13.6918
2.1646819891729323	444.07886	21.07318
2.182211889174303	440.52853	20.988771
2.1997418402501974	452.66583	21.275946
2.2172718428113023	432.3178	20.792253
2.234801897268317	320.1636	17.893116
2.2523320040319548	16.673672	4.0833406
2.269862163512935	16.444557	4.055189
2.287392376121992	15.8084545	3.9759848
2.304922642269869	15.432948	3.9284792
2.322452962367322	15.255994	3.9058921
2.3399833368251164	15.302356	3.9118226
2.357513766054032	15.329728	3.9153197
2.3750442504648586	15.094673	3.8851864
2.3925747904683963	14.725325	3.837359
2.410105386475459	14.368784	3.790618
2.4276360388968707	14.099001	3.7548637
2.445166748143469	14.025354	3.745044
2.4626975146261025	13.82999	3.7188694
2.4802283387556323	13.525438	3.6776948
2.4977592209429305	13.214435	3.6351664
2.5152901615988825	12.922506	3.5947888
2.5328211611343865	12.753154	3.5711558
2.5503522199603523	12.4564	3.5293624
2.5678833384877024	12.071137	3.4743543
2.5854145171273712	11.768226	3.4304848
2.6029457562903064	11.653961	3.4137897
2.620477056387469	11.64184	3.412014
2.6380084178298326	11.520699	3.3942153
2.655539841028383	11.385342	3.3742173
2.673071326394119	11.240579	3.3526971
2.6906028743380523	11.019987	3.3196366
2.708134485271211	10.951752	3.309343
2.7256661596046325	10.8588915	3.2952833
2.743197897749369	10.632155	3.2606986
2.760729700116486	10.446315	3.232076
2.778261567117063	10.122967	3.181661
2.795793499162193	9.945651	3.1536727
2.8133254966629817	9.748043	3.1221857
2.830857560030551	9.678912	3.111095
2.8483896896760337	9.627302	3.1027894
2.865921886010578	9.655636	3.107352
2.883454149445347	9.608501	3.0997584
2.9009864803915177	9.448773	3.0738857
2.91851887926028	9.196733	3.0326116
2.9360513464628384	8.967932	2.9946506
2.953583882410413	8.946033	2.9909918
2.9711164875142373	8.972314	2.995382
2.9886491621855606	8.799037	2.9663172
3.0061819068356455	8.507708	2.9167974
3.023714721875769	8.252671	2.8727462
3.041247607717225	8.172895	2.8588276
3.0587805647713213	8.139319	2.8529491
3.0763135934493806	8.114435	2.8485847
3.0938466941627407	7.973496	2.8237379
3.1113798673227544	7.9280834	2.8156853
3.1289131133407904	7.778831	2.7890556
3.1464464326282315	7.6571026	2.767147
3.1639798255964786	7.5380645	2.7455535
3.1815132926569443	7.4324512	2.7262523
3.1990468342210603	7.4050694	2.7212257
3.216580450700272	7.224783	2.6878955
3.2341141425060416	7.1032023	2.6651833
3.251647910049847	6.9936647	2.644554
3.2691817537431813	7.028816	2.6511915
3.286715673997555	7.080429	2.6609075
3.3042496712244938	7.139015	2.6718936
3.32178374583554	7.0622125	2.6574824
3.339317898242251	6.9077973	2.628269
3.3568521288562034	6.739104	2.5959785
3.3743864380889876	6.6698728	2.5826097
3.3919208263522127	6.5976233	2.568584
3.4094552940575023	6.5128074	2.5520203
3.4269898416164972	6.514445	2.552341
3.444524469440858	6.525182	2.5544436
3.4620591779422587	6.5304585	2.5554762
3.479593967532391	6.383172	2.526494
3.4971288386229658	6.241804	2.4983604
3.5146637916257086	6.210634	2.4921143
3.5321988269523628	6.2477245	2.4995449
3.5497339450146903	6.263327	2.502664
3.5672691462244708	6.3037004	2.5107172
3.5848044309934988	6.2864895	2.5072873
3.60233979973359	6.1985292	2.4896846
3.619875252856575	6.1698756	2.4839234
3.6374107907743034	6.1503997	2.48
3.6549464138986427	6.2039003	2.490763
3.6724821226414788	6.2178245	2.4935565
3.690017917414714	6.2136717	2.4927237
3.7075537986302702	6.1623726	2.4824126
3.7250897667000857	6.176375	2.4852314
3.7426258220361235	6.3175516	2.513474
3.7601619650503553	6.590237	2.5671458
3.777698196154779	7.158177	2.675477
3.7952345157614067	8.188997	2.8616424
3.8127709242822716	9.111848	3.0185838
3.830307422129425	11.2782	3.358303
3.847844009714936	12.653857	3.557226
3.8653806874508954	15.895159	3.9868734
3.882917455749409	15.373308	3.920881
3.900454315022606	15.353221	3.9183187
3.917991265682631	12.294526	3.506355
3.9355283081416506	10.54471	3.247262
3.9530654428118495	8.555667	2.925007
3.970602670105433	7.357729	2.7125134
3.9881399904346244	6.475878	2.5447745
4.005677404211669	6.3378787	2.5175145
4.023214911848827	6.3186946	2.5137014
4.0407525137583855	6.270475	2.5040917
4.058290210352644	6.2965226	2.5092874
4.075828002043927	6.2733884	2.5046732
4.0933658892445814	6.2299366	2.495984
4.110903872366966	6.1550984	2.480947
4.128441951823468	6.0657096	2.462866
4.145980128026488	6.0747404	2.4646988
4.163518401388452	6.134752	2.476843
4.181056772321807	6.1843805	2.4868414
4.1985952412390155	6.2146826	2.4929266
4.216133808552567	6.1990714	2.4897935
4.233672474674966	6.1899314	2.4879572
4.251211240018741	6.292228	2.5084314
4.268750104996445	6.5460978	2.5585344
4.286289070020643	7.5361476	2.7452044
4.303828135503928	9.247604	3.0409875
4.3213673018589125	29.48829	5.430312
4.3389065694982305	90.66092	9.521603
4.356445938834537	165.64072	12.870149
4.3739854102805085	171.12076	13.081313
4.391524984248844	172.01808	13.115566
4.409064661152262	136.41945	11.679873
4.426604441403504	96.899666	9.843762
4.444144325415337	75.86791	8.710218
4.461684313600543	21.750689	4.6637635
4.47922440637193	21.858286	4.6752844
4.496764604142329	20.153025	4.489212
4.5143049073245916	18.230734	4.2697463
4.531845316331589	16.06118	4.0076404
4.5493858315762195	13.251483	3.6402586
4.566926453471405	11.074049	3.3277693
4.584467182430081	9.068402	3.0113788
4.602008018865218	7.9568543	2.8207896
4.619548963189798	7.2745347	2.6971345
4.637090015816834	6.779695	2.6037848
4.654631177159353	6.5888996	2.5668852
4.672172447630417	6.34547	2.5190215
4.689713827643102	6.1812234	2.4862065
4.7072553176105085	5.9299126	2.435141
4.724796917945764	5.85471	2.4196508
4.742338629062015	5.776841	2.403506
4.759880451372434	5.7257943	2.3928633
4.777422385290215	5.6586623	2.3787942
4.794964431228581	5.6787267	2.383008
4.812506589600768	5.6880484	2.384963
4.830048860820047	5.5994215	2.3663096
4.847591245299709	5.619161	2.370477
4.8651337434530655	5.605672	2.36763
4.882676355693457	5.64196	2.375281
4.900219082434242	5.573504	2.360827
4.917761924088813	5.468211	2.3384206
4.935304881070575	5.467046	2.3381715
4.952847953792969	5.469242	2.3386412
4.970391142669449	5.5165973	2.3487437
4.9879344481135055	5.444255	2.3332927
5.005477870538642	5.422913	2.3287148
5.023021410358394	5.362803	2.3157728
5.040565067986324	5.306625	2.3036113
5.05810884383601	5.2386036	2.2887995
5.075652738321066	5.2320123	2.2873592
5.09319675185512	5.2099085	2.2825224
5.110740884851836	5.2678423	2.295178
5.128285137724894	5.320587	2.30664
5.145829510888007	5.33766	2.3103375
5.163374004754908	5.272347	2.2961593
5.1809186197393595	5.2602797	2.29353
5.198463356255145	5.310156	2.3043776
5.216008214716077	5.305965	2.303468
5.233553195535998	5.2117014	2.282915
5.251098299128764	5.1627145	2.2721608
5.268643525908272	5.1215053	2.2630744
5.286188876288432	5.1371055	2.2665184
5.3037343506831895	5.210428	2.2826362
5.32127994950651	5.151406	2.269671
5.3388256731723915	5.1174226	2.262172
5.356371522094851	5.1463656	2.2685602
5.373917496687938	5.155293	2.2705271
5.391463597365729	5.128438	2.2646055
5.40900982454232	5.1049476	2.259413
5.426556178631843	5.092086	2.256565
5.444102660048449	5.1330943	2.2656333
5.4616492692063225	5.1338363	2.2657971
5.479196006519669	5.212103	2.283003
5.496742872402727	5.232649	2.2874985
5.514289867269756	5.1914554	2.2784765
5.531836991535049	5.0570726	2.2487936
5.549384245612924	4.9723077	2.2298672
5.566931629917724	4.9913387	2.2341304
5.584479144863822	5.0530877	2.2479074
5.6020267908656205	5.0792613	2.2537217
5.619574568337545	5.1092386	2.2603624
5.637122477694054	5.039769	2.244943
5.654670519349629	4.9986954	2.2357762
5.672218693718784	4.9567676	2.2263799
5.689767001216059	5.0260973	2.241896
5.707315442256021	5.0679417	2.251209
5.724864017253266	5.1160545	2.2618697
5.7424127266224225	5.08804	2.2556684
5.75996157077814	5.060734	2.2496076
5.777510550135105	5.077551	2.2533422
5.795059665108022	5.0826554	2.2544746
5.812608916111639	5.1063914	2.2597325
5.830158303560715	5.18403	2.2768464
5.847707827870055	5.226149	2.2860773
5.86525748945448	5.2836156	2.2986116
5.8828072887288485	5.386707	2.320928
5.900357226108044	5.44642	2.3337567
5.917907302006979	5.525947	2.3507333
5.9354575168406	6.0817685	2.4661243
5.9530078710238765	6.642527	2.57731
5.970558364971812	7.1680174	2.6773152
5.988108999099438	7.4587445	2.7310703
6.005659773821818	8.027807	2.8333385
6.023210689554039	7.806678	2.7940433
6.040761746711227	8.172645	2.8587837
6.058312945708531	7.5046935	2.7394695
6.075864286961132	7.074496	2.6597924
6.093415770884244	6.508435	2.5511634
6.1109673978931065	6.052942	2.4602728
6.128519168402993	5.4698753	2.3387764
6.146071082829204	5.279781	2.2977774
6.163623141587075	5.1469913	2.2686982
6.181175345091969	5.0814753	2.2542129
6.198727693759281	5.1150813	2.2616546
6.216280188004435	5.097929	2.2578595
6.233832828242885	5.12265	2.2633271
6.251385614890126	5.153702	2.2701766
6.268938548361669	5.176913	2.275283
6.286491629073067	5.0863447	2.2552927
6.304044857439898	5.061296	2.2497325
6.321598233877777	4.9534016	2.2256238
6.339151758802344	4.905146	2.2147565
6.356705432629277	4.928456	2.2200127
6.37425925577428	4.9906497	2.2339761
6.391813228653095	4.97607	2.2307107
6.409367351681486	4.9652357	2.2282808
6.426921625275259	4.9738927	2.2302225
6.44447604985025	5.006087	2.2374287
6.46203062582232	4.9825187	2.2321556
6.47958535360737	4.9175663	2.2175586
6.497140233621328	4.8949623	2.2124562
6.514695266280161	4.797731	2.1903722
6.532250451999859	4.874488	2.2078242
6.549805791196454	4.9904017	2.2339208
6.567361284286002	5.037266	2.2443855
6.584916931684597	5.0594497	2.249322
6.602472733808367	5.0054393	2.237284
6.6200286910734665	4.970159	2.2293854
6.637584803896092	4.944721	2.2236729
6.655141072692462	4.912088	2.2163231
6.672697497878842	4.884046	2.2099879
6.690254079871514	4.9242997	2.2190764
6.707810819086808	4.931422	2.2206805
6.725367715941078	4.929178	2.2201753
6.742924770850719	4.898577	2.213273
6.760481984232151	4.9189725	2.2178757
6.778039356501836	4.8803267	2.2091463
6.795596888076266	4.906956	2.2151651
6.813154579371963	4.895497	2.2125769
6.830712430805492	4.8975058	2.2130308
6.84827044279344	4.869954	2.2067974
6.865828615752445	4.9022026	2.2140918
6.883386950099159	4.9641275	2.228032
6.900945446250287	5.0272903	2.242162
6.918504104622553	5.0517554	2.247611
6.936062925632727	5.0048637	2.2371552
6.953621909697607	4.9683495	2.2289793
6.971181057234028	4.99263	2.2344193
6.988740368658859	5.095424	2.2573047
7.006299844389007	5.169523	2.2736585
7.023859484841407	5.226187	2.2860856
7.041419290433036	5.352765	2.3136044
7.058979261580902	5.499146	2.3450258
7.0765393987020495	5.692653	2.3859282
7.094099702213559	6.0188036	2.453325
7.111660172532549	6.355084	2.520929
7.129220810076164	6.6609945	2.5808902
7.146781615261595	7.210606	2.6852572
7.16434258850606	7.4733086	2.7337353
7.181903730226821	7.9456944	2.818811
7.1994650408411704	8.024543	2.8327625
7.217026520766437	8.108404	2.847526
7.234588170419983	8.304539	2.8817596
7.252149990219215	8.296109	2.8802967
7.269711980581568	8.218898	2.866862
7.2872741419245175	8.03392	2.834417
7.304836474665574	7.604171	2.7575662
7.322398979222286	7.2887826	2.6997745
7.339961656012233	7.0911317	2.6629179
7.357524505453039	6.775261	2.6029332
7.375087527962357	6.452315	2.5401406
7.392650723957886	6.1558642	2.4811015
7.410214093857353	5.846999	2.418057
7.427777638078528	5.6667194	2.3804872
7.445341357039213	5.5111446	2.3475828
7.4629052511572525	5.3464327	2.3122354
7.480469320850524	5.177131	2.275331
7.498033566536948	5.1050205	2.2594292
7.5155979886344735	5.053505	2.2480001
7.5331625875610975	5.036002	2.244104
7.550727363734844	5.1248784	2.2638195
7.568292317573788	5.148024	2.2689257
7.585857449496025	5.10921	2.2603562
7.603422759919705	5.081597	2.2542398
7.620988249263007	5.0629826	2.2501073
7.638553917944147	5.1061335	2.2596755
7.656119766381391	5.092243	2.2566
7.673685794993023	5.100992	2.2585375
7.691252004197388	5.121666	2.2631097
7.70881839441285	5.1669245	2.273087
7.726384966057826	5.156085	2.2707014
7.743951719550762	5.134763	2.2660015
7.761518655310149	5.114817	2.2615962
7.779085773754511	5.103667	2.2591298
7.796653075302419	5.1636753	2.2723722
7.814220560372475	5.2177134	2.2842314
7.831788229383323	5.2647996	2.2945151
7.8493560827536495	5.2631655	2.294159
7.866924120902174	5.1829214	2.276603
7.884492344247663	5.1661124	2.2729084
7.9020607532089135	5.187913	2.277699
7.919629348204771	5.1924014	2.2786841
7.937198129654115	5.1852465	2.2771137
7.954767097975865	5.245207	2.2902417
7.972336253588986	5.3244414	2.307475
7.989905596912472	5.3765526	2.3187394
8.007475128365371	5.407693	2.3254447
8.025044848366756	5.4089894	2.3257234
8.042614757335754	5.5139236	2.3481746
8.060184855691523	5.5667896	2.3594046
8.07775514385327	5.773667	2.4028456
8.095325622240228	5.81704	2.411854
8.112896291271687	5.8407	2.416754
8.130467151366968	5.8666234	2.4221113
8.148038202945436	5.8706245	2.4229372
8.165609446426497	5.9107685	2.4312072
8.183180882229594	5.9472494	2.4386983
8.200752510774217	5.914964	2.43207
8.218324332479893	5.8312354	2.4147952
8.235896347766193	5.8287354	2.4142773
8.253468557052724	5.8266144	2.4138381
8.27104096075914	5.800905	2.4085069
8.288613559305137	5.922923	2.4337056
8.306186353110448	5.9792995	2.4452605
8.32375934259485	6.100482	2.4699154
8.341332528178162	6.1058702	2.471006
8.358905910280246	6.145233	2.4789581
8.376479489321003	6.112506	2.4723482
8.394053265720377	6.170236	2.483996
8.411627239898356	6.152772	2.4804783
8.42920141227497	6.1057444	2.4709804
8.44677578327029	6.0974092	2.4692934
8.464350353304427	6.1061544	2.4710634
8.48192512279754	6.146654	2.4792447
8.499500092169827	6.147329	2.4793808
8.51707526184153	6.1330853	2.4765067
8.534650632232934	6.1519403	2.4803104
8.552226203764365	6.132914	2.4764721
8.569801976856192	6.11295	2.472438
8.587377951928834	6.0861564	2.4670136
8.60495412940274	6.095322	2.4688706
8.622530509698416	6.1612606	2.4821887
8.6401070932364	6.2717586	2.504348
8.657683880437283	6.4374013	2.5372036
8.675260871721695	6.6368027	2.5761993
8.692838067510303	6.7589316	2.5997946
8.710415468223834	6.882823	2.6235135
8.727993074283043	7.00655	2.6469889
8.745570886108737	7.0439897	2.6540515
8.763148904121765	7.111428	2.666726
8.78072712874302	7.044736	2.6541922
8.798305560393441	7.2504582	2.6926675
8.815884199494006	7.4616227	2.7315972
8.833463046465745	7.751333	2.7841215
8.851042101729728	7.8754377	2.8063211
8.86862136570707	8.1157055	2.8488078
8.886200838818924	8.280575	2.8775988
8.903780521486505	8.3178215	2.8840635
8.921360414131055	8.376042	2.8941393
8.938940517173874	8.44006	2.905178
8.956520831036297	8.580869	2.929312
8.97410135613971	8.847286	2.974439
8.99168209290554	9.021098	3.0035143
9.009263041755265	9.317207	3.0524101
9.026844203110405	9.526041	3.0864286
9.044425577392525	9.765874	3.1250398
9.062007165023239	9.852313	3.1388395
9.079588966424197	10.0814905	3.1751363
9.097170982017108	10.131181	3.1829517
9.11475321222372	11.021368	3.3198445
9.132335657465825	11.951677	3.4571197
9.149918318165264	12.044061	3.4704554
9.167501194743924	12.630093	3.5538843
9.18508428762374	12.424663	3.5248635
9.202667597226693	12.485277	3.533451
9.220251123974803	12.183562	3.490496
9.237834868290143	11.783389	3.4326942
9.255418830594836	11.456185	3.3846986
9.273003011311046	10.951224	3.3092635
9.290587410860985	10.728941	3.2755063
9.308172029666911	10.122318	3.181559
9.32575686815113	9.79643	3.1299248
9.343341926735997	8.580856	2.9293098
9.360927205843916	8.31884	2.88424
9.378512705897327	8.243932	2.8712249
9.396098427318728	8.108849	2.847604
9.413684370530664	8.025351	2.832905
9.431270535955722	7.8988223	2.8104844
9.448856924016539	7.7568703	2.785116
9.466443535135806	7.67438	2.770267
9.484030369736251	7.665848	2.7687268
9.501617428240658	7.6715007	2.7697475
9.519204711071852	7.7610073	2.7858584
9.536792218652714	7.7618084	2.7860022
9.55437995140617	7.8280005	2.7978563
9.571967909755191	7.789651	2.7909946
9.589556094122802	7.76264	2.7861514
9.60714450493207	7.7407703	2.782224
9.624733142606116	7.808765	2.7944167
9.642322007568108	7.8392344	2.7998633
9.659911100241267	7.8518934	2.802123
9.677500421048851	7.9145565	2.8132823
9.695089970414175	7.929535	2.815943
9.712679748760609	8.013273	2.8307726
9.730269756511557	8.011253	2.8304157
9.747859994090492	8.065194	2.8399286
9.765450461920915	8.087313	2.84382
9.78304116042639	8.145617	2.8540525
9.800632090030527	8.073772	2.8414385
9.81822325115699	8.061322	2.8392467
9.835814644229481	8.038139	2.8351612
9.853406269671762	8.126129	2.8506367
9.870998127907646	8.158366	2.8562853
9.888590219360985	8.253412	2.8728752
9.906182544455698	8.293122	2.8797781
9.923775103615734	8.307714	2.8823106
9.941367897265108	8.1934	2.8624117
9.958960925827878	8.169078	2.8581598
9.97655418972816	8.148257	2.8545153
9.994147689390106	8.212922	2.8658197
10.011741425237934	8.232913	2.8693054
10.029335397695904	8.209403	2.8652055
10.04692960718833	8.197604	2.8631458
10.06452405413958	8.121597	2.8498416
10.082118738974064	8.087211	2.8438022
10.099713662116246	8.016767	2.8313894
10.117308823990651	8.026615	2.8331282
10.134904225021844	8.030462	2.833807
10.152499865634445	8.088799	2.8440814
10.170095746253125	8.054434	2.8380334
10.18769186730261	8.024722	2.832794
10.205288229207675	7.9749103	2.8239884
10.222884832393145	7.9647517	2.822189
10.2404816772839	7.954796	2.8204248
10.258078764304868	7.961541	2.8216202
10.275676093881035	7.9642982	2.8221087
10.293273666437438	7.927394	2.8155627
10.310871482399158	8.002217	2.828819
10.32846954219134	7.9577866	2.8209548
10.346067846239173	7.9975758	2.8279986
10.363666394967908	7.9535785	2.820209
10.38126518880283	8.017716	2.8315573
10.398864228169298	8.114198	2.8485432
10.416463513492713	8.145926	2.854107
10.434063045198531	8.084828	2.8433833
10.451662823712262	8.031931	2.8340662
10.469262849459467	8.002383	2.8288484
10.486863122865758	8.011413	2.8304439
10.504463644356806	8.072118	2.8411472
10.522064414358338	8.009164	2.8300467
10.539665433296118	7.835127	2.7991297
10.557266701595987	7.72649	2.7796564
10.574868219683818	7.630958	2.762419
10.592469987985552	7.541429	2.7461662
10.610072006927185	7.4570704	2.7307637
10.627674276934751	7.3553243	2.7120702
10.64527679843435	7.2667704	2.6956947
10.662879571852143	7.1322913	2.670635
10.680482597614331	7.0434294	2.653946
10.698085876147173	6.8768225	2.6223695
10.715689407876988	6.8007684	2.6078284
10.733293193230146	6.734113	2.595017
10.750897232633072	6.6992803	2.588297
10.76850152651225	6.675552	2.583709
10.786106075294207	6.6108513	2.5711577
10.803710879405534	6.4929996	2.5481365
10.821315939272877	6.3615823	2.5222178
10.83892125532294	6.2230897	2.4946122
10.856526827982472	6.0860457	2.4669912
10.874132657678285	6.072937	2.464333
10.891738744837243	6.056594	2.4610147
10.909345089886271	6.0615816	2.462028
10.926951693252343	6.0039687	2.4502997
10.944558555362494	5.952297	2.439733
10.96216567664381	5.8630524	2.421374
10.979773057523436	5.831989	2.414951
10.997380698428573	5.7958155	2.40745
11.014988599786477	5.740202	2.3958719
11.032596762024461	5.6934695	2.3860993
11.050205185569892	5.598085	2.3660274
11.067813870850198	5.5016475	2.3455591
11.085422818292859	5.4331946	2.3309214
11.10303202832541	5.3370166	2.3101983
11.120641501375454	5.297183	2.301561
11.138251237870636	5.2333913	2.2876606
11.155861238238671	5.1684327	2.2734187
11.173471502907317	5.0854864	2.2551024
11.191082032304402	5.059536	2.2493412
11.208692826857805	5.044334	2.2459595
11.226303886995465	5.013279	2.2390354
11.243915213145371	4.9557457	2.2261505
11.261526805735578	4.8812733	2.2093604
11.279138665194196	4.827897	2.1972475
11.296750791949393	4.809403	2.1930351
11.314363186429393	4.839384	2.19986
11.331975849062479	4.7771173	2.1856618
11.34958878027699	4.7294407	2.1747277
11.36720198050133	4.624458	2.1504552
11.384815450163948	4.511188	2.1239557
11.402429189693366	4.4041305	2.098602
11.420043199518153	4.3492694	2.0854902
11.437657480066942	63.407207	7.9628644
11.455272031768422	85.15076	9.227716
11.472886855051353	107.49162	10.367817
11.490501950344528	99.03425	9.951595
11.508117318076819	84.38172	9.185952
11.52573295867715	45.765347	6.765009
11.543348872574514	4.029318	2.007316
11.560965060197946	3.9775074	1.9943689
11.57858152197655	3.9702454	1.9925475
11.59619825833949	3.9843988	1.9960959
11.613815269715985	4.0040765	2.0010188
11.631432556535323	38.501408	6.2049503
11.649050119226837	83.0474	9.113034
11.666667958219929	93.38357	9.663517
11.68428607394406	107.64099	10.375018
11.701904466828756	82.46314	9.080922
11.719523137303586	65.31036	8.081483
11.737142085798196	4.5203238	2.1261053
11.754761312742286	3.6534438	1.9113984
11.772380818565619	3.655182	1.911853
11.790000603698015	3.6218538	1.9031168
11.80762066856935	3.547958	1.8836024
11.825241013609572	3.5177991	1.8755797
11.842861639248683	3.5294054	1.8786712
11.860482545916748	3.5049894	1.8721617
11.878103734043883	3.4596758	1.8600204
11.895725204060282	3.4397173	1.8546475
11.91334695639619	3.4259033	1.8509196
11.930968991481919	3.3943386	1.8423731
11.948591309747824	3.335022	1.8262043
11.966213911624347	3.3011994	1.8169203
11.98383679754198	3.302358	1.817239
12.001459967931268	3.2776556	1.8104297
12.019083423222835	3.2551258	1.8041967
12.036707163847352	3.2216086	1.794884
12.05433119023556	3.1803126	1.7833431
12.071955502818259	3.111228	1.7638674
12.089580102026313	3.07182	1.7526609
12.107204988290643	3.0725114	1.752858
12.12483016204224	3.0554712	1.7479906
12.142455623712152	3.0409372	1.7438283
12.16008137373149	2.9808538	1.7265149
12.177707412531431	2.9694488	1.7232089
12.19533374054321	2.946803	1.7166255
12.212960358198126	2.9615688	1.7209209
12.230587265927545	2.9895375	1.7290279
12.248214464162889	2.9975286	1.7313372
12.265841953335649	2.981074	1.7265787
12.283469733877375	2.9784784	1.7258269
12.301097806219685	2.9725094	1.7240967
12.31872617079425	2.9637623	1.7215581
12.336354828032825	2.9273248	1.7109426
12.353983778367205	2.8969588	1.7020454
12.371613022229262	2.8871427	1.6991594
12.389242560050928	2.8907921	1.700233
12.406872392264201	2.8808348	1.6973022
12.424502519301143	2.9071906	1.7050486
12.442132941593874	2.8850756	1.698551
12.459763659574586	2.9248085	1.7102071
12.477394673675532	2.8966053	1.7019416
12.49502598432903	2.8825727	1.6978141
12.51265759196746	2.8534234	1.6892079
12.530289497023267	2.8110893	1.6766304
12.547921699928967	2.7908468	1.6705828
12.565554201117134	2.7776303	1.6666224
12.583187001020404	2.7813618	1.6677415
12.600820100071486	2.757624	1.6606095
12.618453498703152	2.7373087	1.6544814
12.636087197348235	2.6989222	1.6428397
12.65372119643964	2.7099087	1.64618
12.671355496410326	2.7305334	1.6524326
12.68899009769333	2.748413	1.6578338
12.706625000721749	2.7690768	1.6640543
12.724260205928752	2.8318353	1.6828058
12.741895713747551	2.8557029	1.6898825
12.759531524611454	2.9226305	1.7095703
12.777167638953818	2.9291596	1.7114788
12.794804057208072	2.928002	1.7111406
12.812440779807702	2.9622195	1.72111
12.830077807186271	3.109328	1.7633287
12.847715139777405	3.175124	1.7818878
12.865352778014795	3.4032443	1.8447884
12.882990722332197	3.496932	1.8700086
12.90062897316344	3.5260963	1.8777903
12.918267530942412	3.6095014	1.8998687
12.935906396103071	3.5728543	1.8901995
12.953545569079449	3.7654107	1.9404666
12.971185050305628	3.61066	1.9001737
12.988824840215775	3.5866213	1.8938377
13.006464939244115	3.6122186	1.9005837
13.024105347824943	3.4189835	1.8490493
13.041746066392617	3.4985292	1.8704356
13.05938709538157	3.3027039	1.8173343
13.077028435226296	3.360217	1.8330895
13.094670086361363	3.266368	1.8073096
13.112312049221401	3.138491	1.7715787
13.129954324241112	3.0339136	1.7418133
13.147596911855258	2.8715167	1.694555
13.165239812498685	2.8666282	1.693112
13.182883026606293	2.8127487	1.6771251
13.200526554613058	2.7244902	1.6506029
13.218170396954017	2.6752279	1.6356124
13.235814554064284	2.6455848	1.6265254
13.253459026379034	2.6675212	1.6332548
13.271103814333523	2.6765666	1.6360216
13.288748918363058	2.6526194	1.6286864
13.306394338903031	2.668492	1.633552
13.32404007638889	2.6332388	1.6227257
13.341686131256164	2.626801	1.6207409
13.359332503940449	2.6077945	1.6148667
13.376979194877402	2.6441329	1.626079
13.394626204502751	2.706523	1.6451514
13.412273533252307	2.6888459	1.63977
13.429921181561937	2.6637518	1.6321005
13.447569149867581	2.6574905	1.6301811
13.465217438605247	2.7044694	1.6445271
13.482866048211022	2.70671	1.6452082
13.500514979121052	2.6884303	1.6396433
13.518164231771568	2.6122978	1.6162604
13.535813806598844	2.5932705	1.6103635
13.553463704039254	2.591454	1.6097994
13.571113924529229	2.6585534	1.6305071
13.588764468505275	2.7304878	1.6524187
13.606415336403956	2.7618885	1.661893
13.624066528661917	2.7429562	1.6561872
13.641718045715882	2.7773683	1.6665438
13.659369888002635	2.8314822	1.6827009
13.67702205595903	2.8943136	1.7012682
13.694674550021993	2.9702103	1.7234298
13.712327370628532	3.011495	1.735366
13.729980518215713	3.099519	1.7605451
13.747633993220681	3.137882	1.7714068
13.765287796080647	3.1973085	1.7881019
13.7829419272329	3.2711515	1.8086325
13.800596387114801	3.295988	1.8154856
13.818251176163775	3.3295455	1.8247042
13.835906294817324	3.3479786	1.8297483
13.853561743513023	3.3759623	1.8373792
13.871217522688525	3.3902652	1.8412673
13.888873632781538	3.3792086	1.8382623
13.906530074229858	3.3992925	1.843717
13.92418684747135	3.422595	1.8500257
13.941843952943948	3.3826678	1.839203
13.959501391085665	3.3473687	1.8295816
13.977159162334578	3.3169384	1.8212464
13.994817267128846	3.341035	1.8278497
14.012475705906693	3.271154	1.8086332
14.030134479106424	3.1708572	1.7806901
14.047793587166414	3.0407853	1.7437848
14.065453030525108	2.9730191	1.7242445
14.083112809621026	2.964205	1.7216867
14.100772924892766	2.9528687	1.7183913
14.118433376778997	2.9039495	1.7040979
14.136094165718458	2.7921624	1.6709765
14.153755292149969	2.6843984	1.6384134
14.171416756512416	2.6153088	1.6171917
14.189078559244768	2.5714486	1.6035737
14.20674070078606	2.552623	1.5976931
14.224403181575408	2.5067294	1.5832654
14.242066002051999	2.4481266	1.564649
14.259729162655093	2.441129	1.5624113
14.277392663824022	2.4310713	1.5591893
14.295056505998208	2.4142087	1.5537724
14.312720689617128	2.3839085	1.5439911
14.330385215120348	2.3594809	1.5360602
14.348050082947497	2.3623588	1.5369967
14.3657152935383	2.4085085	1.551937
14.383380847332528	2.415897	1.5543156
14.401046744770051	2.3809633	1.543037
14.418712986290798	2.3294806	1.5262636
14.436379572334793	2.2957706	1.5151801
14.454046503342123	2.3017344	1.5171468
14.471713779752946	2.3133845	1.5209814
14.489381402007504	2.3234727	1.5242941
14.507049370546113	2.3449855	1.5313345
14.524717685809168	2.3851845	1.5444043
14.542386348237134	2.4290028	1.5585258
14.560055358270553	2.4176753	1.5548875
14.577724716350051	2.4281528	1.5582532
14.595394422916325	2.4319394	1.5594677
14.61306447841015	2.441033	1.5623806
14.63073488327237	2.459511	1.5682828
14.648405637943917	2.486196	1.5767676
14.6660767428658	2.433694	1.5600301
14.683748198479094	2.412172	1.5531169
14.701420005224954	2.4310372	1.5591784
14.719092163544628	2.5229156	1.5883689
14.73676467387942	2.6227448	1.6194891
14.754437536670727	2.685279	1.638682
14.772110752360014	2.6912937	1.6405163
14.78978432138882	2.6491098	1.6276087
14.807458244198777	2.636742	1.6238048
14.82513252123159	2.6540554	1.6291271
14.842807152929028	2.709403	1.6460265
14.860482139732962	2.725955	1.6510466
14.87815748208531	2.6746163	1.6354254
14.8958331804281	2.6170952	1.6177438
14.91350923520342	2.5658464	1.601826
14.931185646853438	2.599965	1.6124407
14.948862415820408	2.6220512	1.6192749
14.966539542546656	2.6542635	1.629191
14.98421702747459	2.6305811	1.6219066
15.001894871046696	2.614858	1.6170522
15.019573073705542	2.6180243	1.618031
15.037251635893766	2.596921	1.6114964
15.054930558054092	2.652298	1.6285877
15.072609840629323	2.6578734	1.6302986
15.090289484062351	2.7806334	1.6675231
15.107969488796124	2.87948	1.696903
15.125649855273691	3.0500875	1.74645
15.14333058393817	3.4217763	1.8498044
15.161011675232768	3.984063	1.9960117
15.17869312960076	4.64178	2.154479
15.196374947485506	5.3417854	2.3112302
15.214057129330447	6.784026	2.6046164
15.231739675579114	8.984506	2.9974165
15.249422586675102	13.523675	3.677455
15.267105863062092	17.960344	4.2379646
15.284789505183847	25.05241	5.005238
15.302473513484218	29.858723	5.4643135
15.320157888407127	33.92754	5.824735
15.337842630396578	32.83802	5.730447
15.355527739896656	29.92347	5.470235
15.37321321735153	23.251936	4.8220263
15.39089906320545	15.823186	3.9778368
15.408585277902748	10.225995	3.197811
15.42627186188783	6.406452	2.531097
15.443958815605198	4.645113	2.1552525
15.461646139499424	3.8097336	1.9518539
15.479333834015168	3.3454592	1.8290596
15.497021899597165	3.0601523	1.7493291
15.514710336690234	2.8410947	1.6855547
15.53239914573928	2.6803281	1.6371708
15.550088327189297	2.565501	1.6017182
15.567777881485336	2.513103	1.585277
15.58546780907256	2.475122	1.5732521
15.6031581103962	2.473162	1.572629
15.620848785901568	2.4758945	1.5734975
15.638539836034063	2.4556866	1.5670631
15.656231261239173	2.445025	1.5636575
15.673923061962451	2.439837	1.5619978
15.691615238649552	2.459027	1.5681285
15.709307791746202	2.425572	1.5574248
15.727000721698221	2.4243765	1.5570409
15.744694028951498	2.4038866	1.5504472
15.76238771395202	2.3896594	1.5458523
15.780081777145844	2.3871987	1.5450562
15.797776218979125	2.3757422	1.5413443
15.815471039898094	2.4078777	1.5517337
15.833166240349064	2.4432447	1.5630882
15.850861820778437	2.454517	1.5666897
15.868557781632699	2.4375167	1.5612549
15.886254123358412	2.4311645	1.5592192
15.903950846402232	2.4125881	1.5532508
15.921647951210897	2.4303007	1.5589422
15.939345438231225	2.4651475	1.5700788
15.957043307910133	2.51347	1.5853927
15.974741560694602	2.532222	1.5912957
15.992440197031714	2.522501	1.5882384
16.01013921736862	2.4807901	1.5750524
16.02783862215259	2.421887	1.5562413
16.045538411830933	2.3775945	1.541945
16.06323858685107	2.3651261	1.5378966
16.080939147660512	2.4020457	1.5498534
16.09864009470684	2.4277759	1.5581322
16.11634142843774	2.4241176	1.5569578
16.134043149300954	2.4177775	1.5549204
16.15174525774433	2.3784266	1.5422149
16.169447754215817	2.37165	1.5400162
16.18715063916342	2.3750348	1.5411148
16.204853913035244	2.4105833	1.5526053
16.222557576279478	2.425951	1.5575465
16.240261629344403	22.411633	4.7340927
16.257966072678386	42.961082	6.5544705
16.275670906729868	38.068783	6.1699905
16.293376131947387	2.495623	1.5797541
16.31108174877957	2.4945238	1.5794061
16.328787757675133	2.4979057	1.5804764
16.34649415908287	2.5210338	1.5877763
16.364200953451657	2.5413654	1.594166
16.38190814123048	2.5705037	1.603279
16.39961572286839	2.600124	1.6124899
16.41732369881455	2.6421616	1.6254728
16.43503206951817	2.6960304	1.6419593
16.45274083542859	2.7522092	1.6589783
16.47044999699522	2.7970562	1.6724402
16.488159554667558	2.8325915	1.6830305
16.505869508895184	2.8475783	1.6874769
16.523579860127786	2.8738704	1.6952493
16.541290608815117	2.9270105	1.7108508
16.559001755407035	2.9875708	1.7284591
16.57671330035348	3.0570345	1.7484378
16.59442524410448	3.1653452	1.7791417
16.61213758711015	3.3702078	1.8358126
16.629850329820705	3.5138857	1.8745362
16.647563472686436	3.5448856	1.8827866
16.665277016157724	3.4754298	1.8642504
16.682990960685053	3.461798	1.8605907
16.70070530671898	3.4795792	1.865363
16.718420054710155	3.4976084	1.8701894
16.736135205109335	3.5413904	1.8818582
16.753850758367335	3.591031	1.8950016
16.771566714935087	3.629123	1.9050257
16.789283075263597	3.6947825	1.9221817
16.80699983980398	3.749675	1.9364078
16.82471700900741	3.8212981	1.9548141
16.84243458332518	3.8981025	1.9743613
16.860152563208665	3.950049	1.987473
16.87787094910932	4.015242	2.0038068
16.89558974147871	4.0995345	2.0247307
16.913308940768466	4.1924725	2.0475528
16.931028547430333	4.2182364	2.0538347
16.94874856191613	4.209494	2.0517051
16.966468984677785	4.2917495	2.0716538
16.98418981616729	4.389242	2.0950518
17.00191105683676	4.435812	2.1061368
17.019632707138374	4.4766693	2.1158142
17.03735476752442	4.4937816	2.1198542
17.05507723844728	4.5175796	2.12546
17.072800120359403	4.498526	2.1209729
17.090523413713353	4.571423	2.1380887
17.108247118961785	4.619427	2.1492853
17.125971236557437	4.660418	2.1588001
17.143695766953133	4.634495	2.1527877
17.161420710601806	4.6420794	2.1545486
17.179146067956477	4.610517	2.1472116
17.19687183947025	4.580862	2.1402948
17.21459802559634	4.5624247	2.1359832
17.232324626788028	4.56193	2.1358676
17.25005164349871	4.51366	2.1245375
17.267779076181863	4.508782	2.1233892
17.285506925291074	4.535075	2.1295717
17.30323519127999	4.5646677	2.1365082
17.320963874602384	4.5864425	2.1415982
17.33869297571211	4.5940895	2.1433828
17.356422495063114	4.5522842	2.1336083
17.37415243310944	4.494639	2.1200564
17.391882790305218	4.4427395	2.1077807
17.40961356710468	4.502161	2.1218297
17.42734476396215	4.555675	2.1344028
17.445076381332044	4.6039314	2.1456773
17.462808419668868	4.6769238	2.1626196
17.48054087942723	4.7468395	2.1787243
17.498273761061835	4.825331	2.1966636
17.51600706502747	5.129787	2.2649033
17.533740791779024	5.707527	2.389043
17.551474941771485	6.6023417	2.569502
17.56920951545993	8.548426	2.923769
17.586944513299528	9.821766	3.1339698
17.60467993574556	12.7687845	3.5733435
17.622415783253373	15.421949	3.927079
17.64015205627843	18.233458	4.2700653
17.657888755276293	20.546562	4.5328317
17.675625880702604	22.030638	4.693681
17.69336343301311	20.477558	4.5252137
17.71110141266366	18.368404	4.2858377
17.728839820110178	15.723379	3.9652717
17.746578655808705	12.563416	3.5444908
17.764317920215372	10.37704	3.2213414
17.7820576137864	8.615354	2.9351923
17.79979773697811	7.2586694	2.6941917
17.81753829024692	5.9581966	2.4409418
17.835279274049356	5.1328263	2.2655742
17.85302068884201	4.447471	2.108903
17.870762535081607	4.0677376	2.0168633
17.888504813224934	3.8879042	1.971777
17.90624752372891	3.732902	1.9320719
17.923990667050536	3.6361666	1.9068735
17.941734243646895	3.5293887	1.8786668
17.959478253975185	3.4725263	1.8634716
17.9772226984927	3.4424016	1.855371
17.994967577656833	3.4353275	1.8534636
18.01271289192506	3.3792863	1.8382835
18.030458641754965	3.3785145	1.8380736
18.04820482760425	3.3625646	1.8337297
18.06595144993067	3.34619	1.8292594
18.083698509192125	3.3050344	1.8179754
18.101446005846576	3.2260003	1.7961069
18.119193940352105	3.174552	1.7817272
18.136942313166887	3.133418	1.7701464
18.1546911247492	3.0855677	1.7565784
18.1724403755574	3.0663865	1.7511101
18.19019006604997	3.081287	1.7553595
18.207940196685467	3.1071765	1.7627186
18.225690767922575	3.0794792	1.7548445
18.243441780220046	3.0296388	1.7405858
18.261193234036764	2.98098	1.7265514
18.278945129831676	2.9817479	1.7267739
18.29669746806386	3.009136	1.7346861
18.314450249192483	3.0341125	1.7418704
18.3322034736768	3.029112	1.7404344
18.349957141976184	3.013106	1.7358301
18.3677112545501	2.9814937	1.7267002
18.385465811858108	3.0042372	1.7332735
18.403220814359884	3.0197613	1.737746
18.420976262515172	3.050825	1.7466612
18.43873215678387	3.0820005	1.7555628
18.456488497625923	3.1195357	1.7662207
18.474245285501407	3.2139075	1.7927375
18.492002520870486	3.3094037	1.8191767
18.50976020419343	3.3920374	1.8417485
18.527518335930615	3.6522672	1.9110906
18.545276916542516	4.218801	2.053972
18.563035946489688	4.393827	2.0961456
18.580795426232832	4.8485746	2.201948
18.598555356232698	4.7320056	2.1753173
18.616315736950185	4.9996505	2.2359898
18.63407656884626	4.645786	2.1554084
18.65183785238201	4.7977476	2.190376
18.669599588018617	4.5576463	2.1348646
18.68736177621737	4.574243	2.138748
18.705124417439652	4.609211	2.1469073
18.72288751214696	4.424141	2.1033642
18.740651060800886	4.5115366	2.1240377
18.758415063863115	4.2626376	2.0646157
18.77617952179546	4.42771	2.1042125
18.793944435059814	4.22083	2.0544658
18.811709804118184	4.2626796	2.0646257
18.829475629432675	4.25935	2.0638192
18.8472419114655	4.0358887	2.0089521
18.86500865067897	4.0351567	2.00877
18.88277584753551	3.684631	1.9195393
18.90054350249763	3.6951277	1.9222715
18.918311616027957	3.412976	1.8474241
18.936080188589226	3.3338504	1.8258835
18.953849220644265	3.0171177	1.7369852
18.971618712656007	2.8112347	1.6766737
18.9893886650875	2.7825267	1.6680907
19.007159078401887	7.9926267	2.8271234
19.024929953062408	32.88203	5.7342854
19.042701289532435	32.798622	5.7270083
19.060473088275405	25.36846	5.036711
19.07824534975489	2.641704	1.625332
19.096018074434568	2.604822	1.6139461
19.113791262778197	2.5536585	1.5980171
19.13156491524966	2.5955026	1.6110563
19.149339032312945	2.6128778	1.6164398
19.167113614432136	2.5734718	1.6042044
19.184888662071433	2.4944715	1.5793896
19.202664175695123	2.488373	1.5774578
19.220440155767623	2.5183036	1.5869164
19.238216602753447	2.5463982	1.5957438
19.2559935171172	2.5242124	1.588777
19.27377089932361	2.5085175	1.58383
19.291548749837514	2.5132906	1.5853361
19.309327069123835	2.538513	1.5932711
19.32710585764763	2.5458636	1.5955763
19.344885115874032	2.5449073	1.5952766
19.362664844268313	2.5450115	1.5953093
19.380445043295822	2.5132601	1.5853266
19.39822571342203	2.4942303	1.5793133
19.41600685511252	2.4850214	1.576395
19.43378846883297	2.4839687	1.5760611
19.451570555049173	2.4922094	1.5786734
19.469353114227037	2.4905844	1.5781585
19.48713614683254	2.4679856	1.5709823
19.50491965333182	2.4591494	1.5681676
19.52270363419109	2.474497	1.5730535
19.540488089876686	2.477939	1.574147
19.55827302085503	2.5036478	1.582292
19.576058427592674	2.5031881	1.5821466
19.593844310556282	2.502353	1.5818827
19.611630670212598	2.4866612	1.5769151
19.629417507028506	2.4937139	1.5791497
19.64720482147098	2.507621	1.583547
19.6649926140071	2.5249283	1.5890023
19.682780885104084	2.502799	1.5820237
19.70056963522921	2.4930363	1.5789351
19.718358864849908	2.4600604	1.568458
19.7361485744337	2.4534569	1.5663514
19.753938764448215	2.4670384	1.5706809
19.771729435361202	2.5252647	1.5891081
19.789520587640506	2.5213478	1.5878752
19.807312221754092	2.5192327	1.5872091
19.825104338170043	2.5094876	1.5841362
19.842896937356517	2.5108535	1.5845673
19.860690019781824	2.4953687	1.5796736
19.87848358591436	2.4637208	1.5696244
19.896277636222635	2.4464333	1.5641078
19.914072171175278	2.471571	1.572123
19.931867191241015	2.4613233	1.5688605
19.94966269688869	2.4446218	1.5635287
19.967458688587264	2.4334965	1.5599668
19.985255166805807	2.4159167	1.5543219
20.00305213201348	2.4158723	1.5543077
20.020849584679578	2.3826857	1.5435951
20.038647525273507	2.3952641	1.547664
20.05644595426477	2.3855362	1.5445181
20.07424487212299	2.4029548	1.5501467
20.092044279317903	2.3933249	1.5470375
20.109844176319353	2.404468	1.5506347
20.127644563597304	2.379443	1.5425442
20.145445441621817	2.3581653	1.5356319
20.16324681086307	2.3481998	1.5323837
20.181048671791373	2.361535	1.5367287
20.198851024877122	2.3628807	1.5371665
20.216653870590836	2.369516	1.5393232
20.234457209403146	2.3823032	1.5434712
20.252261041784802	2.3717837	1.5400597
20.270065368206662	2.4007769	1.5494441
20.287870189139685	2.3844106	1.5441537
20.305675505054968	2.3702116	1.5395491
20.323481316423702	2.343762	1.5309349
20.341287623717207	2.34317	1.5307416
20.359094427406884	2.3620074	1.5368824
20.376901727964288	2.3533714	1.5340703
20.39470952586107	2.3748271	1.5410475
20.41251782156899	2.3625293	1.5370522
20.430326615559935	2.3600283	1.5362383
20.448135908305886	2.323066	1.5241607
20.465945700278965	2.3002315	1.5166514
20.483755991951384	2.3156388	1.5217223
20.50156678379548	2.309804	1.5198039
20.519378076283708	2.276959	1.5089595
20.537189869888635	2.2911289	1.5136476
20.55500216508294	2.3162827	1.5219339
20.572814962339415	2.353427	1.5340883
20.59062826213098	2.341306	1.5301327
20.60844206493066	2.3093507	1.5196548
20.626256371211593	2.295424	1.5150657
20.644071181447032	2.301753	1.5171529
20.66188649611036	2.3263078	1.5252239
20.67970231567506	2.3384302	1.5291927
20.697518640614742	2.3457816	1.5315944
20.715335471403122	2.3222845	1.5239043
20.73315280851404	2.3096983	1.5197692
20.750970652421447	2.2996485	1.5164592
20.768789003599412	2.3108127	1.5201358
20.786607862522136	2.3150616	1.5215327
20.8044272296639	2.3093333	1.519649
20.82224710549913	2.2817392	1.5105428
20.84006749050237	2.2767224	1.5088812
20.857888385148268	3.8261926	1.9560657
20.8757097899116	45.97728	6.780655
20.893531705267254	64.83849	8.052236
20.911354131690224	83.87821	9.1585045
20.92917706965566	69.107025	8.313064
20.94700051963877	50.152332	7.081831
20.96482448211493	29.395622	5.421773
20.982648957559622	4.1186476	2.0294452
21.00047394644843	2.2269661	1.4923023
21.01829944925707	2.2228487	1.4909221
21.036125466461375	2.2136075	1.4878197
21.053951998537297	2.2229435	1.4909539
21.071779045960906	2.2304842	1.4934806
21.089606609208378	2.241151	1.4970474
21.10743468875603	2.2290525	1.4930012
21.12526328508028	2.2105708	1.4867989
21.143092398657675	2.185401	1.4783102
21.16092202996488	2.1692128	1.4728248
21.17875217947867	2.1503778	1.4664166
21.19658284767596	2.1331465	1.4605296
21.21441403503377	2.1299915	1.459449
21.232245742029225	2.1546857	1.4678848
21.2500779691396	2.1685073	1.4725852
21.26791071684227	2.1290226	1.459117
21.28574398561475	2.1371117	1.4618863
21.30357777593465	2.1572165	1.4687465
21.321412088279704	2.1801562	1.4765352
21.339246923127792	2.1656468	1.4716136
21.357082280956888	2.1762288	1.4752047
21.3749181622451	2.161564	1.4702259
21.392754567470647	2.1458778	1.4648815
21.41059149711187	2.1518471	1.4669175
21.42842895164726	2.1411154	1.463255
21.446266931555378	2.12498	1.4577311
21.464105437314945	2.1384597	1.4623473
21.481944469404798	2.1545148	1.4678266
21.49978402830388	2.1542492	1.4677361
21.51762411449127	2.1071637	1.4516072
21.53546472844617	2.0948205	1.4473494
21.553305870647876	2.0928726	1.4466764
21.571147541575865	2.103963	1.4505043
21.58898974170967	2.083291	1.443361
21.60683247152899	2.085577	1.4441527
21.62467573151363	2.0913055	1.4461347
21.642519522143523	2.0804377	1.4423722
21.660363843898722	2.0439956	1.4296838
21.6782086972594	2.0106556	1.4179759
21.696054082705864	2.0109172	1.4180682
21.713900000718535	2.0192506	1.4210033
21.73174645177795	2.0269642	1.4237149
21.749593436364794	2.008804	1.4173229
21.767440954959845	1.9849892	1.4088964
21.785289008044032	1.985494	1.4090756
21.803137596098388	2.018876	1.4208716
21.820986719604086	2.0296397	1.4246542
21.838836379042412	2.0224566	1.4221311
21.85668657489478	1.9963146	1.41291
21.87453730764273	1.9884095	1.4101098
21.892388577767914	1.952985	1.3974924
21.91024038575213	1.9638255	1.4013655
21.928092732077285	1.9653491	1.4019091
21.945945617225426	1.9665303	1.4023303
21.963799041678694	1.9679512	1.4028368
21.981653005919398	31.276987	5.592583
21.999507510429943	78.08777	8.836728
22.01736255569286	73.04512	8.546644
22.035218142190818	4.165852	2.0410419
22.05307427040661	1.9935172	1.4119197
22.07093094082315	2.0008762	1.4145234
22.088788153923474	1.9781913	1.4064819
22.106645910190746	1.9625235	1.400901
22.12450421010827	1.9352002	1.3911147
22.142363054159464	1.96506	1.401806
22.16022244282787	1.9674503	1.4026583
22.178082376597164	1.9478036	1.3956374
22.195942855951145	1.9475029	1.3955296
22.213803881373742	1.9699035	1.4035325
22.231665453349002	1.9708052	1.4038537
22.24952757236111	1.942837	1.3938569
22.26739023889438	1.9325842	1.3901742
22.28525345343323	1.9462309	1.3950738
22.30311721646225	1.9713182	1.4040364
22.320981528466113	1.9525819	1.3973482
22.33884638992964	1.9439372	1.3942515
22.356711801337788	1.9668351	1.402439
22.37457776317561	1.9629611	1.4010571
22.392444275928337	1.9449902	1.394629
22.410311340081282	1.9603052	1.400109
22.428178956119904	1.9736042	1.4048502
22.446047124529805	1.9814762	1.4076492
22.46391584579669	1.9790328	1.406781
22.481785120406414	1.9524827	1.3973126
22.49965494884496	1.9014772	1.3789406
22.51752533159841	1.8711288	1.3678921
22.53539626915302	1.8874136	1.3738317
22.553267761995137	1.9219236	1.3863347
22.571139810611264	1.9288161	1.3888183
22.589012415488025	1.9162464	1.3842856
22.60688557711216	1.9503162	1.3965372
22.624759295970566	1.9899294	1.4106486
22.642633572550263	1.9947102	1.4123421
22.660508407338362	1.9963979	1.4129394
22.67838380082217	2.004929	1.4159552
22.696259753489077	1.992207	1.4114556
22.714136265826614	2.0002906	1.4143163
22.73201333832246	1.9663821	1.4022775
22.74989097146439	1.9513271	1.3968991
22.76776916574035	1.9140283	1.3834841
22.785647921638393	1.9114017	1.3825345
22.803527239646712	1.930366	1.3893762
22.82140712025363	1.9254633	1.3876107
22.839287563947593	1.9051572	1.3802743
22.85716857121719	1.9006342	1.3786349
22.875050142551135	1.9068459	1.380886
22.892932278438277	1.9107177	1.3822871
22.910814979367604	1.8975773	1.3775258
22.928698245828222	1.9351813	1.3911079
22.946582078309387	1.9325006	1.3901441
22.96446647730047	1.9082803	1.3814051
22.98235144329098	1.8724308	1.3683679
23.000236976770562	1.9057412	1.3804859
23.018123078229	1.931556	1.3898042
23.03600974815619	1.9357822	1.3913239
23.053896987042194	1.9306666	1.3894843
23.071784795377173	1.9540465	1.3978721
23.08967317365145	1.9385712	1.3923259
23.10756212235546	1.9249357	1.3874205
23.125451641979787	1.9195803	1.3854892
23.143341733015134	1.9318694	1.389917
23.161232395952357	1.907841	1.3812462
23.179123631282426	1.8971639	1.3773757
23.197015439496468	1.9065981	1.3807962
23.214907821085717	1.9007521	1.3786776
23.23280077654157	1.8535557	1.3614535
23.250694306355538	1.8595223	1.363643
23.268588411019277	1.885547	1.3731523
23.28648309102458	1.9288449	1.3888286
23.304378346863356	1.916857	1.3845061
23.322274179027676	1.9140158	1.3834796
23.340170588009723	1.876917	1.3700062
23.358067574301852	1.82817	1.3520983
23.37596513839651	1.8215327	1.3496417
23.39386328078629	1.8659444	1.3659958
23.411762001963947	1.8842635	1.3726848
23.429661302422353	1.8690443	1.3671299
23.4475611826545	1.8811074	1.3715347
23.46546164315356	1.8847023	1.3728446
23.48336268441279	1.949513	1.3962497
23.501264306925638	1.9581141	1.3993263
23.51916651118564	1.9510207	1.3967894
23.537069297686497	1.9075439	1.3811387
23.554972666922037	1.9103541	1.3821557
23.57287661938623	1.9358625	1.3913528
23.59078115557318	1.9444405	1.394432
23.608686275977128	1.9215764	1.3862094
23.62659198109246	1.906893	1.380903
23.6444982714137	1.8986815	1.3779266
23.66240514743549	1.9066805	1.380826
23.68031260965263	1.9134096	1.3832605
23.698220658560068	1.9380895	1.3921528
23.716129294652845	1.919607	1.3854989
23.7340385184262	1.885158	1.3730105
23.75194833037546	1.8959788	1.3769455
23.769858730996123	1.9356741	1.3912851
23.78776972078382	1.9770474	1.4060752
23.80568130023431	1.9435924	1.3941278
23.823593469843495	1.9010737	1.3787943
23.841506230107424	1.8556443	1.3622204
23.859419581522275	1.8968323	1.3772553
23.87733352458438	1.9277275	1.3884263
23.89524805979019	1.9255526	1.3876429
23.913163187636318	1.8747854	1.369228
23.931078908619508	1.8997003	1.3782961
23.948995223236633	1.9711707	1.4039838
23.966912131984735	2.0128932	1.4187647
23.98482963536096	2.055752	1.4337894
24.002747733862616	2.0893972	1.4454747
24.020666427987155	2.1037152	1.450419
24.038585718232156	2.0574477	1.4343805
24.056505605095353	2.0284693	1.4242435
24.074426089074617	2.0498939	1.431745
24.092347170667946	2.073315	1.439901
24.110268850373515	2.0931225	1.4467628
24.128191128689586	2.1043644	1.4506427
24.146114006114626	2.0444107	1.4298289
24.164037483147187	2.0112224	1.4181757
24.181961560286005	2.0347128	1.4264336
24.199886238029926	2.0989628	1.4487797
24.21781151687797	2.099324	1.4489044
24.235737397329274	2.1114612	1.4530867
24.253663879883135	2.0806255	1.4424374
24.271590965038975	2.0361829	1.4269488
24.289518653296376	2.0356195	1.4267514
24.30744694515505	2.0420265	1.4289949
24.32537584111486	2.0282075	1.4241515
24.34330534167581	1.9925604	1.4115808
24.361235447338046	1.9648991	1.4017485
24.379166158601876	1.9395893	1.3926914
24.39709747596772	1.9724369	1.4044347
24.41502939993615	2.000435	1.4143674
24.432961931007917	1.9983015	1.413613
24.450895069683856	1.9701344	1.4036148
24.468828816465	1.9612156	1.4004341
24.4867631718525	1.9835738	1.4083941
24.504698136347656	1.9839177	1.4085162
24.52263371045192	1.9754554	1.405509
24.540569894666874	1.9196754	1.3855234
24.558506689494266	1.914042	1.383489
24.57644409543597	1.9140977	1.3835092
24.594382112994012	1.9484171	1.3958571
24.61232074267057	1.9554635	1.3983788
24.630259984967953	1.988285	1.4100655
24.64819984038863	2.0148656	1.4194596
24.66614030943522	1.9622877	1.4008168
24.684081392610462	1.9473585	1.3954779
24.702023090417274	1.9678769	1.4028103
24.7199654033587	2.0179877	1.4205589
24.737908331937927	2.02234	1.42209
24.755851876658305	2.0754747	1.4406508
24.773796038023324	2.1144972	1.4541311
24.79174081653661	2.098704	1.4486905
24.809686212701962	2.0976129	1.4483138
24.827632227023294	2.1174173	1.4551349
24.8455788600047	2.1490316	1.4659576
24.8635261121504	2.1803885	1.4766139
24.88147398396475	2.1951215	1.4815942
24.899422475952303	2.1354835	1.4613293
24.917371588617698	2.0840912	1.4436382
24.935321322465768	2.131697	1.4600332
24.953271678001478	2.2311077	1.4936893
24.97122265572994	2.4178598	1.5549469
24.989174256156414	2.76955	1.6641965
25.00712647978632	3.3696668	1.8356652
25.02507932712521	4.4287505	2.1044598
25.043032798678798	5.950884	2.4394433
25.060986894952933	7.647001	2.765321
25.078941616453637	9.102106	3.0169697
25.096896963687055	10.008149	3.1635659
25.114852937159508	10.665374	3.2657883
25.132809537377444	10.475177	3.2365377
25.150766764847468	9.759488	3.124018
25.168724620076347	8.341928	2.8882396
25.186683103570985	7.194735	2.6823003
25.204642215838426	5.8595715	2.4206553
25.222601957385894	4.688101	2.1652021
25.24056232872074	3.5670812	1.8886718
25.25852333035048	2.89934	1.7027448
25.276484962782778	2.4616575	1.568967
25.294447226525435	2.1902149	1.4799374
25.312410122086423	2.0483305	1.431199
25.330373649973843	1.991409	1.4111729
25.348337810695988	1.978908	1.4067366
25.366302604761245	1.9882954	1.4100693
25.384268032678207	1.9717349	1.4041848
25.40223409495558	1.9223762	1.3864979
25.420200792102257	1.8910578	1.3751574
25.438168124627246	1.8924156	1.375651
25.45613609303974	1.8978617	1.377629
25.474104697849057	1.9029648	1.3794799
25.492073939564698	1.8782926	1.3705082
25.510043818696285	1.8671759	1.3664465
25.528014335753614	1.9054881	1.3803942
25.54598549124664	1.9033054	1.3796034
25.56395728568544	1.8622133	1.3646294
25.58192971958028	1.8595827	1.3636651
25.59990279344156	1.8717152	1.3681064
25.617876507779833	1.8998309	1.3783436
25.635850863105826	1.9024769	1.3793031
25.653825859930386	1.8852569	1.3730465
25.671801498764548	1.876773	1.3699536
25.68977778011949	1.8483162	1.359528
25.707754704506524	1.8264569	1.3514647
25.725732272437153	1.8414005	1.3569821
25.743710484423012	1.8150257	1.3472289
25.761689340975888	1.7795295	1.3339901
25.77966884260774	1.7727463	1.3314452
25.797648989830662	1.7998602	1.3415887
25.815629783156922	1.8087776	1.344908
25.83361122309895	1.8518908	1.360842
25.85159331016929	1.8193356	1.3488275
25.869576044880695	1.8130401	1.3464918
25.887559427746034	1.800383	1.3417835
25.90554345927836	1.8014598	1.3421847
25.92352813999086	1.8161358	1.3476409
25.94151347039689	1.7987626	1.3411795
25.959499451009965	1.8232757	1.3502873
25.97748608234374	1.8426348	1.3574369
25.995473364912062	1.8767684	1.369952
26.013461299228904	1.8536791	1.3614988
26.03144988580839	1.8535868	1.361465
26.04943912516483	1.8606343	1.3640507
26.067429017812675	1.8312172	1.3532248
26.085419564266537	1.8358948	1.354952
26.103410765041186	1.8292956	1.3525145
26.12140262065155	1.827464	1.3518373
26.139395131612723	1.8285161	1.3522264
26.157388298439948	1.8451508	1.3583633
26.17538212164861	1.8386562	1.3559706
26.193376601754295	1.8390123	1.3561019
26.211371739272714	1.8381269	1.3557754
26.229367534719746	1.8007195	1.3419089
26.247363988611433	1.8111137	1.3457762
26.26536110146397	1.8473072	1.3591568
26.283358873793727	1.8316003	1.3533663
26.301357306117204	1.8096578	1.3452352
26.319356398951104	1.7976182	1.3407528
26.33735615281224	1.8236753	1.3504353
26.35535656821762	1.8387581	1.3560082
26.373357645684404	1.8453306	1.3584294
26.39135938572991	1.8116627	1.3459802
26.409361788871614	1.7924572	1.3388268
26.427364855627165	1.8023976	1.3425341
26.445368586514352	1.8638523	1.3652297
26.46337298205115	1.8838648	1.3725395
26.48137804275568	1.8698729	1.367433
26.499383769146217	1.8592824	1.3635551
26.517390161741215	1.8248817	1.3508818
26.53539722105928	1.8049114	1.3434699
26.553404947619182	1.8258449	1.3512383
26.571413341939856	1.8769861	1.3700315
26.589422404540397	1.8426178	1.3574306
26.60743213594006	1.7987816	1.3411866
26.62544253665827	1.7817061	1.3348056
26.64345360721459	1.7996585	1.3415135
26.66146534812879	1.8373958	1.3555057
26.679477759920758	1.8531089	1.3612894
26.69749084311057	1.8420169	1.3572092
26.71550459821847	1.8128992	1.3464395
26.733519025764842	1.7793081	1.3339071
26.751534126270258	1.7973055	1.3406363
26.769549900255434	1.7924545	1.3388258
26.787566348241267	1.7885556	1.337369
26.80558347074881	1.7879459	1.3371409
26.823601268299267	1.7963489	1.3402795
26.841619741414036	1.7796733	1.334044
26.85963889061465	1.7385129	1.3185267
26.877658716422832	1.7465572	1.3215737
26.89567921936045	1.8053992	1.3436514
26.913700399949544	1.8487813	1.359699
26.93172225871233	1.8147856	1.3471398
26.949744796171174	1.760626	1.3268858
26.967768012848605	1.7528243	1.3239427
26.98579190926733	1.7590293	1.326284
27.003816485950225	1.7613565	1.3271611
27.021841743420318	1.7942795	1.3395072
27.039867682200814	1.7913811	1.3384249
27.057894302815072	1.796309	1.3402646
27.07592160578664	1.8036224	1.34299
27.0939495916392	1.7960413	1.3401647
27.111978260896635	1.7979472	1.3408755
27.13000761408296	1.840311	1.3565806
27.148037651722397	1.828629	1.3522681
27.166068374339304	1.8219799	1.3498074
27.184099782458215	1.7880498	1.3371798
27.20213187660384	1.7987888	1.3411893
27.22016465730105	1.8260368	1.3513093
27.23819812507487	1.8308175	1.353077
27.256232280450533	1.8359911	1.3549875
27.274267123953383	1.8302181	1.3528556
27.292302656108987	1.7924833	1.3388366
27.31033887744306	1.7643886	1.3283029
27.32837578848146	1.7324152	1.3162124
27.34641338975026	1.7524782	1.323812
27.364451681775673	1.8078741	1.3445721
27.382490665084074	1.8037767	1.3430475
27.400530340202046	1.7908335	1.3382202
27.41857070765629	1.7886493	1.3374039
27.436611767973726	1.7683244	1.3297836
27.454653521681404	1.7509515	1.3232353
27.472695969306564	1.7802244	1.3342506
27.490739111376627	1.844697	1.3581963
27.508782948419153	1.8717252	1.3681101
27.526827480961902	1.85131	1.3606285
27.54487270953279	1.8084687	1.3447932
27.562918634659898	1.8253022	1.3510375
27.580965256871508	1.8335644	1.3540918
27.599012576696026	1.8449725	1.3582976
27.617060594662068	1.8111311	1.3457828
27.63510931129842	1.7627488	1.3276855
27.65315872713401	1.7313387	1.3158034
27.67120884269797	1.8084148	1.3447732
27.68925965851958	1.9034944	1.3796718
27.707311175128307	1.9091927	1.3817354
27.725363393053787	1.9150493	1.3838531
27.74341631282583	1.9223274	1.3864802
27.7614699349744	1.9379276	1.3920947
27.77952426002968	2.137955	1.4621748
27.797579288521973	2.2236373	1.4911865
27.815635020981784	2.615539	1.6172628
27.83369145793979	2.6991308	1.6429032
27.85174859992682	2.574108	1.6044027
27.869806447473923	2.4085536	1.5519515
27.887865001112267	2.0597475	1.435182
27.905924261373233	1.9305723	1.3894503
27.92398422878836	1.9074123	1.381091
27.94204490388936	1.8607708	1.3641007
27.96010628720813	1.8267214	1.3515626
27.978168379276728	1.8187592	1.3486139
27.9962311806274	1.8164282	1.3477494
28.014294691792568	1.8313758	1.3532834
28.0323589133048	1.8366475	1.3552297
28.050423845696887	1.8333209	1.3540018
28.068489489501758	1.822718	1.3500807
28.086555845252523	1.8205906	1.3492926
28.104622913482487	1.8406159	1.356693
28.122690694725115	1.8681954	1.3668195
28.14075918951405	1.8956143	1.376813
28.15882839838312	1.9409287	1.3931721
28.176898321866304	1.955431	1.3983673
28.1949689604978	1.9337926	1.3906087
28.213040314811945	1.9295722	1.3890904
28.23111238534327	1.950265	1.396519
28.249185172626493	1.905781	1.3805003
28.267258677196473	1.8420109	1.3572071
28.285332899588294	1.8646404	1.3655183
28.303407840337172	1.925565	1.3876473
28.321483499978545	1.922608	1.3865814
28.33955987904799	1.9230535	1.386742
28.357636978081285	1.9337465	1.3905921
28.37571479761439	1.964663	1.4016644
28.393793338183425	1.9497508	1.3963348
28.41187260032469	1.9688462	1.4031558
28.429952584574686	1.9740193	1.404998
28.448033291470065	1.9705606	1.4037665
28.46611472154769	1.9983401	1.4136266
28.484196875344566	2.0504453	1.4319376
28.502279753397914	2.0553634	1.4336538
28.52036335624511	2.0388532	1.4278841
28.538447684423716	2.0141478	1.4192067
28.556532738471482	2.0355203	1.4267166
28.574618518926325	2.0380993	1.4276202
28.59270502632635	2.0507047	1.4320282
28.61079226120985	2.0155907	1.419715
28.628880224115274	2.0277834	1.4240026
28.646968915581287	2.026987	1.423723
28.66505833614671	2.0764306	1.4409825
28.68314848635055	2.0831745	1.4433206
28.701239366732004	2.050842	1.4320761
28.71933097783044	2.0913694	1.4461567
28.737423320185403	2.0970442	1.4481175
28.75551639433665	2.0731702	1.4398508
28.773610200824074	2.1195617	1.4558715
28.791704740187793	2.1627867	1.4706416
28.80980001296809	2.1744263	1.4745936
28.827896019705413	2.1982205	1.4826397
28.845992760940433	2.2078364	1.485879
28.86409023721397	2.187207	1.4789209
28.88218844906704	2.2024903	1.484079
28.900287397040845	2.2225633	1.4908264
28.918387081676755	2.2731266	1.5076891
28.936487503516343	2.3429909	1.5306832
28.954588663101365	2.2665706	1.5055134
28.97269056097374	2.2259638	1.4919665
28.990793197675597	2.3147402	1.521427
29.00889657374923	2.3990383	1.548883
29.027000689737125	2.4550974	1.5668751
29.04510554618196	2.444109	1.5633646
29.06321114362659	2.433547	1.559983
29.08131748261405	2.4717302	1.5721737
29.099424563687567	2.4735003	1.5727365
29.11753238739057	2.472293	1.5723526
29.13564095426663	2.4999418	1.5811205
29.15375026485954	2.5724976	1.6039008
29.171860319713275	2.6654568	1.6326227
29.18997111937199	2.6494138	1.627702
29.20808266438002	2.6413913	1.6252358
29.226194955281898	2.7060356	1.6450032
29.244307992622335	2.8038728	1.6744769
29.26242177694624	2.8353956	1.6838633
29.2805363087987	2.9089646	1.7055687
29.29865158872498	2.9665563	1.7223694
29.316767617270557	2.978518	1.7258383
29.334884394981064	3.0300035	1.7406906
29.353001922402367	3.0657022	1.7509147
29.37112020008047	3.0579464	1.7486985
29.389239228561596	3.125641	1.7679483
29.407359008392152	3.3437293	1.8285867
29.42547954011872	3.6847157	1.9195614
29.44360082428809	4.1570563	2.038886
29.46172286144722	4.9516296	2.2252257
29.479845652143283	6.4877977	2.5471156
29.497969196923606	9.193432	3.0320673
29.516093496335728	13.035701	3.6104987
29.5342185509274	16.758728	4.0937424
29.55234436124651	20.088362	4.482004
29.570470927841175	21.483736	4.635055
29.588598251259686	21.076088	4.59087
29.60672633205055	19.353592	4.399272
29.624855170762405	16.310553	4.0386324
29.642984767944146	12.951551	3.5988264
29.66111512414481	9.630371	3.103284
29.67924623991366	7.0118537	2.6479905
29.697378115800138	5.088127	2.2556877
29.71551075235387	4.2112455	2.052132
29.733644150124675	3.7669466	1.9408623
29.751778309662576	3.540331	1.8815767
29.769913231517766	3.4713838	1.863165
29.78804891624066	3.4418957	1.8552346
29.806185364381818	3.4071395	1.8458439
29.82432257649206	3.3385668	1.8271745
29.842460553122333	3.3755786	1.8372748
29.86059929482382	3.3405974	1.8277302
29.878738802147872	3.3038628	1.8176531
29.896879075646048	3.3552568	1.831736
29.915020115870114	3.3108523	1.8195747
29.933161923371976	3.2740352	1.8094295
29.951304498703777	3.2451181	1.8014212
29.969447842417857	3.270028	1.808322
29.987591955066733	3.2465136	1.8018085
30.005736837203123	3.2240157	1.7955544
30.023882489379943	3.213541	1.7926352
30.04202891215028	3.188322	1.7855873
30.060176106067455	3.1977499	1.7882253
30.078324071684946	3.197992	1.7882931
30.09647280955646	3.226422	1.7962244
30.114622320235863	3.2079465	1.7910742
30.132772604277257	3.1525548	1.7755435
30.1509236622349	3.0929132	1.758668
30.16907549466328	3.0895875	1.7577223
30.18722810211705	3.0927541	1.7586228
30.205381485151097	3.0871575	1.7570308
30.22353564432045	3.0446463	1.7448915
30.241690580180403	3.009408	1.7347646
30.25984629328638	3.0207691	1.738036
30.278002784194037	3.0014176	1.73246
30.296160053459246	3.0234036	1.7387937
30.314318101638033	3.0748231	1.7535174
30.332476929286646	3.052396	1.7471107
30.35063653696153	2.9638965	1.7215971
30.368796925219307	2.910179	1.7059246
30.386958094616844	2.9907832	1.7293881
30.40512004571115	2.9499907	1.7175537
30.423282779059463	2.925455	1.7103962
30.441446295219233	2.8983328	1.7024491
30.459610594748067	2.8418536	1.6857798
30.47777567820382	2.8975217	1.7022108
30.495941546144504	2.8679566	1.6935042
30.51410819912835	2.8375893	1.6845145
30.532275637713795	2.8667035	1.6931342
30.55044386245946	2.8836458	1.6981301
30.56861287392416	2.8448615	1.6866717
30.586782672666956	2.8731687	1.6950424
30.604953259247047	2.8886552	1.6996044
30.623124634223885	2.8780787	1.6964902
30.641296798157075	2.87171	1.694612
30.659469751606462	2.8369315	1.6843193
30.677643495132074	2.778075	1.6667558
30.695818029294152	2.6712492	1.6343956
30.713993354653116	2.6961017	1.641981
30.73216947176962	2.7546957	1.6597276
30.75034638120448	2.772972	1.6652243
30.768524083518756	2.7456546	1.6570017
30.786702579273673	2.809079	1.6760308
30.80488186903069	2.9355583	1.7133471
30.82306195335144	3.106805	1.7626132
30.841242832797782	3.3260555	1.8237476
30.85942450793176	3.6639273	1.9141388
30.877606979315637	4.0337324	2.0084155
30.895790247511883	4.4260426	2.1038163
30.913974313083134	4.841224	2.2002783
30.932159176592283	5.2555385	2.2924962
30.95034483860237	5.459895	2.3366418
30.968531299676698	5.515649	2.3485417
30.98671856037873	5.3375587	2.3103156
31.00490662127215	5.0041194	2.236989
31.023095482920848	4.538374	2.130346
31.04128514588892	3.8841379	1.9708216
31.059475610740662	3.2600574	1.805563
31.07766687804056	2.8769011	1.696143
31.09585894835335	2.700493	1.6433177
31.11405182224393	2.5517838	1.5974303
31.132245500277417	2.5417252	1.5942789
31.15043998301914	2.4671273	1.5707092
31.168635271034628	2.4375925	1.5612792
31.18683136488964	2.4638088	1.5696524
31.20502826515008	2.5098424	1.5842482
31.223225972382135	2.3808975	1.5430157
31.241424487152155	2.3308835	1.5267231
31.259623810026692	2.3734226	1.5405916
31.27782394157253	2.3768005	1.5416876
31.296024882356644	2.3760257	1.5414362
31.314226632946237	2.3739915	1.5407763
31.332429193908684	2.4061568	1.5511792
31.350632565811598	2.3857198	1.5445776
31.368836749222787	2.404925	1.5507821
31.387041744710295	2.4528215	1.5661486
31.40524755284232	2.526216	1.5894074
31.423454174187317	2.586817	1.6083585
31.441661609313922	2.622285	1.6193471
31.459869858791002	2.6081567	1.6149788
31.478078923187628	2.5173345	1.586611
31.496288803073064	2.4607298	1.5686713
31.514499499016807	2.4053855	1.5509305
31.532711011588546	2.372562	1.5403123
31.550923341358178	2.3309698	1.5267514
31.56913648889584	2.3261077	1.5251583
31.587350454771844	2.333131	1.527459
31.605565239556732	2.3891327	1.545682
31.62378084382127	2.4061081	1.5511634
31.641997268136382	2.3444674	1.5311654
31.660214513073274	2.3783443	1.5421882
31.67843257920331	2.4281757	1.5582604
31.6966514670981	2.4028323	1.5501071
31.71487117732944	2.3349645	1.5280591
31.733091710469346	2.2824569	1.5107802
31.751313067090052	2.2138119	1.4878883
31.769535247764008	2.1898823	1.4798251
31.787758253063878	2.1638277	1.4709954
31.805982083562526	2.2352016	1.495059
31.824206739833024	2.2323928	1.4941194
31.84243222244869	2.2755873	1.508505
31.860658531983013	2.231698	1.493887
31.878885669009737	2.2836125	1.5111626
31.897113634102784	2.3863876	1.5447937
31.91534242783632	2.3975906	1.5484155
31.933572050784694	2.3511643	1.5333507
31.951802503522508	2.2754672	1.5084652
31.970033786624548	2.1636999	1.470952
31.988265900665834	2.1088529	1.452189
32.006498846221575	2.136769	1.4617691
32.02473262386724	2.1820576	1.4771789
32.04296723417845	2.2022245	1.4839894
32.0612026777311	2.2218237	1.4905783
32.07943895510129	2.237958	1.4959806
32.097676066865304	2.1967888	1.4821568
32.115914013599685	2.1268535	1.4583735
32.13415279588115	2.1016207	1.4496968
32.152392414286666	2.1012897	1.4495826
32.1706328693934	2.1177294	1.455242
32.18887416177875	2.1943264	1.4813259
32.20711629202032	2.237799	1.4959275
32.225359260695924	2.2086549	1.4861544
32.243603068383614	2.1975987	1.48243
32.26184771566166	2.288998	1.5129435
32.28009320310852	2.2717304	1.5072261
32.2983395313029	2.254307	1.501435
32.31658670082372	2.1915495	1.4803883
32.33483471225012	2.167996	1.4724116
32.35308356616143	2.0955	1.4475842
32.371333263137245	2.0542386	1.4332615
32.38958380375734	2.0385115	1.4277645
32.407835188601744	2.0939043	1.4470329
32.42608741825067	2.044896	1.4299985
32.444340493284585	2.0035467	1.4154669
32.46259441428416	2.0431013	1.429371
32.48084918183028	2.057684	1.4344629
32.49910479650405	2.0060406	1.4163476
32.51736125888683	2.040992	1.428633
32.53561856956014	2.025655	1.4232551
32.5538767291058	1.9514816	1.3969544
32.572135738105764	2.02088	1.4215766
32.59039559714228	2.100355	1.4492601
32.608656306797776	2.0846643	1.4438367
32.62691786765491	2.057152	1.4342775
32.645180280296586	2.0628052	1.4362469
32.663443545305896	2.036646	1.427111
32.68170766326619	2.0241904	1.4227405
32.69997263476099	2.0262074	1.4234492
32.7182384603741	2.0168376	1.4201541
32.7365051406895	2.075718	1.4407352
32.75477267629144	2.1208475	1.456313
32.77304106776434	2.0911682	1.4460872
32.79131031569289	2.0829403	1.4432396
32.809580420661966	2.0317543	1.4253962
32.827851383256714	1.9867572	1.4095237
32.84612320406245	1.9672855	1.4025996
32.86439588366476	1.9830673	1.4082142
32.88266942264945	2.0212822	1.421718
32.9009438216025	2.0007253	1.41447
32.9192190811102	2.0454645	1.4301974
32.937495201758985	2.0799296	1.4421961
32.95577218413556	2.0478148	1.4310188
32.974050028826866	1.8785588	1.3706052
32.992328736420035	1.8091403	1.3450428
33.010608307502444	1.927613	1.388385
33.02888874266169	2.0916386	1.4462498
33.047170042485604	2.1262932	1.4581815
33.06545220756225	2.0477526	1.430997
33.083735238479896	1.9089193	1.3816365
33.10201913582707	1.8702908	1.3675858
33.12030390019248	1.9153999	1.3839797
33.138589532165135	1.9346523	1.3909178
33.15687603233419	1.909337	1.3817877
33.17516340128909	1.9109808	1.3823823
33.19345163961947	1.9559447	1.3985509
33.211740747915215	2.00593	1.4163085
33.23003072676643	2.0420535	1.4290043
33.248321576763466	2.0266216	1.4235946
33.266613298496885	1.962436	1.4008697
33.28490589255747	1.9225754	1.3865696
33.30319935953626	1.9511484	1.3968351
33.32149370002451	1.9717412	1.4041871
33.339788914613706	2.0649567	1.4369957
33.358085003895575	2.1713047	1.4735348
33.376381968462034	2.1029282	1.4501476
33.39467980890529	1.9584603	1.3994501
33.41297852581774	1.8898499	1.3747181
33.43127811979204	1.8700309	1.3674908
33.44957859142105	1.8916118	1.3753588
33.467879941297866	1.9126465	1.3829846
33.486182170015844	1.9696525	1.4034431
33.50448527816853	1.9240062	1.3870856
33.522789266349754	1.908518	1.3814912
33.541094135153514	1.917251	1.3846483
33.55939988517411	1.9256185	1.3876666
33.57770651700602	1.9297035	1.3891376
33.59601403124398	1.9309983	1.3896036
33.61432242848296	1.9370512	1.3917799
33.632631709318154	1.915054	1.3838547
33.650941874344994	1.8739575	1.3689257
33.66925292415916	1.9016764	1.3790128
33.68756485935654	1.8672088	1.3664585
33.70587768053328	1.8934022	1.3760096
33.724191388285746	1.8990779	1.3780704
33.74250598321054	1.9130019	1.3831131
33.760821465904506	1.907324	1.381059
33.77913783696474	1.9577901	1.3992106
33.79745509698852	1.9328687	1.3902764
33.815773246573414	1.8164232	1.3477474
33.8340922863172	1.8116734	1.3459842
33.852412216817896	1.8977447	1.3775865
33.87073303867377	1.8888286	1.3743466
33.889054752483304	1.8335428	1.3540838
33.907377358845245	1.8534032	1.3613975
33.92570085835853	2.0018833	1.4148792
33.94402525162239	2.0430162	1.4293412
33.96235053923627	2.0161455	1.4199104
33.980676721799824	2.0226276	1.4221911
33.999003799912984	1.9778379	1.4063562
34.01733177417592	1.9092715	1.3817639
34.03566064518901	1.8474232	1.3591995
34.0539904135529	1.8527625	1.3611622
34.07232107986846	1.9656559	1.4020185
34.090652644736785	2.1145644	1.4541543
34.108985108759235	2.1526678	1.4671973
34.12731847253742	1.970962	1.4039096
34.14565273667313	1.8125256	1.3463007
34.16398790176847	1.7825228	1.3351115
34.18232396842574	1.833772	1.3541684
34.20066093724749	1.8966383	1.3771849
34.21899880883651	1.9902837	1.4107741
34.23733758379583	2.031627	1.4253515
34.25567726272874	1.9868289	1.4095492
34.27401784623872	2.0395417	1.4281253
34.29235933492957	2.03169	1.4253736
34.31070172940526	2.09214	1.4464232
34.32904503027003	2.1164682	1.4548086
34.347389238128386	1.9749464	1.4053278
34.36573435358502	1.7123137	1.308554
34.38408037724492	1.6840324	1.2977028
34.402427309713296	1.7229414	1.3126086
34.42077515159559	1.7097414	1.3075708
34.43912390349752	1.7604494	1.3268193
34.45747356602499	1.9188312	1.3852189
34.47582413978423	1.9771397	1.406108
34.49417562538163	1.9514278	1.3969351
34.51252802342388	2.0292826	1.4245288
34.53088133451789	2.064208	1.4367352
34.54923555927084	1.9230552	1.3867426
34.567590698290104	1.8473248	1.3591633
34.58594675218336	2.0184002	1.4207041
34.6043037215585	2.0475113	1.4309127
34.62266160702365	2.0282059	1.424151
34.641020409187234	1.96463	1.4016526
34.65938012865785	1.973645	1.4048648
34.677740766044394	2.0993621	1.4489176
34.69610232195598	2.1185043	1.4555082
34.714464797002016	2.088108	1.4450288
34.73282819179208	2.0156374	1.4197315
34.751192506936064	1.8712708	1.367944
34.76955774304408	1.7999699	1.3416296
34.7879239007265	1.7869256	1.3367593
34.80629098059391	1.7611345	1.3270774
34.824658983257194	1.8686302	1.3669785
34.843027909327446	1.9761341	1.4057504
34.86139775941603	2.0189629	1.4209021
34.879768534134534	2.0272715	1.4238229
34.89814023409483	1.8706186	1.3677056
34.91651285990901	1.7549245	1.3247356
34.93488641218944	1.8050781	1.343532
34.95326089154871	1.7769349	1.3330172
34.97163629859967	1.7639896	1.3281527
34.99001263395542	1.780473	1.3343437
35.00838989822934	1.8633494	1.3650455
35.02676809203499	1.9928914	1.4116981
35.04514721598624	2.0595677	1.4351194
35.063527270697215	2.20714	1.4856446
35.081908256782256	2.0729108	1.4397607
35.10029017485597	1.9050223	1.3802254
35.11867302553321	1.8182714	1.3484329
35.137056809429104	1.6843077	1.2978088
35.155441527159006	1.6293747	1.2764696
35.173827179338524	1.7790856	1.3338237
35.19221376658354	1.9361186	1.3914448
35.21060128951017	1.935071	1.3910683
35.2289897487348	1.7839253	1.3356366
35.24737914487405	2.0156422	1.4197332
35.26576947854479	2.2641296	1.5047024
35.28416075036418	2.2831926	1.5110238
35.30255296094958	2.2598186	1.5032693
35.32094611091867	2.3020494	1.5172507
35.33934020088932	2.2615824	1.5038558
35.35773523147969	2.194586	1.4814135
35.3761312033082	2.1801772	1.4765424
35.394528116993506	2.0953636	1.4475371
35.41292597315452	2.2772741	1.509064
35.431324772410434	2.4012973	1.549612
35.449724515380666	2.1326592	1.4603627
35.46812520268491	2.3259737	1.5251143
35.486526834943106	2.3598628	1.5361845
35.504929412775454	2.0714312	1.4392468
35.52333293680242	1.7600315	1.3266618
35.54173740764471	1.4317815	1.1965708
35.560142825923286	1.3270868	1.1519926
35.5785491922594	1.1009009	1.0492382
35.59695650727454	1.2250755	1.1068313
35.61536477159042	1.3578206	1.1652557
