0.008763373481513119	0.3822274	0.6182454
0.026290120649546365	0.3681276	0.6067352
0.043816868432600686	0.25180787	0.5018046
0.06134361724069026	0.09818891	0.3133511
0.07887036748382949	0.038731266	0.1968026
0.0963971195720331	0.0808056	0.28426325
0.11392387391531617	0.11502786	0.33915758
0.1314506309236943	0.13898934	0.37281275
0.1489773910071836	0.11249228	0.33539867
0.16650415457580078	0.08394268	0.28972864
0.18403092203956356	0.13173957	0.36295947
0.20155769380849	0.17560564	0.41905326
0.2190844702925996	0.18953346	0.4353544
0.2366112519019124	0.17228492	0.41507217
0.2541380390464497	0.095842846	0.30958495
0.27166483213623416	0.11217552	0.33492613
0.28919163158128947	0.12586449	0.35477385
0.3067184377916406	0.1832898	0.42812356
0.324245251177314	0.20087986	0.44819623
0.34177207214833777	0.20808479	0.4561631
0.3592989011147415	0.19997732	0.44718823
0.37682573848655654	0.16521789	0.40647003
0.39435258467381573	0.12393931	0.35205016
0.41187944008655414	0.09256157	0.30423933
0.42940630513480854	0.11267497	0.33567092
0.446933180228618	0.116525605	0.34135848
0.4644600657780234	0.15700254	0.39623547
0.48198696219306775	0.18883206	0.4345481
0.49951386988379676	0.18694009	0.4323657
0.5170407892602581	0.20018879	0.44742462
0.5345677207325025	0.16143912	0.40179488
0.5520946647105822	0.16230646	0.40287277
0.5696216216045534	0.18180287	0.42638347
0.5871485918244737	0.17112367	0.41367096
0.6046755757804043	0.18442869	0.4294516
0.6222025738824094	0.20275569	0.450284
0.6397295865405557	0.20832245	0.45642355
0.6572566141649129	0.18789425	0.43346772
0.6747836571655547	0.18233183	0.42700332
0.6923107159525568	0.16198376	0.40247205
0.7098377909359992	0.16153325	0.401912
0.7273648825259653	0.16600646	0.4074389
0.7448919911325411	0.16430812	0.40534937
0.762419117165817	0.1713609	0.4139576
0.7799462610358868	0.16688785	0.4085191
0.7974734231528482	0.18150452	0.42603347
0.8150006039268024	0.1987395	0.4458021
0.8325278037678551	0.17698185	0.42069212
0.8500550230861152	0.18810667	0.43371266
0.8675822622916969	0.19454382	0.4410712
0.8851095217947171	0.21649012	0.46528497
0.9026368020052984	0.20732592	0.45533055
0.9201641033335665	0.2126622	0.46115312
0.9376914261896523	0.23439613	0.48414475
0.9552187709836915	0.27097905	0.52055645
0.9727461381258234	0.30112377	0.5487475
0.990273528026193	0.2678725	0.517564
1.0078009410949496	0.25366804	0.50365466
1.0253283777422473	0.23392305	0.48365593
1.0428558383782454	0.24796577	0.4979616
1.0603833234131086	0.26711842	0.51683503
1.0779108332570058	0.32831585	0.5729885
1.0954383683201119	0.31579375	0.5619553
1.112965929012607	0.3449813	0.5873511
1.1304935157446763	0.51124513	0.7150141
1.1480211289265108	0.5598809	0.7482519
1.1655487689683062	1.4462154	1.202587
1.1830764362802655	1.7062321	1.3062282
1.200604131272596	2.1296206	1.459322
1.2181318543555117	2.4264088	1.5576934
1.235659605939232	2.5132897	1.5853359
1.253187386433982	4.1317573	2.0326724
1.270715196249994	6.519673	2.553365
1.2882430357975057	12.090524	3.477143
1.3057709054867608	16.835236	4.1030765
1.3232988057280106	22.620352	4.756086
1.3408267369315112	27.59872	5.2534485
1.358354699507526	31.096695	5.5764413
1.3758826938663256	35.08265	5.923061
1.3934107204181858	36.969955	6.080292
1.410938779573391	37.59481	6.1314607
1.4284668717422309	38.4345	6.1995564
1.4459949973350033	38.10301	6.1727633
1.4635231567620117	37.928112	6.1585803
1.4810513504335687	36.921295	6.0762897
1.4985795787599925	36.18586	6.0154686
1.5161078421516088	35.426643	5.9520283
1.5336361410187505	34.56919	5.879557
1.5511644757717598	34.667187	5.8878846
1.5686928468209842	35.27098	5.9389377
1.58622125457678	35.63443	5.969458
1.6037496994495108	36.85912	6.0711713
1.621278181849548	36.899426	6.0744896
1.6388067021872719	38.11343	6.1736073
1.6563352608730693	37.402813	6.1157837
1.673863858317336	36.197952	6.0164733
1.6913924949304753	35.511276	5.9591336
1.7089211711228998	34.511116	5.874616
1.7264498873050296	33.859734	5.8189116
1.7439786438872935	32.96712	5.7417
1.7615074412801288	31.999624	5.6568213
1.779036279893981	31.578941	5.6195145
1.796565160139305	30.612986	5.5329003
1.814094082426564	29.99521	5.4767885
1.8316230471662298	29.299276	5.4128804
1.849152054768784	28.649921	5.352562
1.8666811056447168	28.119537	5.302786
1.8842102002045273	27.47916	5.242057
1.901739338858724	27.074776	5.203343
1.9192685220178245	26.310947	5.12942
1.9367977500923557	25.325283	5.032423
1.9543270234928547	24.819021	4.981869
1.971856342629867	24.517693	4.9515343
1.9893857079139496	24.094313	4.9085956
2.006915119755667	23.578045	4.855723
2.0244445785655945	22.721607	4.766719
2.0419740847543175	22.170767	4.7085843
2.0595036387324317	21.639631	4.6518416
2.0770332409105414	21.294403	4.614586
2.094562891699263	20.659666	4.5452905
2.1120925915092217	20.093077	4.48253
2.129622340751053	19.61626	4.4290247
2.1471521398354043	187.96648	13.710087
2.1646819891729323	444.501	21.083193
2.182211889174303	440.77316	20.994598
2.1997418402501974	453.13474	21.286963
2.2172718428113023	432.82147	20.804361
2.234801897268317	320.69678	17.908009
2.2523320040319548	17.146515	4.1408353
2.269862163512935	16.823025	4.1015882
2.287392376121992	16.529848	4.0656915
2.304922642269869	16.420197	4.052184
2.322452962367322	16.298592	4.0371513
2.3399833368251164	16.015423	4.0019274
2.357513766054032	15.606811	3.9505455
2.3750442504648586	15.395956	3.923768
2.3925747904683963	15.150918	3.892418
2.410105386475459	14.950648	3.8666067
2.4276360388968707	14.341613	3.7870321
2.445166748143469	13.93592	3.7330844
2.4626975146261025	13.538989	3.6795366
2.4802283387556323	13.35476	3.6544166
2.4977592209429305	13.261887	3.6416874
2.5152901615988825	13.069946	3.615238
2.5328211611343865	12.8781395	3.5886126
2.5503522199603523	12.733901	3.5684593
2.5678833384877024	12.65926	3.5579853
2.5854145171273712	12.499558	3.5354714
2.6029457562903064	12.280301	3.504326
2.620477056387469	12.068852	3.4740255
2.6380084178298326	11.903203	3.4501019
2.655539841028383	11.786916	3.4332078
2.673071326394119	11.453379	3.384284
2.6906028743380523	11.182686	3.3440523
2.708134485271211	10.948253	3.3088143
2.7256661596046325	10.904569	3.3022068
2.743197897749369	10.773637	3.282322
2.760729700116486	10.592893	3.2546725
2.778261567117063	10.434509	3.2302492
2.795793499162193	10.268992	3.204527
2.8133254966629817	9.9781885	3.158827
2.830857560030551	9.678772	3.1110725
2.8483896896760337	9.311993	3.0515559
2.865921886010578	9.217291	3.035999
2.883454149445347	9.309133	3.0510871
2.9009864803915177	9.435936	3.071797
2.91851887926028	9.35223	3.0581417
2.9360513464628384	9.2238035	3.0370715
2.953583882410413	9.035085	3.0058417
2.9711164875142373	8.844811	2.9740229
2.9886491621855606	8.7708845	2.9615679
3.0061819068356455	8.642026	2.9397323
3.023714721875769	8.600242	2.932617
3.041247607717225	8.555212	2.9249294
3.0587805647713213	8.469073	2.9101672
3.0763135934493806	8.336916	2.8873718
3.0938466941627407	8.137322	2.8525991
3.1113798673227544	7.993412	2.8272624
3.1289131133407904	7.86285	2.8040774
3.1464464326282315	7.729176	2.7801397
3.1639798255964786	7.620602	2.7605438
3.1815132926569443	7.510702	2.740566
3.1990468342210603	7.5686107	2.7511108
3.216580450700272	7.5561886	2.7488523
3.2341141425060416	7.5351505	2.7450228
3.251647910049847	7.3592896	2.712801
3.2691817537431813	7.1817336	2.6798756
3.286715673997555	7.076943	2.6602523
3.3042496712244938	7.034223	2.652211
3.32178374583554	7.021064	2.649729
3.339317898242251	6.949415	2.6361744
3.3568521288562034	7.000885	2.6459186
3.3743864380889876	6.9552445	2.6372797
3.3919208263522127	6.8992033	2.6266334
3.4094552940575023	6.798977	2.6074848
3.4269898416164972	6.737598	2.5956883
3.444524469440858	6.695234	2.5875149
3.4620591779422587	6.6501846	2.5787952
3.479593967532391	6.5117307	2.5518093
3.4971288386229658	6.4199114	2.5337543
3.5146637916257086	6.494961	2.5485213
3.5321988269523628	6.4548573	2.540641
3.5497339450146903	6.3329763	2.5165405
3.5672691462244708	6.2528625	2.5005724
3.5848044309934988	6.2437944	2.4987586
3.60233979973359	6.2718296	2.504362
3.619875252856575	6.3038373	2.5107443
3.6374107907743034	6.349489	2.5198193
3.6549464138986427	6.3314505	2.5162373
3.6724821226414788	6.332978	2.5165408
3.690017917414714	6.193239	2.488622
3.7075537986302702	6.1961308	2.4892027
3.7250897667000857	6.362065	2.5223134
3.7426258220361235	6.5724335	2.5636759
3.7601619650503553	6.9316306	2.632799
3.777698196154779	7.4086285	2.7218795
3.7952345157614067	8.399566	2.8982005
3.8127709242822716	9.208528	3.0345557
3.830307422129425	11.352927	3.3694105
3.847844009714936	30.121525	5.488308
3.8653806874508954	97.5689	9.877697
3.882917455749409	96.72958	9.83512
3.900454315022606	96.63147	9.830131
3.917991265682631	41.267887	6.424009
3.9355283081416506	11.002071	3.316937
3.9530654428118495	8.739143	2.9562042
3.970602670105433	7.5685034	2.7510912
3.9881399904346244	6.718508	2.5920084
4.005677404211669	6.6180067	2.5725486
4.023214911848827	6.4861283	2.5467877
4.0407525137583855	6.3856187	2.5269783
4.058290210352644	6.4795465	2.5454953
4.075828002043927	6.4360714	2.5369413
4.0933658892445814	6.347536	2.5194316
4.110903872366966	6.2185974	2.4937115
4.128441951823468	6.158775	2.481688
4.145980128026488	6.1615334	2.4822435
4.163518401388452	6.2259216	2.4951797
4.181056772321807	6.1289406	2.4756696
4.1985952412390155	6.2183895	2.49367
4.216133808552567	6.2095294	2.4918928
4.233672474674966	6.2751102	2.505017
4.251211240018741	6.4360094	2.5369291
4.268750104996445	6.6295505	2.5747914
4.286289070020643	7.6594205	2.7675657
4.303828135503928	9.309586	3.0511613
4.3213673018589125	29.509499	5.432265
4.3389065694982305	90.58055	9.517382
4.356445938834537	165.88354	12.879579
4.3739854102805085	171.89778	13.110979
4.391524984248844	172.89336	13.148891
4.409064661152262	136.86115	11.698767
4.426604441403504	97.02548	9.850151
4.444144325415337	76.05887	8.721173
4.461684313600543	22.270882	4.7192035
4.47922440637193	22.550072	4.7486916
4.496764604142329	20.61427	4.540294
4.5143049073245916	18.705282	4.32496
4.531845316331589	16.632044	4.0782404
4.5493858315762195	13.908055	3.7293506
4.566926453471405	11.585333	3.4037235
4.584467182430081	9.595373	3.09764
4.602008018865218	8.437014	2.9046538
4.619548963189798	7.730561	2.7803886
4.637090015816834	7.1266046	2.6695702
4.654631177159353	6.7371683	2.5956056
4.672172447630417	6.4623895	2.542123
4.689713827643102	6.3101277	2.5119967
4.7072553176105085	6.0799174	2.4657488
4.724796917945764	5.9267654	2.434495
4.742338629062015	5.8938212	2.4277194
4.759880451372434	5.86293	2.4213488
4.777422385290215	5.859215	2.4205816
4.794964431228581	5.879427	2.424753
4.812506589600768	5.9146934	2.4320142
4.830048860820047	5.850681	2.418818
4.847591245299709	5.702048	2.387896
4.8651337434530655	5.519086	2.3492734
4.882676355693457	5.41628	2.3272903
4.900219082434242	5.488634	2.3427835
4.917761924088813	5.513459	2.3480756
4.935304881070575	5.5315347	2.3519216
4.952847953792969	5.479114	2.3407507
4.970391142669449	5.513271	2.3480356
4.9879344481135055	5.5991426	2.3662508
5.005477870538642	5.601282	2.3667028
5.023021410358394	5.5352693	2.3527153
5.040565067986324	5.50369	2.3459945
5.05810884383601	5.442112	2.3328335
5.075652738321066	5.4894595	2.3429596
5.09319675185512	5.4347353	2.3312519
5.110740884851836	5.440472	2.3324819
5.128285137724894	5.4304457	2.3303316
5.145829510888007	5.4301534	2.3302689
5.163374004754908	5.4434214	2.3331141
5.1809186197393595	5.4887385	2.3428056
5.198463356255145	5.4862733	2.3422794
5.216008214716077	5.418219	2.3277068
5.233553195535998	5.3661313	2.3164911
5.251098299128764	5.3898997	2.3216157
5.268643525908272	5.3770685	2.3188508
5.286188876288432	5.342628	2.3114126
5.3037343506831895	5.2886176	2.2996995
5.32127994950651	5.2494	2.291157
5.3388256731723915	5.2256656	2.2859714
5.356371522094851	5.208382	2.282188
5.373917496687938	5.248451	2.2909498
5.391463597365729	5.2713056	2.2959323
5.40900982454232	5.248132	2.2908802
5.426556178631843	5.2367854	2.2884023
5.444102660048449	5.2707806	2.295818
5.4616492692063225	5.283805	2.298653
5.479196006519669	5.232646	2.2874978
5.496742872402727	5.1670465	2.2731137
5.514289867269756	5.1985116	2.2800245
5.531836991535049	5.2518334	2.291688
5.549384245612924	5.332383	2.3091953
5.566931629917724	5.332418	2.309203
5.584479144863822	5.317651	2.306003
5.6020267908656205	5.20765	2.2820277
5.619574568337545	5.1945124	2.2791474
5.637122477694054	5.174928	2.2748468
5.654670519349629	5.1872864	2.2775614
5.672218693718784	5.157726	2.2710626
5.689767001216059	5.0941467	2.2570217
5.707315442256021	5.0613875	2.2497528
5.724864017253266	5.1073623	2.2599473
5.7424127266224225	5.14936	2.26922
5.75996157077814	5.146978	2.268695
5.777510550135105	5.157854	2.271091
5.795059665108022	5.1301565	2.2649848
5.812608916111639	5.176901	2.2752805
5.830158303560715	5.4111857	2.3261955
5.847707827870055	5.4689	2.338568
5.86525748945448	5.4851193	2.3420331
5.8828072887288485	5.4219737	2.3285131
5.900357226108044	5.423547	2.328851
5.917907302006979	5.53796	2.353287
5.9354575168406	6.2229643	2.494587
5.9530078710238765	6.837539	2.6148689
5.970558364971812	7.3089824	2.703513
5.988108999099438	7.633564	2.7628906
6.005659773821818	8.071539	2.8410454
6.023210689554039	7.8392496	2.799866
6.040761746711227	8.206852	2.8647604
6.058312945708531	7.6482773	2.7655518
6.075864286961132	7.2521753	2.6929862
6.093415770884244	6.6625776	2.581197
6.1109673978931065	6.114417	2.4727347
6.128519168402993	5.5130405	2.3479865
6.146071082829204	5.3213625	2.3068078
6.163623141587075	5.166315	2.272953
6.181175345091969	5.105575	2.259552
6.198727693759281	5.124314	2.2636948
6.216280188004435	5.117125	2.2621064
6.233832828242885	5.1549945	2.2704613
6.251385614890126	5.2140684	2.2834334
6.268938548361669	5.2330184	2.287579
6.286491629073067	5.1352954	2.266119
6.304044857439898	5.150706	2.2695167
6.321598233877777	5.0865736	2.2553434
6.339151758802344	5.125763	2.2640147
6.356705432629277	5.130849	2.2651377
6.37425925577428	5.0584593	2.2491019
6.391813228653095	5.0121684	2.2387872
6.409367351681486	4.9534445	2.2256334
6.426921625275259	4.914162	2.216791
6.44447604985025	5.0288124	2.2425013
6.46203062582232	5.056477	2.2486613
6.47958535360737	5.039915	2.2449756
6.497140233621328	5.06638	2.2508621
6.514695266280161	5.1248035	2.263803
6.532250451999859	5.1356726	2.2662022
6.549805791196454	5.079708	2.253821
6.567361284286002	5.005633	2.237327
6.584916931684597	4.946329	2.2240343
6.602472733808367	4.991527	2.2341726
6.6200286910734665	4.973487	2.2301316
6.637584803896092	4.964168	2.2280414
6.655141072692462	4.9946523	2.2348719
6.672697497878842	5.0211473	2.2407916
6.690254079871514	5.0073853	2.2377188
6.707810819086808	4.9774494	2.2310197
6.725367715941078	4.970535	2.2294695
6.742924770850719	4.9669557	2.2286668
6.760481984232151	5.02212	2.2410088
6.778039356501836	5.038207	2.244595
6.795596888076266	5.033466	2.2435386
6.813154579371963	5.025578	2.24178
6.830712430805492	5.041443	2.2453158
6.84827044279344	5.0765634	2.253123
6.865828615752445	5.0086946	2.2380114
6.883386950099159	4.9615517	2.2274542
6.900945446250287	4.921005	2.2183337
6.918504104622553	4.98946	2.2337098
6.936062925632727	5.0507026	2.247377
6.953621909697607	5.0093307	2.2381535
6.971181057234028	5.032158	2.2432473
6.988740368658859	5.0266786	2.2420256
7.006299844389007	5.0826597	2.2544756
7.023859484841407	5.2009635	2.2805622
7.041419290433036	5.3583426	2.3148093
7.058979261580902	5.563905	2.358793
7.0765393987020495	5.794113	2.4070964
7.094099702213559	6.2048616	2.490956
7.111660172532549	6.5524554	2.5597765
7.129220810076164	6.887027	2.6243145
7.146781615261595	7.53098	2.7442632
7.16434258850606	7.743854	2.782778
7.181903730226821	8.227564	2.868373
7.1994650408411704	8.308342	2.8824193
7.217026520766437	8.437765	2.9047832
7.234588170419983	8.715721	2.95224
7.252149990219215	8.637207	2.9389126
7.269711980581568	8.508581	2.9169471
7.2872741419245175	8.230808	2.8689384
7.304836474665574	7.81961	2.7963567
7.322398979222286	7.479472	2.7348623
7.339961656012233	7.156463	2.6751566
7.357524505453039	6.8678465	2.6206577
7.375087527962357	6.5973573	2.5685322
7.392650723957886	6.376968	2.525266
7.410214093857353	6.0802093	2.465808
7.427777638078528	5.8389554	2.416393
7.445341357039213	5.611678	2.3688982
7.4629052511572525	5.440148	2.3324125
7.480469320850524	5.3315024	2.3090045
7.498033566536948	5.2267346	2.2862053
7.5155979886344735	5.1561284	2.270711
7.5331625875610975	5.1514425	2.2696788
7.550727363734844	5.229754	2.2868655
7.568292317573788	5.2803154	2.2978938
7.585857449496025	5.22504	2.2858346
7.603422759919705	5.1846957	2.2769928
7.620988249263007	5.1814666	2.2762835
7.638553917944147	5.2346544	2.2879367
7.656119766381391	5.227432	2.2863576
7.673685794993023	5.207989	2.2821019
7.691252004197388	5.1681957	2.2733667
7.70881839441285	5.1549263	2.2704463
7.726384966057826	5.128737	2.2646716
7.743951719550762	5.174535	2.2747605
7.761518655310149	5.190057	2.2781696
7.779085773754511	5.2336264	2.287712
7.796653075302419	5.2087674	2.2822723
7.814220560372475	5.266629	2.2949138
7.831788229383323	5.303433	2.3029184
7.8493560827536495	5.322671	2.3070915
7.866924120902174	5.350476	2.3131096
7.884492344247663	5.3724356	2.3178515
7.9020607532089135	5.361642	2.315522
7.919629348204771	5.265206	2.2946036
7.937198129654115	5.256232	2.2926474
7.954767097975865	5.3184023	2.3061662
7.972336253588986	5.378483	2.3191557
7.989905596912472	5.4650216	2.3377385
8.007475128365371	5.49949	2.3450992
8.025044848366756	5.5238104	2.3502789
8.042614757335754	5.6540833	2.3778317
8.060184855691523	5.723636	2.3924122
8.07775514385327	5.894269	2.4278116
8.095325622240228	5.9368424	2.4365637
8.112896291271687	5.952843	2.4398448
8.130467151366968	6.047099	2.459085
8.148038202945436	6.085965	2.466975
8.165609446426497	6.0917635	2.46815
8.183180882229594	6.07904	2.465571
8.200752510774217	6.0866594	2.4671156
8.218324332479893	6.07015	2.4637675
8.235896347766193	6.097128	2.4692364
8.253468557052724	6.0836806	2.4665117
8.27104096075914	6.1043973	2.470708
8.288613559305137	6.138277	2.4775546
8.306186353110448	6.1717587	2.4843025
8.32375934259485	6.2007294	2.4901264
8.341332528178162	6.2134924	2.4926877
8.358905910280246	6.3243203	2.51482
8.376479489321003	6.359532	2.5218112
8.394053265720377	6.36723	2.5233371
8.411627239898356	6.2876425	2.507517
8.42920141227497	6.2500186	2.5000038
8.44677578327029	6.2382336	2.4976456
8.464350353304427	6.236642	2.4973269
8.48192512279754	6.1916776	2.4883082
8.499500092169827	6.1061206	2.4710565
8.51707526184153	6.0740566	2.46456
8.534650632232934	6.14136	2.4781766
8.552226203764365	6.18208	2.486379
8.569801976856192	6.218503	2.4936926
8.587377951928834	6.2336936	2.4967365
8.60495412940274	6.24313	2.4986258
8.622530509698416	6.279455	2.5058842
8.6401070932364	6.4052124	2.530852
8.657683880437283	6.5542855	2.560134
8.675260871721695	6.6949873	2.5874674
8.692838067510303	6.8178444	2.6111002
8.710415468223834	7.0471263	2.6546423
8.727993074283043	7.252415	2.6930308
8.745570886108737	7.2890015	2.699815
8.763148904121765	7.3025947	2.7023313
8.78072712874302	7.2872944	2.699499
8.798305560393441	7.530461	2.7441685
8.815884199494006	7.629791	2.7622075
8.833463046465745	7.77682	2.788695
8.851042101729728	7.8920054	2.8092713
8.86862136570707	8.225197	2.8679605
8.886200838818924	8.395611	2.8975182
8.903780521486505	8.408789	2.8997912
8.921360414131055	8.517817	2.9185297
8.938940517173874	8.63547	2.938617
8.956520831036297	8.753721	2.958669
8.97410135613971	8.959869	2.993304
8.99168209290554	9.145764	3.0241964
9.009263041755265	9.474159	3.0780122
9.026844203110405	9.77778	3.126944
9.044425577392525	9.9415865	3.1530282
9.062007165023239	10.039857	3.1685734
9.079588966424197	10.2626705	3.2035403
9.097170982017108	10.353563	3.2176952
9.11475321222372	11.277141	3.3581455
9.132335657465825	12.093892	3.4776273
9.149918318165264	12.173025	3.4889863
9.167501194743924	12.721911	3.566779
9.18508428762374	12.449916	3.5284438
9.202667597226693	12.520737	3.5384653
9.220251123974803	12.32646	3.5109057
9.237834868290143	12.105844	3.4793453
9.255418830594836	11.827401	3.4390988
9.273003011311046	11.214001	3.3487313
9.290587410860985	10.902586	3.3019063
9.308172029666911	10.312622	3.211327
9.32575686815113	10.091635	3.1767333
9.343341926735997	8.831369	2.971762
9.360927205843916	8.612733	2.9347458
9.378512705897327	8.429283	2.9033227
9.396098427318728	8.202514	2.8640032
9.413684370530664	8.145153	2.8539715
9.431270535955722	7.9499364	2.8195632
9.448856924016539	7.8453307	2.8009517
9.466443535135806	7.740933	2.7822533
9.484030369736251	7.7378674	2.7817023
9.501617428240658	7.793698	2.7917194
9.519204711071852	7.8070292	2.7941062
9.536792218652714	7.833061	2.7987607
9.55437995140617	7.8587165	2.8033402
9.571967909755191	7.903802	2.8113701
9.589556094122802	7.8680315	2.8050013
9.60714450493207	7.933364	2.8166227
9.624733142606116	7.9455347	2.8187826
9.642322007568108	7.97052	2.823211
9.659911100241267	7.925919	2.815301
9.677500421048851	7.958559	2.821092
9.695089970414175	8.008846	2.8299906
9.712679748760609	8.073813	2.8414457
9.730269756511557	8.118552	2.8493073
9.747859994090492	8.14872	2.8545961
9.765450461920915	8.167597	2.8579009
9.78304116042639	8.152871	2.8553233
9.800632090030527	8.131882	2.8516455
9.81822325115699	8.205477	2.8645203
9.835814644229481	8.273381	2.8763485
9.853406269671762	8.342771	2.8883855
9.870998127907646	8.373663	2.8937283
9.888590219360985	8.372342	2.8935
9.906182544455698	8.359036	2.8911998
9.923775103615734	8.393294	2.8971183
9.941367897265108	8.396512	2.8976736
9.958960925827878	8.398241	2.8979719
9.97655418972816	8.344276	2.8886461
9.994147689390106	8.3741255	2.8938081
10.011741425237934	8.341828	2.8882225
10.029335397695904	8.32409	2.88515
10.04692960718833	8.2099	2.8652923
10.06452405413958	8.141127	2.853266
10.082118738974064	8.159631	2.8565068
10.099713662116246	8.231819	2.8691146
10.117308823990651	8.250383	2.872348
10.134904225021844	8.225515	2.868016
10.152499865634445	8.157727	2.8561735
10.170095746253125	8.206404	2.8646822
10.18769186730261	8.213281	2.8658822
10.205288229207675	8.230663	2.8689132
10.222884832393145	8.235954	2.8698351
10.2404816772839	8.20611	2.864631
10.258078764304868	8.165486	2.8575315
10.275676093881035	8.110854	2.8479562
10.293273666437438	8.077874	2.8421602
10.310871482399158	8.139179	2.8529246
10.32846954219134	8.079213	2.8423958
10.346067846239173	8.101199	2.8462605
10.363666394967908	8.08619	2.8436227
10.38126518880283	8.163686	2.8572164
10.398864228169298	8.214846	2.8661551
10.416463513492713	8.277369	2.8770416
10.434063045198531	8.2543745	2.8730428
10.451662823712262	8.193941	2.8625062
10.469262849459467	8.134846	2.852165
10.486863122865758	8.053862	2.8379326
10.504463644356806	8.117588	2.849138
10.522064414358338	8.118716	2.8493361
10.539665433296118	8.076547	2.8419266
10.557266701595987	8.03214	2.834103
10.574868219683818	7.914752	2.8133168
10.592469987985552	7.80541	2.7938163
10.610072006927185	7.6225424	2.7608953
10.627674276934751	7.598413	2.756522
10.64527679843435	7.4250083	2.724887
10.662879571852143	7.340872	2.7094042
10.680482597614331	7.2224846	2.687468
10.698085876147173	7.1466484	2.6733217
10.715689407876988	7.085463	2.6618533
10.733293193230146	6.996664	2.6451209
10.750897232633072	6.920294	2.630645
10.76850152651225	6.842661	2.615848
10.786106075294207	6.776157	2.6031053
10.803710879405534	6.6492963	2.578623
10.821315939272877	6.4590397	2.541464
10.83892125532294	6.314703	2.5129073
10.856526827982472	6.239604	2.49792
10.874132657678285	6.293663	2.5087173
10.891738744837243	6.2882953	2.5076473
10.909345089886271	6.21496	2.4929821
10.926951693252343	6.0915184	2.4681
10.944558555362494	6.0500565	2.4596863
10.96216567664381	6.043975	2.4584496
10.979773057523436	6.0387573	2.4573884
10.997380698428573	5.987947	2.4470282
11.014988599786477	5.8823686	2.4253595
11.032596762024461	5.8204927	2.4125698
11.050205185569892	5.808981	2.4101827
11.067813870850198	5.774121	2.40294
11.085422818292859	5.640383	2.374949
11.10303202832541	5.5098033	2.347297
11.120641501375454	5.3887444	2.321367
11.138251237870636	5.3614635	2.3154833
11.155861238238671	5.257039	2.2928233
11.173471502907317	5.1812725	2.2762408
11.191082032304402	5.187914	2.2776992
11.208692826857805	5.2084274	2.282198
11.226303886995465	5.1604357	2.2716591
11.243915213145371	5.096595	2.2575638
11.261526805735578	5.0056634	2.237334
11.279138665194196	4.931048	2.2205963
11.296750791949393	4.8955297	2.2125845
11.314363186429393	4.8433223	2.200755
11.331975849062479	4.7703924	2.1841228
11.34958878027699	4.699256	2.1677768
11.36720198050133	4.6201973	2.1494644
11.384815450163948	4.6558414	2.1577399
11.402429189693366	4.6542206	2.1573644
11.420043199518153	4.64443	2.155094
11.437657480066942	63.53712	7.9710174
11.455272031768422	85.21639	9.231273
11.472886855051353	107.572136	10.371698
11.490501950344528	99.17279	9.958553
11.508117318076819	84.48298	9.1914625
11.52573295867715	45.88693	6.773989
11.543348872574514	4.1738305	2.0429955
11.560965060197946	4.1550813	2.0384016
11.57858152197655	4.088746	2.0220647
11.59619825833949	4.043675	2.010889
11.613815269715985	4.0131326	2.0032804
11.631432556535323	38.54759	6.2086706
11.649050119226837	83.02397	9.111749
11.666667958219929	93.40875	9.664821
11.68428607394406	107.69382	10.377563
11.701904466828756	82.5608	9.086297
11.719523137303586	65.446594	8.089907
11.737142085798196	4.6549454	2.1575322
11.754761312742286	3.7742107	1.9427328
11.772380818565619	3.7088811	1.9258456
11.790000603698015	3.690088	1.9209602
11.80762066856935	3.6293266	1.9050791
11.825241013609572	3.6022034	1.8979472
11.842861639248683	3.5697906	1.8893889
11.860482545916748	3.5500903	1.8841684
11.878103734043883	3.513468	1.8744247
11.895725204060282	3.464421	1.8612956
11.91334695639619	3.4098601	1.8465806
11.930968991481919	3.3789606	1.838195
11.948591309747824	3.3530092	1.8311224
11.966213911624347	3.3673713	1.8350399
11.98383679754198	3.317001	1.8212636
12.001459967931268	3.2691917	1.8080907
12.019083423222835	3.231655	1.7976804
12.036707163847352	3.220886	1.7946827
12.05433119023556	3.2281778	1.796713
12.071955502818259	3.225197	1.7958834
12.089580102026313	3.238075	1.7994652
12.107204988290643	3.2019277	1.7893931
12.12483016204224	3.1756861	1.7820455
12.142455623712152	3.138476	1.7715744
12.16008137373149	3.0810015	1.7552782
12.177707412531431	3.0267057	1.739743
12.19533374054321	3.034312	1.7419276
12.212960358198126	3.0586317	1.7488945
12.230587265927545	3.0777926	1.7543639
12.248214464162889	3.0592494	1.749071
12.265841953335649	3.0718946	1.7526821
12.283469733877375	3.0536773	1.7474774
12.301097806219685	3.0394895	1.7434132
12.31872617079425	3.0329206	1.7415283
12.336354828032825	2.9613426	1.7208552
12.353983778367205	2.9213765	1.7092035
12.371613022229262	2.8659883	1.692923
12.389242560050928	2.90412	1.7041478
12.406872392264201	2.913227	1.7068179
12.424502519301143	2.8949594	1.701458
12.442132941593874	2.8396614	1.6851295
12.459763659574586	2.8208416	1.6795361
12.477394673675532	2.8010035	1.6736199
12.49502598432903	2.8321843	1.6829095
12.51265759196746	2.8025813	1.6740912
12.530289497023267	2.8091445	1.6760503
12.547921699928967	2.779658	1.6672306
12.565554201117134	2.7847834	1.668767
12.583187001020404	2.7892492	1.6701045
12.600820100071486	2.8077753	1.6756418
12.618453498703152	2.8099413	1.676288
12.636087197348235	2.7880669	1.6697506
12.65372119643964	2.8294938	1.68211
12.671355496410326	2.841814	1.6857681
12.68899009769333	2.8475797	1.6874774
12.706625000721749	2.8826816	1.6978462
12.724260205928752	2.9524941	1.7182823
12.741895713747551	2.9605749	1.7206321
12.759531524611454	2.987032	1.7283032
12.777167638953818	2.9813218	1.7266505
12.794804057208072	3.0149546	1.7363625
12.812440779807702	3.027108	1.7398586
12.830077807186271	3.1988852	1.7885427
12.847715139777405	3.2422726	1.8006312
12.865352778014795	3.464533	1.8613256
12.882990722332197	3.5378036	1.880905
12.90062897316344	3.636396	1.9069337
12.918267530942412	3.6874638	1.920277
12.935906396103071	3.5684128	1.8890243
12.953545569079449	3.7217896	1.929194
12.971185050305628	3.57228	1.8900476
12.988824840215775	3.6275234	1.9046059
13.006464939244115	3.6398547	1.9078404
13.024105347824943	3.4745502	1.8640145
13.041746066392617	3.5363932	1.88053
13.05938709538157	3.3037186	1.8176135
13.077028435226296	3.3295162	1.8246962
13.094670086361363	3.2861917	1.8127856
13.112312049221401	3.2547946	1.8041049
13.129954324241112	3.1802971	1.7833388
13.147596911855258	2.9846265	1.7276071
13.165239812498685	2.8985941	1.7025259
13.182883026606293	2.8026474	1.6741109
13.200526554613058	2.7470295	1.6574166
13.218170396954017	2.7334886	1.6533265
13.235814554064284	2.7133129	1.6472137
13.253459026379034	2.700546	1.6433338
13.271103814333523	2.6872747	1.6392909
13.288748918363058	2.72645	1.6511965
13.306394338903031	2.7312288	1.652643
13.32404007638889	2.707764	1.6455284
13.341686131256164	2.6928608	1.6409938
13.359332503940449	2.6616685	1.6314621
13.376979194877402	2.6569195	1.630006
13.394626204502751	2.695391	1.6417645
13.412273533252307	2.733573	1.653352
13.429921181561937	2.7000508	1.6431831
13.447569149867581	2.6849923	1.6385946
13.465217438605247	2.658609	1.6305242
13.482866048211022	2.662608	1.63175
13.500514979121052	2.7220926	1.6498766
13.518164231771568	2.7424989	1.6560491
13.535813806598844	2.742338	1.6560006
13.553463704039254	2.685636	1.6387911
13.571113924529229	2.7004945	1.6433182
13.588764468505275	2.6960914	1.6419779
13.606415336403956	2.7269928	1.6513609
13.624066528661917	2.7610047	1.6616272
13.641718045715882	2.817229	1.6784604
13.659369888002635	2.8514805	1.6886327
13.67702205595903	2.891393	1.7004097
13.694674550021993	2.955044	1.7190242
13.712327370628532	3.0348577	1.7420843
13.729980518215713	3.1217322	1.7668425
13.747633993220681	3.1810918	1.7835616
13.765287796080647	3.2111425	1.7919661
13.7829419272329	3.2432532	1.8009034
13.800596387114801	3.2864811	1.8128655
13.818251176163775	3.3077056	1.8187099
13.835906294817324	3.3598127	1.8329792
13.853561743513023	3.4013045	1.8442626
13.871217522688525	3.426192	1.8509976
13.888873632781538	3.4387398	1.854384
13.906530074229858	3.4996586	1.8707374
13.92418684747135	3.5344305	1.8800081
13.941843952943948	3.5465856	1.8832381
13.959501391085665	3.4787552	1.8651421
13.977159162334578	3.3937597	1.842216
13.994817267128846	3.362775	1.8337871
14.012475705906693	3.2956285	1.8153867
14.030134479106424	3.2575204	1.8048602
14.047793587166414	3.1640117	1.7787669
14.065453030525108	3.0943415	1.7590741
14.083112809621026	2.9898808	1.7291272
14.100772924892766	2.9415205	1.7150861
14.118433376778997	2.9141743	1.7070953
14.136094165718458	2.8748527	1.695539
14.153755292149969	2.8184385	1.6788206
14.171416756512416	2.7170222	1.6483393
14.189078559244768	2.6425107	1.6255801
14.20674070078606	2.5604367	1.6001365
14.224403181575408	2.497545	1.5803623
14.242066002051999	2.4595344	1.5682902
14.259729162655093	2.4455762	1.5638338
14.277392663824022	2.4631505	1.5694427
14.295056505998208	2.458031	1.5678109
14.312720689617128	2.4546506	1.5667325
14.330385215120348	2.4382412	1.5614868
14.348050082947497	2.42492	1.5572155
14.3657152935383	2.4172006	1.554735
14.383380847332528	2.4306026	1.559039
14.401046744770051	2.4213984	1.5560843
14.418712986290798	2.389325	1.5457442
14.436379572334793	2.3735268	1.5406255
14.454046503342123	2.3834627	1.5438467
14.471713779752946	2.4277682	1.5581297
14.489381402007504	2.4189358	1.5552928
14.507049370546113	2.4109626	1.5527275
14.524717685809168	2.4010189	1.5495222
14.542386348237134	2.4315565	1.5593449
14.560055358270553	2.4120133	1.5530658
14.577724716350051	2.4282238	1.5582759
14.595394422916325	2.4074683	1.5516019
14.61306447841015	2.4591591	1.5681707
14.63073488327237	2.4824984	1.5755947
14.648405637943917	2.5126648	1.5851387
14.6660767428658	2.5058491	1.5829874
14.683748198479094	2.5179448	1.5868033
14.701420005224954	2.548792	1.5964936
14.719092163544628	2.6318803	1.6223071
14.73676467387942	2.6987548	1.6427888
14.754437536670727	2.7140036	1.6474233
14.772110752360014	2.6794734	1.6369097
14.78978432138882	2.665303	1.6325755
14.807458244198777	2.6513565	1.6282986
14.82513252123159	2.6383932	1.6243131
14.842807152929028	2.7007632	1.6434
14.860482139732962	2.699354	1.642971
14.87815748208531	2.6697347	1.6339322
14.8958331804281	2.618662	1.6182281
14.91350923520342	2.5928226	1.6102244
14.931185646853438	2.6872144	1.6392726
14.948862415820408	2.739952	1.6552801
14.966539542546656	2.745858	1.657063
14.98421702747459	2.6759408	1.6358303
15.001894871046696	2.6358368	1.6235261
15.019573073705542	2.6630673	1.6318908
15.037251635893766	2.6485343	1.6274319
15.054930558054092	2.677512	1.6363105
15.072609840629323	2.727952	1.6516513
15.090289484062351	2.9220717	1.7094069
15.107969488796124	3.2562873	1.8045186
15.125649855273691	3.6869967	1.9201554
15.14333058393817	4.1367216	2.033893
15.161011675232768	5.1117344	2.2609146
15.17869312960076	6.4538283	2.5404387
15.196374947485506	8.337614	2.8874927
15.214057129330447	11.370618	3.3720348
15.231739675579114	16.010927	4.0013657
15.249422586675102	20.941446	4.5761824
15.267105863062092	24.002304	4.8992147
15.284789505183847	24.159702	4.915252
15.302473513484218	21.960573	4.686211
15.320157888407127	18.4061	4.290233
15.337842630396578	14.387824	3.7931285
15.355527739896656	11.240218	3.3526435
15.37321321735153	8.761833	2.9600394
15.39089906320545	6.427435	2.5352387
15.408585277902748	4.82666	2.1969662
15.42627186188783	3.7558372	1.9379983
15.443958815605198	3.2193828	1.7942638
15.461646139499424	2.9647808	1.7218539
15.479333834015168	2.8154483	1.6779298
15.497021899597165	2.7719343	1.6649127
15.514710336690234	2.7041104	1.644418
15.53239914573928	2.6442487	1.6261146
15.550088327189297	2.576168	1.6050446
15.567777881485336	2.522194	1.5881417
15.58546780907256	2.4606974	1.568661
15.6031581103962	2.4129179	1.553357
15.620848785901568	2.4028826	1.5501235
15.638539836034063	2.465217	1.570101
15.656231261239173	2.4922602	1.5786895
15.673923061962451	2.4402208	1.5621207
15.691615238649552	2.3944235	1.5473925
15.709307791746202	2.371976	1.540122
15.727000721698221	2.3924034	1.5467396
15.744694028951498	2.408603	1.5519675
15.76238771395202	2.3856735	1.5445626
15.780081777145844	2.3793936	1.5425283
15.797776218979125	2.3924904	1.5467677
15.815471039898094	2.431171	1.5592213
15.833166240349064	2.4592211	1.5681905
15.850861820778437	2.4385552	1.5615875
15.868557781632699	2.3958476	1.5478525
15.886254123358412	2.3456485	1.531551
15.903950846402232	2.3444242	1.5311513
15.921647951210897	2.3559365	1.534906
15.939345438231225	2.3789446	1.5423828
15.957043307910133	2.3926966	1.5468343
15.974741560694602	2.3957572	1.5478234
15.992440197031714	2.4249992	1.557241
16.01013921736862	2.4560452	1.5671774
16.02783862215259	2.4330325	1.5598181
16.045538411830933	2.3998184	1.5491347
16.06323858685107	2.393318	1.5470352
16.080939147660512	2.4001849	1.549253
16.09864009470684	2.4151928	1.5540891
16.11634142843774	2.4125352	1.5532337
16.134043149300954	2.4219992	1.5562774
16.15174525774433	2.4296186	1.5587233
16.169447754215817	2.4374268	1.561226
16.18715063916342	2.4752285	1.5732859
16.204853913035244	2.4584336	1.5679393
16.222557576279478	2.4453158	1.5637506
16.240261629344403	22.419119	4.7348833
16.257966072678386	42.95678	6.554142
16.275670906729868	38.06303	6.169524
16.293376131947387	2.495851	1.5798262
16.31108174877957	2.5504498	1.5970128
16.328787757675133	2.623352	1.6196765
16.34649415908287	2.6379547	1.6241782
16.364200953451657	2.6211534	1.6189977
16.38190814123048	2.6160078	1.6174078
16.39961572286839	2.6654422	1.6326182
16.41732369881455	2.712674	1.6470197
16.43503206951817	2.711178	1.6465656
16.45274083542859	2.747497	1.6575576
16.47044999699522	2.8125432	1.6770638
16.488159554667558	2.8905797	1.7001705
16.505869508895184	2.9227648	1.7096095
16.523579860127786	2.9191637	1.708556
16.541290608815117	2.9420774	1.7152485
16.559001755407035	2.9825797	1.7270147
16.57671330035348	3.0659866	1.7509959
16.59442524410448	3.1429002	1.7728226
16.61213758711015	3.2207847	1.7946545
16.629850329820705	3.2397263	1.799924
16.647563472686436	3.252902	1.8035803
16.665277016157724	3.3101952	1.8193942
16.682990960685053	3.3889954	1.8409225
16.70070530671898	3.4977763	1.8702343
16.718420054710155	3.548257	1.8836818
16.736135205109335	3.6232855	1.9034929
16.753850758367335	3.6265311	1.9043453
16.771566714935087	3.655265	1.9118748
16.789283075263597	3.7061646	1.9251401
16.80699983980398	3.7883623	1.9463716
16.82471700900741	3.8553512	1.9635048
16.84243458332518	3.9079635	1.976857
16.860152563208665	3.966965	1.9917241
16.87787094910932	3.9874213	1.9968529
16.89558974147871	4.085427	2.0212438
16.913308940768466	4.117945	2.029272
16.931028547430333	4.174297	2.0431097
16.94874856191613	4.2418237	2.059569
16.966468984677785	4.330273	2.080931
16.98418981616729	4.4086213	2.0996716
17.00191105683676	4.426052	2.1038184
17.019632707138374	4.4787	2.116294
17.03735476752442	4.527842	2.1278727
17.05507723844728	4.6264925	2.1509283
17.072800120359403	4.662931	2.159382
17.090523413713353	4.623968	2.1503415
17.108247118961785	4.6461983	2.1555042
17.125971236557437	4.6667175	2.1602588
17.143695766953133	4.7044306	2.1689699
17.161420710601806	4.667144	2.1603572
17.179146067956477	4.668724	2.160723
17.19687183947025	4.667599	2.1604626
17.21459802559634	4.6750064	2.1621764
17.232324626788028	4.66867	2.1607106
17.25005164349871	4.7050586	2.1691146
17.267779076181863	4.728332	2.1744728
17.285506925291074	4.6770477	2.1626482
17.30323519127999	4.6251073	2.1506062
17.320963874602384	4.536512	2.1299088
17.33869297571211	4.506849	2.122934
17.356422495063114	4.523511	2.1268547
17.37415243310944	4.5614433	2.1357536
17.391882790305218	4.535004	2.129555
17.40961356710468	4.503791	2.1222136
17.42734476396215	4.4876685	2.1184118
17.445076381332044	4.5463533	2.132218
17.462808419668868	4.616275	2.1485517
17.48054087942723	4.747058	2.1787744
17.498273761061835	5.068117	2.251248
17.51600706502747	5.5629954	2.3586004
17.533740791779024	6.2202034	2.4940336
17.551474941771485	7.5555396	2.7487342
17.56920951545993	8.679963	2.9461777
17.586944513299528	10.824541	3.290067
17.60467993574556	12.428956	3.5254724
17.622415783253373	13.987402	3.7399735
17.64015205627843	15.334597	3.9159412
17.657888755276293	16.374222	4.0465074
17.675625880702604	16.834412	4.102976
17.69336343301311	16.655035	4.081058
17.71110141266366	15.890631	3.9863055
17.728839820110178	14.966332	3.8686345
17.746578655808705	14.099731	3.754961
17.764317920215372	12.730488	3.567981
17.7820576137864	11.386809	3.3744347
17.79979773697811	9.426644	3.0702841
17.81753829024692	7.5457144	2.7469463
17.835279274049356	5.9238534	2.4338968
17.85302068884201	4.8692317	2.2066336
17.870762535081607	4.24448	2.0602136
17.888504813224934	3.9651594	1.9912708
17.90624752372891	3.78265	1.9449036
17.923990667050536	3.6136954	1.9009722
17.941734243646895	3.490382	1.8682564
17.959478253975185	3.4610195	1.8603816
17.9772226984927	3.4812233	1.8658037
17.994967577656833	3.465465	1.861576
18.01271289192506	3.4540255	1.8585008
18.030458641754965	3.409032	1.8463564
18.04820482760425	3.3433933	1.8284948
18.06595144993067	3.2911232	1.8141453
18.083698509192125	3.2816749	1.8115394
18.101446005846576	3.2921362	1.8144245
18.119193940352105	3.2485886	1.8023841
18.136942313166887	3.200511	1.7889972
18.1546911247492	3.167019	1.7796121
18.1724403755574	3.1376686	1.7713466
18.19019006604997	3.1332166	1.7700894
18.207940196685467	3.1284575	1.7687446
18.225690767922575	3.1538138	1.775898
18.243441780220046	3.152185	1.7754394
18.261193234036764	3.1231914	1.7672553
18.278945129831676	3.133383	1.7701365
18.29669746806386	3.1110713	1.7638229
18.314450249192483	3.1010153	1.76097
18.3322034736768	3.0632756	1.7502216
18.349957141976184	3.0456753	1.7451863
18.3677112545501	3.0044153	1.7333249
18.385465811858108	3.02136	1.7382059
18.403220814359884	3.0791652	1.754755
18.420976262515172	3.140613	1.7721775
18.43873215678387	3.155447	1.7763578
18.456488497625923	3.1615317	1.7780696
18.474245285501407	3.1885931	1.7856632
18.492002520870486	3.27033	1.8084054
18.50976020419343	3.3926156	1.8419054
18.527518335930615	3.7383246	1.9334748
18.545276916542516	4.2702956	2.0664694
18.563035946489688	4.408563	2.0996578
18.580795426232832	4.8160853	2.1945581
18.598555356232698	4.742744	2.1777842
18.616315736950185	5.082778	2.2545018
18.63407656884626	4.7722683	2.1845522
18.65183785238201	4.992103	2.2343016
18.669599588018617	4.680077	2.1633487
18.68736177621737	4.613354	2.147872
18.705124417439652	4.6294208	2.151609
18.72288751214696	4.5207505	2.1262057
18.740651060800886	4.6453214	2.1553009
18.758415063863115	4.294952	2.0724266
18.77617952179546	4.4388847	2.1068661
18.793944435059814	4.1936703	2.0478454
18.811709804118184	4.185989	2.045969
18.829475629432675	4.163417	2.0404453
18.8472419114655	3.9728777	1.9932079
18.86500865067897	4.07347	2.0182838
18.88277584753551	3.7668054	1.9408259
18.90054350249763	3.8144777	1.9530687
18.918311616027957	3.4770367	1.8646814
18.936080188589226	3.3705592	1.8359083
18.953849220644265	3.0580084	1.7487162
18.971618712656007	2.881074	1.6973727
18.9893886650875	2.8217824	1.6798161
19.007159078401887	8.02064	2.8320735
19.024929953062408	32.877598	5.733899
19.042701289532435	32.819557	5.7288356
19.060473088275405	25.357054	5.0355787
19.07824534975489	2.633837	1.62291
19.096018074434568	2.634887	1.6232334
19.113791262778197	2.6203535	1.6187506
19.13156491524966	2.596387	1.6113307
19.149339032312945	2.5637686	1.6011772
19.167113614432136	2.5549994	1.5984365
19.184888662071433	2.5607443	1.6002326
19.202664175695123	2.5380142	1.5931146
19.220440155767623	2.5497684	1.5967995
19.238216602753447	2.5581934	1.5994353
19.2559935171172	2.5546153	1.5983164
19.27377089932361	2.561763	1.6005509
19.291548749837514	2.575075	1.604704
19.309327069123835	2.5616958	1.6005299
19.32710585764763	2.5525327	1.5976647
19.344885115874032	2.5154486	1.5860165
19.362664844268313	2.5164635	1.5863365
19.380445043295822	2.488508	1.5775006
19.39822571342203	2.5343418	1.5919616
19.41600685511252	2.557959	1.5993621
19.43378846883297	2.5292757	1.5903697
19.451570555049173	2.4993079	1.58092
19.469353114227037	2.4822385	1.5755122
19.48713614683254	2.512803	1.5851823
19.50491965333182	2.5027766	1.5820166
19.52270363419109	2.4989321	1.5808011
19.540488089876686	2.5242379	1.588785
19.55827302085503	2.5139768	1.5855526
19.576058427592674	2.5205116	1.5876119
19.593844310556282	2.5288146	1.5902247
19.611630670212598	2.5768485	1.6052566
19.629417507028506	2.5716727	1.6036435
19.64720482147098	2.51698	1.5864992
19.6649926140071	2.476501	1.5736903
19.682780885104084	2.448034	1.5646194
19.70056963522921	2.4693227	1.5714079
19.718358864849908	2.4900677	1.5779948
19.7361485744337	2.5074873	1.5835048
19.753938764448215	2.5136168	1.585439
19.771729435361202	2.5375586	1.5929716
19.789520587640506	2.536249	1.5925605
19.807312221754092	2.526555	1.5895141
19.825104338170043	2.5050364	1.5827307
19.842896937356517	2.516537	1.5863596
19.860690019781824	2.4882782	1.5774277
19.87848358591436	2.495133	1.579599
19.896277636222635	2.4777122	1.574075
19.914072171175278	2.490516	1.5781368
19.931867191241015	2.5349717	1.5921594
19.94966269688869	2.5554256	1.5985699
19.967458688587264	2.516927	1.5864826
19.985255166805807	2.5204165	1.587582
20.00305213201348	2.5116117	1.5848066
20.020849584679578	2.4688466	1.5712564
20.038647525273507	2.4341624	1.5601802
20.05644595426477	2.4624414	1.5692168
20.07424487212299	2.4765496	1.5737057
20.092044279317903	2.4793518	1.5745957
20.109844176319353	2.4965146	1.5800363
20.127644563597304	2.4918323	1.5785538
20.145445441621817	2.4771144	1.5738851
20.16324681086307	2.4441056	1.5633636
20.181048671791373	2.411595	1.5529312
20.198851024877122	2.3865504	1.5448464
20.216653870590836	2.3963494	1.5480146
20.234457209403146	2.4184086	1.5551233
20.252261041784802	2.4626737	1.5692908
20.270065368206662	2.416416	1.5544826
20.287870189139685	2.3525712	1.5338094
20.305675505054968	2.3129878	1.520851
20.323481316423702	2.325258	1.5248797
20.341287623717207	2.3508487	1.5332477
20.359094427406884	2.3936608	1.547146
20.376901727964288	2.3843937	1.5441482
20.39470952586107	2.3586464	1.5357885
20.41251782156899	2.332825	1.5273588
20.430326615559935	2.3489673	1.5326341
20.448135908305886	2.3754864	1.5412613
20.465945700278965	2.3936853	1.547154
20.483755991951384	2.335506	1.5282363
20.50156678379548	2.3128948	1.5208205
20.519378076283708	2.3362558	1.5284815
20.537189869888635	2.362058	1.5368989
20.55500216508294	2.3688867	1.5391188
20.572814962339415	2.3703082	1.5395805
20.59062826213098	2.352882	1.5339106
20.60844206493066	2.330107	1.5264688
20.626256371211593	2.3197973	1.5230881
20.644071181447032	2.312197	1.520591
20.66188649611036	2.2940383	1.5146083
20.67970231567506	2.3206532	1.5233691
20.697518640614742	2.3500106	1.5329745
20.715335471403122	2.3567646	1.5351758
20.73315280851404	2.3000307	1.5165852
20.750970652421447	2.2753277	1.5084189
20.768789003599412	2.2824118	1.5107653
20.786607862522136	2.295738	1.5151693
20.8044272296639	2.3056056	1.5184221
20.82224710549913	2.325953	1.5251075
20.84006749050237	2.317203	1.5222362
20.857888385148268	3.8401551	1.9596313
20.8757097899116	45.90491	6.775316
20.893531705267254	64.77476	8.048277
20.911354131690224	83.83719	9.156265
20.92917706965566	69.1174	8.313687
20.94700051963877	50.165943	7.0827923
20.96482448211493	29.39147	5.42139
20.982648957559622	4.159178	2.0394063
21.00047394644843	2.2785263	1.5094788
21.01829944925707	2.2834783	1.5111182
21.036125466461375	2.2426434	1.4975457
21.053951998537297	2.221923	1.4906117
21.071779045960906	2.1989176	1.4828748
21.089606609208378	2.1843913	1.4779686
21.10743468875603	2.1538544	1.4676015
21.12526328508028	2.1780295	1.4758148
21.143092398657675	2.2340887	1.4946868
21.16092202996488	2.2657645	1.5052457
21.17875217947867	2.2535467	1.5011817
21.19658284767596	2.2204657	1.4901227
21.21441403503377	2.1960192	1.4818971
21.232245742029225	2.2036183	1.4844589
21.2500779691396	2.2083158	1.4860404
21.26791071684227	2.188093	1.4792204
21.28574398561475	2.1674144	1.4722141
21.30357777593465	2.1365855	1.4617064
21.321412088279704	2.1278355	1.4587102
21.339246923127792	2.147749	1.46552
21.357082280956888	2.1773307	1.4755781
21.3749181622451	2.1573045	1.4687766
21.392754567470647	2.1340594	1.460842
21.41059149711187	2.108093	1.4519273
21.42842895164726	2.100608	1.4493475
21.446266931555378	2.109343	1.4523578
21.464105437314945	2.104236	1.4505985
21.481944469404798	2.0918014	1.4463061
21.49978402830388	2.098012	1.4484515
21.51762411449127	2.094771	1.4473324
21.53546472844617	2.087754	1.4449062
21.553305870647876	2.1127574	1.4535327
21.571147541575865	2.1407626	1.4631345
21.58898974170967	2.1481879	1.4656698
21.60683247152899	2.1231341	1.4570979
21.62467573151363	2.0880597	1.445012
21.642519522143523	2.0429265	1.4293098
21.660363843898722	2.0341892	1.4262501
21.6782086972594	2.0340397	1.4261976
21.696054082705864	2.0386345	1.4278076
21.713900000718535	2.0576239	1.434442
21.73174645177795	2.072167	1.4395024
21.749593436364794	2.0552843	1.4336263
21.767440954959845	2.0293133	1.4245397
21.785289008044032	2.0120788	1.4184777
21.803137596098388	2.0109262	1.4180713
21.820986719604086	2.0392282	1.4280155
21.838836379042412	2.0464594	1.4305452
21.85668657489478	2.0474994	1.4309086
21.87453730764273	2.0072427	1.4167719
21.892388577767914	1.9888798	1.4102765
21.91024038575213	1.9755061	1.405527
21.928092732077285	1.9766622	1.4059381
21.945945617225426	2.0085037	1.4172169
21.963799041678694	2.0282004	1.424149
21.981653005919398	31.384619	5.6021976
21.999507510429943	78.19258	8.842657
22.01736255569286	73.135605	8.551936
22.035218142190818	4.2351604	2.0579505
22.05307427040661	2.0303454	1.424902
22.07093094082315	2.0030768	1.415301
22.088788153923474	1.978946	1.4067502
22.106645910190746	1.9967159	1.413052
22.12450421010827	1.9817507	1.4077467
22.142363054159464	1.949664	1.3963037
22.16022244282787	1.9439543	1.3942577
22.178082376597164	1.9516735	1.3970231
22.195942855951145	1.9524336	1.3972951
22.213803881373742	1.9476714	1.39559
22.231665453349002	1.9517621	1.3970548
22.24952757236111	1.9618834	1.4006724
22.26739023889438	1.9710904	1.4039553
22.28525345343323	1.989683	1.4105612
22.30311721646225	1.9592081	1.3997172
22.320981528466113	1.9226493	1.3865963
22.33884638992964	1.9148805	1.383792
22.356711801337788	1.9693409	1.4033321
22.37457776317561	2.0023928	1.4150593
22.392444275928337	2.0070608	1.4167078
22.410311340081282	2.011282	1.4181967
22.428178956119904	2.0247607	1.4229409
22.446047124529805	1.9901386	1.4107227
22.46391584579669	1.9744878	1.4051647
22.481785120406414	1.9430257	1.3939246
22.49965494884496	1.949838	1.396366
22.51752533159841	1.9588915	1.3996041
22.53539626915302	1.9614942	1.4005336
22.553267761995137	1.9479952	1.3957059
22.571139810611264	1.9188219	1.3852155
22.589012415488025	1.9172063	1.3846322
22.60688557711216	1.9327785	1.390244
22.624759295970566	1.9176831	1.3848044
22.642633572550263	1.903896	1.3798174
22.660508407338362	1.9002266	1.3784871
22.67838380082217	1.9252013	1.3875163
22.696259753489077	1.9438006	1.3942025
22.714136265826614	1.9630216	1.4010787
22.73201333832246	1.9695228	1.4033968
22.74989097146439	1.9738694	1.4049447
22.76776916574035	1.8953259	1.3767084
22.785647921638393	1.8602339	1.3639039
22.803527239646712	1.8573346	1.3628407
22.82140712025363	1.8973451	1.3774415
22.839287563947593	1.8929436	1.3758429
22.85716857121719	1.8856535	1.373191
22.875050142551135	1.882723	1.3721235
22.892932278438277	1.9146311	1.3837019
22.910814979367604	1.923571	1.3869286
22.928698245828222	1.941129	1.393244
22.946582078309387	1.9118639	1.3827016
22.96446647730047	1.9197971	1.3855674
22.98235144329098	1.8996228	1.378268
23.000236976770562	1.8717543	1.3681207
23.018123078229	1.8314459	1.3533093
23.03600974815619	1.8596594	1.3636934
23.053896987042194	1.8953879	1.3767309
23.071784795377173	1.9557744	1.3984901
23.08967317365145	1.9510554	1.3968018
23.10756212235546	1.8995148	1.3782289
23.125451641979787	1.8635502	1.3651191
23.143341733015134	1.8776695	1.3702807
23.161232395952357	1.9178592	1.3848679
23.179123631282426	1.924856	1.3873918
23.197015439496468	1.9234872	1.3868984
23.214907821085717	1.9250065	1.387446
23.23280077654157	1.929246	1.388973
23.250694306355538	1.9345044	1.3908646
23.268588411019277	1.9072273	1.381024
23.28648309102458	1.9091297	1.3817126
23.304378346863356	1.937176	1.3918247
23.322274179027676	1.915841	1.3841391
23.340170588009723	1.9109997	1.3823891
23.358067574301852	1.9166241	1.384422
23.37596513839651	1.9179151	1.3848882
23.39386328078629	1.9279231	1.3884968
23.411762001963947	1.9488434	1.3960098
23.429661302422353	1.9470434	1.395365
23.4475611826545	1.906664	1.38082
23.46546164315356	1.9318814	1.3899214
23.48336268441279	1.9458255	1.3949285
23.501264306925638	1.9430457	1.3939317
23.51916651118564	1.9318385	1.3899059
23.537069297686497	1.9225932	1.386576
23.554972666922037	1.9012649	1.3788636
23.57287661938623	1.9142857	1.3835771
23.59078115557318	1.9369404	1.3917401
23.608686275977128	1.9637841	1.4013509
23.62659198109246	1.9535143	1.3976817
23.6444982714137	1.9181701	1.3849802
23.66240514743549	1.875565	1.3695127
23.68031260965263	1.8967913	1.3772405
23.698220658560068	1.9202722	1.3857388
23.716129294652845	1.9698997	1.4035312
23.7340385184262	1.9728504	1.4045819
23.75194833037546	1.9477118	1.3956045
23.769858730996123	1.8971366	1.3773658
23.78776972078382	1.854003	1.3616178
23.80568130023431	1.860118	1.3638614
23.823593469843495	1.9078801	1.3812603
23.841506230107424	1.9222777	1.3864623
23.859419581522275	1.8828565	1.3721722
23.87733352458438	1.824646	1.3507946
23.89524805979019	1.8224633	1.3499864
23.913163187636318	1.8525459	1.3610826
23.931078908619508	1.9390543	1.3924993
23.948995223236633	1.98465	1.408776
23.966912131984735	2.0008075	1.414499
23.98482963536096	2.0100825	1.4177737
24.002747733862616	1.987729	1.4098684
24.020666427987155	2.0021362	1.4149686
24.038585718232156	2.0709367	1.439075
24.056505605095353	2.0803115	1.4423285
24.074426089074617	2.0427756	1.429257
24.092347170667946	2.0411558	1.4286902
24.110268850373515	2.0505412	1.4319711
24.128191128689586	2.0460148	1.4303898
24.146114006114626	2.0618832	1.435926
24.164037483147187	2.077692	1.4414202
24.181961560286005	2.0431476	1.4293871
24.199886238029926	1.9843228	1.4086599
24.21781151687797	1.9899462	1.4106545
24.235737397329274	1.9842111	1.4086202
24.253663879883135	1.9973701	1.4132835
24.271590965038975	2.030976	1.4251232
24.289518653296376	2.0381472	1.427637
24.30744694515505	2.0720766	1.4394709
24.32537584111486	2.0437167	1.4295862
24.34330534167581	1.9915276	1.411215
24.361235447338046	2.0068092	1.416619
24.379166158601876	2.0173035	1.4203181
24.39709747596772	2.0554173	1.4336727
24.41502939993615	2.0232441	1.4224079
24.432961931007917	2.0328689	1.4257871
24.450895069683856	2.045094	1.4300678
24.468828816465	2.0346315	1.4264051
24.4867631718525	2.0021954	1.4149895
24.504698136347656	1.9510496	1.3967998
24.52263371045192	1.9224987	1.386542
24.540569894666874	1.9048399	1.3801594
24.558506689494266	1.8961753	1.3770168
24.57644409543597	1.9125478	1.382949
24.594382112994012	1.9385295	1.3923109
24.61232074267057	1.9616292	1.4005817
24.630259984967953	1.9941728	1.4121518
24.64819984038863	1.9841454	1.408597
24.66614030943522	1.9956774	1.4126844
24.684081392610462	1.9712509	1.4040124
24.702023090417274	1.9694589	1.4033741
24.7199654033587	1.9891816	1.4103835
24.737908331937927	2.0017896	1.4148462
24.755851876658305	1.994807	1.4123764
24.773796038023324	2.0412993	1.4287405
24.79174081653661	2.0909362	1.446007
24.809686212701962	2.1145287	1.4541419
24.827632227023294	2.1262617	1.4581707
24.8455788600047	2.0858793	1.4442574
24.8635261121504	2.085093	1.4439851
24.88147398396475	2.0763712	1.440962
24.899422475952303	2.1077685	1.4518156
24.917371588617698	2.167991	1.4724098
24.935321322465768	2.1873417	1.4789665
24.953271678001478	2.2882273	1.5126888
24.97122265572994	2.5001674	1.5811918
24.989174256156414	2.8337088	1.6833624
25.00712647978632	3.2640643	1.8066722
25.02507932712521	3.7730298	1.9424288
25.043032798678798	4.240984	2.059365
25.060986894952933	4.8597717	2.204489
25.078941616453637	5.574961	2.3611355
25.096896963687055	6.545918	2.558499
25.114852937159508	7.6545415	2.7666843
25.132809537377444	8.145521	2.8540359
25.150766764847468	8.197305	2.8630936
25.168724620076347	7.734211	2.781045
25.186683103570985	6.8078322	2.6091824
25.204642215838426	5.617843	2.370199
25.222601957385894	4.246586	2.0607245
25.24056232872074	3.256253	1.804509
25.25852333035048	2.6936212	1.6412255
25.276484962782778	2.3223548	1.5239275
25.294447226525435	2.121493	1.4565346
25.312410122086423	1.9992111	1.4139346
25.330373649973843	1.9314418	1.3897632
25.348337810695988	1.9030759	1.3795202
25.366302604761245	1.9000919	1.3784382
25.384268032678207	1.8960866	1.3769846
25.40223409495558	1.8764012	1.369818
25.420200792102257	1.8834941	1.3724045
25.438168124627246	1.8909464	1.3751168
25.45613609303974	1.9131343	1.383161
25.474104697849057	1.8872936	1.373788
25.492073939564698	1.8421438	1.3572559
25.510043818696285	1.8348907	1.3545814
25.528014335753614	1.8351765	1.3546869
25.54598549124664	1.8513924	1.3606588
25.56395728568544	1.802779	1.342676
25.58192971958028	1.8269315	1.3516403
25.59990279344156	1.8623908	1.3646944
25.617876507779833	1.8735764	1.3687865
25.635850863105826	1.8578765	1.3630395
25.653825859930386	1.9130163	1.3831184
25.671801498764548	1.9388657	1.3924316
25.68977778011949	1.9149336	1.3838112
25.707754704506524	1.8764682	1.3698424
25.725732272437153	1.8984954	1.377859
25.743710484423012	1.9002815	1.378507
25.761689340975888	1.9348229	1.3909792
25.77966884260774	1.9176747	1.3848013
25.797648989830662	1.8685987	1.366967
25.815629783156922	1.8294287	1.3525637
25.83361122309895	1.8372756	1.3554614
25.85159331016929	1.823161	1.3502448
25.869576044880695	1.7856181	1.3362702
25.887559427746034	1.7742982	1.3320278
25.90554345927836	1.7906883	1.338166
25.92352813999086	1.7940705	1.3394291
25.94151347039689	1.8071588	1.3443061
25.959499451009965	1.8199145	1.349042
25.97748608234374	1.8596866	1.3637033
25.995473364912062	1.8739334	1.3689169
26.013461299228904	1.8983742	1.377815
26.03144988580839	1.9024311	1.3792864
26.04943912516483	1.8582724	1.3631847
26.067429017812675	1.8088331	1.3449286
26.085419564266537	1.7772647	1.333141
26.103410765041186	1.7899488	1.3378897
26.12140262065155	1.7846957	1.3359251
26.139395131612723	1.7759073	1.3326317
26.157388298439948	1.7763028	1.3327801
26.17538212164861	1.8628147	1.3648497
26.193376601754295	1.9248695	1.3873967
26.211371739272714	1.9548019	1.3981423
26.229367534719746	1.8611758	1.3642491
26.247363988611433	1.79655	1.3403544
26.26536110146397	1.7726882	1.3314234
26.283358873793727	1.7879264	1.3371336
26.301357306117204	1.7585696	1.3261107
26.319356398951104	1.7739917	1.3319128
26.33735615281224	1.7897284	1.3378073
26.35535656821762	1.7873867	1.3369318
26.373357645684404	1.8108678	1.3456849
26.39135938572991	1.8101197	1.3454069
26.409361788871614	1.7317947	1.3159767
26.427364855627165	1.7199827	1.3114811
26.445368586514352	1.763288	1.3278886
26.46337298205115	1.8202904	1.3491814
26.48137804275568	1.8386508	1.3559686
26.499383769146217	1.8556843	1.3622351
26.517390161741215	1.8482093	1.3594886
26.53539722105928	1.8753585	1.3694373
26.553404947619182	1.8321855	1.3535825
26.571413341939856	1.8192998	1.3488142
26.589422404540397	1.8385247	1.3559221
26.60743213594006	1.8311267	1.3531913
26.62544253665827	1.8199147	1.3490422
26.64345360721459	1.7793287	1.3339148
26.66146534812879	1.7960008	1.3401495
26.679477759920758	1.8394814	1.3562748
26.69749084311057	1.8503721	1.3602839
26.71550459821847	1.8431585	1.3576298
26.733519025764842	1.8211255	1.3494909
26.751534126270258	1.7850231	1.3360475
26.769549900255434	1.809564	1.3452003
26.787566348241267	1.8743261	1.3690603
26.80558347074881	1.9208529	1.3859484
26.823601268299267	1.9035435	1.3796896
26.841619741414036	1.859684	1.3637023
26.85963889061465	1.8312938	1.353253
26.877658716422832	1.8091532	1.3450477
26.89567921936045	1.7876905	1.3370454
26.913700399949544	1.789006	1.3375373
26.93172225871233	1.7638175	1.3280879
26.949744796171174	1.7540208	1.3243945
26.967768012848605	1.7225945	1.3124765
26.98579190926733	1.7315873	1.315898
27.003816485950225	1.787174	1.3368523
27.021841743420318	1.8236982	1.3504437
27.039867682200814	1.8284727	1.3522103
27.057894302815072	1.8422829	1.3573072
27.07592160578664	1.8520849	1.3609133
27.0939495916392	1.8099544	1.3453455
27.111978260896635	1.8267395	1.3515693
27.13000761408296	1.8105348	1.3455611
27.148037651722397	1.8123839	1.346248
27.166068374339304	1.806308	1.3439896
27.184099782458215	1.8082994	1.3447303
27.20213187660384	1.8362303	1.3550757
27.22016465730105	1.8667439	1.3662884
27.23819812507487	1.8221909	1.3498855
27.256232280450533	1.7815748	1.3347565
27.274267123953383	1.7902402	1.3379985
27.292302656108987	1.8013148	1.3421307
27.31033887744306	1.8046867	1.3433863
27.32837578848146	1.7742301	1.3320023
27.34641338975026	1.7301216	1.3153409
27.364451681775673	1.7328405	1.3163741
27.382490665084074	1.7621207	1.327449
27.400530340202046	1.7557396	1.3250432
27.41857070765629	1.7735449	1.331745
27.436611767973726	1.7934836	1.33921
27.454653521681404	1.8361584	1.3550493
27.472695969306564	1.8208922	1.3494043
27.490739111376627	1.8514193	1.3606687
27.508782948419153	1.8030139	1.3427635
27.526827480961902	1.7564183	1.3252994
27.54487270953279	1.7647293	1.3284311
27.562918634659898	1.7871796	1.3368543
27.580965256871508	1.8199859	1.3490685
27.599012576696026	1.822218	1.3498955
27.617060594662068	1.8197228	1.348971
27.63510931129842	1.8112596	1.3458304
27.65315872713401	1.7802207	1.3342491
27.67120884269797	1.7917616	1.338567
27.68925965851958	1.8645093	1.3654704
27.707311175128307	1.8690735	1.3671407
27.725363393053787	1.8881841	1.3741121
27.74341631282583	1.8687737	1.367031
27.7614699349744	1.8672649	1.366479
27.77952426002968	2.0870984	1.4446794
27.797579288521973	2.1407993	1.463147
27.815635020981784	2.6085577	1.615103
27.83369145793979	2.651986	1.6284919
27.85174859992682	2.4596264	1.5683197
27.869806447473923	2.3248785	1.5247552
27.887865001112267	2.0120413	1.4184644
27.905924261373233	1.87406	1.3689631
27.92398422878836	1.91162	1.3826134
27.94204490388936	1.9452355	1.394717
27.96010628720813	1.9098321	1.3819667
27.978168379276728	1.923503	1.3869041
27.9962311806274	1.9020503	1.3791484
28.014294691792568	1.8746668	1.3691847
28.0323589133048	1.8869162	1.3736507
28.050423845696887	1.9110518	1.3824079
28.068489489501758	1.8727335	1.3684785
28.086555845252523	1.8275117	1.3518549
28.104622913482487	1.8467733	1.3589604
28.122690694725115	1.8550892	1.3620166
28.14075918951405	1.8573295	1.3628387
28.15882839838312	1.8547585	1.3618952
28.176898321866304	1.8534192	1.3614033
28.1949689604978	1.8220164	1.3498209
28.213040314811945	1.8074439	1.3444121
28.23111238534327	1.8522394	1.36097
28.249185172626493	1.842981	1.3575643
28.267258677196473	1.8210387	1.3494587
28.285332899588294	1.7762952	1.3327773
28.303407840337172	1.8245082	1.3507435
28.321483499978545	1.8628542	1.3648642
28.33955987904799	1.8772097	1.370113
28.357636978081285	1.90992	1.3819985
28.37571479761439	1.960335	1.4001197
28.393793338183425	2.0091226	1.4174352
28.41187260032469	2.0284934	1.4242519
28.429952584574686	1.9583879	1.3994241
28.448033291470065	1.9506683	1.3966633
28.46611472154769	1.9284147	1.3886737
28.484196875344566	1.9216179	1.3862243
28.502279753397914	1.955238	1.3982983
28.52036335624511	1.9581358	1.3993341
28.538447684423716	1.9544855	1.3980292
28.556532738471482	1.9678016	1.4027835
28.574618518926325	1.9923072	1.4114912
28.59270502632635	1.9858872	1.4092151
28.61079226120985	1.9800706	1.4071498
28.628880224115274	1.9872838	1.4097105
28.646968915581287	2.0266547	1.4236063
28.66505833614671	2.016333	1.4199765
28.68314848635055	2.0355163	1.4267153
28.701239366732004	2.072625	1.4396614
28.71933097783044	2.0891733	1.4453973
28.737423320185403	2.0884037	1.4451311
28.75551639433665	2.0860465	1.4443152
28.773610200824074	2.0824366	1.443065
28.791704740187793	2.0989418	1.4487725
28.80980001296809	2.0996985	1.4490336
28.827896019705413	2.1256542	1.4579624
28.845992760940433	2.1428497	1.4638475
28.86409023721397	2.15276	1.4672287
28.88218844906704	2.1877651	1.4791095
28.900287397040845	2.2109616	1.4869303
28.918387081676755	2.1772664	1.4755563
28.936487503516343	2.2218223	1.4905778
28.954588663101365	2.2924223	1.5140747
28.97269056097374	2.3427415	1.5306016
28.990793197675597	2.331539	1.5269377
29.00889657374923	2.3675945	1.5386989
29.027000689737125	2.3919134	1.5465811
29.04510554618196	2.402333	1.5499462
29.06321114362659	2.4066348	1.5513332
29.08131748261405	2.3820202	1.5433794
29.099424563687567	2.4949625	1.579545
29.11753238739057	2.5569918	1.5990597
29.13564095426663	2.5658665	1.6018323
29.15375026485954	2.5835874	1.6073542
29.171860319713275	2.619597	1.6185169
29.18997111937199	2.6437187	1.6259516
29.20808266438002	2.6878316	1.6394608
29.226194955281898	2.7405128	1.6554494
29.244307992622335	2.8135285	1.6773576
29.26242177694624	2.8959846	1.7017593
29.2805363087987	2.8730671	1.6950125
29.29865158872498	2.8531752	1.6891345
29.316767617270557	2.8481662	1.687651
29.334884394981064	2.9057603	1.7046291
29.353001922402367	2.9098196	1.7058194
29.37112020008047	3.0074203	1.7341915
29.389239228561596	3.133806	1.7702559
29.407359008392152	3.3048177	1.8179158
29.42547954011872	3.6552942	1.9118824
29.44360082428809	4.377545	2.0922582
29.46172286144722	5.543783	2.354524
29.479845652143283	7.0652027	2.6580448
29.497969196923606	8.9657	2.994278
29.516093496335728	11.261591	3.3558295
29.5342185509274	13.963304	3.7367504
29.55234436124651	16.326206	4.0405703
29.570470927841175	17.709557	4.2082725
29.588598251259686	17.413849	4.1729903
29.60672633205055	16.06871	4.0085797
29.624855170762405	13.9958105	3.7410975
29.642984767944146	11.47252	3.387111
29.66111512414481	8.955775	2.9926202
29.67924623991366	6.8333383	2.6140654
29.697378115800138	5.199789	2.2803047
29.71551075235387	4.2307034	2.0568674
29.733644150124675	3.721787	1.9291934
29.751778309662576	3.4902868	1.8682309
29.769913231517766	3.407888	1.8460466
29.78804891624066	3.3248742	1.8234237
29.806185364381818	3.255869	1.8044026
29.82432257649206	3.2790055	1.8108025
29.842460553122333	3.3014457	1.8169881
29.86059929482382	3.2964098	1.8156018
29.878738802147872	3.2501566	1.8028191
29.896879075646048	3.2452614	1.8014609
29.915020115870114	3.2405806	1.8001612
29.933161923371976	3.213705	1.792681
29.951304498703777	3.22371	1.7954693
29.969447842417857	3.2489455	1.8024831
29.987591955066733	3.2700229	1.8083204
30.005736837203123	3.2169101	1.7935747
30.023882489379943	3.1420789	1.772591
30.04202891215028	3.1587296	1.7772815
30.060176106067455	3.1918545	1.7865762
30.078324071684946	3.2116578	1.7921098
30.09647280955646	3.2559702	1.8044307
30.114622320235863	3.2952237	1.8152751
30.132772604277257	3.1599262	1.7776182
30.1509236622349	3.0794847	1.7548461
30.16907549466328	3.0033588	1.7330202
30.18722810211705	3.0271282	1.7398645
30.205381485151097	3.1490126	1.7745458
30.22353564432045	3.1383853	1.7715489
30.241690580180403	3.0398622	1.74352
30.25984629328638	3.0429735	1.7444121
30.278002784194037	3.095799	1.7594882
30.296160053459246	3.0858438	1.756657
30.314318101638033	2.9992642	1.7318383
30.332476929286646	2.9857335	1.7279276
30.35063653696153	2.9478028	1.7169167
30.368796925219307	2.8492427	1.68797
30.386958094616844	2.7820046	1.6679342
30.40512004571115	2.8055627	1.6749814
30.423282779059463	2.8224635	1.6800189
30.441446295219233	2.8362312	1.6841114
30.459610594748067	2.8826718	1.6978433
30.47777567820382	2.9373581	1.7138723
30.495941546144504	2.9421945	1.7152826
30.51410819912835	2.806646	1.6753048
30.532275637713795	2.8073673	1.6755201
30.55044386245946	2.792428	1.6710559
30.56861287392416	2.7436216	1.6563882
30.586782672666956	2.787569	1.6696014
30.604953259247047	2.8282368	1.6817362
30.623124634223885	2.7750785	1.6658567
30.641296798157075	2.7494154	1.6581361
30.659469751606462	2.7944973	1.671675
30.677643495132074	2.8109522	1.6765895
30.695818029294152	2.8117552	1.6768289
30.713993354653116	2.7418532	1.6558542
30.73216947176962	2.7080598	1.6456183
30.75034638120448	2.6789854	1.6367606
30.768524083518756	2.6705685	1.6341875
30.786702579273673	2.713581	1.6472951
30.80488186903069	2.7910326	1.6706383
30.82306195335144	2.9016278	1.7034165
30.841242832797782	3.174602	1.7817413
30.85942450793176	3.4521234	1.8579891
30.877606979315637	3.6767914	1.9174961
30.895790247511883	3.9730132	1.9932419
30.913974313083134	4.445959	2.1085443
30.932159176592283	4.7307134	2.1750202
30.95034483860237	4.746099	2.1785543
30.968531299676698	4.596631	2.1439755
30.98671856037873	4.3177238	2.0779133
31.00490662127215	3.9200478	1.9799111
31.023095482920848	3.5280564	1.8783121
31.04128514588892	3.1522043	1.7754449
31.059475610740662	2.8027136	1.6741307
31.07766687804056	2.5800638	1.6062577
31.09585894835335	2.4719014	1.5722282
31.11405182224393	2.4777758	1.5740952
31.132245500277417	2.4252343	1.5573164
31.15043998301914	2.3514366	1.5334395
31.168635271034628	2.3573072	1.5353525
31.18683136488964	2.3498144	1.5329105
31.20502826515008	2.3667982	1.5384402
31.223225972382135	2.391419	1.5464213
31.241424487152155	2.445345	1.5637599
31.259623810026692	2.4631183	1.5694325
31.27782394157253	2.4446516	1.5635382
31.296024882356644	2.4521284	1.5659274
31.314226632946237	2.4377112	1.5613172
31.332429193908684	2.4554656	1.5669925
31.350632565811598	2.4792635	1.5745677
31.368836749222787	2.4340978	1.5601596
31.387041744710295	2.4558878	1.5671272
31.40524755284232	2.538696	1.5933286
31.423454174187317	2.5598547	1.5999546
31.441661609313922	2.522821	1.5883391
31.459869858791002	2.4730115	1.5725812
31.478078923187628	2.3710248	1.5398133
31.496288803073064	2.3240426	1.524481
31.514499499016807	2.2785788	1.5094962
31.532711011588546	2.2413473	1.497113
31.550923341358178	2.2361476	1.4953754
31.56913648889584	2.2452834	1.4984269
31.587350454771844	2.2016416	1.483793
31.605565239556732	2.2023861	1.4840438
31.62378084382127	2.2310147	1.4936582
31.641997268136382	2.279747	1.5098832
31.660214513073274	2.3139768	1.5211761
31.67843257920331	2.2996514	1.5164602
31.6966514670981	2.2753024	1.5084106
31.71487117732944	2.2377243	1.4959025
31.733091710469346	2.313212	1.5209247
31.751313067090052	2.4120808	1.5530875
31.769535247764008	2.414166	1.5537586
31.787758253063878	2.3570578	1.5352713
31.805982083562526	2.2341902	1.4947208
31.824206739833024	2.15785	1.4689622
31.84243222244869	2.190962	1.4801899
31.860658531983013	2.2434576	1.4978176
31.878885669009737	2.229847	1.4932672
31.897113634102784	2.1695945	1.4729544
31.91534242783632	2.2096546	1.4864907
31.933572050784694	2.187879	1.4791481
31.951802503522508	2.1766129	1.4753349
31.970033786624548	2.1607559	1.469951
31.988265900665834	2.137427	1.4619942
32.006498846221575	2.1756802	1.4750187
32.02473262386724	2.2073102	1.4857019
32.04296723417845	2.218529	1.4894727
32.0612026777311	2.244988	1.4983284
32.07943895510129	2.3089728	1.5195304
32.097676066865304	2.2943199	1.5147012
32.115914013599685	2.2251763	1.4917024
32.13415279588115	2.0828712	1.4432156
32.152392414286666	2.1200228	1.4560298
32.1706328693934	2.1436381	1.4641168
32.18887416177875	2.126068	1.4581043
32.20711629202032	2.1342525	1.4609082
32.225359260695924	2.21024	1.4866875
32.243603068383614	2.2261457	1.4920274
32.26184771566166	2.1888678	1.4794823
32.28009320310852	2.1464388	1.465073
32.2983395313029	2.1461132	1.4649619
32.31658670082372	2.1209638	1.456353
32.33483471225012	2.1361208	1.4615474
32.35308356616143	2.1728835	1.4740704
32.371333263137245	2.2091386	1.4863172
32.38958380375734	2.2180808	1.4893223
32.407835188601744	2.2436376	1.4978777
32.42608741825067	2.275172	1.5083673
32.444340493284585	2.2352967	1.4950908
32.46259441428416	2.192336	1.4806539
32.48084918183028	2.1442735	1.4643338
32.49910479650405	2.0567045	1.4341215
32.51736125888683	2.0552106	1.4336005
32.53561856956014	2.1111898	1.4529934
32.5538767291058	2.0686002	1.4382629
32.572135738105764	2.0416968	1.4288795
32.59039559714228	2.0530453	1.4328451
32.608656306797776	2.030805	1.4250633
32.62691786765491	1.9929993	1.4117362
32.645180280296586	1.99555	1.4126394
32.663443545305896	1.9839183	1.4085164
32.68170766326619	2.0045278	1.4158134
32.69997263476099	2.0367832	1.4271592
32.7182384603741	2.0681477	1.4381056
32.7365051406895	2.0416596	1.4288665
32.75477267629144	1.9508091	1.3967137
32.77304106776434	1.9700155	1.4035724
32.79131031569289	2.020041	1.4212815
32.809580420661966	2.04813	1.431129
32.827851383256714	1.9813044	1.4075881
32.84612320406245	1.8999456	1.3783852
32.86439588366476	1.8921399	1.3755507
32.88266942264945	1.9463506	1.3951167
32.9009438216025	2.00754	1.4168768
32.9192190811102	2.025945	1.4233569
32.937495201758985	2.0776849	1.4414177
32.95577218413556	2.0741704	1.4401981
32.974050028826866	2.027637	1.4239511
32.992328736420035	2.0713184	1.4392076
33.010608307502444	2.0085423	1.4172305
33.02888874266169	1.9422141	1.3936335
33.047170042485604	1.9567778	1.3988488
33.06545220756225	1.9683435	1.4029766
33.083735238479896	1.8697915	1.3674031
33.10201913582707	1.899145	1.3780947
33.12030390019248	1.9045081	1.3800392
33.138589532165135	1.8718656	1.3681614
33.15687603233419	1.9685313	1.4030435
33.17516340128909	2.0975306	1.4482855
33.19345163961947	2.033134	1.4258801
33.211740747915215	1.9326603	1.3902016
33.23003072676643	1.9391495	1.3925335
33.248321576763466	1.9824706	1.4080024
33.266613298496885	2.005653	1.4162108
33.28490589255747	1.9777162	1.406313
33.30319935953626	1.944397	1.3944163
33.32149370002451	1.9248606	1.3873935
33.339788914613706	1.9614842	1.40053
33.358085003895575	1.9927794	1.4116584
33.376381968462034	1.9850601	1.4089216
33.39467980890529	1.8936853	1.3761123
33.41297852581774	1.8146137	1.3470759
33.43127811979204	1.9132005	1.3831849
33.44957859142105	2.1289885	1.4591054
33.467879941297866	2.0833142	1.443369
33.486182170015844	1.9843209	1.4086592
33.50448527816853	1.8621024	1.3645887
33.522789266349754	1.867247	1.3664725
33.541094135153514	1.8215164	1.3496356
33.55939988517411	1.7863767	1.336554
33.57770651700602	1.8754896	1.3694851
33.59601403124398	1.9433055	1.394025
33.61432242848296	1.943198	1.3939863
33.632631709318154	1.9972336	1.4132352
33.650941874344994	2.0134215	1.4189509
33.66925292415916	2.0529146	1.4327996
33.68756485935654	2.0498343	1.4317242
33.70587768053328	2.0313394	1.4252506
33.724191388285746	1.9686564	1.4030882
33.74250598321054	1.8860416	1.3733323
33.760821465904506	1.897291	1.3774219
33.77913783696474	1.8341815	1.3543196
33.79745509698852	1.7953202	1.3398956
33.815773246573414	1.8200005	1.349074
33.8340922863172	1.9146725	1.383717
33.852412216817896	1.992218	1.4114596
33.87073303867377	1.8826479	1.3720962
33.889054752483304	1.7175477	1.3105525
33.907377358845245	1.7112147	1.3081341
33.92570085835853	1.8387312	1.3559983
33.94402525162239	1.8068403	1.3441876
33.96235053923627	1.7965035	1.3403372
33.980676721799824	1.8058931	1.3438352
33.999003799912984	1.8655839	1.3658638
34.01733177417592	1.9575986	1.399142
34.03566064518901	1.9949526	1.4124279
34.0539904135529	1.8716391	1.3680786
34.07232107986846	1.9448142	1.3945659
34.090652644736785	1.980787	1.4074043
34.108985108759235	1.9900374	1.4106869
34.12731847253742	2.0146842	1.4193957
34.14565273667313	1.9883231	1.4100791
34.16398790176847	2.0085711	1.4172407
34.18232396842574	2.0313525	1.4252553
34.20066093724749	1.9293764	1.38902
34.21899880883651	1.9126148	1.3829732
34.23733758379583	1.9751139	1.4053874
34.25567726272874	1.9455403	1.3948263
34.27401784623872	1.8640444	1.3653002
34.29235933492957	1.8569005	1.3626814
34.31070172940526	1.8556081	1.362207
34.32904503027003	1.8229216	1.3501562
34.347389238128386	1.8704584	1.367647
34.36573435358502	1.9116037	1.3826076
34.38408037724492	1.9699967	1.4035658
34.402427309713296	2.056398	1.4340146
34.42077515159559	2.0573528	1.4343475
34.43912390349752	1.8965784	1.3771632
34.45747356602499	1.9046963	1.3801074
34.47582413978423	1.9851587	1.4089566
34.49417562538163	2.0307927	1.4250588
34.51252802342388	1.9703721	1.4036994
34.53088133451789	1.7705913	1.3306357
34.54923555927084	1.7959555	1.3401327
34.567590698290104	2.0089216	1.4173644
34.58594675218336	2.0436244	1.4295539
34.6043037215585	2.0434306	1.4294862
34.62266160702365	2.1103	1.4526871
34.641020409187234	2.164119	1.4710945
34.65938012865785	2.08867	1.4452232
34.677740766044394	2.203672	1.484477
34.69610232195598	2.2199378	1.4899455
34.714464797002016	1.9927497	1.4116479
34.73282819179208	1.772132	1.3312145
34.751192506936064	1.8777196	1.3702991
34.76955774304408	2.0197742	1.4211876
34.7879239007265	2.0692883	1.4385021
34.80629098059391	2.0838323	1.4435484
34.824658983257194	1.918374	1.3850538
34.843027909327446	1.9702004	1.4036382
34.86139775941603	1.9858241	1.4091927
34.879768534134534	1.9519733	1.3971304
34.89814023409483	2.0889697	1.4453268
34.91651285990901	2.001914	1.41489
34.93488641218944	2.0641227	1.4367055
34.95326089154871	2.126852	1.4583731
34.97163629859967	1.980588	1.4073336
34.99001263395542	1.9027485	1.3794014
35.00838989822934	2.0265267	1.4235612
35.02676809203499	2.0345492	1.4263762
35.04514721598624	2.0671136	1.437746
35.063527270697215	2.1349773	1.4611561
35.081908256782256	2.1227763	1.456975
35.10029017485597	2.1344876	1.4609885
35.11867302553321	1.9840478	1.4085623
35.137056809429104	1.6886141	1.2994668
35.155441527159006	1.6933954	1.3013053
35.173827179338524	2.0143127	1.4192649
35.19221376658354	2.1323688	1.4602633
35.21060128951017	2.0403113	1.4283947
35.2289897487348	1.864693	1.3655376
35.24737914487405	1.9237535	1.3869944
35.26576947854479	2.1449282	1.4645573
35.28416075036418	2.0670052	1.4377083
35.30255296094958	1.9802157	1.4072014
35.32094611091867	1.9333245	1.3904403
35.33934020088932	2.0738304	1.4400799
35.35773523147969	2.2687418	1.5062343
35.3761312033082	2.1750236	1.474796
35.394528116993506	1.929103	1.3889215
35.41292597315452	1.6460128	1.2829703
35.431324772410434	1.7774007	1.333192
35.449724515380666	1.9051304	1.3802646
35.46812520268491	1.8571241	1.3627634
35.486526834943106	1.86895	1.3670955
35.504929412775454	1.9526236	1.3973631
35.52333293680242	2.2889519	1.5129282
35.54173740764471	2.3363006	1.5284961
35.560142825923286	2.2724414	1.5074619
35.5785491922594	2.3078442	1.5191591
35.59695650727454	2.1040635	1.450539
35.61536477159042	1.7820303	1.3349271
