0.008763373481513119	0.0	0.0
0.026290120649546365	0.0	0.0
0.043816868432600686	0.0046239095	0.06799933
0.06134361724069026	0.12857582	0.3585747
0.07887036748382949	0.16127077	0.4015853
0.0963971195720331	0.16545258	0.40675864
0.11392387391531617	0.27925274	0.5284437
0.1314506309236943	0.33732074	0.5807932
0.1489773910071836	0.3025578	0.5500525
0.16650415457580078	0.1953705	0.44200733
0.18403092203956356	0.047643237	0.21827331
0.20155769380849	0.025867973	0.16083524
0.2190844702925996	0.109808736	0.33137402
0.2366112519019124	0.15773809	0.39716256
0.2541380390464497	0.232397	0.48207572
0.27166483213623416	0.15984873	0.39981088
0.28919163158128947	0.1442993	0.37986746
0.3067184377916406	0.114033155	0.33768797
0.324245251177314	0.13044615	0.3611733
0.34177207214833777	0.16680492	0.40841758
0.3592989011147415	0.13686603	0.3699541
0.37682573848655654	0.13034894	0.36103868
0.39435258467381573	0.11528225	0.3395324
0.41187944008655414	0.15565406	0.39453018
0.42940630513480854	0.17899686	0.4230802
0.446933180228618	0.19208762	0.43827802
0.4644600657780234	0.2031275	0.45069668
0.48198696219306775	0.17853647	0.42253578
0.49951386988379676	0.13934436	0.37328857
0.5170407892602581	0.13855529	0.37223014
0.5345677207325025	0.14954297	0.38670787
0.5520946647105822	0.15360369	0.39192307
0.5696216216045534	0.16119812	0.40149486
0.5871485918244737	0.15715484	0.3964276
0.6046755757804043	0.15479891	0.39344493
0.6222025738824094	0.15461428	0.39321023
0.6397295865405557	0.15893576	0.39866748
0.6572566141649129	0.138256	0.3718279
0.6747836571655547	0.13550846	0.36811474
0.6923107159525568	0.106409825	0.3262052
0.7098377909359992	0.122289546	0.34969923
0.7273648825259653	0.14726834	0.38375556
0.7448919911325411	0.1685013	0.4104891
0.762419117165817	0.16760711	0.40939847
0.7799462610358868	0.1674716	0.40923294
0.7974734231528482	0.16473843	0.40587983
0.8150006039268024	0.19462702	0.4411655
0.8325278037678551	0.2218124	0.47096965
0.8500550230861152	0.23731093	0.4871457
0.8675822622916969	0.27301216	0.52250564
0.8851095217947171	0.27208945	0.52162194
0.9026368020052984	0.25155243	0.50155
0.9201641033335665	0.22303613	0.472267
0.9376914261896523	0.19829416	0.44530234
0.9552187709836915	0.21209341	0.460536
0.9727461381258234	0.20093402	0.44825664
0.990273528026193	0.22385697	0.47313526
1.0078009410949496	0.24064365	0.49055442
1.0253283777422473	0.29240462	0.5407445
1.0428558383782454	0.30723768	0.55429024
1.0603833234131086	0.29932413	0.54710525
1.0779108332570058	0.3352758	0.57903004
1.0954383683201119	0.32515126	0.57022035
1.112965929012607	0.4145005	0.6438171
1.1304935157446763	0.5573798	0.7465787
1.1480211289265108	0.62456936	0.79029703
1.1655487689683062	1.523707	1.2343853
1.1830764362802655	1.7875699	1.3370004
1.200604131272596	2.2600482	1.5033456
1.2181318543555117	2.6257756	1.6204245
1.235659605939232	2.658348	1.6304442
1.253187386433982	4.308444	2.075679
1.270715196249994	6.5565968	2.5605853
1.2882430357975057	11.806949	3.436124
1.3057709054867608	16.234964	4.0292635
1.3232988057280106	21.87996	4.677602
1.3408267369315112	27.031258	5.199159
1.358354699507526	30.668703	5.537933
1.3758826938663256	34.813698	5.9003134
1.3934107204181858	36.918716	6.0760775
1.410938779573391	37.65756	6.1365757
1.4284668717422309	39.04218	6.248374
1.4459949973350033	38.40205	6.196939
1.4635231567620117	38.171474	6.1783066
1.4810513504335687	37.39729	6.115332
1.4985795787599925	36.7214	6.0598187
1.5161078421516088	36.316887	6.0263495
1.5336361410187505	35.140804	5.927968
1.5511644757717598	35.00194	5.916244
1.5686928468209842	35.59859	5.9664555
1.58622125457678	36.359123	6.029853
1.6037496994495108	37.339172	6.1105785
1.621278181849548	37.39718	6.115323
1.6388067021872719	37.973312	6.162249
1.6563352608730693	37.51686	6.125101
1.673863858317336	36.565285	6.0469236
1.6913924949304753	35.938255	5.9948525
1.7089211711228998	34.94026	5.911029
1.7264498873050296	34.22065	5.849842
1.7439786438872935	33.35728	5.775576
1.7615074412801288	32.30002	5.6833105
1.779036279893981	31.675817	5.6281276
1.796565160139305	30.741896	5.5445375
1.814094082426564	30.051767	5.4819493
1.8316230471662298	29.158537	5.3998647
1.849152054768784	28.018269	5.2932286
1.8666811056447168	27.399874	5.234489
1.8842102002045273	26.82503	5.1792884
1.901739338858724	26.527828	5.1505175
1.9192685220178245	25.839344	5.0832415
1.9367977500923557	25.211866	5.021142
1.9543270234928547	24.441013	4.943785
1.971856342629867	24.075521	4.9066815
1.9893857079139496	23.569052	4.854797
2.006915119755667	23.293669	4.8263516
2.0244445785655945	22.747793	4.7694645
2.0419740847543175	22.437067	4.7367783
2.0595036387324317	21.703274	4.658677
2.0770332409105414	21.03982	4.5869184
2.094562891699263	20.332771	4.509187
2.1120925915092217	19.78674	4.448229
2.129622340751053	19.598381	4.427006
2.1471521398354043	188.06708	13.713755
2.1646819891729323	444.51862	21.08361
2.182211889174303	440.69714	20.992788
2.1997418402501974	452.90897	21.281658
2.2172718428113023	432.96097	20.807714
2.234801897268317	320.92105	17.91427
2.2523320040319548	17.367422	4.1674237
2.269862163512935	16.894373	4.1102767
2.287392376121992	16.477022	4.05919
2.304922642269869	16.170843	4.021299
2.322452962367322	15.797172	3.9745655
2.3399833368251164	15.4496355	3.9306026
2.357513766054032	15.101531	3.8860688
2.3750442504648586	14.872082	3.8564339
2.3925747904683963	14.9198675	3.8626244
2.410105386475459	14.8706665	3.8562503
2.4276360388968707	14.687007	3.8323631
2.445166748143469	14.234863	3.7729118
2.4626975146261025	13.801305	3.7150106
2.4802283387556323	13.595872	3.687258
2.4977592209429305	13.489048	3.672744
2.5152901615988825	13.283134	3.6446035
2.5328211611343865	13.004659	3.6061974
2.5503522199603523	12.69513	3.5630226
2.5678833384877024	12.572183	3.5457275
2.5854145171273712	12.353457	3.5147486
2.6029457562903064	12.109728	3.4799035
2.620477056387469	11.9260025	3.4534044
2.6380084178298326	11.73983	3.4263434
2.655539841028383	11.5998535	3.4058557
2.673071326394119	11.436092	3.3817291
2.6906028743380523	11.241467	3.3528297
2.708134485271211	10.989513	3.3150434
2.7256661596046325	10.888393	3.2997565
2.743197897749369	10.703212	3.2715764
2.760729700116486	10.708673	3.2724109
2.778261567117063	10.5828705	3.2531323
2.795793499162193	10.560235	3.2496514
2.8133254966629817	10.510189	3.2419422
2.830857560030551	10.211498	3.1955435
2.8483896896760337	10.011506	3.1640964
2.865921886010578	9.748716	3.1222935
2.883454149445347	9.655484	3.1073275
2.9009864803915177	9.547529	3.0899076
2.91851887926028	9.335838	3.0554605
2.9360513464628384	9.201155	3.0333405
2.953583882410413	9.017458	3.0029082
2.9711164875142373	8.95897	2.9931538
2.9886491621855606	8.914083	2.985646
3.0061819068356455	8.746706	2.957483
3.023714721875769	8.595025	2.9317274
3.041247607717225	8.432437	2.9038658
3.0587805647713213	8.32799	2.8858256
3.0763135934493806	8.238426	2.870266
3.0938466941627407	8.084908	2.8433971
3.1113798673227544	7.958543	2.821089
3.1289131133407904	7.914477	2.813268
3.1464464326282315	7.806297	2.793975
3.1639798255964786	7.7480464	2.7835312
3.1815132926569443	7.602298	2.7572265
3.1990468342210603	7.647765	2.7654593
3.216580450700272	7.5659695	2.7506309
3.2341141425060416	7.461154	2.7315114
3.251647910049847	7.40988	2.7221096
3.2691817537431813	7.5086536	2.7401922
3.286715673997555	7.438344	2.7273328
3.3042496712244938	7.2898755	2.699977
3.32178374583554	7.0968122	2.6639843
3.339317898242251	7.019291	2.6493945
3.3568521288562034	6.995841	2.6449652
3.3743864380889876	6.8434467	2.6159983
3.3919208263522127	6.7832475	2.604467
3.4094552940575023	6.807737	2.609164
3.4269898416164972	6.7611055	2.6002126
3.444524469440858	6.7050223	2.5894058
3.4620591779422587	6.5546794	2.5602107
3.479593967532391	6.52351	2.5541162
3.4971288386229658	6.418829	2.5335407
3.5146637916257086	6.4411874	2.5379496
3.5321988269523628	6.443871	2.5384781
3.5497339450146903	6.4345675	2.536645
3.5672691462244708	6.3968816	2.5292058
3.5848044309934988	6.365377	2.52297
3.60233979973359	6.3354373	2.5170295
3.619875252856575	6.256903	2.5013802
3.6374107907743034	6.144689	2.4788482
3.6549464138986427	6.2208295	2.494159
3.6724821226414788	6.257536	2.5015068
3.690017917414714	6.307469	2.5114675
3.7075537986302702	6.397425	2.529313
3.7250897667000857	6.559458	2.5611439
3.7426258220361235	6.848251	2.6169162
3.7601619650503553	7.1057267	2.6656568
3.777698196154779	7.495805	2.7378469
3.7952345157614067	8.457846	2.9082375
3.8127709242822716	9.22488	3.0372488
3.830307422129425	11.475662	3.3875747
3.847844009714936	30.340292	5.508202
3.8653806874508954	97.84942	9.891887
3.882917455749409	97.064064	9.85211
3.900454315022606	96.58903	9.827971
3.917991265682631	41.178814	6.4170723
3.9355283081416506	10.822344	3.2897332
3.9530654428118495	8.78678	2.9642503
3.970602670105433	7.602755	2.7573094
3.9881399904346244	6.6411347	2.57704
4.005677404211669	6.512281	2.551917
4.023214911848827	6.527263	2.5548508
4.0407525137583855	6.528665	2.5551252
4.058290210352644	6.526107	2.5546246
4.075828002043927	6.367151	2.5233214
4.0933658892445814	6.261389	2.5022767
4.110903872366966	6.098685	2.4695516
4.128441951823468	6.065235	2.4627697
4.145980128026488	6.097631	2.4693382
4.163518401388452	6.142869	2.4784813
4.181056772321807	6.207329	2.491451
4.1985952412390155	6.158917	2.4817166
4.216133808552567	6.2393174	2.4978626
4.233672474674966	6.2870994	2.5074089
4.251211240018741	6.4552584	2.54072
4.268750104996445	6.688492	2.586212
4.286289070020643	7.6699643	2.76947
4.303828135503928	9.370553	3.061136
4.3213673018589125	29.743673	5.453776
4.3389065694982305	90.835365	9.530759
4.356445938834537	166.0724	12.886909
4.3739854102805085	171.4004	13.091998
4.391524984248844	172.2084	13.12282
4.409064661152262	136.38582	11.678434
4.426604441403504	96.68757	9.832984
4.444144325415337	75.79461	8.70601
4.461684313600543	21.632784	4.651106
4.47922440637193	21.969524	4.6871657
4.496764604142329	20.283596	4.5037313
4.5143049073245916	18.459513	4.2964535
4.531845316331589	16.416962	4.051785
4.5493858315762195	13.438238	3.6658204
4.566926453471405	11.2196245	3.3495708
4.584467182430081	9.087749	3.0145893
4.602008018865218	8.034342	2.8344915
4.619548963189798	7.4679537	2.7327557
4.637090015816834	7.1013265	2.6648314
4.654631177159353	6.907109	2.6281378
4.672172447630417	6.5005302	2.5496137
4.689713827643102	6.2212243	2.4942381
4.7072553176105085	5.8753514	2.4239125
4.724796917945764	5.8669095	2.4221704
4.742338629062015	5.8052444	2.4094074
4.759880451372434	5.76013	2.400027
4.777422385290215	5.699177	2.3872948
4.794964431228581	5.7182374	2.3912835
4.812506589600768	5.699091	2.387277
4.830048860820047	5.64643	2.376222
4.847591245299709	5.72577	2.392858
4.8651337434530655	5.798676	2.408044
4.882676355693457	5.756185	2.399205
4.900219082434242	5.676558	2.3825529
4.917761924088813	5.5856876	2.363406
4.935304881070575	5.539548	2.3536243
4.952847953792969	5.4066567	2.3252218
4.970391142669449	5.389231	2.3214717
4.9879344481135055	5.4190607	2.3278875
5.005477870538642	5.553525	2.3565917
5.023021410358394	5.6342382	2.373655
5.040565067986324	5.602751	2.367013
5.05810884383601	5.5369396	2.3530703
5.075652738321066	5.434123	2.3311205
5.09319675185512	5.388711	2.3213596
5.110740884851836	5.3905945	2.3217654
5.128285137724894	5.3985415	2.323476
5.145829510888007	5.379729	2.3194242
5.163374004754908	5.3287263	2.3084035
5.1809186197393595	5.3241634	2.3074148
5.198463356255145	5.3157005	2.3055804
5.216008214716077	5.305032	2.3032656
5.233553195535998	5.274624	2.296655
5.251098299128764	5.258634	2.2931712
5.268643525908272	5.3701324	2.3173547
5.286188876288432	5.4181395	2.3276896
5.3037343506831895	5.4495635	2.33443
5.32127994950651	5.3810472	2.3197083
5.3388256731723915	5.2829933	2.2984762
5.356371522094851	5.2342014	2.2878377
5.373917496687938	5.258595	2.2931626
5.391463597365729	5.2335196	2.2876887
5.40900982454232	5.1946883	2.2791858
5.426556178631843	5.1364636	2.2663767
5.444102660048449	5.115322	2.2617078
5.4616492692063225	5.1326604	2.2655375
5.479196006519669	5.2057953	2.2816212
5.496742872402727	5.2079	2.2820823
5.514289867269756	5.2179947	2.284293
5.531836991535049	5.2201877	2.284773
5.549384245612924	5.2223105	2.2852376
5.566931629917724	5.167203	2.2731483
5.584479144863822	5.161798	2.271959
5.6020267908656205	5.1319113	2.2653723
5.619574568337545	5.161556	2.2719057
5.637122477694054	5.1630683	2.2722385
5.654670519349629	5.165193	2.272706
5.672218693718784	5.1497917	2.2693152
5.689767001216059	5.198014	2.2799153
5.707315442256021	5.2604756	2.2935727
5.724864017253266	5.237324	2.28852
5.7424127266224225	5.19533	2.2793267
5.75996157077814	5.068788	2.251397
5.777510550135105	5.083317	2.2546213
5.795059665108022	5.0921636	2.2565823
5.812608916111639	5.161372	2.2718654
5.830158303560715	5.3379173	2.3103933
5.847707827870055	5.345596	2.3120544
5.86525748945448	5.4219923	2.3285172
5.8828072887288485	5.6221786	2.3711133
5.900357226108044	5.7034717	2.3881943
5.917907302006979	5.82082	2.4126375
5.9354575168406	6.339442	2.517825
5.9530078710238765	6.964166	2.6389706
5.970558364971812	7.505481	2.7396133
5.988108999099438	7.8433213	2.8005931
6.005659773821818	8.413946	2.9006803
6.023210689554039	8.240686	2.8706596
6.040761746711227	8.724172	2.953671
6.058312945708531	7.954592	2.8203886
6.075864286961132	7.413968	2.7228603
6.093415770884244	6.626964	2.574289
6.1109673978931065	6.085101	2.4667997
6.128519168402993	5.4839096	2.341775
6.146071082829204	5.432949	2.3308687
6.163623141587075	5.3862896	2.3208382
6.181175345091969	5.2895203	2.2998958
6.198727693759281	5.188697	2.2778711
6.216280188004435	5.0965624	2.2575567
6.233832828242885	5.047373	2.246636
6.251385614890126	5.101361	2.2586193
6.268938548361669	5.0656595	2.250702
6.286491629073067	4.989849	2.233797
6.304044857439898	4.9427924	2.2232392
6.321598233877777	4.920778	2.2182827
6.339151758802344	4.941043	2.2228458
6.356705432629277	4.9515424	2.2252061
6.37425925577428	5.0153246	2.239492
6.391813228653095	4.9577594	2.2266026
6.409367351681486	4.97808	2.231161
6.426921625275259	4.9833117	2.2323332
6.44447604985025	5.0045915	2.2370944
6.46203062582232	4.9607506	2.2272742
6.47958535360737	4.9311094	2.2206101
6.497140233621328	4.9300394	2.220369
6.514695266280161	4.9958367	2.2351367
6.532250451999859	5.0259695	2.2418673
6.549805791196454	5.060915	2.2496479
6.567361284286002	5.0989327	2.2580817
6.584916931684597	5.1120644	2.2609875
6.602472733808367	5.153119	2.2700481
6.6200286910734665	5.1527443	2.2699656
6.637584803896092	5.1196027	2.2626538
6.655141072692462	5.040529	2.2451122
6.672697497878842	4.9852514	2.2327676
6.690254079871514	4.96796	2.228892
6.707810819086808	4.9652195	2.2282772
6.725367715941078	5.0288963	2.24252
6.742924770850719	5.0536795	2.248039
6.760481984232151	5.0777807	2.2533932
6.778039356501836	5.0359564	2.2440937
6.795596888076266	4.987328	2.2332327
6.813154579371963	5.009705	2.2382371
6.830712430805492	5.0292096	2.24259
6.84827044279344	5.055309	2.2484014
6.865828615752445	5.0903397	2.2561781
6.883386950099159	5.0591283	2.2492507
6.900945446250287	5.0707383	2.25183
6.918504104622553	5.0535436	2.2480087
6.936062925632727	5.0721917	2.2521527
6.953621909697607	5.102686	2.2589126
6.971181057234028	5.1093974	2.2603977
6.988740368658859	5.143159	2.2678533
7.006299844389007	5.1796575	2.275886
7.023859484841407	5.241542	2.2894413
7.041419290433036	5.3793406	2.3193405
7.058979261580902	5.4982204	2.3448284
7.0765393987020495	5.696614	2.386758
7.094099702213559	5.995659	2.4486034
7.111660172532549	6.3089786	2.511768
7.129220810076164	6.650546	2.5788653
7.146781615261595	7.2396307	2.6906562
7.16434258850606	7.542602	2.7463799
7.181903730226821	8.022467	2.832396
7.1994650408411704	8.201856	2.8638883
7.217026520766437	8.372446	2.893518
7.234588170419983	8.689462	2.9477892
7.252149990219215	8.640201	2.939422
7.269711980581568	8.515321	2.9181023
7.2872741419245175	8.290408	2.8793068
7.304836474665574	7.926151	2.815342
7.322398979222286	7.514446	2.7412488
7.339961656012233	7.1567054	2.675202
7.357524505453039	6.7710257	2.6021194
7.375087527962357	6.4629846	2.5422401
7.392650723957886	6.2196207	2.4939167
7.410214093857353	5.971319	2.4436283
7.427777638078528	5.8273525	2.413991
7.445341357039213	5.688759	2.3851118
7.4629052511572525	5.608442	2.3682148
7.480469320850524	5.424727	2.3291044
7.498033566536948	5.338321	2.3104808
7.5155979886344735	5.2355866	2.2881405
7.5331625875610975	5.2100377	2.2825508
7.550727363734844	5.189421	2.2780302
7.568292317573788	5.248166	2.2908876
7.585857449496025	5.2281303	2.2865105
7.603422759919705	5.2790585	2.29762
7.620988249263007	5.214488	2.2835255
7.638553917944147	5.2139254	2.2834022
7.656119766381391	5.220892	2.2849271
7.673685794993023	5.2127247	2.2831392
7.691252004197388	5.1851873	2.2771006
7.70881839441285	5.1832194	2.2766685
7.726384966057826	5.2554502	2.292477
7.743951719550762	5.313178	2.3050332
7.761518655310149	5.303439	2.3029196
7.779085773754511	5.3261065	2.3078358
7.796653075302419	5.315446	2.305525
7.814220560372475	5.344767	2.3118753
7.831788229383323	5.311273	2.30462
7.8493560827536495	5.354543	2.3139887
7.866924120902174	5.362795	2.3157709
7.884492344247663	5.353922	2.3138542
7.9020607532089135	5.360438	2.3152618
7.919629348204771	5.3748627	2.318375
7.937198129654115	5.441098	2.332616
7.954767097975865	5.391969	2.3220613
7.972336253588986	5.3195796	2.3064213
7.989905596912472	5.345562	2.3120472
8.007475128365371	5.4282956	2.3298702
8.025044848366756	5.508151	2.346945
8.042614757335754	5.6081815	2.36816
8.060184855691523	5.645488	2.3760235
8.07775514385327	5.723382	2.392359
8.095325622240228	5.8066773	2.409705
8.112896291271687	5.838397	2.4162774
8.130467151366968	5.8852024	2.4259436
8.148038202945436	5.9024076	2.4294872
8.165609446426497	5.8733735	2.4235044
8.183180882229594	5.9058204	2.4301894
8.200752510774217	5.9661717	2.4425747
8.218324332479893	6.0225363	2.4540856
8.235896347766193	6.0523305	2.4601486
8.253468557052724	6.056126	2.4609199
8.27104096075914	6.025328	2.4546545
8.288613559305137	6.042664	2.458183
8.306186353110448	6.041943	2.4580364
8.32375934259485	6.096128	2.4690337
8.341332528178162	6.1499925	2.4799178
8.358905910280246	6.185339	2.487034
8.376479489321003	6.1370916	2.4773154
8.394053265720377	6.2098103	2.491949
8.411627239898356	6.3442564	2.5187807
8.42920141227497	6.368142	2.5235178
8.44677578327029	6.3497977	2.5198805
8.464350353304427	6.2398133	2.4979618
8.48192512279754	6.188537	2.487677
8.499500092169827	6.1848664	2.4869392
8.51707526184153	6.176813	2.4853196
8.534650632232934	6.198999	2.489779
8.552226203764365	6.223205	2.4946353
8.569801976856192	6.288137	2.5076158
8.587377951928834	6.350132	2.5199468
8.60495412940274	6.329144	2.515779
8.622530509698416	6.309416	2.5118551
8.6401070932364	6.422357	2.534237
8.657683880437283	6.5167	2.5527828
8.675260871721695	6.678662	2.5843108
8.692838067510303	6.7930408	2.6063461
8.710415468223834	6.9099526	2.6286788
8.727993074283043	7.097578	2.664128
8.745570886108737	7.210959	2.6853228
8.763148904121765	7.287761	2.6995854
8.78072712874302	7.2423716	2.6911654
8.798305560393441	7.404722	2.7211618
8.815884199494006	7.503842	2.739314
8.833463046465745	7.7054877	2.775876
8.851042101729728	7.889192	2.8087707
8.86862136570707	8.242826	2.8710322
8.886200838818924	8.45867	2.9083793
8.903780521486505	8.54791	2.9236808
8.921360414131055	8.665076	2.9436502
8.938940517173874	8.8007965	2.9666135
8.956520831036297	8.927763	2.9879363
8.97410135613971	9.179211	3.0297213
8.99168209290554	9.320759	3.0529919
9.009263041755265	9.593852	3.0973945
9.026844203110405	9.841561	3.1371262
9.044425577392525	10.091192	3.1766636
9.062007165023239	10.1297035	3.1827195
9.079588966424197	10.333245	3.2145367
9.097170982017108	10.405095	3.225693
9.11475321222372	11.4627905	3.3856742
9.132335657465825	12.436601	3.5265565
9.149918318165264	12.541892	3.5414534
9.167501194743924	13.042504	3.6114407
9.18508428762374	12.761536	3.572329
9.202667597226693	12.71833	3.5662768
9.220251123974803	12.471089	3.5314429
9.237834868290143	12.080681	3.4757273
9.255418830594836	11.90906	3.4509506
9.273003011311046	11.368724	3.371754
9.290587410860985	11.105736	3.332527
9.308172029666911	10.487199	3.2383945
9.32575686815113	10.124538	3.181908
9.343341926735997	8.852038	2.9752376
9.360927205843916	8.631662	2.9379692
9.378512705897327	8.48945	2.9136662
9.396098427318728	8.256829	2.8734698
9.413684370530664	8.11347	2.8484154
9.431270535955722	7.940344	2.8178616
9.448856924016539	7.840864	2.8001542
9.466443535135806	7.7278037	2.7798927
9.484030369736251	7.6947527	2.7739418
9.501617428240658	7.6926236	2.773558
9.519204711071852	7.761478	2.785943
9.536792218652714	7.854836	2.802648
9.55437995140617	7.872358	2.8057723
9.571967909755191	7.8338556	2.7989025
9.589556094122802	7.8194656	2.7963307
9.60714450493207	7.8170753	2.7959032
9.624733142606116	7.8800116	2.8071358
9.642322007568108	7.9594975	2.821258
9.659911100241267	8.055968	2.8383038
9.677500421048851	8.12613	2.8506367
9.695089970414175	8.224014	2.8677542
9.712679748760609	8.261465	2.8742764
9.730269756511557	8.23986	2.8705156
9.747859994090492	8.1998415	2.8635366
9.765450461920915	8.182293	2.8604708
9.78304116042639	8.306602	2.8821175
9.800632090030527	8.389557	2.8964732
9.81822325115699	8.450704	2.9070094
9.835814644229481	8.437751	2.9047806
9.853406269671762	8.369816	2.8930633
9.870998127907646	8.329895	2.8861558
9.888590219360985	8.377913	2.8944626
9.906182544455698	8.397263	2.897803
9.923775103615734	8.376971	2.8942997
9.941367897265108	8.368078	2.8927631
9.958960925827878	8.4238405	2.9023852
9.97655418972816	8.463572	2.909222
9.994147689390106	8.501357	2.9157088
10.011741425237934	8.4104595	2.9000793
10.029335397695904	8.418019	2.9013822
10.04692960718833	8.351663	2.8899243
10.06452405413958	8.332322	2.8865762
10.082118738974064	8.253561	2.8729012
10.099713662116246	8.242013	2.8708906
10.117308823990651	8.234978	2.8696651
10.134904225021844	8.273858	2.8764315
10.152499865634445	8.261814	2.8743372
10.170095746253125	8.337995	2.8875587
10.18769186730261	8.312984	2.8832247
10.205288229207675	8.298343	2.8806844
10.222884832393145	8.221593	2.867332
10.2404816772839	8.178911	2.8598795
10.258078764304868	8.143205	2.85363
10.275676093881035	8.1246395	2.8503754
10.293273666437438	8.140081	2.853083
10.310871482399158	8.235255	2.8697135
10.32846954219134	8.219125	2.8669016
10.346067846239173	8.307525	2.8822777
10.363666394967908	8.246631	2.8716948
10.38126518880283	8.254815	2.8731194
10.398864228169298	8.268437	2.875489
10.416463513492713	8.273791	2.8764198
10.434063045198531	8.144582	2.8538713
10.451662823712262	8.11874	2.8493402
10.469262849459467	8.147951	2.8544617
10.486863122865758	8.107411	2.8473516
10.504463644356806	8.169298	2.8581984
10.522064414358338	8.149086	2.8546605
10.539665433296118	8.112881	2.848312
10.557266701595987	7.9990926	2.8282666
10.574868219683818	7.8099356	2.7946262
10.592469987985552	7.7050056	2.7757893
10.610072006927185	7.588674	2.7547548
10.627674276934751	7.5351353	2.7450202
10.64527679843435	7.380531	2.7167132
10.662879571852143	7.3274264	2.706922
10.680482597614331	7.2980094	2.7014828
10.698085876147173	7.270002	2.696294
10.715689407876988	7.2182407	2.6866784
10.733293193230146	7.0394354	2.6531935
10.750897232633072	6.8815603	2.623273
10.76850152651225	6.7935133	2.606437
10.786106075294207	6.7319064	2.5945919
10.803710879405534	6.664396	2.5815492
10.821315939272877	6.539718	2.5572872
10.83892125532294	6.395546	2.5289416
10.856526827982472	6.2866693	2.507323
10.874132657678285	6.2928324	2.5085518
10.891738744837243	6.3012342	2.510226
10.909345089886271	6.2268367	2.495363
10.926951693252343	6.189872	2.4879453
10.944558555362494	6.1397696	2.477856
10.96216567664381	6.0533195	2.4603496
10.979773057523436	5.982915	2.4459999
10.997380698428573	5.898809	2.4287465
11.014988599786477	5.806866	2.409744
11.032596762024461	5.7273684	2.393192
11.050205185569892	5.6796703	2.383206
11.067813870850198	5.6696706	2.381107
11.085422818292859	5.585309	2.3633258
11.10303202832541	5.5132346	2.3480277
11.120641501375454	5.4348745	2.3312817
11.138251237870636	5.396735	2.3230875
11.155861238238671	5.3448462	2.3118923
11.173471502907317	5.198373	2.279994
11.191082032304402	5.114782	2.2615883
11.208692826857805	5.142872	2.26779
11.226303886995465	5.1506953	2.2695143
11.243915213145371	5.129328	2.264802
11.261526805735578	4.998923	2.2358272
11.279138665194196	4.888986	2.211105
11.296750791949393	4.841925	2.2004375
11.314363186429393	4.8327146	2.1983435
11.331975849062479	4.7893004	2.188447
11.34958878027699	4.7127557	2.1708882
11.36720198050133	4.6361823	2.1531796
11.384815450163948	4.5466247	2.1322815
11.402429189693366	4.47436	2.1152682
11.420043199518153	4.4536624	2.1103702
11.437657480066942	63.460888	7.966234
11.455272031768422	85.21883	9.231404
11.472886855051353	107.63133	10.374552
11.490501950344528	99.23163	9.961508
11.508117318076819	84.53121	9.194086
11.52573295867715	45.927074	6.776952
11.543348872574514	4.2580023	2.0634928
11.560965060197946	4.256951	2.063238
11.57858152197655	4.1773515	2.043857
11.59619825833949	4.0704937	2.0175464
11.613815269715985	3.9847238	1.9961773
11.631432556535323	38.515484	6.2060843
11.649050119226837	83.058876	9.113665
11.666667958219929	93.46091	9.667519
11.68428607394406	107.71357	10.378515
11.701904466828756	82.5483	9.085609
11.719523137303586	65.39207	8.086536
11.737142085798196	4.611515	2.1474438
11.754761312742286	3.75678	1.9382415
11.772380818565619	3.7065434	1.9252385
11.790000603698015	3.665716	1.914606
11.80762066856935	3.621648	1.9030628
11.825241013609572	3.6090555	1.8997514
11.842861639248683	3.568863	1.8891435
11.860482545916748	3.528477	1.878424
11.878103734043883	3.4608157	1.8603268
11.895725204060282	3.4366	1.8538069
11.91334695639619	3.438897	1.8544263
11.930968991481919	3.4733138	1.8636829
11.948591309747824	3.4073565	1.8459027
11.966213911624347	3.345697	1.8291247
11.98383679754198	3.2974296	1.8158826
12.001459967931268	3.3533127	1.8312052
12.019083423222835	3.3519015	1.83082
12.036707163847352	3.32305	1.8229235
12.05433119023556	3.288102	1.8133124
12.071955502818259	3.2174935	1.7937373
12.089580102026313	3.1685083	1.7800304
12.107204988290643	3.1014216	1.7610854
12.12483016204224	3.0816362	1.755459
12.142455623712152	3.0823796	1.7556707
12.16008137373149	3.0858257	1.7566519
12.177707412531431	3.080337	1.7550889
12.19533374054321	3.0496492	1.7463245
12.212960358198126	3.0061626	1.7338289
12.230587265927545	3.0248363	1.7392056
12.248214464162889	3.0326962	1.7414638
12.265841953335649	3.0682998	1.7516563
12.283469733877375	3.0761526	1.7538964
12.301097806219685	3.0338585	1.7417974
12.31872617079425	2.9846098	1.7276024
12.336354828032825	2.9482303	1.7170411
12.353983778367205	2.9234674	1.709815
12.371613022229262	2.9118707	1.7064204
12.389242560050928	2.9044871	1.7042556
12.406872392264201	2.922237	1.7094551
12.424502519301143	2.9266222	1.7107373
12.442132941593874	2.897041	1.7020696
12.459763659574586	2.8907225	1.7002125
12.477394673675532	2.8540533	1.6893944
12.49502598432903	2.8761542	1.6959229
12.51265759196746	2.8407235	1.6854446
12.530289497023267	2.8434906	1.6862652
12.547921699928967	2.8419013	1.685794
12.565554201117134	2.834655	1.6836433
12.583187001020404	2.831534	1.6827163
12.600820100071486	2.8156426	1.6779877
12.618453498703152	2.8228168	1.680124
12.636087197348235	2.8060865	1.6751378
12.65372119643964	2.7935753	1.6713992
12.671355496410326	2.8060098	1.6751149
12.68899009769333	2.8250308	1.6807828
12.706625000721749	2.8258688	1.6810321
12.724260205928752	2.8662796	1.693009
12.741895713747551	2.8922606	1.7006648
12.759531524611454	2.9767742	1.7253331
12.777167638953818	2.999101	1.7317913
12.794804057208072	3.0395708	1.7434365
12.812440779807702	3.0774667	1.754271
12.830077807186271	3.2106798	1.791837
12.847715139777405	3.2375078	1.7993076
12.865352778014795	3.4491968	1.8572013
12.882990722332197	3.5893452	1.8945568
12.90062897316344	3.684502	1.9195056
12.918267530942412	3.8171198	1.9537451
12.935906396103071	3.7266984	1.9304658
12.953545569079449	3.895146	1.9736124
12.971185050305628	3.6627169	1.9138225
12.988824840215775	3.6434052	1.9087706
13.006464939244115	3.6745708	1.916917
13.024105347824943	3.5116851	1.873949
13.041746066392617	3.5867188	1.8938634
13.05938709538157	3.3408582	1.8278015
13.077028435226296	3.355709	1.8318595
13.094670086361363	3.2604516	1.805672
13.112312049221401	3.1644444	1.7788886
13.129954324241112	3.0937831	1.7589153
13.147596911855258	2.9047103	1.704321
13.165239812498685	2.8723361	1.6947968
13.182883026606293	2.7934315	1.6713562
13.200526554613058	2.6995206	1.6430218
13.218170396954017	2.670067	1.634034
13.235814554064284	2.6715765	1.6344957
13.253459026379034	2.7294047	1.652091
13.271103814333523	2.7227747	1.6500833
13.288748918363058	2.6993525	1.6429707
13.306394338903031	2.6599998	1.6309506
13.32404007638889	2.6183183	1.6181219
13.341686131256164	2.6664646	1.6329312
13.359332503940449	2.6451688	1.6263975
13.376979194877402	2.6387074	1.6244099
13.394626204502751	2.6517522	1.6284201
13.412273533252307	2.685159	1.6386454
13.429921181561937	2.7101119	1.6462418
13.447569149867581	2.7568645	1.6603808
13.465217438605247	2.7770844	1.6664586
13.482866048211022	2.7854776	1.668975
13.500514979121052	2.7723362	1.6650335
13.518164231771568	2.7762876	1.6662196
13.535813806598844	2.7617223	1.6618431
13.553463704039254	2.7499683	1.6583028
13.571113924529229	2.7336528	1.6533762
13.588764468505275	2.7337196	1.6533964
13.606415336403956	2.7530096	1.6592195
13.624066528661917	2.7477028	1.6576196
13.641718045715882	2.8077242	1.6756265
13.659369888002635	2.8629403	1.6920226
13.67702205595903	2.934003	1.7128932
13.694674550021993	2.989561	1.7290348
13.712327370628532	3.030068	1.7407091
13.729980518215713	3.1344495	1.7704376
13.747633993220681	3.20668	1.7907206
13.765287796080647	3.2643356	1.8067472
13.7829419272329	3.2795904	1.810964
13.800596387114801	3.287825	1.8132361
13.818251176163775	3.3057377	1.8181688
13.835906294817324	3.3789327	1.8381873
13.853561743513023	3.47255	1.863478
13.871217522688525	3.5107946	1.8737115
13.888873632781538	3.533747	1.8798263
13.906530074229858	3.5296504	1.8787364
13.92418684747135	3.5321734	1.8794078
13.941843952943948	3.478383	1.8650423
13.959501391085665	3.446233	1.8564032
13.977159162334578	3.400777	1.8441195
13.994817267128846	3.3929594	1.8419987
14.012475705906693	3.2939384	1.814921
14.030134479106424	3.1968477	1.787973
14.047793587166414	3.121388	1.766745
14.065453030525108	3.0505326	1.7465774
14.083112809621026	3.005672	1.7336874
14.100772924892766	2.9262593	1.7106313
14.118433376778997	2.8446805	1.6866181
14.136094165718458	2.7508914	1.6585811
14.153755292149969	2.732396	1.6529961
14.171416756512416	2.7049773	1.6446815
14.189078559244768	2.7007468	1.643395
14.20674070078606	2.6381953	1.6242522
14.224403181575408	2.6116946	1.6160738
14.242066002051999	2.5496774	1.5967709
14.259729162655093	2.5170922	1.5865346
14.277392663824022	2.478463	1.5743135
14.295056505998208	2.4613037	1.5688542
14.312720689617128	2.421685	1.5561764
14.330385215120348	2.4121509	1.55311
14.348050082947497	2.3724651	1.5402808
14.3657152935383	2.3576708	1.5354708
14.383380847332528	2.360878	1.5365149
14.401046744770051	2.3535259	1.5341206
14.418712986290798	2.3782232	1.5421488
14.436379572334793	2.3816645	1.5432643
14.454046503342123	2.3542345	1.5343515
14.471713779752946	2.3284404	1.5259228
14.489381402007504	2.3322196	1.5271606
14.507049370546113	2.3755007	1.541266
14.524717685809168	2.4349713	1.5604395
14.542386348237134	2.462639	1.5692798
14.560055358270553	2.434587	1.5603163
14.577724716350051	2.4453218	1.5637525
14.595394422916325	2.4752455	1.5732913
14.61306447841015	2.5317338	1.5911423
14.63073488327237	2.5084047	1.5837944
14.648405637943917	2.495449	1.579699
14.6660767428658	2.4683244	1.5710902
14.683748198479094	2.5036771	1.5823013
14.701420005224954	2.5798209	1.6061821
14.719092163544628	2.6468678	1.6269197
14.73676467387942	2.6567416	1.6299514
14.754437536670727	2.68888	1.6397805
14.772110752360014	2.6937344	1.64126
14.78978432138882	2.7161276	1.6480678
14.807458244198777	2.6907408	1.6403477
14.82513252123159	2.6589406	1.6306258
14.842807152929028	2.6919518	1.6407168
14.860482139732962	2.7007089	1.6433834
14.87815748208531	2.706592	1.6451724
14.8958331804281	2.6919222	1.6407079
14.91350923520342	2.67677	1.6360837
14.931185646853438	2.705422	1.6448166
14.948862415820408	2.6648922	1.6324497
14.966539542546656	2.6339378	1.6229411
14.98421702747459	2.584736	1.6077114
15.001894871046696	2.6333919	1.6227729
15.019573073705542	2.6977727	1.6424898
15.037251635893766	2.741552	1.6557633
15.054930558054092	2.744795	1.6567423
15.072609840629323	2.7844262	1.66866
15.090289484062351	2.9170606	1.7079405
15.107969488796124	3.1906161	1.7862296
15.125649855273691	3.5608492	1.8870213
15.14333058393817	4.063197	2.0157373
15.161011675232768	5.0788646	2.2536337
15.17869312960076	6.432512	2.5362396
15.196374947485506	8.2059555	2.864604
15.214057129330447	11.293428	3.3605697
15.231739675579114	16.05093	4.006361
15.249422586675102	21.310293	4.6163073
15.267105863062092	24.460102	4.9457154
15.284789505183847	24.864592	4.9864407
15.302473513484218	22.96097	4.7917604
15.320157888407127	19.566587	4.4234138
15.337842630396578	15.436974	3.9289913
15.355527739896656	12.033475	3.46893
15.37321321735153	9.343347	3.0566888
15.39089906320545	6.745559	2.5972214
15.408585277902748	4.989191	2.2336497
15.42627186188783	3.8029504	1.9501154
15.443958815605198	3.2431388	1.8008717
15.461646139499424	2.9569356	1.7195742
15.479333834015168	2.8154547	1.6779317
15.497021899597165	2.7594368	1.6611552
15.514710336690234	2.6663272	1.6328893
15.53239914573928	2.634016	1.6229652
15.550088327189297	2.564457	1.6013921
15.567777881485336	2.5081923	1.5837274
15.58546780907256	2.4674683	1.5708177
15.6031581103962	2.4813201	1.5752207
15.620848785901568	2.526479	1.5894902
15.638539836034063	2.5153728	1.5859927
15.656231261239173	2.47162	1.5721387
15.673923061962451	2.4373446	1.5611997
15.691615238649552	2.465549	1.5702066
15.709307791746202	2.4658897	1.5703151
15.727000721698221	2.490542	1.5781451
15.744694028951498	2.5149722	1.5858663
15.76238771395202	2.4714444	1.5720828
15.780081777145844	2.432759	1.5597304
15.797776218979125	2.4056404	1.5510126
15.815471039898094	2.384072	1.544044
15.833166240349064	2.3898115	1.5459015
15.850861820778437	2.379407	1.5425327
15.868557781632699	2.3750331	1.5411142
15.886254123358412	2.368364	1.538949
15.903950846402232	2.3976583	1.5484374
15.921647951210897	2.4171658	1.5547237
15.939345438231225	2.3877327	1.5452291
15.957043307910133	2.3935566	1.5471123
15.974741560694602	2.4226098	1.5564735
15.992440197031714	2.46517	1.570086
16.01013921736862	2.442953	1.562995
16.02783862215259	2.4078498	1.5517248
16.045538411830933	2.38749	1.5451505
16.06323858685107	2.4164112	1.554481
16.080939147660512	2.4425237	1.5628575
16.09864009470684	2.439593	1.5619197
16.11634142843774	2.4304104	1.5589774
16.134043149300954	2.394794	1.5475122
16.15174525774433	2.3903391	1.5460721
16.169447754215817	2.380641	1.5429326
16.18715063916342	2.4133935	1.5535101
16.204853913035244	2.4344473	1.5602715
16.222557576279478	2.4729311	1.5725557
16.240261629344403	22.433922	4.736446
16.257966072678386	42.96612	6.554855
16.275670906729868	38.064415	6.1696367
16.293376131947387	2.5497246	1.5967857
16.31108174877957	2.609526	1.6154027
16.328787757675133	2.6338172	1.622904
16.34649415908287	2.595982	1.6112052
16.364200953451657	2.5995014	1.6122969
16.38190814123048	2.62658	1.6206727
16.39961572286839	2.6418645	1.6253814
16.41732369881455	2.6610377	1.6312687
16.43503206951817	2.6726472	1.6348233
16.45274083542859	2.7209222	1.6495218
16.47044999699522	2.777162	1.666482
16.488159554667558	2.8223493	1.6799849
16.505869508895184	2.8952315	1.701538
16.523579860127786	2.923257	1.7097535
16.541290608815117	2.9939654	1.7303079
16.559001755407035	3.0539262	1.7475486
16.57671330035348	3.1360624	1.7708931
16.59442524410448	3.1748462	1.7818098
16.61213758711015	3.210161	1.7916923
16.629850329820705	3.2485173	1.8023643
16.647563472686436	3.3193016	1.821895
16.665277016157724	3.3798327	1.8384322
16.682990960685053	3.445876	1.856307
16.70070530671898	3.483305	1.8663614
16.718420054710155	3.5326328	1.87953
16.736135205109335	3.5582738	1.8863387
16.753850758367335	3.5699382	1.889428
16.771566714935087	3.6357794	1.906772
16.789283075263597	3.756276	1.9381114
16.80699983980398	3.8648496	1.9659221
16.82471700900741	3.8969624	1.9740726
16.84243458332518	3.920649	1.9800628
16.860152563208665	3.9984763	1.999619
16.87787094910932	4.109354	2.0271542
16.89558974147871	4.1555643	2.03852
16.913308940768466	4.21093	2.0520551
16.931028547430333	4.2739096	2.0673437
16.94874856191613	4.3413134	2.083582
16.966468984677785	4.4136615	2.1008716
16.98418981616729	4.477056	2.1159055
17.00191105683676	4.494381	2.1199956
17.019632707138374	4.520335	2.126108
17.03735476752442	4.489241	2.118783
17.05507723844728	4.5317173	2.128783
17.072800120359403	4.550227	2.1331263
17.090523413713353	4.58064	2.140243
17.108247118961785	4.611363	2.1474085
17.125971236557437	4.607022	2.1463974
17.143695766953133	4.614221	2.148074
17.161420710601806	4.6279635	2.1512702
17.179146067956477	4.681101	2.1635852
17.19687183947025	4.7078	2.1697464
17.21459802559634	4.737428	2.1765635
17.232324626788028	4.7198634	2.1725247
17.25005164349871	4.735563	2.1761348
17.267779076181863	4.7273235	2.1742408
17.285506925291074	4.6768937	2.1626127
17.30323519127999	4.6119113	2.147536
17.320963874602384	4.564513	2.1364722
17.33869297571211	4.579621	2.1400049
17.356422495063114	4.561076	2.1356676
17.37415243310944	4.556509	2.134598
17.391882790305218	4.5312924	2.1286833
17.40961356710468	4.5566764	2.1346374
17.42734476396215	4.5263734	2.1275275
17.445076381332044	4.492153	2.1194701
17.462808419668868	4.556153	2.1345146
17.48054087942723	4.722023	2.1730216
17.498273761061835	5.034044	2.2436676
17.51600706502747	5.4682717	2.3384335
17.533740791779024	6.1127434	2.4723964
17.551474941771485	7.542763	2.7464092
17.56920951545993	8.666806	2.943944
17.586944513299528	10.997173	3.3161986
17.60467993574556	12.736437	3.5688145
17.622415783253373	14.526324	3.8113415
17.64015205627843	16.056911	4.0071077
17.657888755276293	17.327963	4.162687
17.675625880702604	17.84737	4.2246146
17.69336343301311	17.705204	4.207755
17.71110141266366	16.825884	4.101937
17.728839820110178	15.8093195	3.9760935
17.746578655808705	14.659888	3.8288233
17.764317920215372	12.968761	3.6012166
17.7820576137864	11.374115	3.372553
17.79979773697811	9.369537	3.06097
17.81753829024692	7.523664	2.74293
17.835279274049356	5.845234	2.417692
17.85302068884201	4.801643	2.191265
17.870762535081607	4.1869006	2.0461917
17.888504813224934	3.896552	1.9739686
17.90624752372891	3.7095246	1.9260126
17.923990667050536	3.6044295	1.8985335
17.941734243646895	3.5090258	1.8732394
17.959478253975185	3.489148	1.8679261
17.9772226984927	3.4749694	1.8641269
17.994967577656833	3.4912245	1.8684819
18.01271289192506	3.4891794	1.8679345
18.030458641754965	3.4403317	1.8548131
18.04820482760425	3.4012988	1.844261
18.06595144993067	3.3867023	1.8402995
18.083698509192125	3.3979785	1.8433607
18.101446005846576	3.3232775	1.8229859
18.119193940352105	3.256886	1.8046845
18.136942313166887	3.2268984	1.796357
18.1546911247492	3.199005	1.7885762
18.1724403755574	3.2090247	1.791375
18.19019006604997	3.2112343	1.7919917
18.207940196685467	3.1751883	1.7819058
18.225690767922575	3.1102128	1.7635795
18.243441780220046	3.0734842	1.7531356
18.261193234036764	3.0594242	1.749121
18.278945129831676	3.0585835	1.7488806
18.29669746806386	3.0784638	1.7545551
18.314450249192483	3.066763	1.7512176
18.3322034736768	3.0580673	1.748733
18.349957141976184	3.0258036	1.7394837
18.3677112545501	3.0195036	1.7376719
18.385465811858108	3.0245185	1.7391143
18.403220814359884	3.0656056	1.7508872
18.420976262515172	3.1057456	1.7623125
18.43873215678387	3.1458864	1.7736647
18.456488497625923	3.165019	1.77905
18.474245285501407	3.2271302	1.7964215
18.492002520870486	3.3198938	1.8220576
18.50976020419343	3.4354606	1.8534995
18.527518335930615	3.7368429	1.9330915
18.545276916542516	4.297956	2.073151
18.563035946489688	4.4341006	2.1057305
18.580795426232832	4.871828	2.2072217
18.598555356232698	4.7511816	2.1797206
18.616315736950185	5.085649	2.2551384
18.63407656884626	4.726684	2.174094
18.65183785238201	4.9144483	2.2168555
18.669599588018617	4.6709695	2.1612425
18.68736177621737	4.648595	2.15606
18.705124417439652	4.640498	2.1541815
18.72288751214696	4.511288	2.1239793
18.740651060800886	4.7017956	2.1683624
18.758415063863115	4.4470096	2.1087935
18.77617952179546	4.5696993	2.1376855
18.793944435059814	4.308299	2.0756443
18.811709804118184	4.342056	2.08376
18.829475629432675	4.2708945	2.0666142
18.8472419114655	4.0516157	2.0128627
18.86500865067897	4.096205	2.0239084
18.88277584753551	3.8164687	1.9535785
18.90054350249763	3.8028429	1.9500879
18.918311616027957	3.4672067	1.8620437
18.936080188589226	3.37548	1.837248
18.953849220644265	3.1019666	1.7612401
18.971618712656007	2.9473102	1.7167732
18.9893886650875	2.8637226	1.6922537
19.007159078401887	7.98947	2.826565
19.024929953062408	32.851173	5.731594
19.042701289532435	32.78705	5.7259974
19.060473088275405	25.396639	5.039508
19.07824534975489	2.7133532	1.6472259
19.096018074434568	2.7236073	1.6503356
19.113791262778197	2.690525	1.640282
19.13156491524966	2.6521256	1.6285348
19.149339032312945	2.6240892	1.619904
19.167113614432136	2.621702	1.6191671
19.184888662071433	2.6231797	1.6196233
19.202664175695123	2.560432	1.600135
19.220440155767623	2.5670018	1.6021866
19.238216602753447	2.5784519	1.6057558
19.2559935171172	2.5815904	1.6067328
19.27377089932361	2.537159	1.5928462
19.291548749837514	2.4947238	1.5794694
19.309327069123835	2.4768832	1.5738117
19.32710585764763	2.489278	1.5777446
19.344885115874032	2.5055723	1.5828999
19.362664844268313	2.5282533	1.5900482
19.380445043295822	2.5531733	1.5978652
19.39822571342203	2.528793	1.590218
19.41600685511252	2.5006719	1.5813513
19.43378846883297	2.474746	1.5731325
19.451570555049173	2.477697	1.5740702
19.469353114227037	2.49554	1.5797278
19.48713614683254	2.4965289	1.5800408
19.50491965333182	2.532229	1.5912979
19.52270363419109	2.5312347	1.5909854
19.540488089876686	2.5167902	1.5864395
19.55827302085503	2.4919152	1.5785801
19.576058427592674	2.5200837	1.5874771
19.593844310556282	2.5794392	1.6060632
19.611630670212598	2.604586	1.613873
19.629417507028506	2.605742	1.6142311
19.64720482147098	2.5631745	1.6009917
19.6649926140071	2.5529444	1.5977936
19.682780885104084	2.531925	1.5912024
19.70056963522921	2.5328422	1.5914905
19.718358864849908	2.5268228	1.5895983
19.7361485744337	2.514767	1.5858017
19.753938764448215	2.5322382	1.5913008
19.771729435361202	2.5986013	1.6120178
19.789520587640506	2.5850363	1.6078048
19.807312221754092	2.5583804	1.5994937
19.825104338170043	2.514832	1.5858222
19.842896937356517	2.5236945	1.588614
19.860690019781824	2.5192816	1.5872245
19.87848358591436	2.549431	1.5966938
19.896277636222635	2.5883036	1.6088206
19.914072171175278	2.54659	1.5958039
19.931867191241015	2.48367	1.5759664
19.94966269688869	2.4481719	1.5646635
19.967458688587264	2.5131738	1.5852993
19.985255166805807	2.5846756	1.6076926
20.00305213201348	2.5464137	1.5957487
20.020849584679578	2.5207288	1.5876803
20.038647525273507	2.4988086	1.580762
20.05644595426477	2.483357	1.575867
20.07424487212299	2.4575648	1.5676622
20.092044279317903	2.4416046	1.5625634
20.109844176319353	2.4735904	1.5727652
20.127644563597304	2.490317	1.5780739
20.145445441621817	2.462207	1.5691421
20.16324681086307	2.4401045	1.5620834
20.181048671791373	2.4420843	1.562717
20.198851024877122	2.4572413	1.567559
20.216653870590836	2.449598	1.5651191
20.234457209403146	2.4309149	1.5591391
20.252261041784802	2.3970888	1.5482534
20.270065368206662	2.3777325	1.5419898
20.287870189139685	2.3703809	1.5396042
20.305675505054968	2.3752728	1.5411919
20.323481316423702	2.3432655	1.5307728
20.341287623717207	2.3539505	1.534259
20.359094427406884	2.3350585	1.5280898
20.376901727964288	2.3381295	1.5290943
20.39470952586107	2.3645334	1.537704
20.41251782156899	2.3978958	1.548514
20.430326615559935	2.3736026	1.54065
20.448135908305886	2.3217435	1.5237268
20.465945700278965	2.3161912	1.5219038
20.483755991951384	2.3322372	1.5271664
20.50156678379548	2.3262062	1.5251906
20.519378076283708	2.2844234	1.5114309
20.537189869888635	2.2969227	1.5155602
20.55500216508294	2.3153946	1.5216421
20.572814962339415	2.3244202	1.5246049
20.59062826213098	2.3238854	1.5244296
20.60844206493066	2.3382175	1.5291231
20.626256371211593	2.3537207	1.5341841
20.644071181447032	2.3430686	1.5307086
20.66188649611036	2.3225985	1.5240073
20.67970231567506	2.3304365	1.5265768
20.697518640614742	2.3342025	1.5278097
20.715335471403122	2.36	1.5362291
20.73315280851404	2.3613977	1.536684
20.750970652421447	2.354611	1.5344741
20.768789003599412	2.322203	1.5238776
20.786607862522136	2.3087335	1.5194517
20.8044272296639	2.2944748	1.5147524
20.82224710549913	2.2995815	1.5164372
20.84006749050237	2.2912118	1.513675
20.857888385148268	3.8244545	1.9556212
20.8757097899116	45.916286	6.776156
20.893531705267254	64.77773	8.048462
20.911354131690224	83.83663	9.156235
20.92917706965566	69.119194	8.313795
20.94700051963877	50.173557	7.0833297
20.96482448211493	29.419212	5.423948
20.982648957559622	4.135559	2.0336075
21.00047394644843	2.2460246	1.4986743
21.01829944925707	2.2497745	1.4999248
21.036125466461375	2.2614932	1.5038261
21.053951998537297	2.2658763	1.5052828
21.071779045960906	2.2715917	1.5071801
21.089606609208378	2.2886462	1.5128273
21.10743468875603	2.2655516	1.5051749
21.12526328508028	2.259812	1.5032672
21.143092398657675	2.2417607	1.497251
21.16092202996488	2.2454956	1.4984977
21.17875217947867	2.2045567	1.484775
21.19658284767596	2.2029026	1.4842179
21.21441403503377	2.2473757	1.499125
21.232245742029225	2.2503538	1.5001179
21.2500779691396	2.232628	1.4941982
21.26791071684227	2.185881	1.4784725
21.28574398561475	2.1758032	1.4750603
21.30357777593465	2.2005165	1.4834138
21.321412088279704	2.2321968	1.4940538
21.339246923127792	2.2260642	1.4920001
21.357082280956888	2.21325	1.4876995
21.3749181622451	2.1837273	1.477744
21.392754567470647	2.1183815	1.455466
21.41059149711187	2.0931852	1.4467844
21.42842895164726	2.1402848	1.4629712
21.446266931555378	2.1706054	1.4732975
21.464105437314945	2.168691	1.4726475
21.481944469404798	2.1640081	1.4710568
21.49978402830388	2.164392	1.4711872
21.51762411449127	2.1098983	1.4525489
21.53546472844617	2.0972564	1.4481907
21.553305870647876	2.108826	1.4521797
21.571147541575865	2.1270938	1.4584559
21.58898974170967	2.115391	1.4544383
21.60683247152899	2.113725	1.4538655
21.62467573151363	2.0676847	1.4379447
21.642519522143523	2.064209	1.4367355
21.660363843898722	2.0735672	1.4399886
21.6782086972594	2.063776	1.4365848
21.696054082705864	2.0521114	1.4325192
21.713900000718535	2.0494413	1.431587
21.73174645177795	2.0644078	1.4368048
21.749593436364794	2.059556	1.4351153
21.767440954959845	2.0466974	1.4306283
21.785289008044032	2.038862	1.4278872
21.803137596098388	2.0328927	1.4257954
21.820986719604086	2.0240686	1.4226977
21.838836379042412	1.9924257	1.4115331
21.85668657489478	1.9789679	1.406758
21.87453730764273	1.9881921	1.4100326
21.892388577767914	1.9983823	1.4136416
21.91024038575213	1.9972069	1.4132258
21.928092732077285	2.0123155	1.4185611
21.945945617225426	2.041498	1.42881
21.963799041678694	2.0556087	1.4337394
21.981653005919398	31.363003	5.600268
21.999507510429943	78.1255	8.838863
22.01736255569286	73.084854	8.548968
22.035218142190818	4.1839886	2.04548
22.05307427040661	2.0153754	1.4196392
22.07093094082315	1.9755994	1.4055601
22.088788153923474	1.9682986	1.4029607
22.106645910190746	1.9971417	1.4132026
22.12450421010827	1.9937812	1.4120132
22.142363054159464	2.0046728	1.4158647
22.16022244282787	1.9709888	1.4039191
22.178082376597164	1.9555033	1.3983932
22.195942855951145	1.9380232	1.3921291
22.213803881373742	1.9658589	1.4020909
22.231665453349002	1.9849572	1.4088851
22.24952757236111	1.9756153	1.4055659
22.26739023889438	1.9541163	1.3978971
22.28525345343323	1.942889	1.3938755
22.30311721646225	1.9663353	1.4022608
22.320981528466113	1.9514925	1.3969584
22.33884638992964	1.9476078	1.3955672
22.356711801337788	1.9716084	1.4041398
22.37457776317561	1.9962821	1.4128984
22.392444275928337	1.9576813	1.3991716
22.410311340081282	1.9102786	1.3821282
22.428178956119904	1.9235934	1.3869367
22.446047124529805	1.950185	1.3964902
22.46391584579669	1.9709342	1.4038997
22.481785120406414	1.9468135	1.3952826
22.49965494884496	1.9575036	1.3991082
22.51752533159841	1.9420718	1.3935823
22.53539626915302	1.9269173	1.3881345
22.553267761995137	1.9551036	1.3982502
22.571139810611264	1.979333	1.4068878
22.589012415488025	1.9989809	1.4138532
22.60688557711216	1.9667097	1.4023943
22.624759295970566	1.9369837	1.3917556
22.642633572550263	1.9305589	1.3894455
22.660508407338362	1.9351223	1.3910867
22.67838380082217	1.9207945	1.3859273
22.696259753489077	1.9389064	1.3924462
22.714136265826614	1.949534	1.3962572
22.73201333832246	1.9738107	1.4049237
22.74989097146439	1.9255154	1.3876294
22.76776916574035	1.9006877	1.3786544
22.785647921638393	1.8868506	1.3736268
22.803527239646712	1.8897922	1.3746971
22.82140712025363	1.8796587	1.3710065
22.839287563947593	1.908395	1.3814467
22.85716857121719	1.9142042	1.3835477
22.875050142551135	1.9275264	1.3883538
22.892932278438277	1.9130596	1.383134
22.910814979367604	1.9235783	1.3869312
22.928698245828222	1.9378346	1.3920612
22.946582078309387	1.9599849	1.3999946
22.96446647730047	1.9560909	1.3986032
22.98235144329098	1.997074	1.4131787
23.000236976770562	1.9945812	1.4122964
23.018123078229	1.9641261	1.4014728
23.03600974815619	1.9116974	1.3826414
23.053896987042194	1.9281712	1.388586
23.071784795377173	1.9376814	1.3920063
23.08967317365145	1.9228727	1.3866768
23.10756212235546	1.9008491	1.3787129
23.125451641979787	1.9028049	1.379422
23.143341733015134	1.9140912	1.3835069
23.161232395952357	1.9188223	1.3852156
23.179123631282426	1.9331338	1.3903718
23.197015439496468	1.9362826	1.3915037
23.214907821085717	1.958747	1.3995525
23.23280077654157	1.9607029	1.400251
23.250694306355538	1.9594812	1.3998147
23.268588411019277	1.9207032	1.3858944
23.28648309102458	1.8914732	1.3753084
23.304378346863356	1.9073571	1.381071
23.322274179027676	1.9278176	1.3884587
23.340170588009723	1.9184489	1.3850808
23.358067574301852	1.8814899	1.3716741
23.37596513839651	1.8992542	1.3781344
23.39386328078629	1.902658	1.3793687
23.411762001963947	1.8877233	1.3739444
23.429661302422353	1.8766927	1.3699243
23.4475611826545	1.8993243	1.3781598
23.46546164315356	1.9352877	1.3911462
23.48336268441279	1.9377041	1.3920144
23.501264306925638	1.9003477	1.378531
23.51916651118564	1.8872224	1.3737621
23.537069297686497	1.9371288	1.3918078
23.554972666922037	1.9988606	1.4138106
23.57287661938623	1.9977813	1.4134289
23.59078115557318	1.9348022	1.3909717
23.608686275977128	1.881768	1.3717755
23.62659198109246	1.8950913	1.3766232
23.6444982714137	1.8870533	1.3737006
23.66240514743549	1.8859757	1.3733083
23.68031260965263	1.8700851	1.3675106
23.698220658560068	1.921453	1.3861649
23.716129294652845	1.97554	1.405539
23.7340385184262	1.9940315	1.4121019
23.75194833037546	1.9923512	1.4115067
23.769858730996123	1.96573	1.4020449
23.78776972078382	1.9690319	1.403222
23.80568130023431	1.9578639	1.3992369
23.823593469843495	1.9541289	1.3979015
23.841506230107424	1.935359	1.3911718
23.859419581522275	1.9233786	1.3868593
23.87733352458438	1.932615	1.3901852
23.89524805979019	1.9366215	1.3916255
23.913163187636318	1.9412823	1.3932991
23.931078908619508	1.9571775	1.3989916
23.948995223236633	2.0115104	1.4182773
23.966912131984735	2.0744	1.4402777
23.98482963536096	2.1027746	1.4500947
24.002747733862616	2.0597003	1.4351655
24.020666427987155	2.0449128	1.4300045
24.038585718232156	2.0866132	1.4445114
24.056505605095353	2.0980558	1.4484668
24.074426089074617	2.0979128	1.4484173
24.092347170667946	2.1032007	1.4502416
24.110268850373515	2.1369839	1.4618427
24.128191128689586	2.159941	1.4696738
24.146114006114626	2.1315417	1.45998
24.164037483147187	2.0886712	1.4452236
24.181961560286005	2.0438538	1.4296341
24.199886238029926	2.029838	1.4247239
24.21781151687797	2.0163977	1.4199992
24.235737397329274	2.0462902	1.430486
24.253663879883135	2.0561652	1.4339335
24.271590965038975	2.0407755	1.4285572
24.289518653296376	2.0129416	1.4187818
24.30744694515505	2.0064356	1.4164871
24.32537584111486	2.018732	1.420821
24.34330534167581	2.0677667	1.4379731
24.361235447338046	2.0693545	1.4385251
24.379166158601876	2.071124	1.4391401
24.39709747596772	2.0734785	1.4399579
24.41502939993615	2.0585923	1.4347795
24.432961931007917	2.008683	1.4172801
24.450895069683856	2.0148358	1.4194491
24.468828816465	2.0677245	1.4379585
24.4867631718525	2.0462117	1.4304585
24.504698136347656	1.9891875	1.4103856
24.52263371045192	1.9673126	1.4026092
24.540569894666874	1.9810534	1.407499
24.558506689494266	1.9616264	1.4005808
24.57644409543597	1.924423	1.3872358
24.594382112994012	1.9114963	1.3825687
24.61232074267057	1.936901	1.3917259
24.630259984967953	1.9851866	1.4089665
24.64819984038863	2.0056267	1.4162015
24.66614030943522	2.031934	1.4254593
24.684081392610462	2.0049715	1.4159702
24.702023090417274	1.9974163	1.4132998
24.7199654033587	1.9830793	1.4082185
24.737908331937927	2.042875	1.4292918
24.755851876658305	2.047996	1.4310821
24.773796038023324	2.0408378	1.428579
24.79174081653661	2.0563614	1.4340019
24.809686212701962	2.098783	1.4487177
24.827632227023294	2.1888514	1.4794767
24.8455788600047	2.1518164	1.466907
24.8635261121504	2.0890005	1.4453375
24.88147398396475	2.0528142	1.4327645
24.899422475952303	2.0949478	1.4473934
24.917371588617698	2.1659167	1.4717053
24.935321322465768	2.1751263	1.474831
24.953271678001478	2.285288	1.511717
24.97122265572994	2.454742	1.5667616
24.989174256156414	2.7873948	1.6695492
25.00712647978632	3.2131789	1.7925342
25.02507932712521	3.769802	1.9415978
25.043032798678798	4.327432	2.080248
25.060986894952933	5.0023193	2.2365866
25.078941616453637	5.7446976	2.3968098
25.096896963687055	6.6507444	2.5789037
25.114852937159508	7.863892	2.804263
25.132809537377444	8.454609	2.907681
25.150766764847468	8.522753	2.9193754
25.168724620076347	7.9059315	2.8117487
25.186683103570985	6.838289	2.6150122
25.204642215838426	5.645543	2.3760352
25.222601957385894	4.2370405	2.0584073
25.24056232872074	3.1548684	1.7761949
25.25852333035048	2.6132617	1.6165586
25.276484962782778	2.2764907	1.5088044
25.294447226525435	2.0989022	1.4487588
25.312410122086423	1.998347	1.413629
25.330373649973843	1.95226	1.397233
25.348337810695988	1.9472855	1.3954518
25.366302604761245	1.9215482	1.3861992
25.384268032678207	1.9260067	1.3878064
25.40223409495558	1.9732196	1.4047134
25.420200792102257	1.9813184	1.4075931
25.438168124627246	1.9348108	1.3909748
25.45613609303974	1.9065542	1.3807803
25.474104697849057	1.9119511	1.3827332
25.492073939564698	1.9236213	1.3869468
25.510043818696285	1.9432116	1.3939912
25.528014335753614	1.9192206	1.3853594
25.54598549124664	1.9111164	1.3824313
25.56395728568544	1.9392362	1.3925647
25.58192971958028	1.9342452	1.3907715
25.59990279344156	1.9020176	1.3791366
25.617876507779833	1.9090513	1.3816842
25.635850863105826	1.9219888	1.3863581
25.653825859930386	1.9253589	1.387573
25.671801498764548	1.9331709	1.3903852
25.68977778011949	1.9280097	1.3885279
25.707754704506524	1.9227688	1.3866394
25.725732272437153	1.8870306	1.3736923
25.743710484423012	1.9059902	1.380576
25.761689340975888	1.9004121	1.3785543
25.77966884260774	1.9032327	1.379577
25.797648989830662	1.8651351	1.3656995
25.815629783156922	1.8197047	1.3489643
25.83361122309895	1.8515148	1.3607038
25.85159331016929	1.9002346	1.37849
25.869576044880695	1.9014078	1.3789154
25.887559427746034	1.8782295	1.3704852
25.90554345927836	1.8546497	1.3618553
25.92352813999086	1.8764136	1.3698225
25.94151347039689	1.8784428	1.3705629
25.959499451009965	1.8962107	1.3770297
25.97748608234374	1.8478112	1.3593422
25.995473364912062	1.8050007	1.3435031
26.013461299228904	1.8107706	1.3456488
26.03144988580839	1.8385663	1.3559375
26.04943912516483	1.8368152	1.3552916
26.067429017812675	1.8677849	1.3666693
26.085419564266537	1.7977833	1.3408144
26.103410765041186	1.7585365	1.3260982
26.12140262065155	1.7714992	1.3309767
26.139395131612723	1.8551773	1.362049
26.157388298439948	1.8838502	1.3725343
26.17538212164861	1.8752651	1.3694032
26.193376601754295	1.8592784	1.3635536
26.211371739272714	1.8485718	1.3596219
26.229367534719746	1.8222877	1.3499213
26.247363988611433	1.8240285	1.350566
26.26536110146397	1.8071616	1.3443071
26.283358873793727	1.800318	1.3417593
26.301357306117204	1.7906332	1.3381454
26.319356398951104	1.7900304	1.3379202
26.33735615281224	1.7860647	1.3364373
26.35535656821762	1.8089147	1.344959
26.373357645684404	1.8253942	1.3510715
26.39135938572991	1.8429586	1.3575561
26.409361788871614	1.8083609	1.3447531
26.427364855627165	1.7798804	1.3341216
26.445368586514352	1.7538142	1.3243165
26.46337298205115	1.8081999	1.3446932
26.48137804275568	1.8282042	1.352111
26.499383769146217	1.8494959	1.3599617
26.517390161741215	1.8112178	1.345815
26.53539722105928	1.764072	1.3281837
26.553404947619182	1.7322166	1.316137
26.571413341939856	1.7937545	1.3393112
26.589422404540397	1.8330283	1.3538938
26.60743213594006	1.8436196	1.3577995
26.62544253665827	1.8163031	1.3477029
26.64345360721459	1.8126603	1.3463508
26.66146534812879	1.8460019	1.3586766
26.679477759920758	1.8649697	1.365639
26.69749084311057	1.861467	1.3643559
26.71550459821847	1.8316363	1.3533796
26.733519025764842	1.8312932	1.3532529
26.751534126270258	1.8138515	1.346793
26.769549900255434	1.7957993	1.3400743
26.787566348241267	1.7836535	1.3355349
26.80558347074881	1.7801955	1.3342396
26.823601268299267	1.8048991	1.3434653
26.841619741414036	1.8068297	1.3441837
26.85963889061465	1.8184465	1.3484979
26.877658716422832	1.8409382	1.3568118
26.89567921936045	1.855241	1.3620723
26.913700399949544	1.8247236	1.3508233
26.93172225871233	1.7896082	1.3377624
26.949744796171174	1.7687678	1.3299503
26.967768012848605	1.8301737	1.3528391
26.98579190926733	1.8711052	1.3678834
27.003816485950225	1.8546895	1.3618698
27.021841743420318	1.8123133	1.3462219
27.039867682200814	1.7995367	1.3414681
27.057894302815072	1.8074015	1.3443964
27.07592160578664	1.8041261	1.3431777
27.0939495916392	1.8184003	1.3484807
27.111978260896635	1.8672855	1.3664865
27.13000761408296	1.8617959	1.3644764
27.148037651722397	1.8616279	1.3644148
27.166068374339304	1.8442454	1.35803
27.184099782458215	1.8415302	1.3570299
27.20213187660384	1.8456635	1.358552
27.22016465730105	1.838407	1.3558787
27.23819812507487	1.7916548	1.3385271
27.256232280450533	1.767091	1.3293197
27.274267123953383	1.8005179	1.3418338
27.292302656108987	1.8539114	1.3615842
27.31033887744306	1.8558482	1.3622952
27.32837578848146	1.8362334	1.3550769
27.34641338975026	1.8451617	1.3583673
27.364451681775673	1.8539687	1.3616052
27.382490665084074	1.8280447	1.352052
27.400530340202046	1.7839624	1.3356506
27.41857070765629	1.7895167	1.3377281
27.436611767973726	1.8114026	1.3458836
27.454653521681404	1.8223865	1.349958
27.472695969306564	1.8551075	1.3620234
27.490739111376627	1.8961103	1.3769932
27.508782948419153	1.8717719	1.3681271
27.526827480961902	1.8249657	1.3509129
27.54487270953279	1.779001	1.333792
27.562918634659898	1.8156052	1.3474439
27.580965256871508	1.8677462	1.3666551
27.599012576696026	1.8028394	1.3426986
27.617060594662068	1.7945886	1.3396225
27.63510931129842	1.8421736	1.3572669
27.65315872713401	1.827136	1.3517159
27.67120884269797	1.7672169	1.3293672
27.68925965851958	1.7412186	1.3195524
27.707311175128307	1.7553018	1.3248781
27.725363393053787	1.8023269	1.3425077
27.74341631282583	1.8683618	1.3668803
27.7614699349744	1.8977954	1.377605
27.77952426002968	2.0565712	1.434075
27.797579288521973	2.1358325	1.4614488
27.815635020981784	2.5289006	1.5902518
27.83369145793979	2.6270814	1.6208274
27.85174859992682	2.4467058	1.5641949
27.869806447473923	2.2728565	1.5075996
27.887865001112267	1.9824954	1.4080112
27.905924261373233	1.8766514	1.3699093
27.92398422878836	1.8850871	1.3729848
27.94204490388936	1.9374733	1.3919315
27.96010628720813	1.9644346	1.401583
27.978168379276728	1.9493606	1.396195
27.9962311806274	1.8974952	1.377496
28.014294691792568	1.8063784	1.3440157
28.0323589133048	1.7808405	1.3344814
28.050423845696887	1.8484699	1.3595845
28.068489489501758	1.934589	1.390895
28.086555845252523	1.9741378	1.4050401
28.104622913482487	1.941199	1.3932692
28.122690694725115	1.891032	1.3751479
28.14075918951405	1.8762348	1.3697572
28.15882839838312	1.8673733	1.3665187
28.176898321866304	1.8446598	1.3581825
28.1949689604978	1.8292205	1.3524868
28.213040314811945	1.8359742	1.3549813
28.23111238534327	1.8269817	1.3516588
28.249185172626493	1.8535646	1.3614568
28.267258677196473	1.9444606	1.3944392
28.285332899588294	1.9602729	1.4000975
28.303407840337172	1.9005797	1.3786151
28.321483499978545	1.8320931	1.3535483
28.33955987904799	1.8603654	1.3639522
28.357636978081285	1.8948298	1.3765281
28.37571479761439	1.9357961	1.3913289
28.393793338183425	1.9654045	1.4019289
28.41187260032469	2.0071635	1.416744
28.429952584574686	1.9763596	1.4058306
28.448033291470065	1.9709985	1.4039226
28.46611472154769	1.9981651	1.4135647
28.484196875344566	1.9584931	1.3994617
28.502279753397914	1.948715	1.3959638
28.52036335624511	1.9662446	1.4022285
28.538447684423716	1.9682968	1.40296
28.556532738471482	2.0151517	1.4195604
28.574618518926325	2.0122647	1.4185432
28.59270502632635	2.0031447	1.4153249
28.61079226120985	2.0226138	1.4221863
28.628880224115274	2.0404043	1.4284272
28.646968915581287	2.058911	1.4348906
28.66505833614671	2.06609	1.4373901
28.68314848635055	2.053262	1.4329208
28.701239366732004	2.0218303	1.4219108
28.71933097783044	2.0247345	1.4229317
28.737423320185403	2.105466	1.4510224
28.75551639433665	2.1068115	1.451486
28.773610200824074	2.1005394	1.4493238
28.791704740187793	2.128035	1.4587786
28.80980001296809	2.176493	1.4752942
28.827896019705413	2.1405978	1.4630781
28.845992760940433	2.1476643	1.4654912
28.86409023721397	2.1230996	1.457086
28.88218844906704	2.1604192	1.4698365
28.900287397040845	2.1951895	1.4816172
28.918387081676755	2.2356865	1.4952213
28.936487503516343	2.272773	1.5075719
28.954588663101365	2.2792845	1.50973
28.97269056097374	2.2848098	1.5115588
28.990793197675597	2.2948987	1.5148923
29.00889657374923	2.291775	1.513861
29.027000689737125	2.3101404	1.5199146
29.04510554618196	2.3741782	1.5408368
29.06321114362659	2.430547	1.5590211
29.08131748261405	2.462818	1.5693368
29.099424563687567	2.457156	1.5675318
29.11753238739057	2.4625633	1.5692556
29.13564095426663	2.5188258	1.5870808
29.15375026485954	2.5349839	1.5921633
29.171860319713275	2.5728936	1.6040242
29.18997111937199	2.6194181	1.6184616
29.20808266438002	2.6858456	1.638855
29.226194955281898	2.7864342	1.6692616
29.244307992622335	2.8516846	1.6886932
29.26242177694624	2.8447328	1.6866336
29.2805363087987	2.901826	1.7034746
29.29865158872498	2.9641807	1.7216796
29.316767617270557	2.9636278	1.721519
29.334884394981064	3.000659	1.732241
29.353001922402367	2.9692414	1.7231487
29.37112020008047	2.9735663	1.7244031
29.389239228561596	3.062525	1.7500072
29.407359008392152	3.2835248	1.8120499
29.42547954011872	3.7588644	1.9387791
29.44360082428809	4.384054	2.0938134
29.46172286144722	5.457784	2.33619
29.479845652143283	7.0549464	2.6561148
29.497969196923606	9.067899	3.011295
29.516093496335728	11.564121	3.400606
29.5342185509274	14.513652	3.8096788
29.55234436124651	16.95877	4.118103
29.570470927841175	18.470064	4.2976813
29.588598251259686	18.347971	4.283453
29.60672633205055	17.097298	4.1348877
29.624855170762405	14.846387	3.853101
29.642984767944146	11.98354	3.461725
29.66111512414481	9.190345	3.031558
29.67924623991366	6.7416487	2.5964684
29.697378115800138	5.1284676	2.264612
29.71551075235387	4.221283	2.0545762
29.733644150124675	3.8260028	1.9560171
29.751778309662576	3.6391902	1.9076662
29.769913231517766	3.5569947	1.8859997
29.78804891624066	3.4221826	1.8499142
29.806185364381818	3.3164551	1.8211137
29.82432257649206	3.292545	1.8145372
29.842460553122333	3.3470643	1.8294984
29.86059929482382	3.340831	1.8277941
29.878738802147872	3.2363865	1.798996
29.896879075646048	3.2725704	1.8090247
29.915020115870114	3.3005712	1.8167474
29.933161923371976	3.3554285	1.8317828
29.951304498703777	3.368036	1.8352209
29.969447842417857	3.2382367	1.7995101
29.987591955066733	3.1204133	1.7664691
30.005736837203123	3.1327384	1.7699543
30.023882489379943	3.255187	1.8042136
30.04202891215028	3.2690878	1.8080618
30.060176106067455	3.2579916	1.8049908
30.078324071684946	3.2565157	1.8045819
30.09647280955646	3.2877283	1.8132094
30.114622320235863	3.2716208	1.8087622
30.132772604277257	3.2199712	1.7944279
30.1509236622349	3.1107492	1.7637316
30.16907549466328	3.0502164	1.7464869
30.18722810211705	3.077018	1.7541431
30.205381485151097	3.1032343	1.7615999
30.22353564432045	3.0636535	1.7503295
30.241690580180403	3.0066438	1.7339677
30.25984629328638	2.9900079	1.7291639
30.278002784194037	3.0208163	1.7380496
30.296160053459246	3.0537226	1.7474904
30.314318101638033	3.0594718	1.7491345
30.332476929286646	2.9402015	1.7147015
30.35063653696153	2.871343	1.6945038
30.368796925219307	2.891286	1.7003782
30.386958094616844	2.9470823	1.7167069
30.40512004571115	2.9228678	1.7096397
30.423282779059463	2.9106774	1.7060708
30.441446295219233	2.9339845	1.7128878
30.459610594748067	2.8868878	1.6990844
30.47777567820382	2.825277	1.6808561
30.495941546144504	2.8493278	1.6879952
30.51410819912835	2.8836377	1.6981277
30.532275637713795	2.8967783	1.7019925
30.55044386245946	2.850915	1.6884652
30.56861287392416	2.8050866	1.6748393
30.586782672666956	2.7616282	1.6618147
30.604953259247047	2.7528465	1.6591704
30.623124634223885	2.7811964	1.667692
30.641296798157075	2.7232854	1.650238
30.659469751606462	2.6959994	1.6419499
30.677643495132074	2.7313206	1.6526707
30.695818029294152	2.6539395	1.6290916
30.713993354653116	2.6458595	1.6266098
30.73216947176962	2.731764	1.652805
30.75034638120448	2.7674608	1.6635687
30.768524083518756	2.734562	1.6536511
30.786702579273673	2.757207	1.660484
30.80488186903069	2.8148417	1.677749
30.82306195335144	2.9453306	1.7161965
30.841242832797782	3.1294222	1.7690173
30.85942450793176	3.4564054	1.859141
30.877606979315637	3.8873346	1.9716325
30.895790247511883	4.2777715	2.0682774
30.913974313083134	4.7094073	2.170117
30.932159176592283	4.8877	2.2108142
30.95034483860237	4.961923	2.2275374
30.968531299676698	4.802625	2.1914892
30.98671856037873	4.4512343	2.1097949
31.00490662127215	4.0057645	2.0014405
31.023095482920848	3.5571103	1.8860303
31.04128514588892	3.0825453	1.7557179
31.059475610740662	2.805958	1.6750994
31.07766687804056	2.6443086	1.626133
31.09585894835335	2.4675097	1.570831
31.11405182224393	2.4544737	1.566676
31.132245500277417	2.491783	1.5785382
31.15043998301914	2.4991677	1.5808756
31.168635271034628	2.442956	1.5629958
31.18683136488964	2.4308164	1.5591075
31.20502826515008	2.5060964	1.5830655
31.223225972382135	2.5083256	1.5837694
31.241424487152155	2.4526029	1.5660788
31.259623810026692	2.4708426	1.5718914
31.27782394157253	2.4728703	1.5725362
31.296024882356644	2.4206693	1.55585
31.314226632946237	2.3781407	1.5421221
31.332429193908684	2.3508403	1.5332451
31.350632565811598	2.3984027	1.5486777
31.368836749222787	2.4776216	1.5740463
31.387041744710295	2.5368874	1.5927609
31.40524755284232	2.5673163	1.6022847
31.423454174187317	2.5554082	1.5985644
31.441661609313922	2.5386488	1.5933138
31.459869858791002	2.4648592	1.569987
31.478078923187628	2.426292	1.5576559
31.496288803073064	2.3682528	1.5389129
31.514499499016807	2.3892827	1.5457305
31.532711011588546	2.321864	1.5237664
31.550923341358178	2.3017638	1.5171565
31.56913648889584	2.2447648	1.498254
31.587350454771844	2.31471	1.521417
31.605565239556732	2.3843746	1.544142
31.62378084382127	2.318721	1.5227348
31.641997268136382	2.2500052	1.5000018
31.660214513073274	2.306705	1.518784
31.67843257920331	2.3852477	1.5444248
31.6966514670981	2.345444	1.5314842
31.71487117732944	2.3040707	1.5179166
31.733091710469346	2.3112986	1.5202956
31.751313067090052	2.3037367	1.5178065
31.769535247764008	2.272856	1.5075995
31.787758253063878	2.2301505	1.4933689
31.805982083562526	2.2573283	1.5024408
31.824206739833024	2.2775338	1.50915
31.84243222244869	2.1963584	1.4820117
31.860658531983013	2.2133563	1.4877353
31.878885669009737	2.3094897	1.5197005
31.897113634102784	2.3233104	1.524241
31.91534242783632	2.2683485	1.5061038
31.933572050784694	2.190474	1.480025
31.951802503522508	2.1517756	1.4668932
31.970033786624548	2.2920818	1.5139623
31.988265900665834	2.3375654	1.5289099
32.006498846221575	2.2890556	1.5129625
32.02473262386724	2.2044637	1.4847437
32.04296723417845	2.1540155	1.4676565
32.0612026777311	2.1492164	1.4660206
32.07943895510129	2.1738513	1.4743986
32.097676066865304	2.161985	1.470369
32.115914013599685	2.1728034	1.4740433
32.13415279588115	2.162922	1.4706875
32.152392414286666	2.1736004	1.4743135
32.1706328693934	2.1203792	1.4561522
32.18887416177875	2.1432045	1.4639688
32.20711629202032	2.1163306	1.4547614
32.225359260695924	2.066956	1.4376912
32.243603068383614	2.066178	1.4374206
32.26184771566166	2.0742667	1.4402314
32.28009320310852	2.0211477	1.4216708
32.2983395313029	2.0113802	1.4182314
32.31658670082372	2.0313878	1.4252676
32.33483471225012	2.099468	1.4489541
32.35308356616143	2.1595194	1.4695303
32.371333263137245	2.207825	1.4858751
32.38958380375734	2.1552527	1.4680779
32.407835188601744	2.1780996	1.4758387
32.42608741825067	2.1489246	1.465921
32.444340493284585	2.1190457	1.4556942
32.46259441428416	2.062686	1.4362054
32.48084918183028	2.0766537	1.44106
32.49910479650405	2.0580323	1.4345844
32.51736125888683	1.9714905	1.4040978
32.53561856956014	1.9383248	1.3922373
32.5538767291058	2.0405698	1.4284852
32.572135738105764	2.1013277	1.4495957
32.59039559714228	2.0795183	1.4420536
32.608656306797776	1.9652587	1.4018768
32.62691786765491	1.9472286	1.3954313
32.645180280296586	1.9936752	1.4119756
32.663443545305896	2.0648067	1.4369435
32.68170766326619	2.0781825	1.4415903
32.69997263476099	2.0810723	1.4425923
32.7182384603741	2.0736947	1.4400328
32.7365051406895	2.0375183	1.4274167
32.75477267629144	1.95164	1.397011
32.77304106776434	1.860646	1.364055
32.79131031569289	1.8577209	1.3629824
32.809580420661966	1.9260472	1.3878211
32.827851383256714	2.042679	1.4292233
32.84612320406245	2.0408049	1.4285674
32.86439588366476	2.092365	1.446501
32.88266942264945	2.0340846	1.4262134
32.9009438216025	2.0179837	1.4205575
32.9192190811102	2.0149622	1.4194937
32.937495201758985	2.056827	1.4341643
32.95577218413556	2.0265744	1.423578
32.974050028826866	1.9728847	1.4045942
32.992328736420035	1.9595426	1.3998367
33.010608307502444	1.880105	1.3711692
33.02888874266169	1.9348227	1.390979
33.047170042485604	2.0249612	1.4230113
33.06545220756225	1.994659	1.412324
33.083735238479896	1.9676423	1.4027268
33.10201913582707	2.049646	1.4316584
33.12030390019248	2.0839207	1.4435791
33.138589532165135	2.0780685	1.4415507
33.15687603233419	2.0369847	1.4272298
33.17516340128909	1.9286762	1.3887678
33.19345163961947	1.9621111	1.4007537
33.211740747915215	1.989033	1.4103308
33.23003072676643	2.000175	1.4142754
33.248321576763466	1.9551514	1.3982673
33.266613298496885	1.9672766	1.4025964
33.28490589255747	1.9993694	1.4139906
33.30319935953626	2.0126894	1.4186928
33.32149370002451	2.0417047	1.4288824
33.339788914613706	2.069022	1.4384096
33.358085003895575	2.0919602	1.4463611
33.376381968462034	2.1003134	1.4492458
33.39467980890529	2.0882883	1.4450911
33.41297852581774	2.0576205	1.4344409
33.43127811979204	2.0409346	1.4286128
33.44957859142105	2.0253093	1.4231336
33.467879941297866	1.9916519	1.4112589
33.486182170015844	1.9771323	1.4061054
33.50448527816853	2.0144913	1.4193277
33.522789266349754	1.95523	1.3982954
33.541094135153514	1.9294115	1.3890326
33.55939988517411	1.9167031	1.3844504
33.57770651700602	1.8851156	1.3729951
33.59601403124398	1.8628223	1.3648524
33.61432242848296	1.9044483	1.3800175
33.632631709318154	1.8838772	1.372544
33.650941874344994	1.8159914	1.3475872
33.66925292415916	1.8278613	1.3519843
33.68756485935654	1.9132342	1.3831971
33.70587768053328	1.896718	1.3772138
33.724191388285746	1.937145	1.3918135
33.74250598321054	1.9513235	1.3968978
33.760821465904506	1.9859513	1.4092379
33.77913783696474	1.9351747	1.3911055
33.79745509698852	1.868501	1.3669312
33.815773246573414	1.8910056	1.3751384
33.8340922863172	1.9015691	1.378974
33.852412216817896	1.8995204	1.3782309
33.87073303867377	2.0461688	1.4304435
33.889054752483304	2.0276492	1.4239554
33.907377358845245	1.9220517	1.3863808
33.92570085835853	1.8900647	1.3747963
33.94402525162239	1.9849914	1.4088973
33.96235053923627	1.9846892	1.40879
33.980676721799824	1.9576749	1.3991693
33.999003799912984	1.9653125	1.401896
34.01733177417592	1.9825953	1.4080466
34.03566064518901	1.9254577	1.3876086
34.0539904135529	1.9314636	1.3897711
34.07232107986846	1.9590945	1.3996766
34.090652644736785	1.9237626	1.3869977
34.108985108759235	1.8949347	1.3765663
34.12731847253742	1.9559581	1.3985558
34.14565273667313	2.0971012	1.4481372
34.16398790176847	2.0859485	1.4442813
34.18232396842574	2.0513127	1.4322405
34.20066093724749	2.0566738	1.4341108
34.21899880883651	2.151846	1.4669172
34.23733758379583	2.1971264	1.4822707
34.25567726272874	2.0983086	1.4485539
34.27401784623872	2.082717	1.4431621
34.29235933492957	2.0747447	1.4403974
34.31070172940526	1.9885486	1.4101591
34.32904503027003	1.8733652	1.3687093
34.347389238128386	1.8916093	1.3753579
34.36573435358502	1.924201	1.3871558
34.38408037724492	2.0080702	1.417064
34.402427309713296	2.1262813	1.4581773
34.42077515159559	2.2138088	1.4878874
34.43912390349752	2.1804435	1.4766325
34.45747356602499	1.8689371	1.3670907
34.47582413978423	1.7587407	1.3261752
34.49417562538163	1.7534419	1.324176
34.51252802342388	1.7911128	1.3383247
34.53088133451789	1.7989441	1.3412472
34.54923555927084	1.9186361	1.3851484
34.567590698290104	2.1038284	1.450458
34.58594675218336	2.0855892	1.4441569
34.6043037215585	1.949725	1.3963256
34.62266160702365	1.8984402	1.377839
34.641020409187234	1.8345634	1.3544606
34.65938012865785	1.7065995	1.3063688
34.677740766044394	1.6621268	1.289235
34.69610232195598	1.8960006	1.3769534
34.714464797002016	2.042455	1.4291449
34.73282819179208	2.063752	1.4365765
34.751192506936064	1.983354	1.408316
34.76955774304408	1.9868742	1.4095652
34.7879239007265	2.1205688	1.4562173
34.80629098059391	2.1434836	1.4640641
34.824658983257194	2.0607219	1.4355215
34.843027909327446	2.0036623	1.4155078
34.86139775941603	2.0033748	1.4154062
34.879768534134534	2.001866	1.4148731
34.89814023409483	1.8656465	1.3658867
34.91651285990901	1.8525962	1.361101
34.93488641218944	1.9432418	1.3940021
34.95326089154871	2.048527	1.4312676
34.97163629859967	2.198667	1.4827904
34.99001263395542	2.1971292	1.4822717
35.00838989822934	2.013167	1.4188612
35.02676809203499	1.8541772	1.3616818
35.04514721598624	1.9710999	1.4039587
35.063527270697215	2.1851447	1.4782234
35.081908256782256	2.289576	1.5131345
35.10029017485597	2.1732912	1.4742087
35.11867302553321	2.1195126	1.4558545
35.137056809429104	1.9345772	1.3908908
35.155441527159006	1.8564826	1.3625281
35.173827179338524	1.8530073	1.3612521
35.19221376658354	1.8603538	1.3639479
35.21060128951017	1.7430859	1.3202598
35.2289897487348	1.6114198	1.2694172
35.24737914487405	1.6291146	1.2763678
35.26576947854479	1.7644746	1.3283353
35.28416075036418	1.9366677	1.3916421
35.30255296094958	2.0288005	1.4243597
35.32094611091867	1.9176549	1.3847941
35.33934020088932	1.7803991	1.334316
35.35773523147969	1.9697651	1.4034832
35.3761312033082	2.1560473	1.4683485
35.394528116993506	2.0496805	1.4316705
35.41292597315452	1.9200206	1.3856481
35.431324772410434	2.1540198	1.4676579
35.449724515380666	2.0649648	1.4369985
35.46812520268491	1.8789358	1.3707428
35.486526834943106	1.875551	1.3695076
35.504929412775454	2.0280519	1.4240968
35.52333293680242	1.9285455	1.3887208
35.54173740764471	1.6142768	1.2705419
35.560142825923286	1.802261	1.3424832
35.5785491922594	2.0825255	1.4430958
35.59695650727454	1.9130946	1.3831466
35.61536477159042	1.5382273	1.240253
