0.008763373481513119	0.0	0.0
0.026290120649546365	0.17179282	0.414479
0.043816868432600686	0.12005361	0.34648752
0.06134361724069026	0.100068	0.31633526
0.07887036748382949	0.15834574	0.3979268
0.0963971195720331	0.11408893	0.33777052
0.11392387391531617	0.11131874	0.33364463
0.1314506309236943	0.07401087	0.2720494
0.1489773910071836	0.06940836	0.26345465
0.16650415457580078	0.1367587	0.369809
0.18403092203956356	0.12259097	0.35012993
0.20155769380849	0.17810445	0.42202422
0.2190844702925996	0.19820036	0.445197
0.2366112519019124	0.21387093	0.4624618
0.2541380390464497	0.21275638	0.46125522
0.27166483213623416	0.19433093	0.4408298
0.28919163158128947	0.19379391	0.4402203
0.3067184377916406	0.18437585	0.4293901
0.324245251177314	0.119765356	0.3460713
0.34177207214833777	0.1177033	0.34307915
0.3592989011147415	0.12334829	0.35120976
0.37682573848655654	0.1239786	0.35210595
0.39435258467381573	0.11035443	0.33219638
0.41187944008655414	0.082320325	0.28691518
0.42940630513480854	0.099007	0.31465378
0.446933180228618	0.11541379	0.33972606
0.4644600657780234	0.14127485	0.37586546
0.48198696219306775	0.15167823	0.3894589
0.49951386988379676	0.19354568	0.43993828
0.5170407892602581	0.2161599	0.46493
0.5345677207325025	0.21792056	0.4668196
0.5520946647105822	0.20605439	0.45393214
0.5696216216045534	0.14974655	0.386971
0.5871485918244737	0.12474074	0.35318655
0.6046755757804043	0.10601815	0.3256043
0.6222025738824094	0.10968318	0.3311845
0.6397295865405557	0.11822443	0.3438378
0.6572566141649129	0.15510902	0.39383882
0.6747836571655547	0.17039067	0.41278404
0.6923107159525568	0.15110211	0.38871855
0.7098377909359992	0.13435523	0.366545
0.7273648825259653	0.11627679	0.34099382
0.7448919911325411	0.13982758	0.37393525
0.762419117165817	0.1844593	0.42948726
0.7799462610358868	0.19361426	0.4400162
0.7974734231528482	0.19311914	0.4394532
0.8150006039268024	0.1867472	0.43214256
0.8325278037678551	0.16718625	0.40888414
0.8500550230861152	0.18479043	0.42987257
0.8675822622916969	0.1884681	0.43412912
0.8851095217947171	0.2641006	0.5139072
0.9026368020052984	0.25510612	0.5050803
0.9201641033335665	0.25239733	0.50239164
0.9376914261896523	0.20350324	0.45111334
0.9552187709836915	0.19252244	0.43877378
0.9727461381258234	0.2198374	0.4688682
0.990273528026193	0.24507144	0.4950469
1.0078009410949496	0.30722925	0.55428267
1.0253283777422473	0.30695775	0.5540377
1.0428558383782454	0.31603038	0.5621658
1.0603833234131086	0.27317092	0.5226576
1.0779108332570058	0.31531867	0.56153244
1.0954383683201119	0.3333367	0.5773532
1.112965929012607	0.43422326	0.65895617
1.1304935157446763	0.5715736	0.7560249
1.1480211289265108	0.611862	0.7822161
1.1655487689683062	1.4629033	1.2095053
1.1830764362802655	1.7568121	1.3254479
1.200604131272596	2.135636	1.4613816
1.2181318543555117	2.3692756	1.5392451
1.235659605939232	2.41728	1.5547605
1.253187386433982	3.845355	1.9609576
1.270715196249994	6.376181	2.52511
1.2882430357975057	11.943061	3.4558735
1.3057709054867608	17.112322	4.1367044
1.3232988057280106	23.128023	4.80916
1.3408267369315112	28.07412	5.2985015
1.358354699507526	31.64085	5.62502
1.3758826938663256	35.463432	5.955118
1.3934107204181858	37.51504	6.1249523
1.410938779573391	38.041023	6.1677403
1.4284668717422309	38.59335	6.2123547
1.4459949973350033	37.96122	6.1612678
1.4635231567620117	38.042152	6.167832
1.4810513504335687	36.98715	6.081706
1.4985795787599925	36.06719	6.0055966
1.5161078421516088	35.264767	5.9384146
1.5336361410187505	34.403584	5.8654566
1.5511644757717598	35.035267	5.9190598
1.5686928468209842	35.8461	5.987161
1.58622125457678	36.5103	6.0423756
1.6037496994495108	37.45945	6.1204123
1.621278181849548	37.49737	6.12351
1.6388067021872719	38.534893	6.207648
1.6563352608730693	38.256866	6.1852136
1.673863858317336	37.218468	6.100694
1.6913924949304753	36.074646	6.0062175
1.7089211711228998	34.570435	5.879663
1.7264498873050296	33.34158	5.7742167
1.7439786438872935	32.32278	5.6853127
1.7615074412801288	31.783987	5.6377287
1.779036279893981	31.714998	5.631607
1.796565160139305	31.13661	5.580019
1.814094082426564	30.320847	5.506437
1.8316230471662298	29.118393	5.3961463
1.849152054768784	27.995646	5.291091
1.8666811056447168	27.35626	5.2303214
1.8842102002045273	26.338558	5.1321106
1.901739338858724	25.862871	5.085555
1.9192685220178245	25.51154	5.0508947
1.9367977500923557	24.940914	4.9940877
1.9543270234928547	24.465801	4.9462914
1.971856342629867	23.726343	4.8709693
1.9893857079139496	23.456007	4.84314
2.006915119755667	23.088654	4.8050656
2.0244445785655945	22.63948	4.758096
2.0419740847543175	22.000917	4.6905136
2.0595036387324317	21.234247	4.608063
2.0770332409105414	20.753447	4.555595
2.094562891699263	20.836367	4.564687
2.1120925915092217	20.624462	4.541416
2.129622340751053	20.556118	4.5338855
2.1471521398354043	188.5462	13.731213
2.1646819891729323	444.7674	21.08951
2.182211889174303	440.768	20.994476
2.1997418402501974	453.11063	21.286396
2.2172718428113023	432.8806	20.805782
2.234801897268317	321.01492	17.91689
2.2523320040319548	17.489685	4.182067
2.269862163512935	17.255901	4.154022
2.287392376121992	16.751312	4.092837
2.304922642269869	16.541193	4.0670867
2.322452962367322	16.184298	4.022971
2.3399833368251164	15.806005	3.9756765
2.357513766054032	15.479144	3.9343543
2.3750442504648586	15.194136	3.8979657
2.3925747904683963	14.9947195	3.8723016
2.410105386475459	14.816388	3.8492062
2.4276360388968707	14.497167	3.8075144
2.445166748143469	14.127641	3.7586753
2.4626975146261025	13.742065	3.707029
2.4802283387556323	13.489445	3.672798
2.4977592209429305	13.395119	3.6599343
2.5152901615988825	13.113043	3.6211936
2.5328211611343865	12.900021	3.5916598
2.5503522199603523	12.584906	3.547521
2.5678833384877024	12.349477	3.5141823
2.5854145171273712	11.924244	3.4531498
2.6029457562903064	11.742965	3.426801
2.620477056387469	11.696894	3.420072
2.6380084178298326	11.71593	3.4228542
2.655539841028383	11.64656	3.4127057
2.673071326394119	11.4707365	3.3868475
2.6906028743380523	11.344932	3.368224
2.708134485271211	11.040399	3.3227096
2.7256661596046325	10.96184	3.3108668
2.743197897749369	10.791742	3.2850788
2.760729700116486	10.612283	3.25765
2.778261567117063	10.366464	3.2196994
2.795793499162193	10.205635	3.1946259
2.8133254966629817	10.121421	3.181418
2.830857560030551	10.029549	3.1669462
2.8483896896760337	9.736041	3.120263
2.865921886010578	9.511697	3.0841038
2.883454149445347	9.34762	3.0573878
2.9009864803915177	9.162424	3.0269496
2.91851887926028	9.13922	3.0231144
2.9360513464628384	9.103419	3.0171874
2.953583882410413	8.98601	2.9976673
2.9711164875142373	8.908185	2.9846582
2.9886491621855606	8.645799	2.940374
3.0061819068356455	8.600771	2.932707
3.023714721875769	8.521269	2.9191213
3.041247607717225	8.436551	2.9045742
3.0587805647713213	8.440841	2.9053125
3.0763135934493806	8.347005	2.8891184
3.0938466941627407	8.189227	2.8616827
3.1113798673227544	8.10836	2.8475182
3.1289131133407904	7.9871182	2.826149
3.1464464326282315	7.9164796	2.813624
3.1639798255964786	7.950345	2.8196356
3.1815132926569443	7.8384843	2.7997293
3.1990468342210603	7.6686697	2.7692363
3.216580450700272	7.389393	2.7183437
3.2341141425060416	7.283787	2.6988492
3.251647910049847	7.2966433	2.70123
3.2691817537431813	7.284329	2.6989496
3.286715673997555	7.230432	2.6889462
3.3042496712244938	7.1311975	2.6704302
3.32178374583554	6.9524093	2.636742
3.339317898242251	6.899425	2.6266756
3.3568521288562034	6.822878	2.612064
3.3743864380889876	6.884257	2.6237867
3.3919208263522127	6.8583107	2.6188376
3.4094552940575023	6.805512	2.6087377
3.4269898416164972	6.7175446	2.5918226
3.444524469440858	6.5907373	2.567243
3.4620591779422587	6.5103383	2.5515366
3.479593967532391	6.5106506	2.5515976
3.4971288386229658	6.559649	2.561181
3.5146637916257086	6.470874	2.5437913
3.5321988269523628	6.3445053	2.51883
3.5497339450146903	6.3096538	2.5119023
3.5672691462244708	6.3176813	2.5134997
3.5848044309934988	6.382058	2.5262735
3.60233979973359	6.278817	2.5057569
3.619875252856575	6.187872	2.4875433
3.6374107907743034	6.2513585	2.5002718
3.6549464138986427	6.2577796	2.5015554
3.6724821226414788	6.3300776	2.5159645
3.690017917414714	6.336672	2.5172746
3.7075537986302702	6.3289504	2.5157406
3.7250897667000857	6.3467345	2.5192726
3.7426258220361235	6.4029694	2.5304089
3.7601619650503553	6.7146597	2.5912662
3.777698196154779	7.3404775	2.7093315
3.7952345157614067	8.541355	2.9225597
3.8127709242822716	9.326605	3.053949
3.830307422129425	11.430866	3.3809564
3.847844009714936	30.225737	5.4977937
3.8653806874508954	97.65948	9.882281
3.882917455749409	97.13217	9.855565
3.900454315022606	97.03026	9.850394
3.917991265682631	41.546783	6.4456797
3.9355283081416506	11.227162	3.3506958
3.9530654428118495	8.846974	2.9743865
3.970602670105433	7.559308	2.7494197
3.9881399904346244	6.7437124	2.596866
4.005677404211669	6.6326413	2.5753915
4.023214911848827	6.5073347	2.550948
4.0407525137583855	6.485277	2.5466208
4.058290210352644	6.4698358	2.5435872
4.075828002043927	6.4977455	2.5490675
4.0933658892445814	6.377248	2.5253212
4.110903872366966	6.3604803	2.5219994
4.128441951823468	6.3156896	2.5131035
4.145980128026488	6.2789855	2.5057905
4.163518401388452	6.2473707	2.499474
4.181056772321807	6.181222	2.4862063
4.1985952412390155	6.1456923	2.4790506
4.216133808552567	6.1740465	2.484763
4.233672474674966	6.2078834	2.4915624
4.251211240018741	6.47987	2.545559
4.268750104996445	6.7164607	2.5916135
4.286289070020643	7.63959	2.7639809
4.303828135503928	9.1678505	3.0278459
4.3213673018589125	29.513266	5.4326115
4.3389065694982305	90.76783	9.527215
4.356445938834537	166.22047	12.892652
4.3739854102805085	171.81517	13.107828
4.391524984248844	172.72118	13.142343
4.409064661152262	136.63864	11.689253
4.426604441403504	96.977684	9.847725
4.444144325415337	76.007225	8.718212
4.461684313600543	22.204412	4.712156
4.47922440637193	22.377104	4.7304444
4.496764604142329	20.644514	4.5436234
4.5143049073245916	18.67609	4.321584
4.531845316331589	16.501982	4.062263
4.5493858315762195	13.66103	3.696083
4.566926453471405	11.319619	3.3644643
4.584467182430081	9.271279	3.0448775
4.602008018865218	8.185174	2.8609743
4.619548963189798	7.507823	2.7400408
4.637090015816834	7.03666	2.6526704
4.654631177159353	6.802268	2.608116
4.672172447630417	6.5008187	2.5496702
4.689713827643102	6.325437	2.515042
4.7072553176105085	5.986809	2.4467957
4.724796917945764	5.8732724	2.4234836
4.742338629062015	5.7910385	2.4064577
4.759880451372434	5.854909	2.4196918
4.777422385290215	5.8235936	2.4132123
4.794964431228581	5.835027	2.41558
4.812506589600768	5.830442	2.414631
4.830048860820047	5.772427	2.4025877
4.847591245299709	5.748631	2.3976302
4.8651337434530655	5.69266	2.3859296
4.882676355693457	5.6382017	2.3744898
4.900219082434242	5.6558986	2.3782134
4.917761924088813	5.6484256	2.3766418
4.935304881070575	5.616337	2.3698812
4.952847953792969	5.595187	2.3654149
4.970391142669449	5.5785737	2.3619003
4.9879344481135055	5.5050173	2.3462772
5.005477870538642	5.4746866	2.339805
5.023021410358394	5.4207516	2.3282506
5.040565067986324	5.367734	2.316837
5.05810884383601	5.3791213	2.3192933
5.075652738321066	5.4126496	2.3265102
5.09319675185512	5.447317	2.3339489
5.110740884851836	5.3898373	2.3216023
5.128285137724894	5.3772855	2.3188975
5.145829510888007	5.3896637	2.321565
5.163374004754908	5.3964887	2.3230343
5.1809186197393595	5.404668	2.324794
5.198463356255145	5.4288692	2.3299935
5.216008214716077	5.4304886	2.3303409
5.233553195535998	5.3867836	2.3209445
5.251098299128764	5.406216	2.3251271
5.268643525908272	5.338129	2.310439
5.286188876288432	5.3196025	2.3064263
5.3037343506831895	5.3572145	2.3145657
5.32127994950651	5.35732	2.3145885
5.3388256731723915	5.370926	2.3175259
5.356371522094851	5.306695	2.3036265
5.373917496687938	5.289707	2.2999363
5.391463597365729	5.2993903	2.3020406
5.40900982454232	5.319716	2.3064508
5.426556178631843	5.297211	2.301567
5.444102660048449	5.3476377	2.312496
5.4616492692063225	5.2994556	2.3020546
5.479196006519669	5.261214	2.2937336
5.496742872402727	5.2529154	2.291924
5.514289867269756	5.2445807	2.2901049
5.531836991535049	5.2410526	2.2893345
5.549384245612924	5.1682377	2.2733757
5.566931629917724	5.0837455	2.2547162
5.584479144863822	5.081414	2.2541993
5.6020267908656205	5.1037	2.2591372
5.619574568337545	5.1987453	2.2800758
5.637122477694054	5.263416	2.2942135
5.654670519349629	5.2527328	2.2918842
5.672218693718784	5.2299094	2.2868996
5.689767001216059	5.158674	2.2712715
5.707315442256021	5.050916	2.2474244
5.724864017253266	5.036292	2.2441685
5.7424127266224225	5.133581	2.2657409
5.75996157077814	5.148886	2.2691157
5.777510550135105	5.1955395	2.2793727
5.795059665108022	5.1908793	2.27835
5.812608916111639	5.211407	2.2828507
5.830158303560715	5.4535	2.335273
5.847707827870055	5.4649563	2.3377247
5.86525748945448	5.5734673	2.360819
5.8828072887288485	5.6491666	2.3767974
5.900357226108044	5.6678762	2.3807302
5.917907302006979	5.705658	2.3886518
5.9354575168406	6.3770914	2.5252903
5.9530078710238765	6.994604	2.6447313
5.970558364971812	7.5481496	2.7473896
5.988108999099438	7.8965535	2.8100808
6.005659773821818	8.369213	2.892959
6.023210689554039	8.047784	2.8368616
6.040761746711227	8.462354	2.9090126
6.058312945708531	7.937998	2.8174453
6.075864286961132	7.459692	2.7312436
6.093415770884244	6.7714334	2.602198
6.1109673978931065	6.1031384	2.470453
6.128519168402993	5.40561	2.3249967
6.146071082829204	5.3177447	2.3060236
6.163623141587075	5.2648077	2.2945168
6.181175345091969	5.23052	2.287033
6.198727693759281	5.182701	2.2765546
6.216280188004435	5.0844088	2.2548633
6.233832828242885	5.119575	2.2626479
6.251385614890126	5.095594	2.2573423
6.268938548361669	5.206433	2.281761
6.286491629073067	5.170108	2.273787
6.304044857439898	5.19357	2.2789407
6.321598233877777	5.0451612	2.2461436
6.339151758802344	5.0589333	2.2492073
6.356705432629277	5.096061	2.2574458
6.37425925577428	5.1254163	2.2639382
6.391813228653095	5.114838	2.2616007
6.409367351681486	5.09014	2.2561338
6.426921625275259	5.0609846	2.249663
6.44447604985025	5.0179377	2.2400753
6.46203062582232	4.9706845	2.2295032
6.47958535360737	4.971678	2.2297258
6.497140233621328	4.9928937	2.2344785
6.514695266280161	5.0324764	2.243318
6.532250451999859	5.0208654	2.2407289
6.549805791196454	4.9857326	2.2328753
6.567361284286002	5.0333185	2.243506
6.584916931684597	5.079774	2.2538354
6.602472733808367	5.0870976	2.2554595
6.6200286910734665	5.02275	2.2411492
6.637584803896092	4.972981	2.2300181
6.655141072692462	5.0084324	2.2379527
6.672697497878842	5.0249476	2.2416396
6.690254079871514	5.0328913	2.2434106
6.707810819086808	5.0287066	2.2424777
6.725367715941078	5.013441	2.2390714
6.742924770850719	5.0578394	2.248964
6.760481984232151	5.0437326	2.2458255
6.778039356501836	4.98926	2.2336652
6.795596888076266	4.9494066	2.2247262
6.813154579371963	4.9563994	2.2262971
6.830712430805492	4.9399886	2.2226086
6.84827044279344	4.9913225	2.2341268
6.865828615752445	4.989138	2.2336378
6.883386950099159	5.064458	2.250435
6.900945446250287	5.1041245	2.2592309
6.918504104622553	5.0884256	2.255754
6.936062925632727	5.048323	2.2468474
6.953621909697607	5.11458	2.2615438
6.971181057234028	5.1753883	2.274948
6.988740368658859	5.181401	2.276269
7.006299844389007	5.17952	2.275856
7.023859484841407	5.1786942	2.2756743
7.041419290433036	5.318428	2.3061717
7.058979261580902	5.4912224	2.3433356
7.0765393987020495	5.715096	2.3906267
7.094099702213559	6.0673757	2.4632044
7.111660172532549	6.4238257	2.5345268
7.129220810076164	6.8425226	2.6158216
7.146781615261595	7.346582	2.7104578
7.16434258850606	7.522016	2.7426293
7.181903730226821	7.9903736	2.826725
7.1994650408411704	8.258497	2.8737602
7.217026520766437	8.370995	2.8932672
7.234588170419983	8.488582	2.913517
7.252149990219215	8.324922	2.885294
7.269711980581568	8.218529	2.8667977
7.2872741419245175	8.132661	2.851782
7.304836474665574	7.857201	2.8030698
7.322398979222286	7.597648	2.7563832
7.339961656012233	7.3620243	2.713305
7.357524505453039	7.0162687	2.648824
7.375087527962357	6.754552	2.598952
7.392650723957886	6.376508	2.5251749
7.410214093857353	6.022318	2.4540412
7.427777638078528	5.7629623	2.4006171
7.445341357039213	5.552539	2.3563826
7.4629052511572525	5.4385724	2.3320746
7.480469320850524	5.315994	2.3056438
7.498033566536948	5.2553263	2.29245
7.5155979886344735	5.2680445	2.295222
7.5331625875610975	5.3263955	2.3078985
7.550727363734844	5.3118286	2.3047404
7.568292317573788	5.2630177	2.2941267
7.585857449496025	5.21829	2.2843575
7.603422759919705	5.2438083	2.2899363
7.620988249263007	5.217317	2.2841446
7.638553917944147	5.2010174	2.2805738
7.656119766381391	5.158906	2.2713225
7.673685794993023	5.167776	2.2732744
7.691252004197388	5.190644	2.2782984
7.70881839441285	5.224324	2.2856781
7.726384966057826	5.333731	2.309487
7.743951719550762	5.4020085	2.324222
7.761518655310149	5.375076	2.318421
7.779085773754511	5.304294	2.3031054
7.796653075302419	5.21388	2.2833922
7.814220560372475	5.2224083	2.285259
7.831788229383323	5.2750382	2.296745
7.8493560827536495	5.379069	2.319282
7.866924120902174	5.454211	2.3354254
7.884492344247663	5.43643	2.3316152
7.9020607532089135	5.3816133	2.3198304
7.919629348204771	5.300482	2.3022776
7.937198129654115	5.3053756	2.3033402
7.954767097975865	5.3026314	2.3027444
7.972336253588986	5.34988	2.312981
7.989905596912472	5.437725	2.331893
8.007475128365371	5.4801807	2.3409786
8.025044848366756	5.521506	2.3497884
8.042614757335754	5.61524	2.36965
8.060184855691523	5.6291976	2.372593
8.07775514385327	5.770719	2.4022322
8.095325622240228	5.8064723	2.4096622
8.112896291271687	5.884855	2.4258718
8.130467151366968	5.9968305	2.4488428
8.148038202945436	6.1385674	2.4776132
8.165609446426497	6.0807667	2.4659212
8.183180882229594	6.0245748	2.454501
8.200752510774217	5.930393	2.4352398
8.218324332479893	5.9488335	2.439023
8.235896347766193	5.9242926	2.433987
8.253468557052724	5.98857	2.4471555
8.27104096075914	6.007418	2.4510036
8.288613559305137	6.0925927	2.4683177
8.306186353110448	6.154742	2.4808753
8.32375934259485	6.2107515	2.492138
8.341332528178162	6.248496	2.499699
8.358905910280246	6.2864385	2.507277
8.376479489321003	6.2770863	2.5054114
8.394053265720377	6.313523	2.5126724
8.411627239898356	6.3211913	2.514198
8.42920141227497	6.2936244	2.5087097
8.44677578327029	6.305242	2.511024
8.464350353304427	6.3108745	2.5121453
8.48192512279754	6.323037	2.514565
8.499500092169827	6.305775	2.5111303
8.51707526184153	6.2700257	2.5040019
8.534650632232934	6.2347865	2.4969554
8.552226203764365	6.234342	2.4968665
8.569801976856192	6.2239337	2.4947813
8.587377951928834	6.2312264	2.4962425
8.60495412940274	6.25937	2.5018733
8.622530509698416	6.296548	2.5092924
8.6401070932364	6.4287615	2.5355003
8.657683880437283	6.5184703	2.5531294
8.675260871721695	6.6654143	2.5817463
8.692838067510303	6.823492	2.6121814
8.710415468223834	6.955119	2.637256
8.727993074283043	7.0858207	2.6619205
8.745570886108737	7.112273	2.6668847
8.763148904121765	7.2309575	2.689044
8.78072712874302	7.28601	2.699261
8.798305560393441	7.504745	2.739479
8.815884199494006	7.6033883	2.757424
8.833463046465745	7.7308636	2.780443
8.851042101729728	7.8983912	2.8104076
8.86862136570707	8.296609	2.8803835
8.886200838818924	8.514834	2.9180188
8.903780521486505	8.572825	2.9279387
8.921360414131055	8.652051	2.941437
8.938940517173874	8.768412	2.9611504
8.956520831036297	8.903034	2.9837952
8.97410135613971	9.108852	3.0180876
8.99168209290554	9.2205105	3.0365293
9.009263041755265	9.495744	3.0815165
9.026844203110405	9.79644	3.1299264
9.044425577392525	10.013713	3.1644452
9.062007165023239	10.107392	3.1792126
9.079588966424197	10.322306	3.2128346
9.097170982017108	10.3499975	3.2171412
9.11475321222372	11.333805	3.3665717
9.132335657465825	12.18932	3.4913206
9.149918318165264	12.312361	3.5088973
9.167501194743924	12.756623	3.5716414
9.18508428762374	12.440803	3.5271523
9.202667597226693	12.466152	3.5307438
9.220251123974803	12.208835	3.4941144
9.237834868290143	11.976325	3.4606826
9.255418830594836	11.762584	3.4296622
9.273003011311046	11.27281	3.3575006
9.290587410860985	11.110998	3.3333163
9.308172029666911	10.563866	3.25021
9.32575686815113	10.254114	3.2022045
9.343341926735997	8.805745	2.9674475
9.360927205843916	8.50799	2.9168458
9.378512705897327	8.330614	2.8862803
9.396098427318728	8.1633005	2.8571491
9.413684370530664	8.118781	2.8493476
9.431270535955722	8.0099	2.8301766
9.448856924016539	7.9084105	2.8121896
9.466443535135806	7.7542324	2.7846422
9.484030369736251	7.7074475	2.776229
9.501617428240658	7.7196045	2.7784176
9.519204711071852	7.7623024	2.7860909
9.536792218652714	7.8675723	2.8049192
9.55437995140617	7.8825426	2.8075867
9.571967909755191	7.8310156	2.7983952
9.589556094122802	7.808746	2.7944133
9.60714450493207	7.841598	2.8002853
9.624733142606116	7.9558697	2.820615
9.642322007568108	8.032809	2.8342211
9.659911100241267	8.095051	2.8451803
9.677500421048851	8.099338	2.8459334
9.695089970414175	8.129021	2.8511438
9.712679748760609	8.114346	2.8485692
9.730269756511557	8.142633	2.85353
9.747859994090492	8.122605	2.8500185
9.765450461920915	8.154511	2.8556106
9.78304116042639	8.1888685	2.86162
9.800632090030527	8.2610445	2.8742032
9.81822325115699	8.221014	2.8672311
9.835814644229481	8.251933	2.8726177
9.853406269671762	8.264849	2.874865
9.870998127907646	8.286732	2.8786683
9.888590219360985	8.2868805	2.8786943
9.906182544455698	8.322656	2.8849013
9.923775103615734	8.336423	2.8872864
9.941367897265108	8.3872175	2.8960693
9.958960925827878	8.389275	2.8964245
9.97655418972816	8.3615265	2.8916304
9.994147689390106	8.310118	2.8827274
10.011741425237934	8.26307	2.8745556
10.029335397695904	8.286212	2.8785782
10.04692960718833	8.306158	2.8820405
10.06452405413958	8.34445	2.8886762
10.082118738974064	8.353297	2.890207
10.099713662116246	8.33426	2.8869119
10.117308823990651	8.334822	2.8870091
10.134904225021844	8.290989	2.8794076
10.152499865634445	8.276849	2.8769512
10.170095746253125	8.282506	2.8779342
10.18769186730261	8.22844	2.8685257
10.205288229207675	8.237861	2.8701673
10.222884832393145	8.291065	2.879421
10.2404816772839	8.296724	2.8804035
10.258078764304868	8.331449	2.8864248
10.275676093881035	8.255513	2.873241
10.293273666437438	8.152371	2.8552358
10.310871482399158	8.050419	2.837326
10.32846954219134	8.141893	2.8534002
10.346067846239173	8.199543	2.8634844
10.363666394967908	8.2391815	2.8703976
10.38126518880283	8.20879	2.8650985
10.398864228169298	8.244923	2.8713973
10.416463513492713	8.333492	2.8867788
10.434063045198531	8.282725	2.8779724
10.451662823712262	8.222827	2.8675473
10.469262849459467	8.16534	2.857506
10.486863122865758	8.086418	2.8436627
10.504463644356806	8.108625	2.847565
10.522064414358338	8.065309	2.8399487
10.539665433296118	8.049189	2.837109
10.557266701595987	8.013139	2.8307488
10.574868219683818	7.9709954	2.823295
10.592469987985552	7.840157	2.800028
10.610072006927185	7.695976	2.7741623
10.627674276934751	7.5746717	2.752212
10.64527679843435	7.4200478	2.7239764
10.662879571852143	7.291052	2.7001948
10.680482597614331	7.2018895	2.6836336
10.698085876147173	7.121044	2.6685286
10.715689407876988	7.072973	2.659506
10.733293193230146	6.9726233	2.6405725
10.750897232633072	6.8437934	2.6160645
10.76850152651225	6.7936163	2.6064568
10.786106075294207	6.6936364	2.5872064
10.803710879405534	6.628813	2.5746481
10.821315939272877	6.520332	2.553494
10.83892125532294	6.449504	2.5395873
10.856526827982472	6.3453197	2.5189917
10.874132657678285	6.269432	2.5038834
10.891738744837243	6.1974983	2.4894776
10.909345089886271	6.1598945	2.4819136
10.926951693252343	6.1627197	2.4824827
10.944558555362494	6.1261096	2.475098
10.96216567664381	6.0120044	2.4519389
10.979773057523436	5.9133954	2.4317474
10.997380698428573	5.869402	2.422685
11.014988599786477	5.828807	2.414292
11.032596762024461	5.77306	2.4027193
11.050205185569892	5.65915	2.3788967
11.067813870850198	5.6078477	2.3680894
11.085422818292859	5.5402484	2.353773
11.10303202832541	5.4549103	2.3355749
11.120641501375454	5.341072	2.311076
11.138251237870636	5.240997	2.2893224
11.155861238238671	5.19349	2.278923
11.173471502907317	5.1751513	2.274896
11.191082032304402	5.133607	2.2657464
11.208692826857805	5.088446	2.2557585
11.226303886995465	5.0405097	2.245108
11.243915213145371	5.0043864	2.2370486
11.261526805735578	4.9420857	2.2230802
11.279138665194196	4.9211373	2.2183638
11.296750791949393	4.920211	2.218155
11.314363186429393	4.8623953	2.2050838
11.331975849062479	4.7922244	2.189115
11.34958878027699	4.685324	2.164561
11.36720198050133	4.637063	2.153384
11.384815450163948	4.61778	2.1489022
11.402429189693366	4.6013517	2.1450763
11.420043199518153	4.532531	2.1289742
11.437657480066942	63.442074	7.965053
11.455272031768422	85.19591	9.230163
11.472886855051353	107.587715	10.37245
11.490501950344528	99.204605	9.960151
11.508117318076819	84.52405	9.193696
11.52573295867715	45.902092	6.7751083
11.543348872574514	4.237298	2.0584698
11.560965060197946	4.223806	2.05519
11.57858152197655	4.172279	2.0426157
11.59619825833949	4.1030054	2.0255876
11.613815269715985	4.0606675	2.0151098
11.631432556535323	38.564854	6.2100606
11.649050119226837	83.08336	9.115007
11.666667958219929	93.50346	9.669719
11.68428607394406	107.81114	10.383214
11.701904466828756	82.6363	9.090451
11.719523137303586	65.43368	8.089108
11.737142085798196	4.6071787	2.1464338
11.754761312742286	3.7395198	1.9337838
11.772380818565619	3.7308917	1.9315516
11.790000603698015	3.6836715	1.9192894
11.80762066856935	3.6182678	1.9021745
11.825241013609572	3.5735774	1.8903908
11.842861639248683	3.560642	1.8869663
11.860482545916748	3.5300572	1.8788446
11.878103734043883	3.4422343	1.8553259
11.895725204060282	3.3828895	1.8392633
11.91334695639619	3.3877041	1.8405716
11.930968991481919	3.361974	1.8335687
11.948591309747824	3.3447185	1.8288572
11.966213911624347	3.314675	1.820625
11.98383679754198	3.305313	1.818052
12.001459967931268	3.2954853	1.8153472
12.019083423222835	3.2673876	1.8075917
12.036707163847352	3.1971853	1.7880675
12.05433119023556	3.190146	1.786098
12.071955502818259	3.180194	1.7833098
12.089580102026313	3.2004035	1.7889671
12.107204988290643	3.179325	1.7830662
12.12483016204224	3.1709142	1.780706
12.142455623712152	3.1685498	1.780042
12.16008137373149	3.1476839	1.7741714
12.177707412531431	3.1308634	1.7694246
12.19533374054321	3.0562165	1.7482038
12.212960358198126	3.031721	1.7411839
12.230587265927545	3.0286245	1.7402943
12.248214464162889	3.0306666	1.740881
12.265841953335649	3.0164032	1.7367796
12.283469733877375	2.9930573	1.7300454
12.301097806219685	3.0045142	1.7333535
12.31872617079425	3.0016294	1.732521
12.336354828032825	3.0149527	1.7363619
12.353983778367205	2.934573	1.7130595
12.371613022229262	2.8936317	1.7010678
12.389242560050928	2.8648686	1.6925923
12.406872392264201	2.8806949	1.697261
12.424502519301143	2.9037845	1.7040495
12.442132941593874	2.912753	1.706679
12.459763659574586	2.8969893	1.7020545
12.477394673675532	2.8573008	1.6903552
12.49502598432903	2.8466363	1.6871978
12.51265759196746	2.8455644	1.6868801
12.530289497023267	2.7993047	1.6731123
12.547921699928967	2.7493486	1.658116
12.565554201117134	2.7740257	1.6655407
12.583187001020404	2.810493	1.6764525
12.600820100071486	2.828588	1.6818407
12.618453498703152	2.8286428	1.681857
12.636087197348235	2.7817175	1.6678482
12.65372119643964	2.7968807	1.6723877
12.671355496410326	2.790825	1.6705762
12.68899009769333	2.8472111	1.6873682
12.706625000721749	2.8834121	1.6980612
12.724260205928752	2.949744	1.7174819
12.741895713747551	2.9837334	1.7273487
12.759531524611454	3.0091944	1.734703
12.777167638953818	2.9784758	1.7258261
12.794804057208072	2.998541	1.7316296
12.812440779807702	3.048404	1.7459679
12.830077807186271	3.2302127	1.7972792
12.847715139777405	3.2470725	1.8019634
12.865352778014795	3.4444938	1.8559347
12.882990722332197	3.5176284	1.8755342
12.90062897316344	3.6529703	1.9112746
12.918267530942412	3.7430155	1.9346875
12.935906396103071	3.6535509	1.9114264
12.953545569079449	3.810132	1.9519559
12.971185050305628	3.6452384	1.9092507
12.988824840215775	3.690879	1.9211661
13.006464939244115	3.661192	1.9134241
13.024105347824943	3.500611	1.870992
13.041746066392617	3.5592375	1.8865942
13.05938709538157	3.343999	1.8286604
13.077028435226296	3.3318858	1.8253454
13.094670086361363	3.255038	1.8041724
13.112312049221401	3.1868236	1.7851677
13.129954324241112	3.1049383	1.7620835
13.147596911855258	2.887065	1.6991365
13.165239812498685	2.8523393	1.688887
13.182883026606293	2.821597	1.679761
13.200526554613058	2.7476628	1.6576076
13.218170396954017	2.7244241	1.6505829
13.235814554064284	2.674395	1.6353577
13.253459026379034	2.6869996	1.639207
13.271103814333523	2.735717	1.6540003
13.288748918363058	2.7880697	1.6697514
13.306394338903031	2.7690923	1.664059
13.32404007638889	2.7313385	1.6526761
13.341686131256164	2.7041855	1.6444408
13.359332503940449	2.6708686	1.6342793
13.376979194877402	2.653987	1.6291062
13.394626204502751	2.6781788	1.6365142
13.412273533252307	2.6798615	1.6370282
13.429921181561937	2.6886125	1.6396989
13.447569149867581	2.7076354	1.6454895
13.465217438605247	2.7038546	1.6443402
13.482866048211022	2.670791	1.6342554
13.500514979121052	2.6527073	1.6287134
13.518164231771568	2.6038358	1.6136405
13.535813806598844	2.6307073	1.6219455
13.553463704039254	2.652822	1.6287487
13.571113924529229	2.6982083	1.6426224
13.588764468505275	2.6934404	1.6411705
13.606415336403956	2.6964765	1.6420951
13.624066528661917	2.690844	1.6403792
13.641718045715882	2.768634	1.6639212
13.659369888002635	2.849978	1.6881877
13.67702205595903	2.9315822	1.7121863
13.694674550021993	2.993065	1.7300477
13.712327370628532	3.0505211	1.7465742
13.729980518215713	3.1150448	1.764949
13.747633993220681	3.1489968	1.7745413
13.765287796080647	3.2124507	1.7923311
13.7829419272329	3.2658348	1.807162
13.800596387114801	3.3167708	1.8212004
13.818251176163775	3.3760517	1.8374035
13.835906294817324	3.3802006	1.8385322
13.853561743513023	3.3739703	1.836837
13.871217522688525	3.4061265	1.8455694
13.888873632781538	3.446288	1.8564181
13.906530074229858	3.5352058	1.8802143
13.92418684747135	3.5391178	1.8812543
13.941843952943948	3.5015864	1.8712527
13.959501391085665	3.4868739	1.8673173
13.977159162334578	3.448223	1.8569392
13.994817267128846	3.3966866	1.8430102
14.012475705906693	3.2755268	1.8098416
14.030134479106424	3.2301486	1.7972614
14.047793587166414	3.1762617	1.782207
14.065453030525108	3.142074	1.7725897
14.083112809621026	3.0256364	1.7394357
14.100772924892766	2.9673314	1.7225944
14.118433376778997	2.8955817	1.7016408
14.136094165718458	2.8349826	1.6837406
14.153755292149969	2.798794	1.6729597
14.171416756512416	2.7438633	1.6564611
14.189078559244768	2.6938257	1.6412878
14.20674070078606	2.6400461	1.6248219
14.224403181575408	2.5677311	1.6024141
14.242066002051999	2.5453734	1.5954226
14.259729162655093	2.5426025	1.5945541
14.277392663824022	2.5060365	1.5830466
14.295056505998208	2.4940653	1.579261
14.312720689617128	2.4678016	1.5709238
14.330385215120348	2.4588952	1.5680865
14.348050082947497	2.430832	1.5591125
14.3657152935383	2.4199934	1.5556328
14.383380847332528	2.435976	1.5607613
14.401046744770051	2.4118693	1.5530194
14.418712986290798	2.3956895	1.5478015
14.436379572334793	2.3585	1.5357409
14.454046503342123	2.3648126	1.5377947
14.471713779752946	2.3591027	1.5359371
14.489381402007504	2.3735023	1.5406175
14.507049370546113	2.416003	1.5543497
14.524717685809168	2.4345722	1.5603116
14.542386348237134	2.4300761	1.5588702
14.560055358270553	2.384893	1.5443099
14.577724716350051	2.4004092	1.5493255
14.595394422916325	2.4201229	1.5556744
14.61306447841015	2.485193	1.5764495
14.63073488327237	2.5169933	1.5865035
14.648405637943917	2.559188	1.5997462
14.6660767428658	2.5381718	1.5931641
14.683748198479094	2.5814445	1.6066874
14.701420005224954	2.6461048	1.6266853
14.719092163544628	2.6913316	1.6405278
14.73676467387942	2.7274227	1.651491
14.754437536670727	2.7290614	1.6519871
14.772110752360014	2.7392514	1.6550684
14.78978432138882	2.739207	1.655055
14.807458244198777	2.7524283	1.6590444
14.82513252123159	2.6991115	1.6428972
14.842807152929028	2.713942	1.6474047
14.860482139732962	2.694149	1.6413863
14.87815748208531	2.6757154	1.6357614
14.8958331804281	2.659156	1.6306919
14.91350923520342	2.6066604	1.6145155
14.931185646853438	2.631541	1.6222025
14.948862415820408	2.6556304	1.6296105
14.966539542546656	2.7148988	1.647695
14.98421702747459	2.693924	1.6413177
15.001894871046696	2.6525993	1.6286802
15.019573073705542	2.6050694	1.6140227
15.037251635893766	2.6038752	1.6136527
15.054930558054092	2.6676216	1.6332855
15.072609840629323	2.7776952	1.6666418
15.090289484062351	2.9707646	1.7235906
15.107969488796124	3.2528145	1.8035561
15.125649855273691	3.6268373	1.9044257
15.14333058393817	4.109173	2.0271094
15.161011675232768	5.0411468	2.2452497
15.17869312960076	6.3949914	2.528832
15.196374947485506	8.161131	2.8567693
15.214057129330447	11.245995	3.353505
15.231739675579114	15.979834	3.9974785
15.249422586675102	21.110174	4.594581
15.267105863062092	24.303497	4.9298577
15.284789505183847	24.672182	4.96711
15.302473513484218	22.568872	4.750671
15.320157888407127	19.01836	4.3610044
15.337842630396578	14.755337	3.8412676
15.355527739896656	11.472798	3.387152
15.37321321735153	8.882764	2.9803965
15.39089906320545	6.4932513	2.5481858
15.408585277902748	4.8575215	2.2039785
15.42627186188783	3.7661507	1.9406573
15.443958815605198	3.2373607	1.7992667
15.461646139499424	2.9466872	1.7165917
15.479333834015168	2.8033364	1.6743166
15.497021899597165	2.7025373	1.6439396
15.514710336690234	2.647951	1.6272526
15.53239914573928	2.6006544	1.6126544
15.550088327189297	2.5516968	1.5974032
15.567777881485336	2.5293853	1.5904042
15.58546780907256	2.5366595	1.5926894
15.6031581103962	2.5473142	1.5960307
15.620848785901568	2.543843	1.5949429
15.638539836034063	2.5169008	1.5864743
15.656231261239173	2.509075	1.584006
15.673923061962451	2.4903343	1.5780793
15.691615238649552	2.477053	1.5738657
15.709307791746202	2.4663317	1.5704559
15.727000721698221	2.4353285	1.5605539
15.744694028951498	2.4335127	1.559972
15.76238771395202	2.383801	1.5439563
15.780081777145844	2.3687055	1.53906
15.797776218979125	2.3594346	1.5360451
15.815471039898094	2.3829353	1.5436759
15.833166240349064	2.3611047	1.5365887
15.850861820778437	2.3857176	1.5445769
15.868557781632699	2.412021	1.5530683
15.886254123358412	2.4167845	1.5546011
15.903950846402232	2.3691392	1.5392008
15.921647951210897	2.3574839	1.53541
15.939345438231225	2.350173	1.5330274
15.957043307910133	2.3335779	1.5276053
15.974741560694602	2.3062756	1.5186427
15.992440197031714	2.3374803	1.528882
16.01013921736862	2.4017155	1.5497469
16.02783862215259	2.4143744	1.5538257
16.045538411830933	2.4148033	1.5539638
16.06323858685107	2.3961616	1.547954
16.080939147660512	2.3866203	1.5448691
16.09864009470684	2.3948708	1.547537
16.11634142843774	2.3974476	1.5483693
16.134043149300954	2.4254048	1.5573711
16.15174525774433	2.4124322	1.5532006
16.169447754215817	2.4127247	1.5532948
16.18715063916342	2.4070432	1.5514649
16.204853913035244	2.3975399	1.5483991
16.222557576279478	2.4407406	1.562287
16.240261629344403	22.445353	4.737653
16.257966072678386	43.036324	6.5602074
16.275670906729868	38.150475	6.176607
16.293376131947387	2.5555043	1.5985944
16.31108174877957	2.5352352	1.5922422
16.328787757675133	2.5264392	1.5894777
16.34649415908287	2.5728986	1.6040257
16.364200953451657	2.6171257	1.6177533
16.38190814123048	2.6255739	1.6203623
16.39961572286839	2.6432796	1.6258166
16.41732369881455	2.6526139	1.6286848
16.43503206951817	2.6963155	1.6420461
16.45274083542859	2.7279758	1.6516585
16.47044999699522	2.7827358	1.6681534
16.488159554667558	2.859051	1.6908729
16.505869508895184	2.8880167	1.6994165
16.523579860127786	2.9067786	1.7049277
16.541290608815117	2.9394927	1.7144948
16.559001755407035	3.0014076	1.7324572
16.57671330035348	3.058336	1.7488099
16.59442524410448	3.1309402	1.7694463
16.61213758711015	3.1639717	1.7787557
16.629850329820705	3.2345188	1.7984768
16.647563472686436	3.363651	1.8340259
16.665277016157724	3.4424152	1.8553747
16.682990960685053	3.4940617	1.869241
16.70070530671898	3.5061724	1.8724777
16.718420054710155	3.527072	1.8780501
16.736135205109335	3.5758157	1.8909827
16.753850758367335	3.613423	1.9009006
16.771566714935087	3.655038	1.9118154
16.789283075263597	3.757264	1.9383663
16.80699983980398	3.8495245	1.9620205
16.82471700900741	3.9090953	1.9771432
16.84243458332518	3.9232378	1.9807165
16.860152563208665	3.975072	1.9937582
16.87787094910932	4.0660257	2.016439
16.89558974147871	4.1388507	2.0344164
16.913308940768466	4.1961846	2.048459
16.931028547430333	4.2628546	2.0646682
16.94874856191613	4.316663	2.077658
16.966468984677785	4.397693	2.0970678
16.98418981616729	4.4779725	2.116122
17.00191105683676	4.515801	2.1250415
17.019632707138374	4.5724983	2.13834
17.03735476752442	4.5870576	2.1417418
17.05507723844728	4.5859585	2.1414852
17.072800120359403	4.5774055	2.1394873
17.090523413713353	4.6361723	2.1531773
17.108247118961785	4.6733627	2.161796
17.125971236557437	4.680707	2.163494
17.143695766953133	4.6715007	2.1613655
17.161420710601806	4.6673164	2.1603973
17.179146067956477	4.697989	2.1674845
17.19687183947025	4.755936	2.180811
17.21459802559634	4.759425	2.1816106
17.232324626788028	4.6823225	2.1638675
17.25005164349871	4.6183944	2.149045
17.267779076181863	4.607429	2.1464922
17.285506925291074	4.623218	2.150167
17.30323519127999	4.6156178	2.1483989
17.320963874602384	4.5466185	2.13228
17.33869297571211	4.5109887	2.1239088
17.356422495063114	4.49143	2.1192994
17.37415243310944	4.487989	2.1184874
17.391882790305218	4.4972453	2.120671
17.40961356710468	4.5033135	2.1221013
17.42734476396215	4.570989	2.1379871
17.445076381332044	4.5790977	2.1398826
17.462808419668868	4.640999	2.1542978
17.48054087942723	4.74264	2.1777604
17.498273761061835	5.0544434	2.248209
17.51600706502747	5.500674	2.3453515
17.533740791779024	6.1730723	2.484567
17.551474941771485	7.528517	2.7438142
17.56920951545993	8.610905	2.9344344
17.586944513299528	10.894471	3.3006773
17.60467993574556	12.645506	3.556052
17.622415783253373	14.40523	3.795422
17.64015205627843	15.772458	3.9714553
17.657888755276293	16.844604	4.104218
17.675625880702604	17.340487	4.164191
17.69336343301311	17.20494	4.147884
17.71110141266366	16.436829	4.054236
17.728839820110178	15.423811	3.927316
17.746578655808705	14.507205	3.8088324
17.764317920215372	13.046863	3.612044
17.7820576137864	11.577646	3.402594
17.79979773697811	9.48105	3.0791314
17.81753829024692	7.5525723	2.7481945
17.835279274049356	5.8295183	2.4144394
17.85302068884201	4.778525	2.1859837
17.870762535081607	4.187062	2.046231
17.888504813224934	3.9065468	1.9764986
17.90624752372891	3.70588	1.9250662
17.923990667050536	3.5398905	1.8814597
17.941734243646895	3.4870107	1.8673539
17.959478253975185	3.5231783	1.8770131
17.9772226984927	3.5179856	1.8756294
17.994967577656833	3.4810457	1.865756
18.01271289192506	3.4003453	1.8440025
18.030458641754965	3.3704808	1.835887
18.04820482760425	3.3558109	1.8318872
18.06595144993067	3.3217552	1.8225683
18.083698509192125	3.300116	1.8166221
18.101446005846576	3.299349	1.816411
18.119193940352105	3.3321123	1.8254074
18.136942313166887	3.3135366	1.8203123
18.1546911247492	3.3059356	1.8182232
18.1724403755574	3.225561	1.7959846
18.19019006604997	3.1831748	1.7841454
18.207940196685467	3.1521893	1.7754406
18.225690767922575	3.206714	1.79073
18.243441780220046	3.132124	1.7697808
18.261193234036764	3.057477	1.7485642
18.278945129831676	2.9703865	1.7234809
18.29669746806386	2.9750774	1.7248412
18.314450249192483	3.0200598	1.737832
18.3322034736768	3.0789084	1.7546818
18.349957141976184	3.0982075	1.7601726
18.3677112545501	3.059175	1.7490498
18.385465811858108	3.0435798	1.7445859
18.403220814359884	3.0711374	1.7524661
18.420976262515172	3.129419	1.7690164
18.43873215678387	3.1424534	1.7726966
18.456488497625923	3.1478164	1.7742087
18.474245285501407	3.2260406	1.7961183
18.492002520870486	3.3085556	1.8189435
18.50976020419343	3.400382	1.8440125
18.527518335930615	3.699508	1.9234105
18.545276916542516	4.2848835	2.069996
18.563035946489688	4.4565372	2.1110513
18.580795426232832	4.895256	2.2125225
18.598555356232698	4.794584	2.1896539
18.616315736950185	5.122773	2.2633543
18.63407656884626	4.7865987	2.1878297
18.65183785238201	4.989492	2.233717
18.669599588018617	4.6860204	2.1647217
18.68736177621737	4.6605268	2.1588254
18.705124417439652	4.664041	2.1596391
18.72288751214696	4.5402308	2.1307817
18.740651060800886	4.691561	2.1660013
18.758415063863115	4.393446	2.0960548
18.77617952179546	4.4530044	2.1102142
18.793944435059814	4.227453	2.0560772
18.811709804118184	4.228074	2.0562282
18.829475629432675	4.188023	2.046466
18.8472419114655	3.9550836	1.9887393
18.86500865067897	4.034159	2.0085216
18.88277584753551	3.7461169	1.9354888
18.90054350249763	3.780668	1.944394
18.918311616027957	3.469334	1.8626148
18.936080188589226	3.350819	1.8305243
18.953849220644265	2.997013	1.7311883
18.971618712656007	2.8217392	1.6798034
18.9893886650875	2.7927356	1.671148
19.007159078401887	8.023483	2.8325753
19.024929953062408	32.92584	5.738104
19.042701289532435	32.834743	5.7301607
19.060473088275405	25.389727	5.038822
19.07824534975489	2.694738	1.6415657
19.096018074434568	2.6908538	1.6403822
19.113791262778197	2.6651409	1.6325259
19.13156491524966	2.6322198	1.6224117
19.149339032312945	2.5915096	1.6098167
19.167113614432136	2.5191495	1.5871829
19.184888662071433	2.522582	1.5882639
19.202664175695123	2.5545225	1.5982873
19.220440155767623	2.5748565	1.604636
19.238216602753447	2.5693443	1.6029174
19.2559935171172	2.5686977	1.6027157
19.27377089932361	2.5824537	1.6070014
19.291548749837514	2.584128	1.6075222
19.309327069123835	2.5876203	1.6086081
19.32710585764763	2.6048489	1.6139544
19.344885115874032	2.6093915	1.6153611
19.362664844268313	2.5500543	1.5968889
19.380445043295822	2.4992032	1.5808868
19.39822571342203	2.4765735	1.5737133
19.41600685511252	2.4745586	1.573073
19.43378846883297	2.4953246	1.5796597
19.451570555049173	2.4729314	1.5725557
19.469353114227037	2.4802325	1.5748754
19.48713614683254	2.517291	1.5865973
19.50491965333182	2.5296159	1.5904766
19.52270363419109	2.5120935	1.5849586
19.540488089876686	2.4837546	1.5759932
19.55827302085503	2.505537	1.5828888
19.576058427592674	2.53285	1.591493
19.593844310556282	2.5280244	1.5899762
19.611630670212598	2.500993	1.5814528
19.629417507028506	2.4644413	1.5698539
19.64720482147098	2.4779983	1.5741659
19.6649926140071	2.4884953	1.5774965
19.682780885104084	2.5099022	1.5842671
19.70056963522921	2.5211866	1.5878245
19.718358864849908	2.5639331	1.6012286
19.7361485744337	2.5934124	1.6104075
19.753938764448215	2.6031098	1.6134156
19.771729435361202	2.599026	1.6121495
19.789520587640506	2.5525088	1.5976573
19.807312221754092	2.5388105	1.5933645
19.825104338170043	2.522931	1.5883738
19.842896937356517	2.5381088	1.5931443
19.860690019781824	2.5392954	1.5935167
19.87848358591436	2.5290346	1.5902939
19.896277636222635	2.512148	1.5849757
19.914072171175278	2.517249	1.5865841
19.931867191241015	2.5495663	1.5967361
19.94966269688869	2.5803995	1.6063622
19.967458688587264	2.572562	1.6039208
19.985255166805807	2.5299933	1.5905952
20.00305213201348	2.4962258	1.5799448
20.020849584679578	2.4444656	1.5634787
20.038647525273507	2.4582853	1.567892
20.05644595426477	2.4471447	1.5643352
20.07424487212299	2.4376223	1.5612887
20.092044279317903	2.4012058	1.5495825
20.109844176319353	2.3990014	1.548871
20.127644563597304	2.4390717	1.5617528
20.145445441621817	2.4474185	1.5644227
20.16324681086307	2.429336	1.5586327
20.181048671791373	2.3825102	1.5435382
20.198851024877122	2.4018595	1.5497934
20.216653870590836	2.411301	1.5528364
20.234457209403146	2.393891	1.5472205
20.252261041784802	2.3809938	1.543047
20.270065368206662	2.3680732	1.5388545
20.287870189139685	2.395463	1.5477283
20.305675505054968	2.3983104	1.5486479
20.323481316423702	2.4217126	1.5561852
20.341287623717207	2.4092605	1.5521793
20.359094427406884	2.402715	1.5500693
20.376901727964288	2.3707607	1.5397274
20.39470952586107	2.3773823	1.5418762
20.41251782156899	2.3552282	1.5346752
20.430326615559935	2.3669937	1.5385038
20.448135908305886	2.3269248	1.5254261
20.465945700278965	2.3313484	1.5268754
20.483755991951384	2.3128572	1.5208081
20.50156678379548	2.3256345	1.5250031
20.519378076283708	2.313385	1.5209816
20.537189869888635	2.3422434	1.530439
20.55500216508294	2.3519902	1.53362
20.572814962339415	2.364628	1.5377347
20.59062826213098	2.365647	1.538066
20.60844206493066	2.3589325	1.5358816
20.626256371211593	2.34698	1.5319856
20.644071181447032	2.3519838	1.5336179
20.66188649611036	2.3674486	1.5386516
20.67970231567506	2.3374684	1.5288781
20.697518640614742	2.3412755	1.5301226
20.715335471403122	2.3193	1.5229248
20.73315280851404	2.3111176	1.520236
20.750970652421447	2.298391	1.5160446
20.768789003599412	2.2806864	1.5101942
20.786607862522136	2.266709	1.5055594
20.8044272296639	2.2665055	1.5054917
20.82224710549913	2.2596016	1.5031971
20.84006749050237	2.2664454	1.5054718
20.857888385148268	3.8509	1.962371
20.8757097899116	45.96273	6.779582
20.893531705267254	64.80063	8.049884
20.911354131690224	83.83059	9.155905
20.92917706965566	69.10871	8.313165
20.94700051963877	50.16776	7.08292
20.96482448211493	29.408674	5.4229765
20.982648957559622	4.1371465	2.0339978
21.00047394644843	2.2325504	1.4941721
21.01829944925707	2.2507591	1.500253
21.036125466461375	2.2498503	1.49995
21.053951998537297	2.25781	1.5026011
21.071779045960906	2.275265	1.5083982
21.089606609208378	2.257703	1.5025655
21.10743468875603	2.2583256	1.5027727
21.12526328508028	2.239364	1.4964504
21.143092398657675	2.2316544	1.4938723
21.16092202996488	2.252598	1.5008658
21.17875217947867	2.2550726	1.5016899
21.19658284767596	2.2633967	1.5044589
21.21441403503377	2.2470903	1.4990298
21.232245742029225	2.1898725	1.4798218
21.2500779691396	2.1705806	1.473289
21.26791071684227	2.166113	1.4717721
21.28574398561475	2.165517	1.4715697
21.30357777593465	2.1747074	1.4746889
21.321412088279704	2.156798	1.4686041
21.339246923127792	2.1646175	1.4712639
21.357082280956888	2.1697583	1.47301
21.3749181622451	2.149746	1.4662012
21.392754567470647	2.1085358	1.4520798
21.41059149711187	2.073605	1.4400017
21.42842895164726	2.0734842	1.4399598
21.446266931555378	2.075713	1.4407334
21.464105437314945	2.0785317	1.4417114
21.481944469404798	2.0585036	1.4347486
21.49978402830388	2.0706854	1.4389876
21.51762411449127	2.0840018	1.4436072
21.53546472844617	2.109053	1.4522579
21.553305870647876	2.151545	1.4668146
21.571147541575865	2.1743522	1.4745685
21.58898974170967	2.1389706	1.462522
21.60683247152899	2.0493846	1.4315672
21.62467573151363	2.044356	1.4298098
21.642519522143523	2.055777	1.4337981
21.660363843898722	2.070076	1.4387759
21.6782086972594	2.0412292	1.428716
21.696054082705864	2.0340972	1.4262178
21.713900000718535	2.0356057	1.4267465
21.73174645177795	2.0739427	1.440119
21.749593436364794	2.0609548	1.4356025
21.767440954959845	2.0689151	1.4383724
21.785289008044032	2.0608087	1.4355516
21.803137596098388	2.0549865	1.4335223
21.820986719604086	1.9845406	1.4087372
21.838836379042412	1.9744236	1.4051418
21.85668657489478	2.0049374	1.4159582
21.87453730764273	2.0098825	1.4177033
21.892388577767914	1.9817135	1.4077334
21.91024038575213	1.9987515	1.4137721
21.928092732077285	2.0431917	1.4294026
21.945945617225426	2.0193622	1.4210427
21.963799041678694	1.9963475	1.4129217
21.981653005919398	31.31581	5.596053
21.999507510429943	78.1466	8.840056
22.01736255569286	73.08406	8.548922
22.035218142190818	4.173077	2.0428112
22.05307427040661	2.0002637	1.4143068
22.07093094082315	2.0005488	1.4144076
22.088788153923474	1.9598045	1.3999302
22.106645910190746	1.9316341	1.3898324
22.12450421010827	1.8883493	1.3741722
22.142363054159464	1.9142146	1.3835515
22.16022244282787	1.9494911	1.3962418
22.178082376597164	1.9899834	1.4106678
22.195942855951145	1.9981116	1.4135457
22.213803881373742	2.0282958	1.4241825
22.231665453349002	2.036512	1.4270641
22.24952757236111	2.022615	1.4221867
22.26739023889438	1.9963723	1.4129304
22.28525345343323	2.0111656	1.4181557
22.30311721646225	2.033014	1.425838
22.320981528466113	2.0197303	1.4211721
22.33884638992964	1.9881064	1.4100022
22.356711801337788	2.0001018	1.4142495
22.37457776317561	2.0041926	1.4156951
22.392444275928337	1.9939392	1.4120691
22.410311340081282	1.9919852	1.4113771
22.428178956119904	1.9736781	1.4048766
22.446047124529805	1.9646786	1.40167
22.46391584579669	1.9640418	1.4014428
22.481785120406414	1.9518397	1.3970826
22.49965494884496	1.9131644	1.3831718
22.51752533159841	1.9417104	1.3934526
22.53539626915302	1.9632311	1.4011534
22.553267761995137	1.9372777	1.3918612
22.571139810611264	1.8946401	1.3764592
22.589012415488025	1.8950006	1.3765903
22.60688557711216	1.9442993	1.3943814
22.624759295970566	1.9796871	1.4070135
22.642633572550263	2.0084805	1.4172087
22.660508407338362	2.0042915	1.41573
22.67838380082217	1.981339	1.4076004
22.696259753489077	1.9741977	1.4050615
22.714136265826614	1.9649154	1.4017544
22.73201333832246	1.9495414	1.3962598
22.74989097146439	1.9202979	1.3857481
22.76776916574035	1.8751976	1.3693786
22.785647921638393	1.8960816	1.3769828
22.803527239646712	1.9222255	1.3864435
22.82140712025363	1.9346576	1.3909197
22.839287563947593	1.9163376	1.3843185
22.85716857121719	1.936662	1.3916401
22.875050142551135	1.9049146	1.3801864
22.892932278438277	1.9342345	1.3907676
22.910814979367604	1.9183547	1.3850468
22.928698245828222	1.9442911	1.3943784
22.946582078309387	1.9149512	1.3838177
22.96446647730047	1.9143761	1.3836098
22.98235144329098	1.9373984	1.3919046
23.000236976770562	1.9591615	1.3997005
23.018123078229	1.9399698	1.392828
23.03600974815619	1.8899095	1.3747398
23.053896987042194	1.8635143	1.365106
23.071784795377173	1.8799735	1.3711213
23.08967317365145	1.9091779	1.3817301
23.10756212235546	1.9246391	1.3873136
23.125451641979787	1.9277081	1.3884193
23.143341733015134	1.9515673	1.396985
23.161232395952357	1.9723917	1.4044186
23.179123631282426	1.9495862	1.3962758
23.197015439496468	1.9571024	1.3989648
23.214907821085717	1.9589905	1.3996394
23.23280077654157	1.9292699	1.3889816
23.250694306355538	1.898369	1.3778131
23.268588411019277	1.9049225	1.3801893
23.28648309102458	1.9569808	1.3989213
23.304378346863356	1.9677986	1.4027824
23.322274179027676	1.9677957	1.4027814
23.340170588009723	1.9257238	1.3877045
23.358067574301852	1.921579	1.3862103
23.37596513839651	1.9387978	1.3924072
23.39386328078629	1.9292444	1.3889724
23.411762001963947	1.9355956	1.3912568
23.429661302422353	1.9088653	1.381617
23.4475611826545	1.9432554	1.394007
23.46546164315356	1.9419374	1.3935342
23.48336268441279	1.902793	1.3794177
23.501264306925638	1.8424356	1.3573635
23.51916651118564	1.852544	1.361082
23.537069297686497	1.8783064	1.3705132
23.554972666922037	1.9041235	1.3798999
23.57287661938623	1.9583447	1.3994087
23.59078115557318	1.9896777	1.4105593
23.608686275977128	2.0089989	1.4173915
23.62659198109246	1.9785305	1.4066025
23.6444982714137	1.9307153	1.3895018
23.66240514743549	1.9310092	1.3896075
23.68031260965263	1.8890132	1.3744137
23.698220658560068	1.8555512	1.3621862
23.716129294652845	1.8392698	1.3561968
23.7340385184262	1.8780686	1.3704264
23.75194833037546	1.9060543	1.3805993
23.769858730996123	1.9115117	1.3825743
23.78776972078382	1.879774	1.3710485
23.80568130023431	1.8874371	1.3738403
23.823593469843495	1.9039142	1.3798239
23.841506230107424	1.9103737	1.3821627
23.859419581522275	1.9192152	1.3853574
23.87733352458438	1.8967195	1.3772144
23.89524805979019	1.9063896	1.3807207
23.913163187636318	1.8684628	1.3669173
23.931078908619508	1.8894866	1.374586
23.948995223236633	1.919057	1.3853003
23.966912131984735	1.9737368	1.4048975
23.98482963536096	1.9770658	1.4060817
24.002747733862616	1.9719338	1.4042556
24.020666427987155	2.0095074	1.417571
24.038585718232156	2.1012568	1.4495713
24.056505605095353	2.082746	1.4431722
24.074426089074617	2.0491788	1.4314953
24.092347170667946	2.00295	1.4152561
24.110268850373515	2.010145	1.4177958
24.128191128689586	2.0333655	1.4259613
24.146114006114626	2.0032117	1.4153486
24.164037483147187	2.0197563	1.4211813
24.181961560286005	2.0709379	1.4390754
24.199886238029926	2.051873	1.432436
24.21781151687797	2.0343406	1.4263031
24.235737397329274	2.0238514	1.4226214
24.253663879883135	2.0352688	1.4266285
24.271590965038975	2.0092068	1.4174649
24.289518653296376	2.0426788	1.4292232
24.30744694515505	2.1091049	1.4522758
24.32537584111486	2.1507683	1.4665498
24.34330534167581	2.1253505	1.4578582
24.361235447338046	2.0635977	1.4365227
24.379166158601876	1.9794059	1.4069136
24.39709747596772	1.913451	1.3832754
24.41502939993615	1.9234035	1.3868682
24.432961931007917	1.9715741	1.4041275
24.450895069683856	2.0227668	1.42224
24.468828816465	1.9979526	1.4134895
24.4867631718525	1.9584644	1.3994515
24.504698136347656	1.9288568	1.3888329
24.52263371045192	1.8980824	1.3777092
24.540569894666874	1.9035378	1.3796875
24.558506689494266	1.9737732	1.4049104
24.57644409543597	1.9795204	1.4069543
24.594382112994012	1.9959849	1.4127933
24.61232074267057	1.9833288	1.4083071
24.630259984967953	1.9551945	1.3982826
24.64819984038863	1.9221729	1.3864245
24.66614030943522	1.9297602	1.3891581
24.684081392610462	1.953238	1.3975829
24.702023090417274	1.9778922	1.4063755
24.7199654033587	1.9456931	1.394881
24.737908331937927	1.9604851	1.4001732
24.755851876658305	2.0299678	1.4247694
24.773796038023324	2.1142526	1.454047
24.79174081653661	2.1590943	1.4693857
24.809686212701962	2.1540508	1.4676685
24.827632227023294	2.1196048	1.4558862
24.8455788600047	2.0779998	1.4415269
24.8635261121504	2.0792146	1.4419482
24.88147398396475	2.0877357	1.4448999
24.899422475952303	2.123858	1.4573462
24.917371588617698	2.1424866	1.4637235
24.935321322465768	2.1627386	1.4706253
24.953271678001478	2.2392576	1.4964149
24.97122265572994	2.4712582	1.5720236
24.989174256156414	2.8390224	1.6849399
25.00712647978632	3.3125558	1.8200428
25.02507932712521	3.8132958	1.9527662
25.043032798678798	4.3659277	2.0894802
25.060986894952933	5.022952	2.2411942
25.078941616453637	5.816451	2.411732
25.096896963687055	6.7473707	2.5975702
25.114852937159508	7.856772	2.8029933
25.132809537377444	8.38752	2.8961215
25.150766764847468	8.48008	2.9120576
25.168724620076347	7.859194	2.8034253
25.186683103570985	6.723123	2.5928986
25.204642215838426	5.4889126	2.3428428
25.222601957385894	4.125335	2.0310922
25.24056232872074	3.15973	1.777563
25.25852333035048	2.6279457	1.621094
25.276484962782778	2.2484932	1.4994977
25.294447226525435	2.0513163	1.4322417
25.312410122086423	1.99102	1.4110351
25.330373649973843	1.9681566	1.40291
25.348337810695988	1.9462398	1.395077
25.366302604761245	1.9439142	1.3942432
25.384268032678207	1.9252464	1.3875325
25.40223409495558	1.9155749	1.384043
25.420200792102257	1.8857869	1.3732395
25.438168124627246	1.9174601	1.3847238
25.45613609303974	1.9344727	1.3908532
25.474104697849057	1.9116464	1.382623
25.492073939564698	1.8551952	1.3620555
25.510043818696285	1.8082396	1.344708
25.528014335753614	1.8304315	1.3529344
25.54598549124664	1.8664715	1.3661886
25.56395728568544	1.8950782	1.3766184
25.58192971958028	1.8782835	1.3705049
25.59990279344156	1.8687744	1.3670312
25.617876507779833	1.8644637	1.3654536
25.635850863105826	1.8530804	1.361279
25.653825859930386	1.842715	1.3574663
25.671801498764548	1.8170888	1.3479943
25.68977778011949	1.7698189	1.3303454
25.707754704506524	1.788407	1.3373133
25.725732272437153	1.8386635	1.3559732
25.743710484423012	1.8858925	1.373278
25.761689340975888	1.881191	1.3715652
25.77966884260774	1.8634833	1.3650947
25.797648989830662	1.8445046	1.3581254
25.815629783156922	1.81473	1.3471192
25.83361122309895	1.8280644	1.3520594
25.85159331016929	1.8206445	1.3493125
25.869576044880695	1.8477856	1.3593328
25.887559427746034	1.847361	1.3591766
25.90554345927836	1.8533291	1.3613703
25.92352813999086	1.8509437	1.3604939
25.94151347039689	1.8970659	1.3773402
25.959499451009965	1.9143631	1.3836051
25.97748608234374	1.8474336	1.3592033
25.995473364912062	1.8040187	1.3431376
26.013461299228904	1.8031312	1.3428072
26.03144988580839	1.8134378	1.3466394
26.04943912516483	1.8322664	1.3536124
26.067429017812675	1.8627708	1.3648336
26.085419564266537	1.8212255	1.3495278
26.103410765041186	1.7992445	1.3413593
26.12140262065155	1.8262539	1.3513896
26.139395131612723	1.875958	1.3696562
26.157388298439948	1.9057431	1.3804866
26.17538212164861	1.9437358	1.3941792
26.193376601754295	1.8800031	1.371132
26.211371739272714	1.7958386	1.3400891
26.229367534719746	1.7993305	1.3413912
26.247363988611433	1.8263116	1.351411
26.26536110146397	1.8522484	1.3609734
26.283358873793727	1.8500732	1.360174
26.301357306117204	1.8307667	1.3530582
26.319356398951104	1.7904742	1.338086
26.33735615281224	1.7798342	1.3341043
26.35535656821762	1.7722671	1.3312652
26.373357645684404	1.7530518	1.3240286
26.39135938572991	1.7910584	1.3383043
26.409361788871614	1.8207796	1.3493626
26.427364855627165	1.8327193	1.3537797
26.445368586514352	1.8437145	1.3578345
26.46337298205115	1.8264903	1.351477
26.48137804275568	1.7765287	1.3328649
26.499383769146217	1.7122352	1.308524
26.517390161741215	1.7474229	1.3219012
26.53539722105928	1.8234282	1.3503437
26.553404947619182	1.8706876	1.3677309
26.571413341939856	1.8547366	1.3618871
26.589422404540397	1.826453	1.3514633
26.60743213594006	1.8102509	1.3454556
26.62544253665827	1.7927992	1.3389546
26.64345360721459	1.7919912	1.3386527
26.66146534812879	1.8241256	1.3506019
26.679477759920758	1.8172909	1.3480693
26.69749084311057	1.8090198	1.3449981
26.71550459821847	1.7960975	1.3401856
26.733519025764842	1.8183477	1.3484613
26.751534126270258	1.8415538	1.3570386
26.769549900255434	1.8460847	1.358707
26.787566348241267	1.8455373	1.3585055
26.80558347074881	1.8531548	1.3613063
26.823601268299267	1.8392334	1.3561834
26.841619741414036	1.8022531	1.3424802
26.85963889061465	1.7842675	1.3357648
26.877658716422832	1.80226	1.3424828
26.89567921936045	1.7978196	1.340828
26.913700399949544	1.7808027	1.3344672
26.93172225871233	1.8085939	1.3448397
26.949744796171174	1.8458824	1.3586326
26.967768012848605	1.8658148	1.3659483
26.98579190926733	1.8322728	1.3536147
27.003816485950225	1.805429	1.3436625
27.021841743420318	1.812384	1.3462481
27.039867682200814	1.7774807	1.3332219
27.057894302815072	1.7611082	1.3270675
27.07592160578664	1.7803986	1.3343158
27.0939495916392	1.78194	1.3348932
27.111978260896635	1.8144331	1.347009
27.13000761408296	1.8083559	1.3447512
27.148037651722397	1.7742417	1.3320067
27.166068374339304	1.7933791	1.339171
27.184099782458215	1.8201755	1.3491389
27.20213187660384	1.8505465	1.3603479
27.22016465730105	1.854588	1.3618326
27.23819812507487	1.8389405	1.3560754
27.256232280450533	1.7891876	1.3376051
27.274267123953383	1.7666118	1.3291395
27.292302656108987	1.7871385	1.336839
27.31033887744306	1.7744303	1.3320774
27.32837578848146	1.7521149	1.3236748
27.34641338975026	1.7335625	1.3166482
27.364451681775673	1.7712884	1.3308976
27.382490665084074	1.8213623	1.3495785
27.400530340202046	1.850323	1.3602657
27.41857070765629	1.84273	1.357472
27.436611767973726	1.8192285	1.3487878
27.454653521681404	1.8666947	1.3662703
27.472695969306564	1.9390633	1.3925025
27.490739111376627	1.9219773	1.386354
27.508782948419153	1.8874584	1.3738481
27.526827480961902	1.8223475	1.3499435
27.54487270953279	1.8001046	1.3416798
27.562918634659898	1.8285328	1.3522326
27.580965256871508	1.8242271	1.3506395
27.599012576696026	1.7850258	1.3360486
27.617060594662068	1.7858713	1.336365
27.63510931129842	1.7762866	1.332774
27.65315872713401	1.8144796	1.3470262
27.67120884269797	1.8165368	1.3477896
27.68925965851958	1.7943797	1.3395445
27.707311175128307	1.8118975	1.3460674
27.725363393053787	1.7938302	1.3393395
27.74341631282583	1.8114117	1.345887
27.7614699349744	1.8251383	1.3509768
27.77952426002968	2.0133162	1.4189137
27.797579288521973	2.109208	1.4523113
27.815635020981784	2.5275753	1.5898349
27.83369145793979	2.5605009	1.6001565
27.85174859992682	2.398794	1.548804
27.869806447473923	2.261124	1.5037034
27.887865001112267	1.9907024	1.4109225
27.905924261373233	1.8872072	1.3737565
27.92398422878836	1.8620119	1.3645556
27.94204490388936	1.8592403	1.3635396
27.96010628720813	1.8621755	1.3646156
27.978168379276728	1.8921915	1.3755696
27.9962311806274	1.9481436	1.3957591
28.014294691792568	1.9285722	1.3887304
28.0323589133048	1.8868229	1.3736167
28.050423845696887	1.8405783	1.3566792
28.068489489501758	1.8254527	1.3510932
28.086555845252523	1.8828359	1.3721646
28.104622913482487	1.9144013	1.383619
28.122690694725115	1.8949724	1.37658
28.14075918951405	1.8927116	1.3757585
28.15882839838312	1.9084408	1.3814633
28.176898321866304	1.9506192	1.3966457
28.1949689604978	1.9723603	1.4044074
28.213040314811945	1.9961811	1.4128628
28.23111238534327	1.9720937	1.4043125
28.249185172626493	1.9362601	1.3914956
28.267258677196473	1.9367645	1.3916769
28.285332899588294	1.9062784	1.3806804
28.303407840337172	1.9486712	1.3959482
28.321483499978545	1.9434583	1.3940797
28.33955987904799	1.9224231	1.3865148
28.357636978081285	1.8835931	1.3724406
28.37571479761439	1.9161147	1.3842379
28.393793338183425	1.9245126	1.3872681
28.41187260032469	1.9402078	1.3929135
28.429952584574686	1.9745609	1.4051907
28.448033291470065	2.009034	1.4174039
28.46611472154769	2.0288749	1.4243858
28.484196875344566	2.0540998	1.4332131
28.502279753397914	2.0389073	1.427903
28.52036335624511	2.0137048	1.4190507
28.538447684423716	2.010061	1.4177662
28.556532738471482	1.9739411	1.4049702
28.574618518926325	1.9702255	1.4036472
28.59270502632635	2.0298352	1.4247229
28.61079226120985	2.0356383	1.4267579
28.628880224115274	2.0100167	1.4177506
28.646968915581287	2.0372045	1.4273068
28.66505833614671	2.0460706	1.4304092
28.68314848635055	2.0865579	1.4444922
28.701239366732004	2.080325	1.4423331
28.71933097783044	2.1091003	1.4522742
28.737423320185403	2.1383553	1.4623116
28.75551639433665	2.1247625	1.4576565
28.773610200824074	2.1101499	1.4526355
28.791704740187793	2.1302037	1.4595218
28.80980001296809	2.1187005	1.4555757
28.827896019705413	2.1376834	1.4620819
28.845992760940433	2.1316738	1.4600253
28.86409023721397	2.150201	1.4663564
28.88218844906704	2.2320728	1.4940124
28.900287397040845	2.2939332	1.5145736
28.918387081676755	2.2747452	1.5082258
28.936487503516343	2.2460291	1.4986758
28.954588663101365	2.2457345	1.4985775
28.97269056097374	2.28204	1.5106423
28.990793197675597	2.3229983	1.5241386
29.00889657374923	2.3479376	1.5322981
29.027000689737125	2.412583	1.5532492
29.04510554618196	2.4409592	1.562357
29.06321114362659	2.3994544	1.5490172
29.08131748261405	2.3617244	1.5367903
29.099424563687567	2.444978	1.5636425
29.11753238739057	2.492927	1.5789006
29.13564095426663	2.5310194	1.5909178
29.15375026485954	2.5904927	1.6095008
29.171860319713275	2.685492	1.6387471
29.18997111937199	2.7425745	1.656072
29.20808266438002	2.714981	1.64772
29.226194955281898	2.7584004	1.6608433
29.244307992622335	2.8335595	1.683318
29.26242177694624	2.8521464	1.6888299
29.2805363087987	2.8838913	1.6982024
29.29865158872498	2.9108827	1.7061309
29.316767617270557	2.9284565	1.7112733
29.334884394981064	3.0008225	1.7322882
29.353001922402367	3.0429237	1.7443978
29.37112020008047	3.0668755	1.7512497
29.389239228561596	3.1518598	1.7753478
29.407359008392152	3.369782	1.8356966
29.42547954011872	3.7193115	1.9285517
29.44360082428809	4.243205	2.059904
29.46172286144722	5.327728	2.308187
29.479845652143283	6.9692945	2.6399422
29.497969196923606	9.036657	3.0061033
29.516093496335728	11.575744	3.4023144
29.5342185509274	14.4660845	3.8034306
29.55234436124651	16.887896	4.1094885
29.570470927841175	18.358229	4.2846503
29.588598251259686	18.18632	4.264542
29.60672633205055	16.827421	4.102124
29.624855170762405	14.474382	3.8045213
29.642984767944146	11.541629	3.3972974
29.66111512414481	8.769698	2.9613676
29.67924623991366	6.51105	2.551676
29.697378115800138	5.0615954	2.249799
29.71551075235387	4.17081	2.042256
29.733644150124675	3.7058113	1.9250484
29.751778309662576	3.5254524	1.8776188
29.769913231517766	3.424836	1.8506312
29.78804891624066	3.401582	1.8443378
29.806185364381818	3.4525294	1.8580984
29.82432257649206	3.4378161	1.8541349
29.842460553122333	3.4177046	1.8487035
29.86059929482382	3.3451989	1.8289884
29.878738802147872	3.349065	1.8300451
29.896879075646048	3.3271945	1.8240598
29.915020115870114	3.3298607	1.8247906
29.933161923371976	3.3062954	1.8183222
29.951304498703777	3.3128622	1.820127
29.969447842417857	3.2325568	1.7979313
29.987591955066733	3.1925948	1.7867833
30.005736837203123	3.2301493	1.7972616
30.023882489379943	3.2699697	1.8083057
30.04202891215028	3.1973403	1.7881109
30.060176106067455	3.144447	1.7732589
30.078324071684946	3.116174	1.7652688
30.09647280955646	3.0903528	1.7579399
30.114622320235863	3.1102269	1.7635835
30.132772604277257	3.0812883	1.7553599
30.1509236622349	3.1348004	1.7705368
30.16907549466328	3.1441965	1.7731882
30.18722810211705	3.0508597	1.7466711
30.205381485151097	3.0422726	1.7442112
30.22353564432045	3.0196304	1.7377083
30.241690580180403	3.0474184	1.7456857
30.25984629328638	3.0719554	1.7526995
30.278002784194037	3.0271208	1.7398623
30.296160053459246	2.9497867	1.7174942
30.314318101638033	2.9176707	1.708119
30.332476929286646	2.9338033	1.7128348
30.35063653696153	2.9544075	1.7188389
30.368796925219307	2.9591944	1.7202309
30.386958094616844	2.9088533	1.7055361
30.40512004571115	2.9347577	1.7131134
30.423282779059463	2.930782	1.7119527
30.441446295219233	2.8935442	1.701042
30.459610594748067	2.8212621	1.6796613
30.47777567820382	2.823433	1.6803074
30.495941546144504	2.8703992	1.6942253
30.51410819912835	2.866083	1.692951
30.532275637713795	2.763099	1.6622572
30.55044386245946	2.7682455	1.6638045
30.56861287392416	2.828022	1.6816723
30.586782672666956	2.855058	1.6896917
30.604953259247047	2.8383987	1.6847547
30.623124634223885	2.7633693	1.6623385
30.641296798157075	2.7563143	1.6602151
30.659469751606462	2.7965817	1.6722983
30.677643495132074	2.8202438	1.6793581
30.695818029294152	2.767251	1.6635057
30.713993354653116	2.6955836	1.6418233
30.73216947176962	2.6988277	1.642811
30.75034638120448	2.6872842	1.6392938
30.768524083518756	2.7471673	1.6574581
30.786702579273673	2.8684378	1.6936463
30.80488186903069	2.9230578	1.7096952
30.82306195335144	2.9325724	1.7124755
30.841242832797782	3.1244807	1.7676201
30.85942450793176	3.4948661	1.869456
30.877606979315637	3.870485	1.9673549
30.895790247511883	4.102487	2.0254598
30.913974313083134	4.4216404	2.1027696
30.932159176592283	4.718141	2.1721282
30.95034483860237	4.7738156	2.1849062
30.968531299676698	4.6084566	2.1467316
30.98671856037873	4.2935295	2.0720835
31.00490662127215	3.933308	1.9832569
31.023095482920848	3.5605981	1.8869548
31.04128514588892	3.0690377	1.7518669
31.059475610740662	2.771733	1.6648523
31.07766687804056	2.6750112	1.6355461
31.09585894835335	2.5472922	1.5960239
31.11405182224393	2.4505527	1.5654241
31.132245500277417	2.4762433	1.5736084
31.15043998301914	2.510568	1.5844772
31.168635271034628	2.4969094	1.5801612
31.18683136488964	2.4400105	1.5620533
31.20502826515008	2.4080124	1.5517771
31.223225972382135	2.3460448	1.5316803
31.241424487152155	2.3633475	1.5373183
31.259623810026692	2.4104805	1.5525723
31.27782394157253	2.367345	1.538618
31.296024882356644	2.2988493	1.5161957
31.314226632946237	2.287122	1.5123234
31.332429193908684	2.3723717	1.5402505
31.350632565811598	2.4777412	1.5740843
31.368836749222787	2.5235193	1.5885589
31.387041744710295	2.4851248	1.5764278
31.40524755284232	2.4585917	1.5679897
31.423454174187317	2.5046103	1.5825961
31.441661609313922	2.5179708	1.5868115
31.459869858791002	2.421046	1.555971
31.478078923187628	2.375092	1.5411334
31.496288803073064	2.3717318	1.5400428
31.514499499016807	2.3825386	1.5435474
31.532711011588546	2.3037915	1.5178246
31.550923341358178	2.2798502	1.5099173
31.56913648889584	2.270282	1.5067455
31.587350454771844	2.3012898	1.5170003
31.605565239556732	2.296122	1.515296
31.62378084382127	2.3021393	1.5172802
31.641997268136382	2.3791933	1.5424634
31.660214513073274	2.38735	1.5451052
31.67843257920331	2.366065	1.5382019
31.6966514670981	2.3772225	1.5418245
31.71487117732944	2.315275	1.5216027
31.733091710469346	2.2181284	1.4893383
31.751313067090052	2.2090943	1.4863023
31.769535247764008	2.2463782	1.4987923
31.787758253063878	2.316172	1.5218974
31.805982083562526	2.349331	1.5327528
31.824206739833024	2.3112223	1.5202705
31.84243222244869	2.3402479	1.5297868
31.860658531983013	2.3263195	1.5252277
31.878885669009737	2.2719705	1.5073057
31.897113634102784	2.2664294	1.5054665
31.91534242783632	2.2541206	1.5013729
31.933572050784694	2.21937	1.489755
31.951802503522508	2.1957786	1.4818159
31.970033786624548	2.2342844	1.4947523
31.988265900665834	2.2445896	1.4981954
32.006498846221575	2.2159176	1.4885958
32.02473262386724	2.1389086	1.4625008
32.04296723417845	2.0783613	1.4416523
32.0612026777311	2.135752	1.4614213
32.07943895510129	2.1794813	1.4763067
32.097676066865304	2.1051679	1.4509196
32.115914013599685	2.1364474	1.4616592
32.13415279588115	2.1128538	1.4535658
32.152392414286666	2.0787458	1.4417857
32.1706328693934	2.15196	1.466956
32.18887416177875	2.2003605	1.4833612
32.20711629202032	2.2000957	1.483272
32.225359260695924	2.2113388	1.4870571
32.243603068383614	2.2506273	1.5002091
32.26184771566166	2.2458293	1.4986092
32.28009320310852	2.1940317	1.4812264
32.2983395313029	2.1463053	1.4650275
32.31658670082372	2.1228008	1.4569834
32.33483471225012	2.0838683	1.443561
32.35308356616143	2.0403514	1.4284087
32.371333263137245	2.0585814	1.4347757
32.38958380375734	2.0111387	1.4181463
32.407835188601744	1.992215	1.4114585
32.42608741825067	2.019483	1.4210852
32.444340493284585	2.1073813	1.4516822
32.46259441428416	2.0918345	1.4463176
32.48084918183028	2.0659847	1.4373534
32.49910479650405	2.1157439	1.4545597
32.51736125888683	2.1763287	1.4752386
32.53561856956014	2.127462	1.4585822
32.5538767291058	1.9639653	1.4014155
32.572135738105764	1.9017167	1.3790275
32.59039559714228	2.01276	1.4187177
32.608656306797776	2.176799	1.475398
32.62691786765491	2.131873	1.4600935
32.645180280296586	2.0211046	1.4216555
32.663443545305896	1.9983319	1.4136237
32.68170766326619	2.0594294	1.4350712
32.69997263476099	2.0678327	1.437996
32.7182384603741	1.9905826	1.4108801
32.7365051406895	1.9056726	1.380461
32.75477267629144	1.8638034	1.3652118
32.77304106776434	1.930381	1.3893815
32.79131031569289	2.0436883	1.4295763
32.809580420661966	2.1268322	1.4583663
32.827851383256714	2.1412048	1.4632857
32.84612320406245	2.103119	1.4502134
32.86439588366476	2.0030727	1.4152995
32.88266942264945	1.984784	1.4088236
32.9009438216025	1.97448	1.405162
32.9192190811102	1.9515657	1.3969846
32.937495201758985	2.0162926	1.4199622
32.95577218413556	2.0902846	1.4457817
32.974050028826866	2.0370917	1.4272672
32.992328736420035	1.9995955	1.4140706
33.010608307502444	1.9889973	1.4103181
33.02888874266169	2.0341933	1.4262515
33.047170042485604	2.055417	1.4336725
33.06545220756225	2.0325277	1.4256674
33.083735238479896	1.9518672	1.3970925
33.10201913582707	1.9150181	1.3838418
33.12030390019248	1.942688	1.3938035
33.138589532165135	1.9799669	1.407113
33.15687603233419	1.9564803	1.3987424
33.17516340128909	1.9504092	1.3965706
33.19345163961947	1.9340045	1.390685
33.211740747915215	1.935853	1.3913493
33.23003072676643	1.942928	1.3938895
33.248321576763466	1.9369301	1.3917364
33.266613298496885	2.0065768	1.4165369
33.28490589255747	2.0742357	1.4402207
33.30319935953626	1.9933609	1.4118643
33.32149370002451	1.895576	1.3767992
33.339788914613706	1.9148952	1.3837974
33.358085003895575	1.9916153	1.4112461
33.376381968462034	1.9877365	1.4098711
33.39467980890529	1.9847105	1.4087975
33.41297852581774	1.9481908	1.395776
33.43127811979204	1.9252384	1.3875296
33.44957859142105	1.9834654	1.4083556
33.467879941297866	2.0040624	1.415649
33.486182170015844	2.0240061	1.4226757
33.50448527816853	2.103957	1.4505023
33.522789266349754	2.0705116	1.4389272
33.541094135153514	2.0613773	1.4357498
33.55939988517411	2.002724	1.4151763
33.57770651700602	1.8504618	1.3603169
33.59601403124398	1.8605572	1.3640224
33.61432242848296	1.9037085	1.3797494
33.632631709318154	1.9022808	1.3792319
33.650941874344994	1.8992105	1.3781184
33.66925292415916	1.9571916	1.3989966
33.68756485935654	1.9426476	1.3937889
33.70587768053328	1.9219642	1.3863492
33.724191388285746	1.9152559	1.3839277
33.74250598321054	1.8918295	1.375438
33.760821465904506	1.9034728	1.3796641
33.77913783696474	1.9256445	1.3876759
33.79745509698852	1.9099144	1.3819965
33.815773246573414	1.9481475	1.3957605
33.8340922863172	1.9691242	1.4032549
33.852412216817896	2.0066037	1.4165465
33.87073303867377	1.9378018	1.3920496
33.889054752483304	1.9373443	1.3918852
33.907377358845245	1.9660801	1.4021698
33.92570085835853	1.9646	1.4016418
33.94402525162239	2.0156093	1.4197216
33.96235053923627	1.9450625	1.394655
33.980676721799824	1.8785754	1.3706113
33.999003799912984	1.9539925	1.3978528
34.01733177417592	2.011604	1.4183103
34.03566064518901	1.9831511	1.408244
34.0539904135529	1.8790426	1.3707818
34.07232107986846	1.8412554	1.3569287
34.090652644736785	1.9029511	1.379475
34.108985108759235	1.9930514	1.4117547
34.12731847253742	2.0612493	1.4357052
34.14565273667313	1.9652929	1.4018891
34.16398790176847	1.9462043	1.3950642
34.18232396842574	2.0388064	1.4278678
34.20066093724749	1.96981	1.4034992
34.21899880883651	1.8560663	1.3623753
34.23733758379583	1.9180077	1.3849216
34.25567726272874	2.065341	1.4371294
34.27401784623872	2.099594	1.4489976
34.29235933492957	2.071877	1.4394016
34.31070172940526	1.9622236	1.4007939
34.32904503027003	2.0017684	1.4148387
34.347389238128386	1.9977946	1.4134337
34.36573435358502	1.9464556	1.3951544
34.38408037724492	1.8839755	1.3725798
34.402427309713296	1.8563691	1.3624864
34.42077515159559	1.9877425	1.4098732
34.43912390349752	2.118374	1.4554635
34.45747356602499	2.0151384	1.4195557
34.47582413978423	1.9186934	1.3851691
34.49417562538163	2.0658853	1.4373188
34.51252802342388	2.122494	1.4568782
34.53088133451789	1.9093215	1.381782
34.54923555927084	1.9192481	1.3853693
34.567590698290104	1.9239621	1.3870696
34.58594675218336	1.8591626	1.3635111
34.6043037215585	1.9282042	1.388598
34.62266160702365	1.9257385	1.3877097
34.641020409187234	1.9880844	1.4099945
34.65938012865785	2.1383832	1.4623212
34.677740766044394	2.2787535	1.509554
34.69610232195598	2.2929027	1.5142334
34.714464797002016	2.1651576	1.4714475
34.73282819179208	2.0117369	1.4183571
34.751192506936064	2.063927	1.4366374
34.76955774304408	2.101857	1.4497782
34.7879239007265	2.1877203	1.4790944
34.80629098059391	2.2316806	1.4938811
34.824658983257194	2.0363584	1.4270103
34.843027909327446	1.9008281	1.3787053
34.86139775941603	1.7797693	1.33408
34.879768534134534	1.7651994	1.328608
34.89814023409483	1.8120195	1.3461127
34.91651285990901	1.8778113	1.3703326
34.93488641218944	1.9085995	1.3815207
34.95326089154871	1.9120731	1.3827773
34.97163629859967	2.0278833	1.4240377
34.99001263395542	1.9339098	1.3906509
35.00838989822934	1.7945253	1.3395989
35.02676809203499	1.7786562	1.3336627
35.04514721598624	1.8470203	1.3590512
35.063527270697215	1.9028754	1.3794475
35.081908256782256	2.1485145	1.4657812
35.10029017485597	2.3002026	1.5166419
35.11867302553321	2.202766	1.4841717
35.137056809429104	1.9237143	1.3869803
35.155441527159006	1.8353466	1.3547497
35.173827179338524	1.8130771	1.3465055
35.19221376658354	1.755826	1.3250759
35.21060128951017	1.8638471	1.3652278
35.2289897487348	2.1026165	1.4500402
35.24737914487405	2.1187344	1.4555873
35.26576947854479	1.8010999	1.3420507
35.28416075036418	1.8467091	1.3589368
35.30255296094958	2.030898	1.4250958
35.32094611091867	1.8329288	1.353857
35.33934020088932	1.7991449	1.3413221
35.35773523147969	2.1098711	1.4525396
35.3761312033082	2.0505242	1.4319651
35.394528116993506	1.9968737	1.4131079
35.41292597315452	2.1829762	1.4774898
35.431324772410434	2.2579768	1.5026566
35.449724515380666	2.2486057	1.4995352
35.46812520268491	2.116719	1.4548949
35.486526834943106	2.4054546	1.5509528
35.504929412775454	2.600172	1.6125048
35.52333293680242	2.365613	1.538055
35.54173740764471	1.8664975	1.3661982
35.560142825923286	1.5460311	1.243395
35.5785491922594	1.3415895	1.15827
35.59695650727454	1.2999036	1.1401331
35.61536477159042	1.7820303	1.3349271
