0.008763373481513119	0.0	0.0
0.026290120649546365	0.0	0.0
0.043816868432600686	0.19184087	0.43799642
0.06134361724069026	0.2533989	0.5033874
0.07887036748382949	0.2336911	0.48341608
0.0963971195720331	0.28367394	0.5326105
0.11392387391531617	0.27254528	0.52205867
0.1314506309236943	0.24726988	0.4972624
0.1489773910071836	0.16403128	0.40500775
0.16650415457580078	0.121756956	0.3489369
0.18403092203956356	0.14786458	0.38453165
0.20155769380849	0.15971902	0.3996486
0.2190844702925996	0.19230963	0.43853122
0.2366112519019124	0.190596	0.43657303
0.2541380390464497	0.1615834	0.40197438
0.27166483213623416	0.15235949	0.39033252
0.28919163158128947	0.14469159	0.38038346
0.3067184377916406	0.16139609	0.40174133
0.324245251177314	0.1755895	0.419034
0.34177207214833777	0.16764796	0.40944836
0.3592989011147415	0.12708996	0.35649678
0.37682573848655654	0.12662032	0.3558375
0.39435258467381573	0.14088602	0.37534788
0.41187944008655414	0.16917312	0.4113066
0.42940630513480854	0.13545325	0.36803976
0.446933180228618	0.1377227	0.37111008
0.4644600657780234	0.12608364	0.35508257
0.48198696219306775	0.11233421	0.33516297
0.49951386988379676	0.08789202	0.29646587
0.5170407892602581	0.0696661	0.26394337
0.5345677207325025	0.13298862	0.36467606
0.5520946647105822	0.18548587	0.4306807
0.5696216216045534	0.20268933	0.45021033
0.5871485918244737	0.1856547	0.43087667
0.6046755757804043	0.16238636	0.4029719
0.6222025738824094	0.13619377	0.3690444
0.6397295865405557	0.1257233	0.35457483
0.6572566141649129	0.13495629	0.36736396
0.6747836571655547	0.15976958	0.39971188
0.6923107159525568	0.19648373	0.44326484
0.7098377909359992	0.2042932	0.45198807
0.7273648825259653	0.19453011	0.4410557
0.7448919911325411	0.18774436	0.43329477
0.762419117165817	0.17304137	0.41598243
0.7799462610358868	0.16584858	0.4072451
0.7974734231528482	0.16566566	0.40702045
0.8150006039268024	0.19210966	0.43830317
0.8325278037678551	0.22476907	0.47409818
0.8500550230861152	0.2594337	0.5093463
0.8675822622916969	0.2590124	0.5089326
0.8851095217947171	0.24577141	0.49575338
0.9026368020052984	0.24537656	0.49535498
0.9201641033335665	0.24126396	0.49118626
0.9376914261896523	0.22522117	0.4745747
0.9552187709836915	0.22767979	0.47715804
0.9727461381258234	0.23659328	0.48640856
0.990273528026193	0.25571457	0.5056823
1.0078009410949496	0.24648237	0.49646991
1.0253283777422473	0.27151674	0.5210727
1.0428558383782454	0.28472123	0.53359276
1.0603833234131086	0.2870293	0.53575116
1.0779108332570058	0.33510914	0.57888615
1.0954383683201119	0.36699915	0.60580456
1.112965929012607	0.44003394	0.6633505
1.1304935157446763	0.52347785	0.7235177
1.1480211289265108	0.54531264	0.73845285
1.1655487689683062	1.3204355	1.1491021
1.1830764362802655	1.5799147	1.2569466
1.200604131272596	1.9209931	1.385999
1.2181318543555117	2.2747912	1.508241
1.235659605939232	2.3955045	1.5477418
1.253187386433982	3.8222506	1.9550577
1.270715196249994	6.0780315	2.4653664
1.2882430357975057	11.276216	3.3580077
1.3057709054867608	16.22966	4.028605
1.3232988057280106	22.22207	4.7140293
1.3408267369315112	27.30704	5.2256136
1.358354699507526	30.857235	5.554929
1.3758826938663256	34.540062	5.8770795
1.3934107204181858	36.806313	6.0668206
1.410938779573391	37.57216	6.1296134
1.4284668717422309	38.284958	6.187484
1.4459949973350033	37.802387	6.1483645
1.4635231567620117	37.843315	6.151692
1.4810513504335687	36.99706	6.082521
1.4985795787599925	36.068214	6.005682
1.5161078421516088	35.42217	5.9516525
1.5336361410187505	34.78533	5.897909
1.5511644757717598	35.399464	5.9497447
1.5686928468209842	36.301598	6.0250807
1.58622125457678	37.153797	6.0953913
1.6037496994495108	38.38535	6.195591
1.621278181849548	37.876556	6.154393
1.6388067021872719	38.042522	6.167862
1.6563352608730693	36.761646	6.0631385
1.673863858317336	35.88073	5.9900527
1.6913924949304753	35.553223	5.962652
1.7089211711228998	34.933838	5.9104853
1.7264498873050296	34.216377	5.849477
1.7439786438872935	33.17516	5.759788
1.7615074412801288	31.803429	5.639453
1.779036279893981	31.18166	5.584054
1.796565160139305	30.48165	5.521019
1.814094082426564	29.736198	5.4530907
1.8316230471662298	28.861006	5.372244
1.849152054768784	27.906273	5.282639
1.8666811056447168	27.522552	5.246194
1.8842102002045273	26.838829	5.1806207
1.901739338858724	26.39212	5.1373262
1.9192685220178245	26.033327	5.1022863
1.9367977500923557	25.624836	5.062098
1.9543270234928547	25.262379	5.0261693
1.971856342629867	24.221363	4.92152
1.9893857079139496	23.551504	4.852989
2.006915119755667	22.906643	4.7860885
2.0244445785655945	22.268612	4.718963
2.0419740847543175	21.906992	4.6804905
2.0595036387324317	21.39722	4.625713
2.0770332409105414	21.100119	4.5934863
2.094562891699263	20.826519	4.563608
2.1120925915092217	20.284407	4.5038214
2.129622340751053	20.143713	4.488175
2.1471521398354043	188.1171	13.715579
2.1646819891729323	444.34393	21.079468
2.182211889174303	440.7082	20.993052
2.1997418402501974	453.0745	21.285547
2.2172718428113023	432.98148	20.808207
2.234801897268317	320.9047	17.913813
2.2523320040319548	17.203754	4.147741
2.269862163512935	16.889826	4.109723
2.287392376121992	16.60598	4.0750437
2.304922642269869	16.359497	4.0446877
2.322452962367322	15.987318	3.9984145
2.3399833368251164	15.584281	3.947693
2.357513766054032	15.426233	3.9276245
2.3750442504648586	15.213991	3.9005117
2.3925747904683963	15.021453	3.875752
2.410105386475459	14.737774	3.838981
2.4276360388968707	14.442792	3.8003674
2.445166748143469	14.050116	3.7483485
2.4626975146261025	13.736127	3.706228
2.4802283387556323	13.560858	3.682507
2.4977592209429305	13.507996	3.6753225
2.5152901615988825	13.308295	3.6480536
2.5328211611343865	13.119145	3.622036
2.5503522199603523	12.796243	3.5771837
2.5678833384877024	12.529695	3.5397308
2.5854145171273712	12.22042	3.4957716
2.6029457562903064	12.081717	3.4758763
2.620477056387469	12.078624	3.4754314
2.6380084178298326	11.8983135	3.4493933
2.655539841028383	11.686725	3.4185853
2.673071326394119	11.54089	3.3971884
2.6906028743380523	11.254354	3.3547509
2.708134485271211	10.894852	3.300735
2.7256661596046325	10.701617	3.2713327
2.743197897749369	10.574382	3.2518275
2.760729700116486	10.567189	3.2507215
2.778261567117063	10.213289	3.1958237
2.795793499162193	10.130054	3.1827745
2.8133254966629817	10.008141	3.1635644
2.830857560030551	9.85947	3.1399794
2.8483896896760337	9.786202	3.1282907
2.865921886010578	9.602598	3.098806
2.883454149445347	9.544588	3.0894318
2.9009864803915177	9.39709	3.0654674
2.91851887926028	9.227594	3.0376956
2.9360513464628384	9.198966	3.0329797
2.953583882410413	9.113122	3.0187948
2.9711164875142373	9.033534	3.0055838
2.9886491621855606	8.8778715	2.9795756
3.0061819068356455	8.724191	2.953674
3.023714721875769	8.576766	2.9286115
3.041247607717225	8.442134	2.905535
3.0587805647713213	8.301365	2.881209
3.0763135934493806	8.064499	2.839806
3.0938466941627407	7.9123793	2.812895
3.1113798673227544	7.9719734	2.8234684
3.1289131133407904	8.099163	2.845903
3.1464464326282315	8.135865	2.8523438
3.1639798255964786	8.11021	2.8478432
3.1815132926569443	7.8958607	2.8099575
3.1990468342210603	7.7537646	2.7845583
3.216580450700272	7.4319286	2.7261565
3.2341141425060416	7.2403364	2.6907873
3.251647910049847	7.155085	2.674899
3.2691817537431813	7.1721845	2.6780934
3.286715673997555	7.162564	2.6762967
3.3042496712244938	7.04858	2.6549163
3.32178374583554	6.897388	2.626288
3.339317898242251	6.8645034	2.6200197
3.3568521288562034	6.759368	2.5998785
3.3743864380889876	6.671848	2.582992
3.3919208263522127	6.66638	2.5819333
3.4094552940575023	6.6340594	2.575667
3.4269898416164972	6.6979613	2.588042
3.444524469440858	6.6301928	2.5749161
3.4620591779422587	6.45399	2.5404704
3.479593967532391	6.3418922	2.5183115
3.4971288386229658	6.2620544	2.5024097
3.5146637916257086	6.3226943	2.5144968
3.5321988269523628	6.283875	2.5067658
3.5497339450146903	6.2833924	2.5066695
3.5672691462244708	6.265369	2.5030718
3.5848044309934988	6.284315	2.5068536
3.60233979973359	6.222869	2.4945679
3.619875252856575	6.1964316	2.4892633
3.6374107907743034	6.2485228	2.4997046
3.6549464138986427	6.317813	2.513526
3.6724821226414788	6.392399	2.5283194
3.690017917414714	6.2908382	2.5081544
3.7075537986302702	6.340999	2.518134
3.7250897667000857	6.414322	2.5326512
3.7426258220361235	6.5908656	2.5672681
3.7601619650503553	6.899759	2.6267393
3.777698196154779	7.542066	2.7462823
3.7952345157614067	8.648224	2.9407864
3.8127709242822716	9.488347	3.080316
3.830307422129425	11.697363	3.4201407
3.847844009714936	30.434103	5.516711
3.8653806874508954	97.91509	9.8952055
3.882917455749409	97.103096	9.854091
3.900454315022606	96.90903	9.844238
3.917991265682631	41.348022	6.430243
3.9355283081416506	10.913254	3.3035214
3.9530654428118495	8.670102	2.9445038
3.970602670105433	7.38314	2.7171934
3.9881399904346244	6.5774426	2.5646524
4.005677404211669	6.4738717	2.5443804
4.023214911848827	6.489044	2.5473602
4.0407525137583855	6.505938	2.550674
4.058290210352644	6.4264402	2.5350425
4.075828002043927	6.290128	2.5080128
4.0933658892445814	6.1681542	2.483577
4.110903872366966	6.162783	2.4824953
4.128441951823468	6.0980854	2.4694302
4.145980128026488	6.0571356	2.461125
4.163518401388452	5.9865704	2.4467468
4.181056772321807	6.0479155	2.459251
4.1985952412390155	6.165727	2.4830883
4.216133808552567	6.2392764	2.4978545
4.233672474674966	6.2906656	2.5081198
4.251211240018741	6.358169	2.521541
4.268750104996445	6.5645437	2.5621367
4.286289070020643	7.4945836	2.7376237
4.303828135503928	9.104766	3.0174105
4.3213673018589125	29.409012	5.4230075
4.3389065694982305	90.44507	9.510262
4.356445938834537	165.8383	12.877822
4.3739854102805085	171.24791	13.086172
4.391524984248844	172.27417	13.125325
4.409064661152262	136.36873	11.677702
4.426604441403504	96.68606	9.832907
4.444144325415337	76.06321	8.721422
4.461684313600543	22.00484	4.690932
4.47922440637193	22.535704	4.7471786
4.496764604142329	20.71965	4.551884
4.5143049073245916	18.79253	4.3350353
4.531845316331589	16.567234	4.0702868
4.5493858315762195	13.640892	3.693358
4.566926453471405	11.305159	3.3623145
4.584467182430081	9.15011	3.024915
4.602008018865218	8.066742	2.8402011
4.619548963189798	7.398672	2.72005
4.637090015816834	6.881893	2.6233363
4.654631177159353	6.6755347	2.5837057
4.672172447630417	6.337622	2.5174634
4.689713827643102	6.2163625	2.4932635
4.7072553176105085	6.0589175	2.4614868
4.724796917945764	5.9246764	2.4340658
4.742338629062015	5.841968	2.4170163
4.759880451372434	5.7347617	2.3947363
4.777422385290215	5.700586	2.38759
4.794964431228581	5.6579084	2.378636
4.812506589600768	5.6422286	2.3753376
4.830048860820047	5.6285114	2.3724484
4.847591245299709	5.6449437	2.375909
4.8651337434530655	5.625257	2.3717625
4.882676355693457	5.6167974	2.3699784
4.900219082434242	5.57835	2.3618531
4.917761924088813	5.61424	2.369439
4.935304881070575	5.554849	2.3568728
4.952847953792969	5.438499	2.332059
4.970391142669449	5.346358	2.3122191
4.9879344481135055	5.3518276	2.3134017
5.005477870538642	5.352301	2.313504
5.023021410358394	5.33288	2.309303
5.040565067986324	5.256025	2.2926023
5.05810884383601	5.269981	2.2956438
5.075652738321066	5.4302716	2.3302944
5.09319675185512	5.5168757	2.348803
5.110740884851836	5.5493503	2.355706
5.128285137724894	5.511854	2.3477337
5.145829510888007	5.48559	2.3421335
5.163374004754908	5.450766	2.3346875
5.1809186197393595	5.3888373	2.321387
5.198463356255145	5.3169165	2.305844
5.216008214716077	5.278481	2.2974944
5.233553195535998	5.240268	2.289163
5.251098299128764	5.2431207	2.289786
5.268643525908272	5.263796	2.2942963
5.286188876288432	5.1822715	2.2764604
5.3037343506831895	5.1349096	2.266034
5.32127994950651	5.1137924	2.2613697
5.3388256731723915	5.179183	2.2757819
5.356371522094851	5.229113	2.2867255
5.373917496687938	5.225178	2.2858648
5.391463597365729	5.157476	2.2710078
5.40900982454232	5.1576705	2.2710505
5.426556178631843	5.20851	2.282216
5.444102660048449	5.260738	2.29363
5.4616492692063225	5.2295976	2.2868314
5.479196006519669	5.232439	2.2874525
5.496742872402727	5.185598	2.2771907
5.514289867269756	5.121451	2.2630622
5.531836991535049	5.0704646	2.2517693
5.549384245612924	5.000378	2.2361524
5.566931629917724	5.039378	2.2448559
5.584479144863822	5.01041	2.2383945
5.6020267908656205	5.0168166	2.2398252
5.619574568337545	5.028251	2.2423763
5.637122477694054	5.1239386	2.2636118
5.654670519349629	5.2045836	2.2813556
5.672218693718784	5.2541885	2.2922018
5.689767001216059	5.230292	2.286983
5.707315442256021	5.212677	2.2831287
5.724864017253266	5.148134	2.26895
5.7424127266224225	5.106737	2.259809
5.75996157077814	5.1325326	2.2655094
5.777510550135105	5.1406217	2.267294
5.795059665108022	5.14533	2.268332
5.812608916111639	5.1262574	2.264124
5.830158303560715	5.1529727	2.270016
5.847707827870055	5.162266	2.272062
5.86525748945448	5.321571	2.306853
5.8828072887288485	5.5359144	2.3528523
5.900357226108044	5.6078796	2.368096
5.917907302006979	5.593506	2.3650594
5.9354575168406	6.1798244	2.4859252
5.9530078710238765	6.8057613	2.6087854
5.970558364971812	7.4003606	2.7203603
5.988108999099438	7.800843	2.7929988
6.005659773821818	8.299063	2.8808093
6.023210689554039	8.017938	2.8315964
6.040761746711227	8.456519	2.9080095
6.058312945708531	7.8673735	2.804884
6.075864286961132	7.4463763	2.7288048
6.093415770884244	6.6827536	2.5851023
6.1109673978931065	6.051396	2.4599586
6.128519168402993	5.3795743	2.319391
6.146071082829204	5.2296863	2.2868507
6.163623141587075	5.1033587	2.2590616
6.181175345091969	5.0730333	2.2523396
6.198727693759281	5.0693603	2.251524
6.216280188004435	5.136341	2.2663498
6.233832828242885	5.1605296	2.2716799
6.251385614890126	5.1832695	2.2766795
6.268938548361669	5.1561046	2.2707057
6.286491629073067	5.0766764	2.253148
6.304044857439898	5.0274286	2.2421927
6.321598233877777	4.9715343	2.2296937
6.339151758802344	5.0152354	2.2394722
6.356705432629277	5.0301657	2.242803
6.37425925577428	5.0742593	2.2526116
6.391813228653095	5.029564	2.2426689
6.409367351681486	4.997251	2.2354531
6.426921625275259	4.9693456	2.229203
6.44447604985025	4.977111	2.230944
6.46203062582232	4.9881635	2.2334197
6.47958535360737	5.0306234	2.2429051
6.497140233621328	5.057068	2.2487926
6.514695266280161	5.0700364	2.2516742
6.532250451999859	5.0528626	2.2478573
6.549805791196454	5.0164175	2.239736
6.567361284286002	4.982818	2.2322228
6.584916931684597	4.9986153	2.2357583
6.602472733808367	4.9889755	2.2336016
6.6200286910734665	5.0007153	2.236228
6.637584803896092	4.9159727	2.2171993
6.655141072692462	4.894327	2.2123127
6.672697497878842	4.90552	2.214841
6.690254079871514	4.93409	2.2212813
6.707810819086808	4.996362	2.2352543
6.725367715941078	4.9717364	2.2297392
6.742924770850719	4.960946	2.227318
6.760481984232151	4.9235635	2.2189105
6.778039356501836	4.976008	2.2306967
6.795596888076266	5.013575	2.2391014
6.813154579371963	5.0378594	2.2445176
6.830712430805492	5.005072	2.237202
6.84827044279344	4.9752965	2.2305372
6.865828615752445	4.9749546	2.2304606
6.883386950099159	5.010302	2.2383704
6.900945446250287	4.9706836	2.229503
6.918504104622553	4.9999666	2.2360606
6.936062925632727	5.017042	2.2398756
6.953621909697607	5.04475	2.246052
6.971181057234028	5.0797377	2.2538273
6.988740368658859	5.1169415	2.2620656
7.006299844389007	5.2212706	2.2850099
7.023859484841407	5.256283	2.2926586
7.041419290433036	5.2864184	2.2992213
7.058979261580902	5.3928404	2.322249
7.0765393987020495	5.555729	2.3570595
7.094099702213559	5.8861637	2.4261417
7.111660172532549	6.180884	2.4861383
7.129220810076164	6.593604	2.5678015
7.146781615261595	7.207075	2.6845996
7.16434258850606	7.4969954	2.7380643
7.181903730226821	7.916139	2.8135633
7.1994650408411704	8.085474	2.8434968
7.217026520766437	8.147286	2.854345
7.234588170419983	8.358974	2.891189
7.252149990219215	8.341335	2.888137
7.269711980581568	8.208994	2.8651342
7.2872741419245175	8.013801	2.8308656
7.304836474665574	7.66773	2.7690666
7.322398979222286	7.45426	2.7302492
7.339961656012233	7.22975	2.6888194
7.357524505453039	6.855517	2.6183043
7.375087527962357	6.5793705	2.5650284
7.392650723957886	6.293028	2.5085907
7.410214093857353	6.0130258	2.4521472
7.427777638078528	5.7998896	2.4082959
7.445341357039213	5.539538	2.3536222
7.4629052511572525	5.3309326	2.3088813
7.480469320850524	5.1953936	2.2793405
7.498033566536948	5.238244	2.288721
7.5155979886344735	5.2697177	2.2955866
7.5331625875610975	5.274621	2.2966542
7.550727363734844	5.283918	2.2986774
7.568292317573788	5.1950135	2.2792573
7.585857449496025	5.184882	2.2770336
7.603422759919705	5.159596	2.2714744
7.620988249263007	5.100552	2.2584403
7.638553917944147	5.166979	2.273099
7.656119766381391	5.183077	2.276637
7.673685794993023	5.267332	2.2950668
7.691252004197388	5.2843213	2.2987652
7.70881839441285	5.2462745	2.2904747
7.726384966057826	5.1778793	2.2754953
7.743951719550762	5.1835837	2.2767484
7.761518655310149	5.250233	2.2913387
7.779085773754511	5.2756085	2.2968693
7.796653075302419	5.2497716	2.291238
7.814220560372475	5.2923875	2.300519
7.831788229383323	5.2653356	2.294632
7.8493560827536495	5.2962103	2.3013496
7.866924120902174	5.295817	2.3012643
7.884492344247663	5.3536267	2.3137906
7.9020607532089135	5.420266	2.3281465
7.919629348204771	5.4531674	2.3352017
7.937198129654115	5.3864665	2.3208761
7.954767097975865	5.349278	2.3128507
7.972336253588986	5.3330674	2.3093436
7.989905596912472	5.312033	2.3047848
8.007475128365371	5.358727	2.3148925
8.025044848366756	5.4241085	2.3289716
8.042614757335754	5.521755	2.3498416
8.060184855691523	5.591527	2.364641
8.07775514385327	5.724117	2.3925126
8.095325622240228	5.758856	2.3997617
8.112896291271687	5.805441	2.4094481
8.130467151366968	5.7817388	2.4045246
8.148038202945436	5.849797	2.4186354
8.165609446426497	5.835754	2.4157305
8.183180882229594	5.848857	2.418441
8.200752510774217	5.8065596	2.4096804
8.218324332479893	5.826606	2.4138362
8.235896347766193	5.8470926	2.4180763
8.253468557052724	5.926807	2.4345033
8.27104096075914	5.94502	2.4382412
8.288613559305137	6.0334177	2.4563017
8.306186353110448	6.0885634	2.4675014
8.32375934259485	6.158167	2.4815655
8.341332528178162	6.224727	2.4949403
8.358905910280246	6.2761006	2.5052147
8.376479489321003	6.273612	2.504718
8.394053265720377	6.291927	2.5083714
8.411627239898356	6.3179917	2.5135615
8.42920141227497	6.3183804	2.513639
8.44677578327029	6.34248	2.518428
8.464350353304427	6.303959	2.5107687
8.48192512279754	6.207512	2.491488
8.499500092169827	6.143349	2.478578
8.51707526184153	6.072135	2.4641702
8.534650632232934	6.0616064	2.462033
8.552226203764365	6.103516	2.4705296
8.569801976856192	6.2002296	2.490026
8.587377951928834	6.313995	2.5127664
8.60495412940274	6.3313785	2.516223
8.622530509698416	6.3240104	2.5147586
8.6401070932364	6.3884387	2.5275362
8.657683880437283	6.4797497	2.5455353
8.675260871721695	6.5996275	2.568974
8.692838067510303	6.7216406	2.5926127
8.710415468223834	6.8529263	2.6178095
8.727993074283043	6.9672413	2.6395533
8.745570886108737	6.973651	2.640767
8.763148904121765	7.044672	2.65418
8.78072712874302	7.10538	2.665592
8.798305560393441	7.357234	2.7124221
8.815884199494006	7.5177608	2.7418535
8.833463046465745	7.757528	2.785234
8.851042101729728	7.9614463	2.8216035
8.86862136570707	8.359858	2.891342
8.886200838818924	8.482164	2.9124155
8.903780521486505	8.49887	2.915282
8.921360414131055	8.478244	2.9117424
8.938940517173874	8.593337	2.9314394
8.956520831036297	8.703394	2.9501514
8.97410135613971	9.004194	3.000699
8.99168209290554	9.126201	3.0209603
9.009263041755265	9.378957	3.0625083
9.026844203110405	9.559841	3.0918994
9.044425577392525	9.777085	3.1268332
9.062007165023239	9.905896	3.1473634
9.079588966424197	10.246835	3.2010677
9.097170982017108	10.351013	3.217299
9.11475321222372	11.459744	3.3852243
9.132335657465825	12.3433695	3.5133133
9.149918318165264	12.361343	3.5158703
9.167501194743924	12.916317	3.5939279
9.18508428762374	12.575956	3.5462594
9.202667597226693	12.629301	3.5537727
9.220251123974803	12.326014	3.5108423
9.237834868290143	12.068486	3.4739728
9.255418830594836	11.819985	3.4380205
9.273003011311046	11.304874	3.3622723
9.290587410860985	11.008355	3.3178842
9.308172029666911	10.384039	3.2224276
9.32575686815113	10.065375	3.1725976
9.343341926735997	8.67655	2.9455984
9.360927205843916	8.482911	2.9125438
9.378512705897327	8.32538	2.8853736
9.396098427318728	8.1657915	2.857585
9.413684370530664	8.040172	2.8355196
9.431270535955722	7.9256825	2.815259
9.448856924016539	7.8298707	2.7981906
9.466443535135806	7.724199	2.7792442
9.484030369736251	7.6751156	2.7703998
9.501617428240658	7.7288713	2.7800848
9.519204711071852	7.711136	2.7768931
9.536792218652714	7.7780385	2.7889135
9.55437995140617	7.7772026	2.7887635
9.571967909755191	7.871322	2.8055878
9.589556094122802	7.8985095	2.8104286
9.60714450493207	7.907983	2.8121135
9.624733142606116	7.9147534	2.813317
9.642322007568108	7.888824	2.808705
9.659911100241267	7.952144	2.8199546
9.677500421048851	7.9679117	2.822749
9.695089970414175	8.051965	2.8375983
9.712679748760609	8.048062	2.8369107
9.730269756511557	8.099013	2.8458765
9.747859994090492	8.160379	2.8566377
9.765450461920915	8.195736	2.8628197
9.78304116042639	8.274199	2.8764906
9.800632090030527	8.271356	2.8759964
9.81822325115699	8.33114	2.8863714
9.835814644229481	8.333744	2.8868225
9.853406269671762	8.343549	2.8885202
9.870998127907646	8.290859	2.8793852
9.888590219360985	8.244437	2.8713129
9.906182544455698	8.248651	2.8720465
9.923775103615734	8.306615	2.88212
9.941367897265108	8.386691	2.8959785
9.958960925827878	8.421695	2.9020157
9.97655418972816	8.406035	2.8993163
9.994147689390106	8.382839	2.8953133
10.011741425237934	8.339342	2.8877919
10.029335397695904	8.298177	2.8806555
10.04692960718833	8.316607	2.883853
10.06452405413958	8.296342	2.880337
10.082118738974064	8.30689	2.8821676
10.099713662116246	8.351252	2.8898532
10.117308823990651	8.3713	2.8933198
10.134904225021844	8.362356	2.891774
10.152499865634445	8.343999	2.8885982
10.170095746253125	8.312592	2.8831565
10.18769186730261	8.20057	2.8636637
10.205288229207675	8.21851	2.8667943
10.222884832393145	8.122955	2.8500798
10.2404816772839	8.1320505	2.851675
10.258078764304868	8.066608	2.8401775
10.275676093881035	8.035483	2.8346927
10.293273666437438	8.058413	2.8387344
10.310871482399158	8.08248	2.8429704
10.32846954219134	8.156967	2.8560405
10.346067846239173	8.174317	2.8590763
10.363666394967908	8.225287	2.8679762
10.38126518880283	8.2642975	2.8747692
10.398864228169298	8.289863	2.8792121
10.416463513492713	8.308917	2.8825192
10.434063045198531	8.195642	2.8628032
10.451662823712262	8.216142	2.8663814
10.469262849459467	8.170226	2.8583608
10.486863122865758	8.171868	2.858648
10.504463644356806	8.188704	2.861591
10.522064414358338	8.153904	2.855504
10.539665433296118	8.054558	2.8380554
10.557266701595987	7.944677	2.8186302
10.574868219683818	7.8534775	2.8024056
10.592469987985552	7.821764	2.7967417
10.610072006927185	7.7265925	2.779675
10.627674276934751	7.6080275	2.7582653
10.64527679843435	7.457338	2.7308128
10.662879571852143	7.2820086	2.6985197
10.680482597614331	7.1431785	2.6726725
10.698085876147173	7.0029545	2.6463096
10.715689407876988	6.950399	2.636361
10.733293193230146	6.920764	2.6307344
10.750897232633072	6.8362703	2.6146262
10.76850152651225	6.7484593	2.5977798
10.786106075294207	6.5979633	2.56865
10.803710879405534	6.4992743	2.5493674
10.821315939272877	6.41934	2.5336416
10.83892125532294	6.333011	2.5165474
10.856526827982472	6.2977314	2.5095282
10.874132657678285	6.3105397	2.5120788
10.891738744837243	6.357045	2.5213182
10.909345089886271	6.3892794	2.5277023
10.926951693252343	6.320488	2.514058
10.944558555362494	6.222419	2.4944777
10.96216567664381	6.121223	2.4741106
10.979773057523436	6.0348864	2.4566007
10.997380698428573	5.962761	2.4418764
11.014988599786477	5.8921266	2.4273703
11.032596762024461	5.8126335	2.4109404
11.050205185569892	5.72444	2.3925803
11.067813870850198	5.609262	2.3683882
11.085422818292859	5.593748	2.3651106
11.10303202832541	5.538245	2.3533475
11.120641501375454	5.4729457	2.3394327
11.138251237870636	5.3751645	2.3184402
11.155861238238671	5.3318906	2.3090887
11.173471502907317	5.2610836	2.2937052
11.191082032304402	5.236213	2.2882774
11.208692826857805	5.131999	2.2653916
11.226303886995465	5.0564227	2.2486491
11.243915213145371	4.952619	2.2254481
11.261526805735578	4.8405495	2.200125
11.279138665194196	4.8197393	2.1953905
11.296750791949393	4.789699	2.188538
11.314363186429393	4.7766385	2.1855521
11.331975849062479	4.7287498	2.174569
11.34958878027699	4.650999	2.1566174
11.36720198050133	4.6589274	2.158455
11.384815450163948	4.642086	2.15455
11.402429189693366	4.6284575	2.151385
11.420043199518153	4.543928	2.1316493
11.437657480066942	63.474083	7.9670625
11.455272031768422	85.1383	9.227041
11.472886855051353	107.506996	10.368558
11.490501950344528	99.074776	9.953631
11.508117318076819	84.44413	9.189349
11.52573295867715	45.861214	6.772091
11.543348872574514	4.229985	2.0566928
11.560965060197946	4.2191906	2.054067
11.57858152197655	4.208932	2.0515683
11.59619825833949	4.1102324	2.0273707
11.613815269715985	4.0509973	2.012709
11.631432556535323	38.55573	6.209326
11.649050119226837	83.11965	9.116998
11.666667958219929	93.506714	9.669887
11.68428607394406	107.752045	10.380368
11.701904466828756	82.53477	9.084865
11.719523137303586	65.37564	8.085521
11.737142085798196	4.5560083	2.1344807
11.754761312742286	3.6894927	1.9208052
11.772380818565619	3.6392808	1.9076899
11.790000603698015	3.6097226	1.899927
11.80762066856935	3.551925	1.8846551
11.825241013609572	3.5365653	1.8805758
11.842861639248683	3.5575688	1.8861518
11.860482545916748	3.4874835	1.8674805
11.878103734043883	3.446407	1.8564501
11.895725204060282	3.3866792	1.8402933
11.91334695639619	3.3761773	1.8374377
11.930968991481919	3.3665614	1.8348192
11.948591309747824	3.3370502	1.8267595
11.966213911624347	3.3127885	1.8201067
11.98383679754198	3.279101	1.8108288
12.001459967931268	3.2481828	1.8022716
12.019083423222835	3.1878803	1.7854636
12.036707163847352	3.134761	1.7705257
12.05433119023556	3.1182113	1.7658458
12.071955502818259	3.1421404	1.7726084
12.089580102026313	3.1804228	1.783374
12.107204988290643	3.1626291	1.7783782
12.12483016204224	3.1534996	1.7758095
12.142455623712152	3.134563	1.7704697
12.16008137373149	3.1407049	1.7722034
12.177707412531431	3.1305854	1.769346
12.19533374054321	3.0697045	1.7520572
12.212960358198126	3.0633895	1.7502542
12.230587265927545	3.032652	1.7414511
12.248214464162889	3.010065	1.7349539
12.265841953335649	3.0341854	1.7418914
12.283469733877375	3.0467255	1.7454872
12.301097806219685	3.0220048	1.7383914
12.31872617079425	2.936193	1.7135323
12.336354828032825	2.8814	1.6974688
12.353983778367205	2.8982785	1.7024331
12.371613022229262	2.9295182	1.7115835
12.389242560050928	2.9462845	1.7164744
12.406872392264201	2.9400117	1.7146462
12.424502519301143	2.9133039	1.7068403
12.442132941593874	2.9222164	1.7094492
12.459763659574586	2.910548	1.7060329
12.477394673675532	2.94553	1.7162546
12.49502598432903	2.9326913	1.7125102
12.51265759196746	2.887221	1.6991825
12.530289497023267	2.834245	1.6835216
12.547921699928967	2.8069203	1.6753867
12.565554201117134	2.8158717	1.6780559
12.583187001020404	2.7954965	1.6719738
12.600820100071486	2.7366195	1.6542732
12.618453498703152	2.7144647	1.6475632
12.636087197348235	2.6917975	1.6406698
12.65372119643964	2.7047615	1.6446159
12.671355496410326	2.732896	1.6531473
12.68899009769333	2.7733068	1.6653248
12.706625000721749	2.830075	1.6822827
12.724260205928752	2.8743017	1.6953765
12.741895713747551	2.909107	1.7056104
12.759531524611454	2.9554307	1.7191366
12.777167638953818	2.982768	1.7270693
12.794804057208072	2.9900796	1.7291846
12.812440779807702	3.067073	1.751306
12.830077807186271	3.238061	1.7994612
12.847715139777405	3.295846	1.8154465
12.865352778014795	3.4937315	1.8691527
12.882990722332197	3.586552	1.8938195
12.90062897316344	3.6441863	1.9089752
12.918267530942412	3.688552	1.9205604
12.935906396103071	3.542893	1.8822575
12.953545569079449	3.7503805	1.93659
12.971185050305628	3.6430993	1.9086905
12.988824840215775	3.7183173	1.9282938
13.006464939244115	3.6838953	1.9193476
13.024105347824943	3.4767306	1.8645993
13.041746066392617	3.4736345	1.8637689
13.05938709538157	3.2504675	1.8029053
13.077028435226296	3.3067865	1.8184571
13.094670086361363	3.2685196	1.8079047
13.112312049221401	3.2301514	1.7972622
13.129954324241112	3.1124058	1.7642012
13.147596911855258	2.8847992	1.6984696
13.165239812498685	2.8328686	1.6831127
13.182883026606293	2.8182473	1.6787636
13.200526554613058	2.801636	1.6738088
13.218170396954017	2.7645514	1.662694
13.235814554064284	2.7639737	1.6625203
13.253459026379034	2.771364	1.6647414
13.271103814333523	2.7768247	1.6663808
13.288748918363058	2.7470076	1.6574099
13.306394338903031	2.666226	1.6328582
13.32404007638889	2.6155286	1.6172596
13.341686131256164	2.620823	1.6188955
13.359332503940449	2.61545	1.6172353
13.376979194877402	2.636778	1.6238159
13.394626204502751	2.6809719	1.6373674
13.412273533252307	2.703535	1.644243
13.429921181561937	2.7030652	1.6441001
13.447569149867581	2.7028117	1.6440231
13.465217438605247	2.6999831	1.6431625
13.482866048211022	2.6855555	1.6387664
13.500514979121052	2.6644945	1.6323279
13.518164231771568	2.644736	1.6262645
13.535813806598844	2.6431494	1.6257765
13.553463704039254	2.658336	1.6304404
13.571113924529229	2.673994	1.6352352
13.588764468505275	2.7206354	1.6494349
13.606415336403956	2.7131152	1.6471536
13.624066528661917	2.729724	1.6521876
13.641718045715882	2.7992282	1.6730894
13.659369888002635	2.8682604	1.693594
13.67702205595903	2.9578128	1.7198293
13.694674550021993	2.9850953	1.7277428
13.712327370628532	3.0567617	1.7483597
13.729980518215713	3.1622531	1.7782725
13.747633993220681	3.218226	1.7939415
13.765287796080647	3.2502525	1.8028457
13.7829419272329	3.2631683	1.8064241
13.800596387114801	3.3074272	1.8186333
13.818251176163775	3.3374193	1.8268605
13.835906294817324	3.410767	1.8468262
13.853561743513023	3.4936378	1.8691275
13.871217522688525	3.5551636	1.8855141
13.888873632781538	3.5489185	1.8838574
13.906530074229858	3.5480232	1.8836197
13.92418684747135	3.5740364	1.8905122
13.941843952943948	3.578511	1.8916953
13.959501391085665	3.527008	1.878033
13.977159162334578	3.4527912	1.8581687
13.994817267128846	3.397865	1.8433299
14.012475705906693	3.3318334	1.825331
14.030134479106424	3.2742171	1.8094798
14.047793587166414	3.1831646	1.7841425
14.065453030525108	3.1309435	1.7694472
14.083112809621026	3.0565748	1.7483063
14.100772924892766	3.012934	1.7357805
14.118433376778997	2.9297643	1.7116554
14.136094165718458	2.8698413	1.6940606
14.153755292149969	2.808959	1.6759949
14.171416756512416	2.739842	1.6552467
14.189078559244768	2.6611035	1.6312889
14.20674070078606	2.5829318	1.6071502
14.224403181575408	2.5478625	1.5962025
14.242066002051999	2.5247953	1.5889604
14.259729162655093	2.4646077	1.569907
14.277392663824022	2.4146943	1.5539286
14.295056505998208	2.4053502	1.5509192
14.312720689617128	2.4273612	1.5579991
14.330385215120348	2.4154325	1.5541662
14.348050082947497	2.3883083	1.5454153
14.3657152935383	2.338438	1.5291952
14.383380847332528	2.3203664	1.5232749
14.401046744770051	2.314248	1.5212653
14.418712986290798	2.3147788	1.5214397
14.436379572334793	2.371615	1.5400048
14.454046503342123	2.418746	1.5552318
14.471713779752946	2.4341419	1.5601736
14.489381402007504	2.430929	1.5591437
14.507049370546113	2.4047542	1.550727
14.524717685809168	2.3731198	1.5404934
14.542386348237134	2.3571613	1.5353049
14.560055358270553	2.339162	1.5294319
14.577724716350051	2.3689494	1.5391392
14.595394422916325	2.408651	1.551983
14.61306447841015	2.4597645	1.5683637
14.63073488327237	2.5002465	1.5812168
14.648405637943917	2.5246878	1.5889266
14.6660767428658	2.5048382	1.5826681
14.683748198479094	2.4988787	1.5807842
14.701420005224954	2.5283551	1.5900803
14.719092163544628	2.6396754	1.6247078
14.73676467387942	2.6908934	1.6403943
14.754437536670727	2.6588542	1.6305994
14.772110752360014	2.6261313	1.6205343
14.78978432138882	2.650567	1.6280562
14.807458244198777	2.7253835	1.6508735
14.82513252123159	2.727904	1.6516368
14.842807152929028	2.7039416	1.6443666
14.860482139732962	2.6746533	1.6354368
14.87815748208531	2.6785676	1.636633
14.8958331804281	2.6924534	1.6408697
14.91350923520342	2.6555471	1.6295849
14.931185646853438	2.6667874	1.6330302
14.948862415820408	2.674998	1.6355422
14.966539542546656	2.7075284	1.6454569
14.98421702747459	2.6799319	1.6370498
15.001894871046696	2.6721883	1.6346829
15.019573073705542	2.6711557	1.6343671
15.037251635893766	2.6671536	1.6331422
15.054930558054092	2.6621776	1.631618
15.072609840629323	2.7235668	1.6503233
15.090289484062351	2.8553686	1.6897836
15.107969488796124	3.1184442	1.7659117
15.125649855273691	3.4495919	1.8573077
15.14333058393817	3.90261	1.9755025
15.161011675232768	4.84107	2.2002432
15.17869312960076	6.2465196	2.4993038
15.196374947485506	8.128279	2.8510137
15.214057129330447	11.241211	3.3527915
15.231739675579114	15.960795	3.9950964
15.249422586675102	21.026806	4.5854993
15.267105863062092	24.340033	4.933562
15.284789505183847	24.79501	4.979459
15.302473513484218	22.938215	4.789386
15.320157888407127	19.447134	4.4098907
15.337842630396578	15.204009	3.899232
15.355527739896656	11.882867	3.4471533
15.37321321735153	9.189748	3.0314596
15.39089906320545	6.6764536	2.5838835
15.408585277902748	4.977496	2.2310302
15.42627186188783	3.779408	1.94407
15.443958815605198	3.2331395	1.7980933
15.461646139499424	2.9163969	1.7077461
15.479333834015168	2.728658	1.651865
15.497021899597165	2.6271935	1.6208619
15.514710336690234	2.5895898	1.6092203
15.53239914573928	2.6015453	1.6129307
15.550088327189297	2.5629551	1.6009232
15.567777881485336	2.5487072	1.5964671
15.58546780907256	2.5024738	1.581921
15.6031581103962	2.4912658	1.5783744
15.620848785901568	2.4678767	1.5709476
15.638539836034063	2.490871	1.5782493
15.656231261239173	2.4970028	1.5801908
15.673923061962451	2.4619393	1.5690569
15.691615238649552	2.43703	1.561099
15.709307791746202	2.4034247	1.5502983
15.727000721698221	2.3860247	1.5446763
15.744694028951498	2.4137561	1.5536268
15.76238771395202	2.4326837	1.5597063
15.780081777145844	2.4261057	1.5575961
15.797776218979125	2.39301	1.5469357
15.815471039898094	2.3620675	1.536902
15.833166240349064	2.3596659	1.5361204
15.850861820778437	2.3961444	1.5479485
15.868557781632699	2.3917732	1.5465358
15.886254123358412	2.4012496	1.5495967
15.903950846402232	2.382689	1.5435961
15.921647951210897	2.3464184	1.5318023
15.939345438231225	2.3383954	1.5291812
15.957043307910133	2.3545156	1.534443
15.974741560694602	2.405466	1.5509565
15.992440197031714	2.4032845	1.550253
16.01013921736862	2.4067929	1.5513842
16.02783862215259	2.3938434	1.5472051
16.045538411830933	2.4169848	1.5546654
16.06323858685107	2.3757982	1.5413624
16.080939147660512	2.3895621	1.5458208
16.09864009470684	2.3740392	1.5407917
16.11634142843774	2.4252825	1.5573318
16.134043149300954	2.4367862	1.5610209
16.15174525774433	2.437063	1.5611095
16.169447754215817	2.4213982	1.5560843
16.18715063916342	2.4154325	1.5541662
16.204853913035244	2.4284568	1.5583507
16.222557576279478	2.4290395	1.5585376
16.240261629344403	22.430246	4.736058
16.257966072678386	42.978493	6.5557985
16.275670906729868	38.12752	6.174749
16.293376131947387	2.5492098	1.5966245
16.31108174877957	2.5602365	1.6000739
16.328787757675133	2.5658507	1.6018273
16.34649415908287	2.600759	1.6126869
16.364200953451657	2.6405082	1.624964
16.38190814123048	2.6804478	1.6372073
16.39961572286839	2.6876261	1.6393981
16.41732369881455	2.705093	1.6447166
16.43503206951817	2.7234888	1.6502997
16.45274083542859	2.7452726	1.6568865
16.47044999699522	2.7916315	1.6708176
16.488159554667558	2.8471625	1.6873537
16.505869508895184	2.8914807	1.7004354
16.523579860127786	2.9546592	1.7189122
16.541290608815117	2.9862545	1.7280782
16.559001755407035	3.033545	1.7417074
16.57671330035348	3.0702753	1.7522202
16.59442524410448	3.1471684	1.774026
16.61213758711015	3.2334518	1.7981801
16.629850329820705	3.3012524	1.8169348
16.647563472686436	3.346555	1.8293592
16.665277016157724	3.3664057	1.8347768
16.682990960685053	3.3984916	1.8434998
16.70070530671898	3.415406	1.8480817
16.718420054710155	3.4721358	1.8633668
16.736135205109335	3.5493565	1.8839736
16.753850758367335	3.6191685	1.9024112
16.771566714935087	3.6825454	1.918996
16.789283075263597	3.754963	1.9377726
16.80699983980398	3.8304358	1.9571499
16.82471700900741	3.823115	1.9552788
16.84243458332518	3.8143268	1.9530301
16.860152563208665	3.887184	1.9715942
16.87787094910932	3.9938915	1.9984723
16.89558974147871	4.1281466	2.031784
16.913308940768466	4.208852	2.0515487
16.931028547430333	4.2650423	2.065198
16.94874856191613	4.2725754	2.067021
16.966468984677785	4.301437	2.0739906
16.98418981616729	4.3855944	2.094181
17.00191105683676	4.434071	2.1057234
17.019632707138374	4.47111	2.1144998
17.03735476752442	4.5200696	2.1260455
17.05507723844728	4.5550327	2.1342523
17.072800120359403	4.579851	2.1400588
17.090523413713353	4.6465077	2.155576
17.108247118961785	4.7065673	2.1694624
17.125971236557437	4.6867585	2.1648922
17.143695766953133	4.6642747	2.1596932
17.161420710601806	4.667378	2.1604116
17.179146067956477	4.6764274	2.162505
17.19687183947025	4.6900253	2.1656466
17.21459802559634	4.743497	2.177957
17.232324626788028	4.7652025	2.1829343
17.25005164349871	4.7210383	2.172795
17.267779076181863	4.7229576	2.1732366
17.285506925291074	4.755027	2.1806023
17.30323519127999	4.709114	2.1700494
17.320963874602384	4.6160693	2.148504
17.33869297571211	4.55372	2.1339447
17.356422495063114	4.5826797	2.1407194
17.37415243310944	4.572174	2.1382642
17.391882790305218	4.5631375	2.1361501
17.40961356710468	4.558847	2.1351457
17.42734476396215	4.5649614	2.1365771
17.445076381332044	4.555344	2.1343253
17.462808419668868	4.5797586	2.140037
17.48054087942723	4.7200356	2.1725643
17.498273761061835	4.9793887	2.2314544
17.51600706502747	5.414508	2.3269095
17.533740791779024	6.0898805	2.4677684
17.551474941771485	7.560048	2.7495542
17.56920951545993	8.716786	2.9524205
17.586944513299528	11.0589285	3.3254967
17.60467993574556	12.835792	3.5827074
17.622415783253373	14.757491	3.841548
17.64015205627843	16.291307	4.036249
17.657888755276293	17.547966	4.189029
17.675625880702604	18.042841	4.2476864
17.69336343301311	17.826914	4.2221932
17.71110141266366	16.874395	4.107846
17.728839820110178	15.8146715	3.9767663
17.746578655808705	14.748085	3.8403234
17.764317920215372	13.186541	3.6313276
17.7820576137864	11.546277	3.3979814
17.79979773697811	9.401761	3.066229
17.81753829024692	7.4799275	2.7349455
17.835279274049356	5.822615	2.4130096
17.85302068884201	4.8017297	2.191285
17.870762535081607	4.17348	2.0429096
17.888504813224934	3.8571591	1.9639652
17.90624752372891	3.7215276	1.9291261
17.923990667050536	3.6658716	1.9146466
17.941734243646895	3.5619354	1.8873091
17.959478253975185	3.4925752	1.8688433
17.9772226984927	3.455243	1.8588284
17.994967577656833	3.4427397	1.8554621
18.01271289192506	3.4377847	1.8541263
18.030458641754965	3.418081	1.8488053
18.04820482760425	3.3647532	1.8343264
18.06595144993067	3.3167477	1.821194
18.083698509192125	3.3089538	1.8190529
18.101446005846576	3.2928717	1.8146272
18.119193940352105	3.238899	1.7996942
18.136942313166887	3.180287	1.7833359
18.1546911247492	3.154647	1.7761326
18.1724403755574	3.1201189	1.7663858
18.19019006604997	3.118226	1.76585
18.207940196685467	3.1171367	1.7655414
18.225690767922575	3.1136665	1.7645584
18.243441780220046	3.0967138	1.7597482
18.261193234036764	3.0561733	1.7481915
18.278945129831676	3.0703568	1.7522434
18.29669746806386	3.0530078	1.7472858
18.314450249192483	3.020718	1.7380214
18.3322034736768	3.046275	1.7453581
18.349957141976184	3.0597155	1.7492043
18.3677112545501	3.079277	1.7547868
18.385465811858108	3.0305803	1.7408562
18.403220814359884	3.0305037	1.7408342
18.420976262515172	3.0612185	1.7496338
18.43873215678387	3.1341746	1.77036
18.456488497625923	3.1754954	1.781992
18.474245285501407	3.225044	1.7958407
18.492002520870486	3.2767386	1.8101764
18.50976020419343	3.3751342	1.8371538
18.527518335930615	3.6584048	1.9126956
18.545276916542516	4.24222	2.059665
18.563035946489688	4.4317107	2.1051629
18.580795426232832	4.8716483	2.207181
18.598555356232698	4.6851225	2.1645143
18.616315736950185	4.988409	2.2334747
18.63407656884626	4.6549454	2.1575322
18.65183785238201	4.8350286	2.19887
18.669599588018617	4.586014	2.141498
18.68736177621737	4.621093	2.1496727
18.705124417439652	4.666481	2.160204
18.72288751214696	4.468147	2.113799
18.740651060800886	4.581114	2.1403537
18.758415063863115	4.301739	2.0740635
18.77617952179546	4.419878	2.1023505
18.793944435059814	4.164975	2.040827
18.811709804118184	4.1767597	2.0437121
18.829475629432675	4.1550293	2.038389
18.8472419114655	3.9461193	1.9864842
18.86500865067897	4.073763	2.0183566
18.88277584753551	3.7563505	1.9381306
18.90054350249763	3.7461975	1.9355096
18.918311616027957	3.3959756	1.8428173
18.936080188589226	3.2806444	1.811255
18.953849220644265	2.9893756	1.7289811
18.971618712656007	2.8489623	1.687887
18.9893886650875	2.8182697	1.6787703
19.007159078401887	8.027381	2.8332634
19.024929953062408	32.87789	5.7339244
19.042701289532435	32.8208	5.7289443
19.060473088275405	25.385012	5.038354
19.07824534975489	2.6731093	1.6349646
19.096018074434568	2.68542	1.6387252
19.113791262778197	2.6538968	1.6290785
19.13156491524966	2.6558275	1.629671
19.149339032312945	2.6343951	1.623082
19.167113614432136	2.5951276	1.61094
19.184888662071433	2.5315044	1.5910702
19.202664175695123	2.4931266	1.5789638
19.220440155767623	2.4926183	1.5788028
19.238216602753447	2.4829414	1.5757352
19.2559935171172	2.5064104	1.5831647
19.27377089932361	2.5269012	1.589623
19.291548749837514	2.52365	1.5886
19.309327069123835	2.493261	1.5790063
19.32710585764763	2.4706695	1.5718364
19.344885115874032	2.4538727	1.5664842
19.362664844268313	2.4591072	1.5681541
19.380445043295822	2.4692395	1.5713814
19.39822571342203	2.4781694	1.5742203
19.41600685511252	2.491019	1.5782962
19.43378846883297	2.46998	1.571617
19.451570555049173	2.4241953	1.5569828
19.469353114227037	2.4161541	1.5543983
19.48713614683254	2.4541943	1.5665869
19.50491965333182	2.4901717	1.5780277
19.52270363419109	2.4938161	1.5791821
19.540488089876686	2.4991019	1.5808548
19.55827302085503	2.4929335	1.5789026
19.576058427592674	2.490916	1.5782636
19.593844310556282	2.475945	1.5735136
19.611630670212598	2.469155	1.5713545
19.629417507028506	2.4606886	1.5686582
19.64720482147098	2.479406	1.574613
19.6649926140071	2.4877856	1.5772716
19.682780885104084	2.459796	1.5683737
19.70056963522921	2.4452693	1.5637357
19.718358864849908	2.4539053	1.5664946
19.7361485744337	2.501126	1.5814949
19.753938764448215	2.5074255	1.5834852
19.771729435361202	2.5138075	1.5854992
19.789520587640506	2.5003598	1.5812526
19.807312221754092	2.5037773	1.5823328
19.825104338170043	2.533544	1.591711
19.842896937356517	2.5902333	1.6094202
19.860690019781824	2.5799022	1.6062074
19.87848358591436	2.562659	1.6008307
19.896277636222635	2.5076313	1.5835502
19.914072171175278	2.5022745	1.5818579
19.931867191241015	2.5029986	1.5820868
19.94966269688869	2.546469	1.595766
19.967458688587264	2.5407307	1.593967
19.985255166805807	2.5523026	1.5975927
20.00305213201348	2.5361516	1.5925299
20.020849584679578	2.4979317	1.5804846
20.038647525273507	2.4645934	1.5699023
20.05644595426477	2.4609718	1.5687485
20.07424487212299	2.4841254	1.5761108
20.092044279317903	2.471892	1.5722252
20.109844176319353	2.423913	1.5568922
20.127644563597304	2.380047	1.5427401
20.145445441621817	2.379893	1.5426902
20.16324681086307	2.364248	1.5376111
20.181048671791373	2.3830535	1.5437142
20.198851024877122	2.4256682	1.5574557
20.216653870590836	2.4362488	1.5608487
20.234457209403146	2.4287834	1.5584555
20.252261041784802	2.4154687	1.5541778
20.270065368206662	2.4037476	1.5504024
20.287870189139685	2.3634453	1.53735
20.305675505054968	2.3488786	1.5326052
20.323481316423702	2.3541472	1.5343231
20.341287623717207	2.3651	1.5378882
20.359094427406884	2.3512056	1.5333642
20.376901727964288	2.346796	1.5319256
20.39470952586107	2.3774874	1.5419103
20.41251782156899	2.4185972	1.555184
20.430326615559935	2.4277067	1.55811
20.448135908305886	2.4402704	1.5621365
20.465945700278965	2.407507	1.5516143
20.483755991951384	2.377452	1.5418988
20.50156678379548	2.341597	1.5302278
20.519378076283708	2.316505	1.5220069
20.537189869888635	2.3064113	1.5186874
20.55500216508294	2.2907681	1.5135283
20.572814962339415	2.3230665	1.5241609
20.59062826213098	2.306603	1.5187504
20.60844206493066	2.304904	1.518191
20.626256371211593	2.3205876	1.5233475
20.644071181447032	2.351505	1.5334618
20.66188649611036	2.3455954	1.5315337
20.67970231567506	2.30782	1.5191511
20.697518640614742	2.3200006	1.5231549
20.715335471403122	2.3388448	1.5293282
20.73315280851404	2.3360665	1.5284196
20.750970652421447	2.2587566	1.5029161
20.768789003599412	2.2269568	1.4922992
20.786607862522136	2.2381585	1.4960476
20.8044272296639	2.2788632	1.5095904
20.82224710549913	2.2666576	1.5055423
20.84006749050237	2.2721107	1.5073522
20.857888385148268	3.8117878	1.9523801
20.8757097899116	45.923946	6.776721
20.893531705267254	64.83	8.051708
20.911354131690224	83.856995	9.157347
20.92917706965566	69.093765	8.312266
20.94700051963877	50.121887	7.0796814
20.96482448211493	29.38193	5.4205103
20.982648957559622	4.100203	2.024896
21.00047394644843	2.2193956	1.4897636
21.01829944925707	2.2655163	1.5051632
21.036125466461375	2.305774	1.5184776
21.053951998537297	2.271041	1.5069973
21.071779045960906	2.238242	1.4960755
21.089606609208378	2.2305393	1.493499
21.10743468875603	2.2588396	1.5029436
21.12526328508028	2.24158	1.4971907
21.143092398657675	2.2131357	1.4876611
21.16092202996488	2.2117772	1.4872046
21.17875217947867	2.2200348	1.4899781
21.19658284767596	2.2124565	1.4874328
21.21441403503377	2.205458	1.4850785
21.232245742029225	2.200471	1.4833984
21.2500779691396	2.1977315	1.4824748
21.26791071684227	2.1883264	1.4792993
21.28574398561475	2.1687357	1.4726628
21.30357777593465	2.1627529	1.47063
21.321412088279704	2.1473095	1.46537
21.339246923127792	2.139895	1.4628379
21.357082280956888	2.1242275	1.457473
21.3749181622451	2.1314464	1.4599473
21.392754567470647	2.1322742	1.4602308
21.41059149711187	2.1536458	1.4675305
21.42842895164726	2.1485324	1.4657873
21.446266931555378	2.1450984	1.4646155
21.464105437314945	2.1200993	1.4560561
21.481944469404798	2.1172543	1.4550787
21.49978402830388	2.1064255	1.451353
21.51762411449127	2.0838926	1.4435694
21.53546472844617	2.070913	1.4390668
21.553305870647876	2.1258018	1.4580129
21.571147541575865	2.1217303	1.456616
21.58898974170967	2.1149535	1.454288
21.60683247152899	2.1140144	1.4539651
21.62467573151363	2.100188	1.4492025
21.642519522143523	2.084464	1.4437673
21.660363843898722	2.0912728	1.4461234
21.6782086972594	2.0706022	1.4389588
21.696054082705864	2.0614135	1.4357624
21.713900000718535	2.0426803	1.4292237
21.73174645177795	2.0788312	1.4418153
21.749593436364794	2.0493512	1.4315555
21.767440954959845	2.0599465	1.4352514
21.785289008044032	2.047013	1.4307387
21.803137596098388	2.0232978	1.4224267
21.820986719604086	1.9791234	1.4068131
21.838836379042412	1.9475957	1.3955629
21.85668657489478	1.9758453	1.4056476
21.87453730764273	2.0030332	1.4152856
21.892388577767914	2.0073853	1.4168222
21.91024038575213	2.0287461	1.4243406
21.928092732077285	2.0237164	1.4225739
21.945945617225426	2.0119393	1.4184284
21.963799041678694	2.0140383	1.4191682
21.981653005919398	31.364609	5.6004114
21.999507510429943	78.13922	8.83964
22.01736255569286	73.09308	8.549449
22.035218142190818	4.172492	2.0426679
22.05307427040661	1.9845958	1.4087569
22.07093094082315	1.9592928	1.3997474
22.088788153923474	1.9646577	1.4016625
22.106645910190746	1.9815918	1.4076903
22.12450421010827	2.0111232	1.4181408
22.142363054159464	2.028039	1.4240923
22.16022244282787	2.0425782	1.429188
22.178082376597164	2.0390797	1.4279635
22.195942855951145	2.0022376	1.4150045
22.213803881373742	1.9814581	1.4076427
22.231665453349002	1.9636363	1.401298
22.24952757236111	1.9523396	1.3972615
22.26739023889438	1.9543917	1.3979956
22.28525345343323	1.9830883	1.4082217
22.30311721646225	1.983086	1.4082209
22.320981528466113	1.9546745	1.3980967
22.33884638992964	1.9474949	1.3955268
22.356711801337788	1.9776635	1.4062942
22.37457776317561	2.0002632	1.4143066
22.392444275928337	1.9945891	1.4122993
22.410311340081282	1.9967986	1.4130813
22.428178956119904	1.9948299	1.4123845
22.446047124529805	1.9593884	1.3997816
22.46391584579669	1.9317588	1.3898772
22.481785120406414	1.9553057	1.3983225
22.49965494884496	1.9631793	1.401135
22.51752533159841	1.9463574	1.3951191
22.53539626915302	1.9124706	1.382921
22.553267761995137	1.9166821	1.3844429
22.571139810611264	1.9350277	1.3910527
22.589012415488025	1.9484324	1.3958626
22.60688557711216	1.9294541	1.3890479
22.624759295970566	1.921993	1.3863596
22.642633572550263	1.9356635	1.3912812
22.660508407338362	1.918557	1.3851199
22.67838380082217	1.9250726	1.3874699
22.696259753489077	1.9382983	1.3922279
22.714136265826614	1.9459636	1.394978
22.73201333832246	1.9409057	1.3931639
22.74989097146439	1.9535035	1.3976779
22.76776916574035	1.9425898	1.3937682
22.785647921638393	1.9269456	1.3881446
22.803527239646712	1.9204327	1.3857968
22.82140712025363	1.9230362	1.3867358
22.839287563947593	1.9305803	1.3894532
22.85716857121719	1.9405036	1.3930196
22.875050142551135	1.9215561	1.3862021
22.892932278438277	1.9394592	1.3926446
22.910814979367604	1.9631269	1.4011163
22.928698245828222	1.9578873	1.3992453
22.946582078309387	1.9346544	1.3909185
22.96446647730047	1.9300845	1.3892748
22.98235144329098	1.9381285	1.3921669
23.000236976770562	1.9278978	1.3884876
23.018123078229	1.9160987	1.3842322
23.03600974815619	1.9163452	1.3843212
23.053896987042194	1.9267756	1.3880835
23.071784795377173	1.9336052	1.3905413
23.08967317365145	1.9456853	1.3948783
23.10756212235546	1.9058348	1.3805197
23.125451641979787	1.9063796	1.380717
23.143341733015134	1.9157819	1.3841177
23.161232395952357	1.9679286	1.4028288
23.179123631282426	2.0038307	1.4155673
23.197015439496468	2.020258	1.4213578
23.214907821085717	1.9661598	1.4021982
23.23280077654157	1.9435165	1.3941005
23.250694306355538	1.9580663	1.3993093
23.268588411019277	1.9641942	1.4014971
23.28648309102458	1.9283881	1.3886641
23.304378346863356	1.8891758	1.3744729
23.322274179027676	1.9056741	1.3804616
23.340170588009723	1.9083744	1.3814392
23.358067574301852	1.8882604	1.3741399
23.37596513839651	1.8830374	1.3722382
23.39386328078629	1.8739128	1.3689094
23.411762001963947	1.8845116	1.3727752
23.429661302422353	1.8735285	1.3687689
23.4475611826545	1.8854929	1.3731325
23.46546164315356	1.8686022	1.3669683
23.48336268441279	1.8724736	1.3683835
23.501264306925638	1.8564088	1.3625009
23.51916651118564	1.8837123	1.372484
23.537069297686497	1.9190296	1.3852904
23.554972666922037	1.9292765	1.388984
23.57287661938623	1.921371	1.3861352
23.59078115557318	1.9134698	1.3832823
23.608686275977128	1.9284904	1.388701
23.62659198109246	1.9306407	1.389475
23.6444982714137	1.8950349	1.3766026
23.66240514743549	1.910847	1.3823339
23.68031260965263	1.8979061	1.3776451
23.698220658560068	1.9375296	1.3919517
23.716129294652845	1.9264216	1.3879559
23.7340385184262	1.9052535	1.3803092
23.75194833037546	1.8611748	1.3642489
23.769858730996123	1.8613989	1.364331
23.78776972078382	1.8891405	1.3744601
23.80568130023431	1.8778839	1.3703591
23.823593469843495	1.8605107	1.3640054
23.841506230107424	1.8481494	1.3594666
23.859419581522275	1.8549852	1.3619784
23.87733352458438	1.8665229	1.3662075
23.89524805979019	1.907484	1.381117
23.913163187636318	1.9225081	1.3865454
23.931078908619508	1.9319267	1.3899376
23.948995223236633	1.9563159	1.3986837
23.966912131984735	1.9770218	1.4060661
23.98482963536096	2.001238	1.4146513
24.002747733862616	1.9647291	1.401688
24.020666427987155	1.9674395	1.4026544
24.038585718232156	2.036571	1.4270848
24.056505605095353	2.081387	1.4427013
24.074426089074617	2.11799	1.4553316
24.092347170667946	2.089619	1.4455514
24.110268850373515	2.0630896	1.4363459
24.128191128689586	2.074758	1.440402
24.146114006114626	2.11852	1.4555137
24.164037483147187	2.1224344	1.4568577
24.181961560286005	2.0643702	1.4367917
24.199886238029926	2.033233	1.4259148
24.21781151687797	2.0328753	1.4257894
24.235737397329274	2.0948136	1.447347
24.253663879883135	2.0892186	1.445413
24.271590965038975	2.052567	1.4326782
24.289518653296376	2.0554905	1.4336982
24.30744694515505	2.024539	1.422863
24.32537584111486	2.0495088	1.4316106
24.34330534167581	2.0433402	1.4294546
24.361235447338046	2.0804636	1.4423813
24.379166158601876	2.0614157	1.4357631
24.39709747596772	2.0610926	1.4356506
24.41502939993615	2.0489707	1.4314226
24.432961931007917	2.019144	1.4209659
24.450895069683856	2.041657	1.4288657
24.468828816465	2.0272632	1.4238199
24.4867631718525	1.9933604	1.4118642
24.504698136347656	1.9240568	1.3871037
24.52263371045192	1.9459083	1.3949581
24.540569894666874	2.0085697	1.4172401
24.558506689494266	2.0122495	1.4185377
24.57644409543597	2.0101268	1.4177895
24.594382112994012	2.017247	1.4202982
24.61232074267057	2.0027876	1.4151988
24.630259984967953	2.0230722	1.4223474
24.64819984038863	2.040185	1.4283504
24.66614030943522	2.042951	1.4293184
24.684081392610462	2.0226822	1.4222103
24.702023090417274	2.013144	1.418853
24.7199654033587	1.9629929	1.4010684
24.737908331937927	1.952647	1.3973714
24.755851876658305	1.9779513	1.4063965
24.773796038023324	2.0287838	1.4243538
24.79174081653661	2.07451	1.440316
24.809686212701962	2.073871	1.4400941
24.827632227023294	2.0955381	1.4475974
24.8455788600047	2.0938935	1.4470292
24.8635261121504	2.0957046	1.4476548
24.88147398396475	2.095295	1.4475133
24.899422475952303	2.0588667	1.4348751
24.917371588617698	2.0705576	1.4389433
24.935321322465768	2.1381006	1.4622246
24.953271678001478	2.2768223	1.5089142
24.97122265572994	2.497943	1.5804882
24.989174256156414	2.8263183	1.6811657
25.00712647978632	3.2523088	1.8034159
25.02507932712521	3.786747	1.9459566
25.043032798678798	4.3420324	2.0837543
25.060986894952933	5.007446	2.2377324
25.078941616453637	5.8181763	2.4120896
25.096896963687055	6.828743	2.6131864
25.114852937159508	8.083169	2.8430915
25.132809537377444	8.596243	2.931935
25.150766764847468	8.568575	2.9272127
25.168724620076347	7.929117	2.8158689
25.186683103570985	6.9019513	2.6271565
25.204642215838426	5.713297	2.3902504
25.222601957385894	4.2630897	2.0647252
25.24056232872074	3.2193284	1.7942487
25.25852333035048	2.5658703	1.6018335
25.276484962782778	2.1801012	1.4765166
25.294447226525435	2.0619984	1.435966
25.312410122086423	1.9855632	1.4091002
25.330373649973843	1.9041842	1.3799218
25.348337810695988	1.9031152	1.3795344
25.366302604761245	1.946656	1.3952261
25.384268032678207	1.9430009	1.3939157
25.40223409495558	1.9116375	1.3826199
25.420200792102257	1.8951561	1.3766468
25.438168124627246	1.930648	1.3894776
25.45613609303974	1.9602104	1.4000752
25.474104697849057	1.9466168	1.395212
25.492073939564698	1.9175777	1.3847663
25.510043818696285	1.9405707	1.3930436
25.528014335753614	1.9397684	1.3927557
25.54598549124664	1.9232057	1.386797
25.56395728568544	1.867705	1.3666401
25.58192971958028	1.8815515	1.3716966
25.59990279344156	1.9060473	1.3805968
25.617876507779833	1.9032813	1.3795947
25.635850863105826	1.9120765	1.3827785
25.653825859930386	1.9242634	1.3871782
25.671801498764548	1.9311779	1.3896682
25.68977778011949	1.9042379	1.3799412
25.707754704506524	1.8716738	1.3680913
25.725732272437153	1.8385587	1.3559346
25.743710484423012	1.8409239	1.3568065
25.761689340975888	1.8778228	1.3703368
25.77966884260774	1.895278	1.376691
25.797648989830662	1.8712667	1.3679426
25.815629783156922	1.8603731	1.363955
25.83361122309895	1.8577371	1.3629882
25.85159331016929	1.8639966	1.3652827
25.869576044880695	1.8724619	1.3683794
25.887559427746034	1.8779061	1.3703672
25.90554345927836	1.9032629	1.3795879
25.92352813999086	1.8581393	1.3631358
25.94151347039689	1.8464819	1.3588532
25.959499451009965	1.8688055	1.3670427
25.97748608234374	1.890838	1.3750775
25.995473364912062	1.8693775	1.3672518
26.013461299228904	1.8553795	1.3621231
26.03144988580839	1.8436716	1.3578187
26.04943912516483	1.8475004	1.3592279
26.067429017812675	1.876864	1.3699869
26.085419564266537	1.8822324	1.3719448
26.103410765041186	1.8189845	1.3486973
26.12140262065155	1.8222315	1.3499006
26.139395131612723	1.8440716	1.357966
26.157388298439948	1.8828119	1.3721559
26.17538212164861	1.863208	1.3649938
26.193376601754295	1.8857341	1.3732203
26.211371739272714	1.867341	1.3665069
26.229367534719746	1.8753897	1.3694487
26.247363988611433	1.8359578	1.3549752
26.26536110146397	1.8304508	1.3529415
26.283358873793727	1.8261944	1.3513676
26.301357306117204	1.859102	1.3634889
26.319356398951104	1.8559082	1.3623172
26.33735615281224	1.8439327	1.3579148
26.35535656821762	1.8193251	1.3488235
26.373357645684404	1.8098451	1.3453048
26.39135938572991	1.8318013	1.3534405
26.409361788871614	1.8521528	1.3609382
26.427364855627165	1.7489301	1.3224713
26.445368586514352	1.7072608	1.3066219
26.46337298205115	1.7371569	1.3180125
26.48137804275568	1.7664549	1.3290805
26.499383769146217	1.7753991	1.332441
26.517390161741215	1.8153867	1.3473629
26.53539722105928	1.8424277	1.3573606
26.553404947619182	1.8317335	1.3534155
26.571413341939856	1.7766832	1.3329228
26.589422404540397	1.7908955	1.3382434
26.60743213594006	1.8364953	1.3551735
26.62544253665827	1.8723091	1.3683234
26.64345360721459	1.8353921	1.3547665
26.66146534812879	1.7869191	1.336757
26.679477759920758	1.7919245	1.3386278
26.69749084311057	1.8383368	1.3558528
26.71550459821847	1.8485473	1.359613
26.733519025764842	1.8392138	1.3561761
26.751534126270258	1.8381605	1.3557878
26.769549900255434	1.8280979	1.3520718
26.787566348241267	1.8276027	1.3518885
26.80558347074881	1.7918973	1.3386177
26.823601268299267	1.7473493	1.3218734
26.841619741414036	1.7733061	1.3316554
26.85963889061465	1.8261281	1.351343
26.877658716422832	1.8130474	1.3464944
26.89567921936045	1.7662469	1.3290023
26.913700399949544	1.7783166	1.3335354
26.93172225871233	1.8111475	1.3457888
26.949744796171174	1.788466	1.3373353
26.967768012848605	1.7604825	1.3268318
26.98579190926733	1.799746	1.3415462
27.003816485950225	1.8484348	1.3595716
27.021841743420318	1.8960817	1.3769828
27.039867682200814	1.8758897	1.3696312
27.057894302815072	1.7918979	1.3386179
27.07592160578664	1.7721907	1.3312365
27.0939495916392	1.8214622	1.3496156
27.111978260896635	1.8241565	1.3506134
27.13000761408296	1.8343133	1.3543682
27.148037651722397	1.8461832	1.3587432
27.166068374339304	1.8276978	1.3519237
27.184099782458215	1.7512575	1.3233509
27.20213187660384	1.6997575	1.3037474
27.22016465730105	1.7377062	1.3182209
27.23819812507487	1.8435808	1.3577852
27.256232280450533	1.8649609	1.3656358
27.274267123953383	1.8607316	1.3640864
27.292302656108987	1.8048586	1.3434502
27.31033887744306	1.8210896	1.3494775
27.32837578848146	1.8395195	1.3562889
27.34641338975026	1.811238	1.3458225
27.364451681775673	1.7478566	1.3220652
27.382490665084074	1.7491897	1.3225694
27.400530340202046	1.789574	1.3377496
27.41857070765629	1.7916983	1.3385434
27.436611767973726	1.7715904	1.331011
27.454653521681404	1.795712	1.3400418
27.472695969306564	1.8432672	1.3576697
27.490739111376627	1.8627672	1.3648323
27.508782948419153	1.8875045	1.3738648
27.526827480961902	1.8590782	1.3634802
27.54487270953279	1.8377417	1.3556334
27.562918634659898	1.8243874	1.3506988
27.580965256871508	1.7909327	1.3382573
27.599012576696026	1.8041295	1.3431789
27.617060594662068	1.8532894	1.3613557
27.63510931129842	1.8759745	1.3696622
27.65315872713401	1.8218983	1.3497771
27.67120884269797	1.7839216	1.3356353
27.68925965851958	1.8298935	1.3527355
27.707311175128307	1.8783647	1.3705344
27.725363393053787	1.905059	1.3802388
27.74341631282583	1.9284986	1.388704
27.7614699349744	1.9355062	1.3912247
27.77952426002968	2.065233	1.4370918
27.797579288521973	2.107407	1.4516912
27.815635020981784	2.4358501	1.560721
27.83369145793979	2.476842	1.5737985
27.85174859992682	2.3604531	1.5363766
27.869806447473923	2.2491252	1.4997084
27.887865001112267	2.0003462	1.414336
27.905924261373233	1.9131196	1.3831557
27.92398422878836	1.9114873	1.3825655
27.94204490388936	1.8994213	1.3781949
27.96010628720813	1.9312257	1.3896855
27.978168379276728	1.9114687	1.3825588
27.9962311806274	1.8756058	1.3695276
28.014294691792568	1.8499839	1.3601412
28.0323589133048	1.8511194	1.3605585
28.050423845696887	1.8507941	1.360439
28.068489489501758	1.8616421	1.36442
28.086555845252523	1.8942338	1.3763117
28.104622913482487	1.8952785	1.3766911
28.122690694725115	1.8788111	1.3706973
28.14075918951405	1.8611764	1.3642493
28.15882839838312	1.8741058	1.3689798
28.176898321866304	1.9067831	1.3808632
28.1949689604978	1.9169965	1.3845564
28.213040314811945	1.9078585	1.3812525
28.23111238534327	1.8906248	1.3749999
28.249185172626493	1.9217938	1.3862878
28.267258677196473	1.9404542	1.3930019
28.285332899588294	1.8998474	1.3783495
28.303407840337172	1.9159536	1.3841797
28.321483499978545	1.8883898	1.374187
28.33955987904799	1.9260997	1.3878399
28.357636978081285	1.9129162	1.3830822
28.37571479761439	1.9644828	1.4016001
28.393793338183425	1.9991014	1.4138958
28.41187260032469	1.9650983	1.4018196
28.429952584574686	1.9652585	1.4018768
28.448033291470065	1.9519224	1.3971121
28.46611472154769	1.9844481	1.4087044
28.484196875344566	2.0003521	1.4143381
28.502279753397914	2.029785	1.4247051
28.52036335624511	1.9674599	1.4026617
28.538447684423716	1.9202051	1.3857147
28.556532738471482	1.8928708	1.3758165
28.574618518926325	1.9488783	1.3960223
28.59270502632635	2.03997	1.4282751
28.61079226120985	2.0323389	1.4256012
28.628880224115274	2.0121415	1.4184997
28.646968915581287	2.0546112	1.4333915
28.66505833614671	2.049656	1.431662
28.68314848635055	2.0692198	1.4384784
28.701239366732004	2.078962	1.4418607
28.71933097783044	2.0549161	1.4334979
28.737423320185403	2.095447	1.4475659
28.75551639433665	2.1010587	1.449503
28.773610200824074	2.154178	1.4677118
28.791704740187793	2.1656277	1.4716072
28.80980001296809	2.1573997	1.4688089
28.827896019705413	2.1227758	1.4569749
28.845992760940433	2.1181383	1.4553826
28.86409023721397	2.1237562	1.4573113
28.88218844906704	2.1621342	1.4704198
28.900287397040845	2.2113018	1.4870447
28.918387081676755	2.2650425	1.5050058
28.936487503516343	2.240966	1.4969857
28.954588663101365	2.2821734	1.5106864
28.97269056097374	2.2978253	1.5158579
28.990793197675597	2.2505078	1.5001693
29.00889657374923	2.2718353	1.5072609
29.027000689737125	2.3334136	1.5275515
29.04510554618196	2.4052937	1.5509009
29.06321114362659	2.4628248	1.5693389
29.08131748261405	2.4716613	1.5721518
29.099424563687567	2.4601114	1.5684742
29.11753238739057	2.4864752	1.5768561
29.13564095426663	2.541912	1.5943375
29.15375026485954	2.5723464	1.6038536
29.171860319713275	2.6205778	1.6188198
29.18997111937199	2.636452	1.6237155
29.20808266438002	2.6938603	1.6412984
29.226194955281898	2.6892653	1.639898
29.244307992622335	2.716169	1.6480805
29.26242177694624	2.7709687	1.6646227
29.2805363087987	2.8593194	1.6909522
29.29865158872498	2.9169784	1.7079164
29.316767617270557	3.0064676	1.7339169
29.334884394981064	3.0326557	1.7414522
29.353001922402367	2.9982183	1.7315364
29.37112020008047	3.0316255	1.7411563
29.389239228561596	3.1254406	1.7678915
29.407359008392152	3.367681	1.8351243
29.42547954011872	3.7124348	1.926768
29.44360082428809	4.347754	2.0851269
29.46172286144722	5.38494	2.3205473
29.479845652143283	6.9465175	2.6356246
29.497969196923606	9.157405	3.0261204
29.516093496335728	11.990962	3.462797
29.5342185509274	14.994247	3.8722405
29.55234436124651	17.316475	4.161307
29.570470927841175	18.715822	4.3261786
29.588598251259686	18.525862	4.3041677
29.60672633205055	17.139366	4.1399717
29.624855170762405	14.767203	3.8428118
29.642984767944146	11.933058	3.4544258
29.66111512414481	9.048248	3.0080307
29.67924623991366	6.7157297	2.5914724
29.697378115800138	5.149517	2.2692547
29.71551075235387	4.216555	2.0534253
29.733644150124675	3.723761	1.9297049
29.751778309662576	3.456073	1.8590517
29.769913231517766	3.3667405	1.834868
29.78804891624066	3.3159153	1.8209655
29.806185364381818	3.3224063	1.8227469
29.82432257649206	3.3212092	1.8224185
29.842460553122333	3.3418357	1.8280689
29.86059929482382	3.3506243	1.830471
29.878738802147872	3.3149087	1.8206891
29.896879075646048	3.273267	1.8092172
29.915020115870114	3.2169235	1.7935784
29.933161923371976	3.1733708	1.7813958
29.951304498703777	3.205333	1.7903444
29.969447842417857	3.2422886	1.8006356
29.987591955066733	3.2438238	1.8010619
30.005736837203123	3.2170544	1.7936149
30.023882489379943	3.1812682	1.783611
30.04202891215028	3.2059698	1.7905222
30.060176106067455	3.1783981	1.7828063
30.078324071684946	3.1082053	1.7630103
30.09647280955646	3.1873446	1.7853136
30.114622320235863	3.1812692	1.7836113
30.132772604277257	3.148534	1.774411
30.1509236622349	3.1240363	1.7674943
30.16907549466328	3.1349664	1.7705836
30.18722810211705	3.0779412	1.7544062
30.205381485151097	3.0921319	1.7584459
30.22353564432045	3.1091378	1.7632748
30.241690580180403	3.0863729	1.7568076
30.25984629328638	3.1282659	1.7686905
30.278002784194037	3.0903034	1.7579259
30.296160053459246	3.0248463	1.7392086
30.314318101638033	3.000049	1.732065
30.332476929286646	2.9850295	1.7277238
30.35063653696153	2.947556	1.7168448
30.368796925219307	2.9528408	1.7183832
30.386958094616844	3.005109	1.733525
30.40512004571115	2.909276	1.70566
30.423282779059463	2.868466	1.6936547
30.441446295219233	2.9316416	1.7122037
30.459610594748067	2.912163	1.7065061
30.47777567820382	2.8702116	1.6941699
30.495941546144504	2.7765505	1.6662985
30.51410819912835	2.7265244	1.651219
30.532275637713795	2.7741878	1.6655893
30.55044386245946	2.7754977	1.6659825
30.56861287392416	2.7975807	1.672597
30.586782672666956	2.79147	1.6707693
30.604953259247047	2.851829	1.688736
30.623124634223885	2.8543773	1.6894902
30.641296798157075	2.8861609	1.6988704
30.659469751606462	2.7773876	1.6665496
30.677643495132074	2.7180028	1.6486367
30.695818029294152	2.7531142	1.6592511
30.713993354653116	2.794824	1.6717727
30.73216947176962	2.7447598	1.6567316
30.75034638120448	2.744513	1.6566572
30.768524083518756	2.7711966	1.6646911
30.786702579273673	2.8628848	1.6920061
30.80488186903069	2.8723087	1.6947887
30.82306195335144	2.8869267	1.6990958
30.841242832797782	3.0995057	1.7605413
30.85942450793176	3.461999	1.8606448
30.877606979315637	3.819559	1.9543692
30.895790247511883	4.2234817	2.0551112
30.913974313083134	4.626834	2.1510077
30.932159176592283	4.99137	2.2341375
30.95034483860237	5.0744753	2.2526596
30.968531299676698	4.8680396	2.2063634
30.98671856037873	4.509011	2.1234431
31.00490662127215	4.0530124	2.0132096
31.023095482920848	3.5263307	1.8778527
31.04128514588892	3.1183238	1.7658776
31.059475610740662	2.852185	1.6888413
31.07766687804056	2.7295625	1.6521388
31.09585894835335	2.6099265	1.6155267
31.11405182224393	2.5523024	1.5975927
31.132245500277417	2.4921894	1.5786669
31.15043998301914	2.431001	1.5591668
31.168635271034628	2.3886602	1.5455291
31.18683136488964	2.3564188	1.5350631
31.20502826515008	2.3571074	1.5352874
31.223225972382135	2.4126737	1.5532783
31.241424487152155	2.4178615	1.5549474
31.259623810026692	2.4253838	1.5573643
31.27782394157253	2.4108837	1.5527021
31.296024882356644	2.4267526	1.5578038
31.314226632946237	2.4680877	1.5710149
31.332429193908684	2.4642591	1.5697958
31.350632565811598	2.514634	1.5857598
31.368836749222787	2.5497246	1.5967857
31.387041744710295	2.503759	1.582327
31.40524755284232	2.4920247	1.5786148
31.423454174187317	2.471258	1.5720235
31.441661609313922	2.4885373	1.5775099
31.459869858791002	2.461173	1.5688126
31.478078923187628	2.4761949	1.573593
31.496288803073064	2.4172664	1.554756
31.514499499016807	2.364287	1.5376238
31.532711011588546	2.3446758	1.5312334
31.550923341358178	2.380316	1.5428272
31.56913648889584	2.4053278	1.5509119
31.587350454771844	2.3880363	1.5453272
31.605565239556732	2.3703523	1.5395949
31.62378084382127	2.3072436	1.5189613
31.641997268136382	2.267907	1.5059571
31.660214513073274	2.2464426	1.4988137
31.67843257920331	2.2792788	1.5097281
31.6966514670981	2.280402	1.5101
31.71487117732944	2.3076108	1.5190822
31.733091710469346	2.3388135	1.529318
31.751313067090052	2.303608	1.5177641
31.769535247764008	2.2761166	1.5086805
31.787758253063878	2.2777426	1.5092192
31.805982083562526	2.3088317	1.519484
31.824206739833024	2.320982	1.523477
31.84243222244869	2.318473	1.5226533
31.860658531983013	2.2014146	1.4837165
31.878885669009737	2.2373483	1.4957768
31.897113634102784	2.2439065	1.4979675
31.91534242783632	2.1975868	1.4824259
31.933572050784694	2.162902	1.4706808
31.951802503522508	2.1855998	1.4783775
31.970033786624548	2.1651404	1.4714416
31.988265900665834	2.1578612	1.468966
32.006498846221575	2.261527	1.5038375
32.02473262386724	2.3205616	1.523339
32.04296723417845	2.2598495	1.5032796
32.0612026777311	2.203498	1.4844184
32.07943895510129	2.2320828	1.4940157
32.097676066865304	2.2309968	1.4936522
32.115914013599685	2.2136424	1.4878315
32.13415279588115	2.177388	1.4755975
32.152392414286666	2.165869	1.4716892
32.1706328693934	2.136764	1.4617674
32.18887416177875	2.1003647	1.4492635
32.20711629202032	2.1012468	1.4495678
32.225359260695924	2.115524	1.4544841
32.243603068383614	2.1560407	1.4683462
32.26184771566166	2.1449208	1.4645548
32.28009320310852	2.0867383	1.4445547
32.2983395313029	2.0732288	1.4398711
32.31658670082372	2.1072402	1.4516336
32.33483471225012	2.1326816	1.4603704
32.35308356616143	2.166697	1.4719704
32.371333263137245	2.244091	1.498029
32.38958380375734	2.2715228	1.5071572
32.407835188601744	2.2398992	1.4966292
32.42608741825067	2.184509	1.4780085
32.444340493284585	2.1853545	1.4782945
32.46259441428416	2.1112227	1.4530047
32.48084918183028	2.1325908	1.4603393
32.49910479650405	2.1514268	1.4667742
32.51736125888683	2.153987	1.4676467
32.53561856956014	2.0911646	1.4460859
32.5538767291058	2.0447042	1.4299315
32.572135738105764	2.020929	1.4215939
32.59039559714228	2.0362308	1.4269656
32.608656306797776	2.0230906	1.4223539
32.62691786765491	1.9425846	1.3937664
32.645180280296586	1.9363158	1.3915156
32.663443545305896	1.9092779	1.3817662
32.68170766326619	1.98979	1.4105991
32.69997263476099	2.0831273	1.4433043
32.7182384603741	2.022984	1.4223164
32.7365051406895	1.8842201	1.372669
32.75477267629144	1.882	1.37186
32.77304106776434	1.9110191	1.3823961
32.79131031569289	1.9145724	1.3836807
32.809580420661966	1.9420711	1.3935821
32.827851383256714	1.9237772	1.387003
32.84612320406245	1.844694	1.3581952
32.86439588366476	1.9294971	1.3890634
32.88266942264945	1.9573098	1.3990389
32.9009438216025	1.9151001	1.3838714
32.9192190811102	1.85117	1.3605771
32.937495201758985	1.915226	1.3839169
32.95577218413556	1.9940239	1.4120991
32.974050028826866	2.0153298	1.4196231
32.992328736420035	2.0274541	1.423887
33.010608307502444	2.0504017	1.4319223
33.02888874266169	1.9660414	1.402156
33.047170042485604	1.9617702	1.400632
33.06545220756225	1.9281602	1.3885821
33.083735238479896	1.8676444	1.3666179
33.10201913582707	1.9128493	1.383058
33.12030390019248	2.0405216	1.4284682
33.138589532165135	2.0281231	1.4241219
33.15687603233419	1.9873002	1.4097164
33.17516340128909	1.95438	1.3979914
33.19345163961947	1.8809199	1.3714664
33.211740747915215	1.8429518	1.3575536
33.23003072676643	1.8186483	1.3485727
33.248321576763466	1.9126867	1.3829992
33.266613298496885	1.9517655	1.397056
33.28490589255747	1.9856725	1.4091389
33.30319935953626	2.0457551	1.4302989
33.32149370002451	2.0951757	1.4474722
33.339788914613706	2.1129177	1.4535879
33.358085003895575	2.1048663	1.4508157
33.376381968462034	2.0518386	1.4324241
33.39467980890529	1.9203451	1.3857652
33.41297852581774	1.8087066	1.3448817
33.43127811979204	1.7689481	1.330018
33.44957859142105	1.8932059	1.3759382
33.467879941297866	2.0526986	1.4327242
33.486182170015844	2.0179338	1.42054
33.50448527816853	1.9311074	1.389643
33.522789266349754	1.9031866	1.3795602
33.541094135153514	1.8767452	1.3699435
33.55939988517411	1.8575037	1.3629026
33.57770651700602	1.8212594	1.3495405
33.59601403124398	1.8421727	1.3572667
33.61432242848296	1.8492037	1.3598543
33.632631709318154	1.9318548	1.3899118
33.650941874344994	1.9485189	1.3958936
33.66925292415916	2.071339	1.4392147
33.68756485935654	2.1030028	1.4501734
33.70587768053328	2.125959	1.4580668
33.724191388285746	1.9766481	1.4059331
33.74250598321054	1.8145329	1.347046
33.760821465904506	1.8267764	1.3515829
33.77913783696474	1.8202991	1.3491846
33.79745509698852	1.9876989	1.4098577
33.815773246573414	2.1203663	1.4561478
33.8340922863172	2.1458724	1.4648796
33.852412216817896	2.1041458	1.4505674
33.87073303867377	2.0610085	1.4356213
33.889054752483304	1.9515097	1.3969644
33.907377358845245	1.9470206	1.3953568
33.92570085835853	1.9267205	1.3880635
33.94402525162239	1.9583304	1.3994036
33.96235053923627	1.957785	1.3992087
33.980676721799824	1.8922606	1.3755946
33.999003799912984	1.8205029	1.3492601
34.01733177417592	1.9680225	1.4028622
34.03566064518901	2.0536406	1.4330529
34.0539904135529	2.1125987	1.4534781
34.07232107986846	2.1260755	1.4581069
34.090652644736785	2.1513946	1.4667633
34.108985108759235	2.1783516	1.475924
34.12731847253742	2.0564377	1.4340285
34.14565273667313	1.9884833	1.4101359
34.16398790176847	1.9913712	1.4111595
34.18232396842574	2.0365283	1.4270699
34.20066093724749	2.1153965	1.4544402
34.21899880883651	2.1582787	1.4691081
34.23733758379583	2.148768	1.4658676
34.25567726272874	2.213427	1.4877591
34.27401784623872	2.1753433	1.4749045
34.29235933492957	1.9784572	1.4065764
34.31070172940526	1.9694995	1.4033886
34.32904503027003	1.9477928	1.3956335
34.347389238128386	1.8858051	1.3732462
34.36573435358502	1.8882667	1.3741422
34.38408037724492	1.8753586	1.3694373
34.402427309713296	1.792388	1.3388009
34.42077515159559	1.8176872	1.3482163
34.43912390349752	1.8976053	1.3775359
34.45747356602499	1.8873315	1.3738018
34.47582413978423	1.7397994	1.3190145
34.49417562538163	1.7388583	1.3186578
34.51252802342388	1.7393929	1.3188604
34.53088133451789	1.9284958	1.3887029
34.54923555927084	2.0998135	1.4490733
34.567590698290104	2.0279577	1.4240638
34.58594675218336	1.9960167	1.4128046
34.6043037215585	2.107209	1.4516228
34.62266160702365	2.0110447	1.4181131
34.641020409187234	1.7981175	1.340939
34.65938012865785	1.8577822	1.3630048
34.677740766044394	2.0777254	1.4414318
34.69610232195598	2.1129637	1.4536037
34.714464797002016	2.114707	1.4542032
34.73282819179208	1.9836895	1.4084351
34.751192506936064	1.8193371	1.3488281
34.76955774304408	1.8990557	1.3780622
34.7879239007265	2.0618503	1.4359144
34.80629098059391	2.152967	1.4672992
34.824658983257194	2.1285334	1.4589494
34.843027909327446	2.0375314	1.4274212
34.86139775941603	1.9991909	1.4139274
34.879768534134534	1.9861202	1.4092978
34.89814023409483	2.018182	1.4206274
34.91651285990901	2.094353	1.4471879
34.93488641218944	2.1841884	1.4779
34.95326089154871	2.2013688	1.4837011
34.97163629859967	2.005872	1.4162881
34.99001263395542	1.9029452	1.3794727
35.00838989822934	1.8405113	1.3566544
35.02676809203499	1.992634	1.4116069
35.04514721598624	1.9663136	1.402253
35.063527270697215	1.8521558	1.3609393
35.081908256782256	1.869739	1.3673841
35.10029017485597	2.0499907	1.4317788
35.11867302553321	2.08403	1.443617
35.137056809429104	1.9061998	1.380652
35.155441527159006	1.7663745	1.3290502
35.173827179338524	1.7718412	1.3311052
35.19221376658354	1.8307401	1.3530484
35.21060128951017	1.9773682	1.4061892
35.2289897487348	2.0447066	1.4299324
35.24737914487405	2.2330167	1.4943281
35.26576947854479	2.2244415	1.4914562
35.28416075036418	2.2779257	1.5092798
35.30255296094958	2.343802	1.530948
35.32094611091867	2.2024608	1.484069
35.33934020088932	1.7698666	1.3303633
35.35773523147969	1.393685	1.1805444
35.3761312033082	1.7465115	1.3215564
35.394528116993506	2.1109843	1.4529227
35.41292597315452	2.018653	1.420793
35.431324772410434	1.8443608	1.3580725
35.449724515380666	1.7640665	1.3281816
35.46812520268491	1.7836736	1.3355424
35.486526834943106	2.2677457	1.5059036
35.504929412775454	2.4328969	1.5597746
35.52333293680242	2.5690956	1.6028398
35.54173740764471	2.2533805	1.5011264
35.560142825923286	1.9777073	1.4063098
35.5785491922594	1.6914679	1.3005644
35.59695650727454	1.6304295	1.2768828
35.61536477159042	1.7820303	1.3349271
