0.008763373481513119	0.0	0.0
0.026290120649546365	0.0	0.0
0.043816868432600686	0.09487429	0.30801672
0.06134361724069026	0.28381622	0.53274405
0.07887036748382949	0.30773208	0.554736
0.0963971195720331	0.28666696	0.5354129
0.11392387391531617	0.1890626	0.4348133
0.1314506309236943	0.16943635	0.41162646
0.1489773910071836	0.18134278	0.4258436
0.16650415457580078	0.17447986	0.41770786
0.18403092203956356	0.14396338	0.37942508
0.20155769380849	0.15226655	0.39021346
0.2190844702925996	0.16401234	0.40498438
0.2366112519019124	0.16691115	0.4085476
0.2541380390464497	0.15721221	0.39649996
0.27166483213623416	0.12684013	0.35614622
0.28919163158128947	0.091652215	0.30274117
0.3067184377916406	0.13435802	0.3665488
0.324245251177314	0.13840754	0.37203163
0.34177207214833777	0.15062681	0.3881067
0.3592989011147415	0.14482455	0.38055822
0.37682573848655654	0.15992184	0.39990228
0.39435258467381573	0.16784042	0.40968332
0.41187944008655414	0.2227263	0.47193888
0.42940630513480854	0.1510812	0.38869166
0.446933180228618	0.12471233	0.35314634
0.4644600657780234	0.105542794	0.3248735
0.48198696219306775	0.10723298	0.32746446
0.49951386988379676	0.1099257	0.33155045
0.5170407892602581	0.13126627	0.36230686
0.5345677207325025	0.13504672	0.36748704
0.5520946647105822	0.16316107	0.403932
0.5696216216045534	0.17729	0.42105818
0.5871485918244737	0.15922736	0.39903304
0.6046755757804043	0.15251708	0.39053434
0.6222025738824094	0.15698493	0.39621323
0.6397295865405557	0.17003156	0.41234884
0.6572566141649129	0.16810131	0.4100016
0.6747836571655547	0.20048821	0.4477591
0.6923107159525568	0.1880984	0.43370312
0.7098377909359992	0.17493458	0.4182518
0.7273648825259653	0.18609226	0.43138412
0.7448919911325411	0.1945029	0.44102484
0.762419117165817	0.21125159	0.45962113
0.7799462610358868	0.18280874	0.4275614
0.7974734231528482	0.1620826	0.40259483
0.8150006039268024	0.17983653	0.42407137
0.8325278037678551	0.22243017	0.47162503
0.8500550230861152	0.2763965	0.52573425
0.8675822622916969	0.23786648	0.48771557
0.8851095217947171	0.24563387	0.49561465
0.9026368020052984	0.22448057	0.4737938
0.9201641033335665	0.24714132	0.4971331
0.9376914261896523	0.28552842	0.5343486
0.9552187709836915	0.2725842	0.522096
0.9727461381258234	0.26251155	0.5123588
0.990273528026193	0.1973334	0.44422224
1.0078009410949496	0.1818643	0.42645553
1.0253283777422473	0.22912577	0.47867084
1.0428558383782454	0.2291055	0.47864968
1.0603833234131086	0.23423417	0.48397744
1.0779108332570058	0.23773786	0.4875837
1.0954383683201119	0.27323103	0.52271503
1.112965929012607	0.30827466	0.5552249
1.1304935157446763	0.43850404	0.6621964
1.1480211289265108	0.48437658	0.69597167
1.1655487689683062	1.4498632	1.2041026
1.1830764362802655	1.8171278	1.3480089
1.200604131272596	2.2092695	1.4863611
1.2181318543555117	2.2724724	1.5074722
1.235659605939232	2.1722388	1.4738517
1.253187386433982	3.7439432	1.9349272
1.270715196249994	6.2745023	2.5048957
1.2882430357975057	11.803812	3.4356675
1.3057709054867608	16.383951	4.0477095
1.3232988057280106	22.199188	4.7116013
1.3408267369315112	27.082466	5.2040815
1.358354699507526	30.626139	5.5340886
1.3758826938663256	34.41316	5.866273
1.3934107204181858	36.037025	6.0030847
1.410938779573391	36.460102	6.03822
1.4284668717422309	36.849865	6.070409
1.4459949973350033	36.692276	6.057415
1.4635231567620117	36.6981	6.0578957
1.4810513504335687	36.14845	6.012358
1.4985795787599925	35.266956	5.9385986
1.5161078421516088	34.840656	5.9025974
1.5336361410187505	34.54556	5.877547
1.5511644757717598	34.75608	5.8954287
1.5686928468209842	35.774918	5.9812136
1.58622125457678	36.083748	6.0069747
1.6037496994495108	37.124573	6.0929937
1.621278181849548	36.84588	6.0700808
1.6388067021872719	37.876995	6.154429
1.6563352608730693	37.397194	6.1153245
1.673863858317336	36.407455	6.0338593
1.6913924949304753	35.337532	5.944538
1.7089211711228998	34.254345	5.852721
1.7264498873050296	33.58754	5.795476
1.7439786438872935	32.591064	5.7088585
1.7615074412801288	31.50646	5.6130614
1.779036279893981	30.62139	5.5336595
1.796565160139305	29.62313	5.4427137
1.814094082426564	29.325209	5.4152756
1.8316230471662298	28.964043	5.3818254
1.849152054768784	28.417372	5.330795
1.8666811056447168	27.831816	5.2755866
1.8842102002045273	26.921362	5.18858
1.901739338858724	26.25176	5.123647
1.9192685220178245	25.356459	5.0355196
1.9367977500923557	24.469105	4.9466257
1.9543270234928547	23.90275	4.889044
1.971856342629867	23.422739	4.8397045
1.9893857079139496	22.964554	4.792135
2.006915119755667	22.354317	4.728035
2.0244445785655945	21.872553	4.6768103
2.0419740847543175	21.300365	4.615232
2.0595036387324317	21.136913	4.59749
2.0770332409105414	20.517624	4.5296383
2.094562891699263	20.27027	4.5022516
2.1120925915092217	19.76509	4.4457946
2.129622340751053	19.568443	4.423623
2.1471521398354043	187.62352	13.697574
2.1646819891729323	443.95267	21.070185
2.182211889174303	440.1947	20.980818
2.1997418402501974	452.6796	21.276268
2.2172718428113023	432.6596	20.800472
2.234801897268317	320.5431	17.903717
2.2523320040319548	17.010326	4.1243577
2.269862163512935	16.65992	4.0816565
2.287392376121992	16.38688	4.0480714
2.304922642269869	15.948644	3.9935753
2.322452962367322	15.656181	3.9567893
2.3399833368251164	15.407161	3.9251957
2.357513766054032	15.62905	3.9533594
2.3750442504648586	15.248408	3.904921
2.3925747904683963	15.081256	3.8834593
2.410105386475459	14.618538	3.8234196
2.4276360388968707	14.331972	3.7857592
2.445166748143469	14.035625	3.746415
2.4626975146261025	13.734718	3.706038
2.4802283387556323	13.397736	3.6602917
2.4977592209429305	13.171988	3.6293232
2.5152901615988825	12.945973	3.5980513
2.5328211611343865	12.962961	3.6004112
2.5503522199603523	12.752874	3.5711167
2.5678833384877024	12.49693	3.5350997
2.5854145171273712	12.126389	3.4822965
2.6029457562903064	11.963678	3.4588552
2.620477056387469	11.754315	3.4284568
2.6380084178298326	11.745173	3.4271233
2.655539841028383	11.573014	3.4019134
2.673071326394119	11.459792	3.3852315
2.6906028743380523	11.030415	3.3212068
2.708134485271211	10.666323	3.2659338
2.7256661596046325	10.56599	3.250537
2.743197897749369	10.543555	3.2470841
2.760729700116486	10.543688	3.2471046
2.778261567117063	10.454357	3.2333198
2.795793499162193	10.167365	3.1886306
2.8133254966629817	9.898429	3.1461768
2.830857560030551	9.6802225	3.1113057
2.8483896896760337	9.505137	3.0830402
2.865921886010578	9.425954	3.0701716
2.883454149445347	9.326051	3.0538583
2.9009864803915177	9.403712	3.0665474
2.91851887926028	9.317051	3.0523844
2.9360513464628384	9.194346	3.032218
2.953583882410413	9.009483	3.0015802
2.9711164875142373	8.826527	2.970947
2.9886491621855606	8.669515	2.944404
3.0061819068356455	8.533338	2.9211876
3.023714721875769	8.460582	2.9087079
3.041247607717225	8.279302	2.8773775
3.0587805647713213	8.102996	2.8465762
3.0763135934493806	8.04275	2.8359742
3.0938466941627407	7.961844	2.8216739
3.1113798673227544	7.885606	2.8081322
3.1289131133407904	7.870583	2.805456
3.1464464326282315	7.8418384	2.8003283
3.1639798255964786	7.876978	2.8065953
3.1815132926569443	7.644169	2.764809
3.1990468342210603	7.5814505	2.7534435
3.216580450700272	7.443634	2.7283025
3.2341141425060416	7.5065837	2.7398145
3.251647910049847	7.404616	2.7211423
3.2691817537431813	7.3452463	2.7102115
3.286715673997555	7.2134447	2.6857858
3.3042496712244938	7.0730133	2.6595137
3.32178374583554	7.0072327	2.6471179
3.339317898242251	6.907552	2.6282222
3.3568521288562034	6.7157035	2.5914674
3.3743864380889876	6.6954484	2.5875564
3.3919208263522127	6.6854973	2.5856328
3.4094552940575023	6.680747	2.5847142
3.4269898416164972	6.595837	2.568236
3.444524469440858	6.4851913	2.546604
3.4620591779422587	6.3614287	2.5221872
3.479593967532391	6.345087	2.5189457
3.4971288386229658	6.3069797	2.5113702
3.5146637916257086	6.4078937	2.5313818
3.5321988269523628	6.3075814	2.5114899
3.5497339450146903	6.2316422	2.4963257
3.5672691462244708	6.143581	2.4786248
3.5848044309934988	6.1813607	2.4862342
3.60233979973359	6.20521	2.491026
3.619875252856575	6.190338	2.488039
3.6374107907743034	6.1257725	2.4750297
3.6549464138986427	6.227302	2.4954562
3.6724821226414788	6.1571183	2.4813542
3.690017917414714	6.138044	2.4775076
3.7075537986302702	6.086966	2.4671776
3.7250897667000857	6.1193094	2.473724
3.7426258220361235	6.327954	2.5155425
3.7601619650503553	6.6943774	2.5873494
3.777698196154779	7.201865	2.683629
3.7952345157614067	8.347486	2.8892016
3.8127709242822716	9.166516	3.0276256
3.830307422129425	11.4029045	3.3768187
3.847844009714936	12.715019	3.5658126
3.8653806874508954	16.006868	4.0008583
3.882917455749409	15.633763	3.9539554
3.900454315022606	15.58832	3.9482045
3.917991265682631	12.521559	3.5385814
3.9355283081416506	10.551795	3.2483528
3.9530654428118495	8.444446	2.905933
3.970602670105433	7.3419814	2.709609
3.9881399904346244	6.5710917	2.563414
4.005677404211669	6.4613476	2.541918
4.023214911848827	6.3668013	2.523252
4.0407525137583855	6.442058	2.538121
4.058290210352644	6.4236274	2.5344875
4.075828002043927	6.428463	2.5354414
4.0933658892445814	6.405518	2.5309124
4.110903872366966	6.3451834	2.5189648
4.128441951823468	6.3089585	2.511764
4.145980128026488	6.2160044	2.4931917
4.163518401388452	6.0576572	2.4612308
4.181056772321807	5.9722104	2.4438107
4.1985952412390155	6.014245	2.4523957
4.216133808552567	6.0890536	2.4676008
4.233672474674966	6.306788	2.5113318
4.251211240018741	6.4670105	2.5430317
4.268750104996445	6.6835966	2.5852654
4.286289070020643	7.6332498	2.7628336
4.303828135503928	9.323288	3.053406
4.3213673018589125	29.54474	5.4355073
4.3389065694982305	90.74155	9.525836
4.356445938834537	165.73978	12.873996
4.3739854102805085	171.17892	13.083536
4.391524984248844	172.04672	13.116658
4.409064661152262	136.12952	11.667456
4.426604441403504	96.6678	9.831979
4.444144325415337	75.791626	8.705838
4.461684313600543	21.855005	4.674934
4.47922440637193	22.116549	4.7028236
4.496764604142329	20.379547	4.5143714
4.5143049073245916	18.662006	4.3199544
4.531845316331589	16.559366	4.06932
4.5493858315762195	13.642901	3.6936297
4.566926453471405	11.195319	3.3459406
4.584467182430081	8.940179	2.9900131
4.602008018865218	7.9187813	2.814033
4.619548963189798	7.2941194	2.7007627
4.637090015816834	6.879429	2.6228666
4.654631177159353	6.6084743	2.5706954
4.672172447630417	6.3339353	2.516731
4.689713827643102	6.230068	2.4960105
4.7072553176105085	6.0544586	2.460581
4.724796917945764	5.861645	2.4210835
4.742338629062015	5.6858783	2.384508
4.759880451372434	5.57486	2.3611143
4.777422385290215	5.473948	2.339647
4.794964431228581	5.4815807	2.3412776
4.812506589600768	5.502246	2.3456867
4.830048860820047	5.5159492	2.3486059
4.847591245299709	5.513801	2.3481483
4.8651337434530655	5.5124855	2.3478682
4.882676355693457	5.5451703	2.3548186
4.900219082434242	5.593971	2.3651576
4.917761924088813	5.573892	2.3609092
4.935304881070575	5.5828233	2.3628
4.952847953792969	5.578185	2.361818
4.970391142669449	5.48154	2.341269
4.9879344481135055	5.4465656	2.333788
5.005477870538642	5.3821964	2.319956
5.023021410358394	5.397068	2.323159
5.040565067986324	5.413528	2.326699
5.05810884383601	5.3947935	2.3226695
5.075652738321066	5.3496904	2.31294
5.09319675185512	5.306671	2.3036213
5.110740884851836	5.2537284	2.2921014
5.128285137724894	5.2452803	2.2902577
5.145829510888007	5.290197	2.3000429
5.163374004754908	5.345099	2.311947
5.1809186197393595	5.2991886	2.3019967
5.198463356255145	5.2378793	2.2886415
5.216008214716077	5.2095904	2.2824528
5.233553195535998	5.148235	2.2689722
5.251098299128764	5.1446304	2.2681777
5.268643525908272	5.1226625	2.26333
5.286188876288432	5.1312547	2.2652273
5.3037343506831895	5.17505	2.2748735
5.32127994950651	5.1918955	2.278573
5.3388256731723915	5.277599	2.2973025
5.356371522094851	5.2567554	2.2927616
5.373917496687938	5.287679	2.2994955
5.391463597365729	5.27313	2.2963297
5.40900982454232	5.284398	2.2987819
5.426556178631843	5.2327085	2.2875113
5.444102660048449	5.2410917	2.289343
5.4616492692063225	5.2324467	2.2874541
5.479196006519669	5.179863	2.2759311
5.496742872402727	5.1423063	2.2676654
5.514289867269756	5.1261225	2.264094
5.531836991535049	5.1042423	2.259257
5.549384245612924	5.0332937	2.2435002
5.566931629917724	5.0679502	2.251211
5.584479144863822	5.0940456	2.2569993
5.6020267908656205	5.103951	2.2591925
5.619574568337545	5.0913043	2.2563918
5.637122477694054	5.0497766	2.2471707
5.654670519349629	5.162556	2.272126
5.672218693718784	5.1910486	2.2783873
5.689767001216059	5.1964984	2.279583
5.707315442256021	5.140222	2.2672057
5.724864017253266	5.1082263	2.2601385
5.7424127266224225	5.1379337	2.266701
5.75996157077814	5.1699967	2.2737627
5.777510550135105	5.0995374	2.2582154
5.795059665108022	5.082431	2.2544248
5.812608916111639	5.0719404	2.252097
5.830158303560715	5.1863723	2.277361
5.847707827870055	5.2023854	2.2808738
5.86525748945448	5.303224	2.302873
5.8828072887288485	5.502246	2.3456867
5.900357226108044	5.6224422	2.3711689
5.917907302006979	5.668693	2.3809018
5.9354575168406	6.2298536	2.4959674
5.9530078710238765	6.8155646	2.6106637
5.970558364971812	7.400351	2.7203586
5.988108999099438	7.708142	2.776354
6.005659773821818	8.256346	2.8733857
6.023210689554039	7.974866	2.8239806
6.040761746711227	8.394748	2.8973691
6.058312945708531	7.738194	2.781761
6.075864286961132	7.254402	2.6933997
6.093415770884244	6.601268	2.5692933
6.1109673978931065	6.060108	2.4617288
6.128519168402993	5.52699	2.350955
6.146071082829204	5.382171	2.3199506
6.163623141587075	5.326587	2.30794
6.181175345091969	5.25213	2.2917526
6.198727693759281	5.129974	2.2649446
6.216280188004435	5.0446844	2.2460375
6.233832828242885	5.0330973	2.2434566
6.251385614890126	5.175982	2.2750785
6.268938548361669	5.2211075	2.2849743
6.286491629073067	5.2183886	2.2843792
6.304044857439898	5.169942	2.2737505
6.321598233877777	5.112052	2.2609847
6.339151758802344	5.027546	2.242219
6.356705432629277	4.964224	2.2280538
6.37425925577428	4.907425	2.2152708
6.391813228653095	4.886501	2.2105432
6.409367351681486	4.8950076	2.2124665
6.426921625275259	4.902607	2.214183
6.44447604985025	5.011074	2.2385428
6.46203062582232	5.060295	2.24951
6.47958535360737	5.041921	2.2454224
6.497140233621328	4.982988	2.2322607
6.514695266280161	4.9421806	2.2231016
6.532250451999859	4.932042	2.2208202
6.549805791196454	4.930236	2.2204134
6.567361284286002	4.999035	2.2358522
6.584916931684597	5.0300603	2.2427795
6.602472733808367	5.074209	2.2526004
6.6200286910734665	5.0005007	2.2361798
6.637584803896092	4.9221134	2.2185836
6.655141072692462	4.8429303	2.200666
6.672697497878842	4.8815446	2.2094219
6.690254079871514	4.9295807	2.2202659
6.707810819086808	4.9525084	2.225423
6.725367715941078	4.963095	2.2278006
6.742924770850719	4.90503	2.2147303
6.760481984232151	4.9091797	2.2156668
6.778039356501836	4.8639297	2.205432
6.795596888076266	4.9164352	2.2173035
6.813154579371963	4.914269	2.216815
6.830712430805492	4.9996815	2.2359967
6.84827044279344	5.040457	2.2450962
6.865828615752445	5.0920305	2.2565527
6.883386950099159	5.019887	2.2405105
6.900945446250287	4.962154	2.2275894
6.918504104622553	4.9602137	2.2271538
6.936062925632727	4.9813485	2.2318935
6.953621909697607	4.9810634	2.2318296
6.971181057234028	5.055049	2.2483437
6.988740368658859	5.109954	2.2605207
7.006299844389007	5.204282	2.2812896
7.023859484841407	5.237979	2.2886631
7.041419290433036	5.2455764	2.2903223
7.058979261580902	5.368764	2.3170593
7.0765393987020495	5.5554876	2.3570082
7.094099702213559	5.9421735	2.4376574
7.111660172532549	6.3426914	2.51847
7.129220810076164	6.739026	2.5959635
7.146781615261595	7.3604655	2.7130177
7.16434258850606	7.5853214	2.7541463
7.181903730226821	7.9767756	2.8243186
7.1994650408411704	8.017979	2.8316035
7.217026520766437	8.152945	2.8553362
7.234588170419983	8.441584	2.9054403
7.252149990219215	8.51732	2.9184446
7.269711980581568	8.428021	2.9031055
7.2872741419245175	8.153579	2.8554473
7.304836474665574	7.722762	2.7789857
7.322398979222286	7.383543	2.7172675
7.339961656012233	7.1264887	2.6695485
7.357524505453039	6.755776	2.5991876
7.375087527962357	6.5013657	2.5497775
7.392650723957886	6.202288	2.4904394
7.410214093857353	5.9290648	2.434967
7.427777638078528	5.7151685	2.390642
7.445341357039213	5.444914	2.3334339
7.4629052511572525	5.3082767	2.3039699
7.480469320850524	5.299459	2.3020554
7.498033566536948	5.336056	2.3099906
7.5155979886344735	5.262364	2.2939842
7.5331625875610975	5.1756263	2.2750003
7.550727363734844	5.1307783	2.2651222
7.568292317573788	5.143915	2.2680202
7.585857449496025	5.1328387	2.2655768
7.603422759919705	5.1783223	2.2755928
7.620988249263007	5.2105074	2.2826536
7.638553917944147	5.2221184	2.2851956
7.656119766381391	5.168497	2.273433
7.673685794993023	5.06869	2.2513752
7.691252004197388	5.1426544	2.2677422
7.70881839441285	5.1553774	2.2705457
7.726384966057826	5.1971517	2.2797263
7.743951719550762	5.1153135	2.2617059
7.761518655310149	5.1170964	2.2621
7.779085773754511	5.205331	2.2815194
7.796653075302419	5.2790804	2.297625
7.814220560372475	5.2753725	2.296818
7.831788229383323	5.2120523	2.282992
7.8493560827536495	5.1601496	2.2715962
7.866924120902174	5.168125	2.2733512
7.884492344247663	5.218529	2.28441
7.9020607532089135	5.2989097	2.3019361
7.919629348204771	5.3513675	2.3133023
7.937198129654115	5.440536	2.3324957
7.954767097975865	5.4260917	2.3293972
7.972336253588986	5.387015	2.3209944
7.989905596912472	5.391646	2.3219917
8.007475128365371	5.4209943	2.3283029
8.025044848366756	5.479244	2.3407786
8.042614757335754	5.5530415	2.3564892
8.060184855691523	5.606317	2.3677661
8.07775514385327	5.745754	2.39703
8.095325622240228	5.812714	2.410957
8.112896291271687	5.848063	2.4182768
8.130467151366968	5.8968163	2.4283361
8.148038202945436	5.9039984	2.4298146
8.165609446426497	5.876092	2.424065
8.183180882229594	5.9192243	2.4329455
8.200752510774217	5.925499	2.4342349
8.218324332479893	5.8985214	2.428687
8.235896347766193	5.8942294	2.4278035
8.253468557052724	5.8604913	2.4208453
8.27104096075914	5.811131	2.4106288
8.288613559305137	5.862285	2.4212155
8.306186353110448	5.9097676	2.4310014
8.32375934259485	6.0339494	2.45641
8.341332528178162	6.1130614	2.4724605
8.358905910280246	6.207852	2.4915562
8.376479489321003	6.217206	2.4934325
8.394053265720377	6.1932087	2.4886158
8.411627239898356	6.1745586	2.484866
8.42920141227497	6.176762	2.4853094
8.44677578327029	6.1897235	2.4879155
8.464350353304427	6.131333	2.476153
8.48192512279754	6.1139274	2.4726357
8.499500092169827	6.098508	2.4695158
8.51707526184153	6.103652	2.470557
8.534650632232934	6.14293	2.4784935
8.552226203764365	6.1587615	2.4816852
8.569801976856192	6.1852527	2.487017
8.587377951928834	6.220525	2.494098
8.60495412940274	6.2704535	2.5040874
8.622530509698416	6.282187	2.5064292
8.6401070932364	6.387649	2.52738
8.657683880437283	6.520656	2.5535576
8.675260871721695	6.7119026	2.590734
8.692838067510303	6.88021	2.6230154
8.710415468223834	7.11017	2.66649
8.727993074283043	7.2104716	2.6852322
8.745570886108737	7.232002	2.689238
8.763148904121765	7.202991	2.6838388
8.78072712874302	7.1501803	2.6739821
8.798305560393441	7.407284	2.7216325
8.815884199494006	7.589851	2.7549684
8.833463046465745	7.704288	2.77566
8.851042101729728	7.8176684	2.7960093
8.86862136570707	8.194065	2.8625278
8.886200838818924	8.432167	2.9038193
8.903780521486505	8.513385	2.9177706
8.921360414131055	8.5384245	2.9220583
8.938940517173874	8.628887	2.9374967
8.956520831036297	8.798468	2.966221
8.97410135613971	9.064585	3.0107448
8.99168209290554	9.194974	3.0323215
9.009263041755265	9.454853	3.0748744
9.026844203110405	9.679381	3.1111705
9.044425577392525	9.790103	3.128914
9.062007165023239	9.808814	3.1319027
9.079588966424197	10.021683	3.1657043
9.097170982017108	10.196461	3.1931899
9.11475321222372	11.135869	3.337045
9.132335657465825	12.005611	3.4649115
9.149918318165264	12.106461	3.479434
9.167501194743924	12.661773	3.5583384
9.18508428762374	12.4541	3.5290368
9.202667597226693	12.440077	3.5270493
9.220251123974803	12.151807	3.4859443
9.237834868290143	11.778278	3.4319496
9.255418830594836	11.542828	3.3974738
9.273003011311046	11.05746	3.325276
9.290587410860985	10.895483	3.3008306
9.308172029666911	10.314249	3.2115805
9.32575686815113	10.05533	3.171014
9.343341926735997	8.766224	2.9607809
9.360927205843916	8.588988	2.9306977
9.378512705897327	8.337958	2.8875523
9.396098427318728	8.137575	2.8526435
9.413684370530664	8.017607	2.831538
9.431270535955722	7.8767505	2.8065548
9.448856924016539	7.886967	2.8083744
9.466443535135806	7.7705035	2.7875624
9.484030369736251	7.8293095	2.7980902
9.501617428240658	7.8108077	2.7947822
9.519204711071852	7.7725344	2.7879264
9.536792218652714	7.761225	2.7858975
9.55437995140617	7.7810493	2.7894533
9.571967909755191	7.8097363	2.7945905
9.589556094122802	7.855104	2.8026958
9.60714450493207	7.8359046	2.7992685
9.624733142606116	7.9168525	2.8136902
9.642322007568108	7.950281	2.8196242
9.659911100241267	8.037359	2.8350236
9.677500421048851	8.009509	2.8301077
9.695089970414175	7.98328	2.82547
9.712679748760609	7.991418	2.8269095
9.730269756511557	8.061122	2.8392115
9.747859994090492	8.151809	2.8551373
9.765450461920915	8.255795	2.8732898
9.78304116042639	8.301468	2.8812268
9.800632090030527	8.358466	2.8911011
9.81822325115699	8.335439	2.887116
9.835814644229481	8.258278	2.873722
9.853406269671762	8.200393	2.8636327
9.870998127907646	8.216421	2.86643
9.888590219360985	8.228409	2.8685203
9.906182544455698	8.1887665	2.861602
9.923775103615734	8.141679	2.8533628
9.941367897265108	8.140442	2.853146
9.958960925827878	8.242986	2.8710601
9.97655418972816	8.305567	2.881938
9.994147689390106	8.333216	2.886731
10.011741425237934	8.270627	2.8758698
10.029335397695904	8.178387	2.859788
10.04692960718833	8.148833	2.8546162
10.06452405413958	8.205028	2.8644419
10.082118738974064	8.187889	2.8614488
10.099713662116246	8.199514	2.8634794
10.117308823990651	8.236505	2.8699312
10.134904225021844	8.2905035	2.8793235
10.152499865634445	8.30755	2.8822823
10.170095746253125	8.231033	2.8689778
10.18769186730261	8.15546	2.8557765
10.205288229207675	8.053022	2.8377848
10.222884832393145	7.973773	2.823787
10.2404816772839	8.007287	2.829715
10.258078764304868	8.059968	2.8390083
10.275676093881035	8.1280985	2.850982
10.293273666437438	8.098628	2.8458087
10.310871482399158	8.086561	2.843688
10.32846954219134	8.06434	2.8397782
10.346067846239173	8.073827	2.841448
10.363666394967908	8.060141	2.8390386
10.38126518880283	7.997893	2.8280547
10.398864228169298	8.028896	2.8335307
10.416463513492713	8.157965	2.856215
10.434063045198531	8.203324	2.8641446
10.451662823712262	8.274834	2.876601
10.469262849459467	8.248522	2.872024
10.486863122865758	8.083638	2.843174
10.504463644356806	8.048147	2.8369257
10.522064414358338	7.8846593	2.8079636
10.539665433296118	7.8551927	2.8027117
10.557266701595987	7.8390946	2.7998383
10.574868219683818	7.7698193	2.7874396
10.592469987985552	7.6616397	2.7679667
10.610072006927185	7.515489	2.7414393
10.627674276934751	7.3738627	2.7154858
10.64527679843435	7.260379	2.694509
10.662879571852143	7.1942506	2.68221
10.680482597614331	7.151623	2.6742518
10.698085876147173	7.1044197	2.6654117
10.715689407876988	7.0387406	2.6530626
10.733293193230146	6.9874263	2.643374
10.750897232633072	6.7916007	2.60607
10.76850152651225	6.612196	2.571419
10.786106075294207	6.502975	2.5500932
10.803710879405534	6.4624257	2.5421302
10.821315939272877	6.4747977	2.5445623
10.83892125532294	6.3471246	2.51935
10.856526827982472	6.2987638	2.509734
10.874132657678285	6.299577	2.5098958
10.891738744837243	6.278258	2.5056453
10.909345089886271	6.22136	2.4942656
10.926951693252343	6.168251	2.4835963
10.944558555362494	6.0985155	2.4695172
10.96216567664381	5.983953	2.446212
10.979773057523436	5.867641	2.4223213
10.997380698428573	5.7642875	2.400893
11.014988599786477	5.754753	2.3989067
11.032596762024461	5.682426	2.383784
11.050205185569892	5.5698013	2.3600426
11.067813870850198	5.4900045	2.343076
11.085422818292859	5.461768	2.3370426
11.10303202832541	5.4931192	2.3437405
11.120641501375454	5.4435024	2.3331316
11.138251237870636	5.408115	2.3255353
11.155861238238671	5.3763604	2.318698
11.173471502907317	5.287511	2.2994587
11.191082032304402	5.196098	2.279495
11.208692826857805	5.117048	2.2620893
11.226303886995465	5.095952	2.2574215
11.243915213145371	5.099534	2.2582147
11.261526805735578	5.0358386	2.2440674
11.279138665194196	4.9248304	2.2191958
11.296750791949393	4.8505154	2.2023885
11.314363186429393	4.7676973	2.1835058
11.331975849062479	4.7528152	2.1800952
11.34958878027699	4.7005773	2.1680815
11.36720198050133	4.667397	2.160416
11.384815450163948	4.6050515	2.1459384
11.402429189693366	4.553963	2.1340017
11.420043199518153	4.4661913	2.1133366
11.437657480066942	63.365993	7.960276
11.455272031768422	85.08019	9.223892
11.472886855051353	107.52469	10.369411
11.490501950344528	99.16674	9.95825
11.508117318076819	84.50349	9.192577
11.52573295867715	45.88033	6.773502
11.543348872574514	4.175062	2.0432968
11.560965060197946	4.121283	2.0300944
11.57858152197655	4.0927887	2.0230641
11.59619825833949	4.0792	2.019703
11.613815269715985	4.0447154	2.0111477
11.631432556535323	38.537117	6.207827
11.649050119226837	83.05091	9.113227
11.666667958219929	93.447136	9.666806
11.68428607394406	107.716774	10.378669
11.701904466828756	82.51376	9.083709
11.719523137303586	65.340454	8.083344
11.737142085798196	4.571428	2.1380897
11.754761312742286	3.6965961	1.9226534
11.772380818565619	3.6890585	1.9206922
11.790000603698015	3.656409	1.9121739
11.80762066856935	3.5851138	1.8934397
11.825241013609572	3.5644345	1.887971
11.842861639248683	3.573437	1.8903537
11.860482545916748	3.5753124	1.8908496
11.878103734043883	3.5205758	1.8763198
11.895725204060282	3.4236073	1.8502992
11.91334695639619	3.3914406	1.8415865
11.930968991481919	3.4071157	1.8458374
11.948591309747824	3.361132	1.833339
11.966213911624347	3.340233	1.8276304
11.98383679754198	3.2772017	1.8103043
12.001459967931268	3.3128657	1.820128
12.019083423222835	3.3329785	1.8256447
12.036707163847352	3.296454	1.815614
12.05433119023556	3.246933	1.8019248
12.071955502818259	3.2118762	1.7921708
12.089580102026313	3.2022343	1.7894788
12.107204988290643	3.1508906	1.7750748
12.12483016204224	3.0854645	1.756549
12.142455623712152	3.0413253	1.7439396
12.16008137373149	3.0563083	1.74823
12.177707412531431	3.0773644	1.7542418
12.19533374054321	3.0844867	1.7562706
12.212960358198126	3.0677063	1.7514869
12.230587265927545	3.0360117	1.7424154
12.248214464162889	2.9781759	1.7257392
12.265841953335649	2.9643934	1.7217414
12.283469733877375	2.9594297	1.7202994
12.301097806219685	2.9487789	1.7172009
12.31872617079425	2.9163773	1.7077404
12.336354828032825	2.8992429	1.7027164
12.353983778367205	2.9124393	1.7065871
12.371613022229262	2.9226253	1.7095687
12.389242560050928	2.9236794	1.709877
12.406872392264201	2.8729334	1.694973
12.424502519301143	2.8401835	1.6852844
12.442132941593874	2.826856	1.6813257
12.459763659574586	2.8526163	1.688969
12.477394673675532	2.8896155	1.6998869
12.49502598432903	2.8776455	1.6963624
12.51265759196746	2.8266182	1.681255
12.530289497023267	2.7924535	1.6710635
12.547921699928967	2.7593734	1.6611362
12.565554201117134	2.7485006	1.6578603
12.583187001020404	2.7696724	1.6642333
12.600820100071486	2.764007	1.6625303
12.618453498703152	2.7857225	1.6690484
12.636087197348235	2.7517684	1.6588455
12.65372119643964	2.7602434	1.661398
12.671355496410326	2.7520132	1.6589193
12.68899009769333	2.8038454	1.6744686
12.706625000721749	2.8278422	1.6816189
12.724260205928752	2.9164114	1.7077504
12.741895713747551	2.9475453	1.7168417
12.759531524611454	2.980832	1.7265086
12.777167638953818	2.9459076	1.7163646
12.794804057208072	2.9856777	1.7279114
12.812440779807702	3.0501354	1.7464637
12.830077807186271	3.192829	1.7868489
12.847715139777405	3.2131848	1.7925359
12.865352778014795	3.3859606	1.840098
12.882990722332197	3.5128396	1.8742571
12.90062897316344	3.61671	1.901765
12.918267530942412	3.7104304	1.9262477
12.935906396103071	3.596807	1.896525
12.953545569079449	3.6700666	1.9157418
12.971185050305628	3.4584339	1.8596865
12.988824840215775	3.5145116	1.874703
13.006464939244115	3.5799737	1.8920819
13.024105347824943	3.4707646	1.8629988
13.041746066392617	3.5327792	1.8795689
13.05938709538157	3.3477957	1.8296982
13.077028435226296	3.3526268	1.831018
13.094670086361363	3.2674985	1.8076223
13.112312049221401	3.180269	1.7833309
13.129954324241112	3.0495455	1.7462949
13.147596911855258	2.8536556	1.6892767
13.165239812498685	2.8554015	1.6897933
13.182883026606293	2.8148015	1.677737
13.200526554613058	2.7772503	1.6665084
13.218170396954017	2.7009885	1.6434685
13.235814554064284	2.725184	1.6508131
13.253459026379034	2.7127244	1.647035
13.271103814333523	2.700171	1.6432197
13.288748918363058	2.6800346	1.6370811
13.306394338903031	2.6877232	1.6394277
13.32404007638889	2.6697009	1.633922
13.341686131256164	2.6577876	1.6302723
13.359332503940449	2.6350734	1.6232909
13.376979194877402	2.641748	1.6253455
13.394626204502751	2.7129922	1.6471163
13.412273533252307	2.745464	1.6569442
13.429921181561937	2.7549999	1.6598192
13.447569149867581	2.7362206	1.6541525
13.465217438605247	2.7038498	1.6443387
13.482866048211022	2.6685705	1.633576
13.500514979121052	2.6456146	1.6265346
13.518164231771568	2.6278086	1.6210517
13.535813806598844	2.626458	1.620635
13.553463704039254	2.6569593	1.6300182
13.571113924529229	2.6856732	1.6388024
13.588764468505275	2.690672	1.6403267
13.606415336403956	2.7173107	1.6484268
13.624066528661917	2.747618	1.6575941
13.641718045715882	2.794517	1.6716809
13.659369888002635	2.794709	1.6717383
13.67702205595903	2.8207464	1.6795077
13.694674550021993	2.9320848	1.7123332
13.712327370628532	3.0119634	1.7355009
13.729980518215713	3.1094334	1.7633586
13.747633993220681	3.1828194	1.7840458
13.765287796080647	3.2537148	1.8038056
13.7829419272329	3.2494323	1.8026181
13.800596387114801	3.2860427	1.8127445
13.818251176163775	3.285477	1.8125885
13.835906294817324	3.3462193	1.8292674
13.853561743513023	3.3697731	1.8356942
13.871217522688525	3.3989835	1.8436332
13.888873632781538	3.4154348	1.8480895
13.906530074229858	3.4884028	1.8677267
13.92418684747135	3.5268476	1.8779904
13.941843952943948	3.507021	1.8727041
13.959501391085665	3.4718604	1.8632929
13.977159162334578	3.3953886	1.842658
13.994817267128846	3.373124	1.8366066
14.012475705906693	3.2813404	1.811447
14.030134479106424	3.1909232	1.7863156
14.047793587166414	3.0982616	1.760188
14.065453030525108	3.044514	1.7448536
14.083112809621026	2.9716845	1.7238574
14.100772924892766	2.8994522	1.7027777
14.118433376778997	2.8659651	1.6929162
14.136094165718458	2.8446646	1.6866133
14.153755292149969	2.8246713	1.6806759
14.171416756512416	2.7633648	1.6623372
14.189078559244768	2.7001812	1.6432228
14.20674070078606	2.631991	1.6223412
14.224403181575408	2.618716	1.6182448
14.242066002051999	2.5739524	1.6043543
14.259729162655093	2.5287328	1.590199
14.277392663824022	2.445716	1.5638785
14.295056505998208	2.4036891	1.5503836
14.312720689617128	2.4137423	1.5536224
14.330385215120348	2.418444	1.5551347
14.348050082947497	2.4256523	1.5574505
14.3657152935383	2.4227474	1.5565177
14.383380847332528	2.418748	1.5552324
14.401046744770051	2.4062822	1.5512196
14.418712986290798	2.3977356	1.5484624
14.436379572334793	2.4069142	1.5514233
14.454046503342123	2.4176807	1.5548893
14.471713779752946	2.4177673	1.5549171
14.489381402007504	2.4558735	1.5671227
14.507049370546113	2.4409628	1.5623581
14.524717685809168	2.4402232	1.5621214
14.542386348237134	2.4361472	1.5608162
14.560055358270553	2.4447744	1.5635774
14.577724716350051	2.4437706	1.5632564
14.595394422916325	2.427636	1.5580872
14.61306447841015	2.4303699	1.5589644
14.63073488327237	2.443798	1.5632652
14.648405637943917	2.4593425	1.5682291
14.6660767428658	2.4417613	1.5626136
14.683748198479094	2.4918342	1.5785545
14.701420005224954	2.5641763	1.6013045
14.719092163544628	2.6470199	1.6269665
14.73676467387942	2.6777642	1.6363876
14.754437536670727	2.6821666	1.6377321
14.772110752360014	2.7278657	1.6516252
14.78978432138882	2.725771	1.6509908
14.807458244198777	2.718456	1.6487741
14.82513252123159	2.6623976	1.6316855
14.842807152929028	2.6720967	1.6346549
14.860482139732962	2.6567366	1.6299499
14.87815748208531	2.6410065	1.6251174
14.8958331804281	2.6661055	1.6328213
14.91350923520342	2.656429	1.6298555
14.931185646853438	2.6526299	1.6286896
14.948862415820408	2.6252875	1.620274
14.966539542546656	2.6535318	1.6289665
14.98421702747459	2.657956	1.6303239
15.001894871046696	2.6703439	1.6341187
15.019573073705542	2.655821	1.6296691
15.037251635893766	2.6435866	1.625911
15.054930558054092	2.667182	1.6331509
15.072609840629323	2.6843297	1.6383924
15.090289484062351	2.7887158	1.6699449
15.107969488796124	2.9031572	1.7038654
15.125649855273691	3.1204982	1.7664932
15.14333058393817	3.5143378	1.8746567
15.161011675232768	4.0802107	2.0199533
15.17869312960076	4.677692	2.1627972
15.196374947485506	5.3312354	2.3089468
15.214057129330447	6.6676598	2.5821812
15.231739675579114	8.900381	2.9833508
15.249422586675102	13.59332	3.686912
15.267105863062092	18.150211	4.2603064
15.284789505183847	25.482653	5.0480347
15.302473513484218	30.51626	5.5241523
15.320157888407127	34.47424	5.8714767
15.337842630396578	33.054226	5.7492805
15.355527739896656	29.984898	5.475847
15.37321321735153	23.347466	4.8319216
15.39089906320545	15.907681	3.9884434
15.408585277902748	10.239679	3.19995
15.42627186188783	6.395596	2.5289516
15.443958815605198	4.635964	2.1531289
15.461646139499424	3.7696507	1.9415588
15.479333834015168	3.3340635	1.8259418
15.497021899597165	3.0438402	1.7446605
15.514710336690234	2.795179	1.6718788
15.53239914573928	2.6748626	1.6355007
15.550088327189297	2.5780122	1.605619
15.567777881485336	2.5770288	1.6053127
15.58546780907256	2.5598273	1.599946
15.6031581103962	2.550357	1.5969838
15.620848785901568	2.5139706	1.5855505
15.638539836034063	2.4982483	1.5805848
15.656231261239173	2.5044198	1.5825359
15.673923061962451	2.4592888	1.568212
15.691615238649552	2.4366229	1.5609685
15.709307791746202	2.4080338	1.551784
15.727000721698221	2.4115386	1.552913
15.744694028951498	2.4363186	1.5608711
15.76238771395202	2.407219	1.5515215
15.780081777145844	2.4094496	1.5522401
15.797776218979125	2.402446	1.5499825
15.815471039898094	2.4292748	1.5586131
15.833166240349064	2.460687	1.5686576
15.850861820778437	2.4676416	1.5708729
15.868557781632699	2.479575	1.5746666
15.886254123358412	2.4777696	1.5740932
15.903950846402232	2.4591122	1.5681556
15.921647951210897	2.4757776	1.5734603
15.939345438231225	2.4856117	1.5765823
15.957043307910133	2.4945908	1.5794274
15.974741560694602	2.503191	1.5821476
15.992440197031714	2.4987364	1.5807391
16.01013921736862	2.5049539	1.5827045
16.02783862215259	2.5100243	1.5843056
16.045538411830933	2.4920688	1.5786288
16.06323858685107	2.4640326	1.5697237
16.080939147660512	2.4126565	1.5532728
16.09864009470684	2.3883567	1.5454309
16.11634142843774	2.368823	1.5390981
16.134043149300954	2.364764	1.5377789
16.15174525774433	2.3875904	1.545183
16.169447754215817	2.3902771	1.5460521
16.18715063916342	2.399206	1.5489371
16.204853913035244	2.4101474	1.552465
16.222557576279478	2.4179637	1.5549803
16.240261629344403	22.399857	4.7328486
16.257966072678386	42.91859	6.551228
16.275670906729868	38.0431	6.1679087
16.293376131947387	2.4979382	1.5804867
16.31108174877957	2.5758078	1.6049323
16.328787757675133	2.6090226	1.6152469
16.34649415908287	2.6302247	1.6217967
16.364200953451657	2.6331868	1.6227098
16.38190814123048	2.6717997	1.634564
16.39961572286839	2.7083068	1.6456934
16.41732369881455	2.7296565	1.6521672
16.43503206951817	2.7267723	1.6512941
16.45274083542859	2.733077	1.653202
16.47044999699522	2.8032076	1.6742783
16.488159554667558	2.8676999	1.6934284
16.505869508895184	2.9073744	1.7051024
16.523579860127786	2.9477785	1.7169095
16.541290608815117	2.9930048	1.7300303
16.559001755407035	3.0604525	1.7494149
16.57671330035348	3.146162	1.7737424
16.59442524410448	3.2398434	1.7999564
16.61213758711015	3.4221847	1.8499148
16.629850329820705	3.5003254	1.8709157
16.647563472686436	3.5731976	1.8902904
16.665277016157724	3.5272138	1.8780878
16.682990960685053	3.5302036	1.8788836
16.70070530671898	3.4895089	1.8680227
16.718420054710155	3.5271072	1.8780594
16.736135205109335	3.5674286	1.8887638
16.753850758367335	3.608348	1.8995652
16.771566714935087	3.6557143	1.9119922
16.789283075263597	3.7538137	1.9374762
16.80699983980398	3.8137062	1.9528712
16.82471700900741	3.8982563	1.9744003
16.84243458332518	3.9061828	1.9764066
16.860152563208665	3.939459	1.984807
16.87787094910932	3.9827416	1.9956807
16.89558974147871	4.042345	2.0105584
16.913308940768466	4.1376286	2.0341163
16.931028547430333	4.2175336	2.0536635
16.94874856191613	4.3071985	2.0753791
16.966468984677785	4.328105	2.0804098
16.98418981616729	4.381771	2.0932682
17.00191105683676	4.4327817	2.1054173
17.019632707138374	4.4773073	2.115965
17.03735476752442	4.4758563	2.115622
17.05507723844728	4.4560575	2.1109376
17.072800120359403	4.506066	2.1227496
17.090523413713353	4.5287237	2.12808
17.108247118961785	4.5999355	2.144746
17.125971236557437	4.6315045	2.1520932
17.143695766953133	4.7101197	2.170281
17.161420710601806	4.688971	2.1654031
17.179146067956477	4.6386876	2.1537614
17.19687183947025	4.6126	2.1476965
17.21459802559634	4.639826	2.1540256
17.232324626788028	4.712458	2.1708198
17.25005164349871	4.701017	2.1681828
17.267779076181863	4.63511	2.1529305
17.285506925291074	4.585639	2.1414106
17.30323519127999	4.547609	2.1325123
17.320963874602384	4.54933	2.132916
17.33869297571211	4.5372686	2.1300864
17.356422495063114	4.554642	2.1341608
17.37415243310944	4.537416	2.1301212
17.391882790305218	4.547766	2.1325493
17.40961356710468	4.54215	2.131232
17.42734476396215	4.6210623	2.1496656
17.445076381332044	4.6822004	2.1638393
17.462808419668868	4.697977	2.1674817
17.48054087942723	4.724922	2.1736887
17.498273761061835	4.8999434	2.2135816
17.51600706502747	5.2750034	2.2967377
17.533740791779024	5.8283925	2.4142065
17.551474941771485	6.69225	2.5869384
17.56920951545993	8.660354	2.942848
17.586944513299528	9.970467	3.1576045
17.60467993574556	12.964207	3.6005843
17.622415783253373	15.595806	3.9491525
17.64015205627843	18.42053	4.2919145
17.657888755276293	20.735989	4.5536785
17.675625880702604	22.252066	4.7172093
17.69336343301311	20.62541	4.5415206
17.71110141266366	18.445776	4.2948546
17.728839820110178	15.705328	3.9629948
17.746578655808705	12.541787	3.5414386
17.764317920215372	10.345845	3.2164958
17.7820576137864	8.6247835	2.936798
17.79979773697811	7.256058	2.6937072
17.81753829024692	6.017235	2.4530053
17.835279274049356	5.2408185	2.2892835
17.85302068884201	4.566542	2.136947
17.870762535081607	4.122238	2.0303295
17.888504813224934	3.901036	1.9751041
17.90624752372891	3.757423	1.9384073
17.923990667050536	3.70199	1.9240556
17.941734243646895	3.606575	1.8990985
17.959478253975185	3.5014384	1.8712131
17.9772226984927	3.4363813	1.853748
17.994967577656833	3.451933	1.8579378
18.01271289192506	3.4510705	1.8577057
18.030458641754965	3.452017	1.8579605
18.04820482760425	3.3626013	1.8337398
18.06595144993067	3.3383453	1.8271139
18.083698509192125	3.3078377	1.8187462
18.101446005846576	3.2840295	1.8121891
18.119193940352105	3.2668705	1.8074486
18.136942313166887	3.2463338	1.8017585
18.1546911247492	3.2212892	1.794795
18.1724403755574	3.1716294	1.7809069
18.19019006604997	3.1113944	1.7639145
18.207940196685467	3.1381001	1.7714684
18.225690767922575	3.1400757	1.7720258
18.243441780220046	3.106022	1.762391
18.261193234036764	3.0668516	1.7512429
18.278945129831676	3.0617251	1.7497786
18.29669746806386	3.0425277	1.7442843
18.314450249192483	3.015602	1.7365489
18.3322034736768	3.0060744	1.7338035
18.349957141976184	3.0023098	1.7327175
18.3677112545501	3.0137064	1.736003
18.385465811858108	3.0317707	1.7411981
18.403220814359884	3.0740042	1.7532839
18.420976262515172	3.1110346	1.7638125
18.43873215678387	3.1329398	1.7700113
18.456488497625923	3.1573455	1.7768921
18.474245285501407	3.2447364	1.8013152
18.492002520870486	3.3238208	1.8231349
18.50976020419343	3.3743458	1.8369392
18.527518335930615	3.6441715	1.9089713
18.545276916542516	4.2632008	2.064752
18.563035946489688	4.4131203	2.1007428
18.580795426232832	4.853602	2.2030892
18.598555356232698	4.724164	2.1735141
18.616315736950185	5.0372515	2.2443821
18.63407656884626	4.687404	2.1650414
18.65183785238201	4.8934565	2.2121158
18.669599588018617	4.6916366	2.1660185
18.68736177621737	4.674153	2.161979
18.705124417439652	4.613353	2.1478717
18.72288751214696	4.411056	2.1002514
18.740651060800886	4.56037	2.1355023
18.758415063863115	4.3060193	2.075095
18.77617952179546	4.465423	2.113155
18.793944435059814	4.1598783	2.039578
18.811709804118184	4.1795254	2.0443888
18.829475629432675	4.187097	2.0462399
18.8472419114655	3.9895587	1.997388
18.86500865067897	4.079481	2.0197725
18.88277584753551	3.7509544	1.9367381
18.90054350249763	3.7959292	1.9483144
18.918311616027957	3.491714	1.8686129
18.936080188589226	3.376893	1.8376324
18.953849220644265	3.0745847	1.7534493
18.971618712656007	2.9143205	1.7071381
18.9893886650875	2.8445647	1.6865838
19.007159078401887	8.020457	2.8320413
19.024929953062408	32.90913	5.736648
19.042701289532435	32.856888	5.732093
19.060473088275405	25.395964	5.0394406
19.07824534975489	2.64406	1.6260566
19.096018074434568	2.6200104	1.6186446
19.113791262778197	2.6043558	1.6138017
19.13156491524966	2.623629	1.6197621
19.149339032312945	2.6407669	1.6250436
19.167113614432136	2.6615002	1.6314105
19.184888662071433	2.6381738	1.6242456
19.202664175695123	2.594368	1.6107042
19.220440155767623	2.5614452	1.6004516
19.238216602753447	2.5517244	1.5974118
19.2559935171172	2.557304	1.5991572
19.27377089932361	2.5533319	1.5979148
19.291548749837514	2.5920792	1.6099936
19.309327069123835	2.599987	1.6124475
19.32710585764763	2.5798087	1.6061783
19.344885115874032	2.5639112	1.6012218
19.362664844268313	2.546555	1.5957929
19.380445043295822	2.4981384	1.5805501
19.39822571342203	2.4941535	1.579289
19.41600685511252	2.504591	1.58259
19.43378846883297	2.5408893	1.5940167
19.451570555049173	2.5744646	1.6045138
19.469353114227037	2.5846558	1.6076865
19.48713614683254	2.5733736	1.6041738
19.50491965333182	2.5179372	1.5868009
19.52270363419109	2.4978123	1.5804468
19.540488089876686	2.4860463	1.5767201
19.55827302085503	2.517439	1.5866439
19.576058427592674	2.53307	1.5915622
19.593844310556282	2.5246274	1.5889076
19.611630670212598	2.498403	1.5806338
19.629417507028506	2.4746315	1.5730962
19.64720482147098	2.4723155	1.5723599
19.6649926140071	2.4713569	1.572055
19.682780885104084	2.4973125	1.5802888
19.70056963522921	2.4898946	1.57794
19.718358864849908	2.4906795	1.5781887
19.7361485744337	2.5074425	1.5834906
19.753938764448215	2.5384364	1.5932472
19.771729435361202	2.5817308	1.6067766
19.789520587640506	2.5778866	1.6055799
19.807312221754092	2.5254934	1.5891801
19.825104338170043	2.5223	1.588175
19.842896937356517	2.553037	1.5978225
19.860690019781824	2.560201	1.6000628
19.87848358591436	2.5292568	1.5903637
19.896277636222635	2.4951468	1.5796033
19.914072171175278	2.519137	1.587179
19.931867191241015	2.5479178	1.5962199
19.94966269688869	2.5846527	1.6076854
19.967458688587264	2.5769675	1.6052936
19.985255166805807	2.5581002	1.5994062
20.00305213201348	2.5135396	1.5854146
20.020849584679578	2.4469104	1.5642604
20.038647525273507	2.3978715	1.5485063
20.05644595426477	2.4082394	1.5518503
20.07424487212299	2.4357183	1.5606788
20.092044279317903	2.4776497	1.5740552
20.109844176319353	2.4968576	1.5801448
20.127644563597304	2.4766946	1.5737518
20.145445441621817	2.4681995	1.5710504
20.16324681086307	2.4662042	1.5704153
20.181048671791373	2.4714756	1.5720928
20.198851024877122	2.4686108	1.5711813
20.216653870590836	2.424701	1.5571451
20.234457209403146	2.3991673	1.5489246
20.252261041784802	2.3951266	1.5476197
20.270065368206662	2.3806827	1.5429461
20.287870189139685	2.3630452	1.53722
20.305675505054968	2.3667934	1.5384387
20.323481316423702	2.3764303	1.5415674
20.341287623717207	2.36785	1.538782
20.359094427406884	2.3595932	1.5360967
20.376901727964288	2.3739526	1.5407636
20.39470952586107	2.3535113	1.5341158
20.41251782156899	2.3238437	1.5244159
20.430326615559935	2.3123605	1.5206448
20.448135908305886	2.3499315	1.5329486
20.465945700278965	2.3662674	1.5382677
20.483755991951384	2.3761466	1.5414754
20.50156678379548	2.3652704	1.5379436
20.519378076283708	2.3638203	1.537472
20.537189869888635	2.3555715	1.5347872
20.55500216508294	2.33988	1.5296667
20.572814962339415	2.3440967	1.5310442
20.59062826213098	2.379192	1.542463
20.60844206493066	2.3683395	1.538941
20.626256371211593	2.3707228	1.5397152
20.644071181447032	2.3683383	1.5389407
20.66188649611036	2.3630652	1.5372264
20.67970231567506	2.3311741	1.5268183
20.697518640614742	2.350071	1.5329942
20.715335471403122	2.3456104	1.5315386
20.73315280851404	2.3194659	1.5229793
20.750970652421447	2.2891612	1.5129974
20.768789003599412	2.2676	1.5058552
20.786607862522136	2.2817252	1.510538
20.8044272296639	2.2793896	1.5097648
20.82224710549913	2.2853131	1.5117252
20.84006749050237	2.3056428	1.5184343
20.857888385148268	3.8678217	1.9666778
20.8757097899116	45.97364	6.7803864
20.893531705267254	64.83973	8.052312
20.911354131690224	83.81195	9.154886
20.92917706965566	69.02626	8.308205
20.94700051963877	50.098072	7.077999
20.96482448211493	29.424479	5.4244337
20.982648957559622	4.1921167	2.047466
21.00047394644843	2.2598686	1.5032859
21.01829944925707	2.2764099	1.5087776
21.036125466461375	2.2758532	1.5085931
21.053951998537297	2.3189352	1.522805
21.071779045960906	2.3112426	1.5202771
21.089606609208378	2.2716856	1.5072112
21.10743468875603	2.2445629	1.4981865
21.12526328508028	2.2277482	1.4925643
21.143092398657675	2.2178404	1.4892416
21.16092202996488	2.197255	1.482314
21.17875217947867	2.2068377	1.4855429
21.19658284767596	2.2001843	1.4833019
21.21441403503377	2.1971571	1.4822811
21.232245742029225	2.1855364	1.478356
21.2500779691396	2.143991	1.4642373
21.26791071684227	2.1341758	1.4608818
21.28574398561475	2.1459801	1.4649165
21.30357777593465	2.1468453	1.4652117
21.321412088279704	2.132752	1.4603945
21.339246923127792	2.1164455	1.4548008
21.357082280956888	2.161225	1.4701105
21.3749181622451	2.1486006	1.4658105
21.392754567470647	2.1583374	1.4691281
21.41059149711187	2.130978	1.459787
21.42842895164726	2.1455593	1.4647728
21.446266931555378	2.1398487	1.4628222
21.464105437314945	2.1174185	1.4551352
21.481944469404798	2.10661	1.4514166
21.49978402830388	2.0979807	1.4484408
21.51762411449127	2.104148	1.4505681
21.53546472844617	2.101318	1.4495924
21.553305870647876	2.085027	1.4439622
21.571147541575865	2.083997	1.4436055
21.58898974170967	2.1145163	1.4541377
21.60683247152899	2.1076179	1.4517637
21.62467573151363	2.0760102	1.4408367
21.642519522143523	2.0348926	1.4264966
21.660363843898722	2.033536	1.426021
21.6782086972594	2.0536633	1.4330608
21.696054082705864	2.0539865	1.4331735
21.713900000718535	2.0376737	1.427471
21.73174645177795	2.0104282	1.4178957
21.749593436364794	2.0072193	1.4167637
21.767440954959845	2.0397832	1.4282098
21.785289008044032	2.032917	1.425804
21.803137596098388	2.04988	1.4317402
21.820986719604086	2.0296962	1.424674
21.838836379042412	2.0217998	1.4219
21.85668657489478	2.0173442	1.4203324
21.87453730764273	2.041064	1.4286581
21.892388577767914	2.0493703	1.4315622
21.91024038575213	2.0407927	1.4285631
21.928092732077285	2.0032392	1.4153583
21.945945617225426	1.9713843	1.4040599
21.963799041678694	1.9554905	1.3983885
21.981653005919398	31.292084	5.5939326
21.999507510429943	78.14112	8.839746
22.01736255569286	73.13889	8.552128
22.035218142190818	4.207747	2.0512793
22.05307427040661	2.023314	1.4224324
22.07093094082315	2.0177755	1.4204843
22.088788153923474	2.0365176	1.4270661
22.106645910190746	2.0479827	1.4310775
22.12450421010827	2.0246341	1.4228964
22.142363054159464	2.0355704	1.4267342
22.16022244282787	2.0370197	1.427242
22.178082376597164	2.0220873	1.4220011
22.195942855951145	1.9729965	1.4046339
22.213803881373742	1.9396026	1.3926961
22.231665453349002	1.9473395	1.3954711
22.24952757236111	1.9637886	1.4013524
22.26739023889438	1.9871509	1.4096634
22.28525345343323	2.002752	1.4151863
22.30311721646225	1.9828396	1.4081334
22.320981528466113	1.9221336	1.3864104
22.33884638992964	1.8733128	1.3686901
22.356711801337788	1.879152	1.3708217
22.37457776317561	1.9398743	1.3927937
22.392444275928337	1.9828367	1.4081323
22.410311340081282	2.003931	1.4156027
22.428178956119904	1.9597899	1.399925
22.446047124529805	1.950354	1.3965508
22.46391584579669	1.9257095	1.3876994
22.481785120406414	1.9159019	1.3841611
22.49965494884496	1.9324106	1.3901117
22.51752533159841	1.963807	1.401359
22.53539626915302	1.9598697	1.3999535
22.553267761995137	1.9957749	1.412719
22.571139810611264	1.9875709	1.4098123
22.589012415488025	2.0025227	1.4151052
22.60688557711216	1.9858407	1.4091986
22.624759295970566	1.9692051	1.4032837
22.642633572550263	1.9832907	1.4082935
22.660508407338362	1.9506072	1.3966414
22.67838380082217	1.9501029	1.3964609
22.696259753489077	1.937153	1.3918164
22.714136265826614	1.9417818	1.3934783
22.73201333832246	1.9625478	1.4009097
22.74989097146439	1.9724509	1.4044397
22.76776916574035	1.9487493	1.3959761
22.785647921638393	1.9337133	1.3905802
22.803527239646712	1.9416175	1.3934194
22.82140712025363	1.9546286	1.3980803
22.839287563947593	1.9195678	1.3854847
22.85716857121719	1.9010777	1.3787957
22.875050142551135	1.9066144	1.380802
22.892932278438277	1.8879436	1.3740246
22.910814979367604	1.8926421	1.3757333
22.928698245828222	1.8770094	1.3700399
22.946582078309387	1.891096	1.3751713
22.96446647730047	1.8713983	1.3679906
22.98235144329098	1.8852692	1.373051
23.000236976770562	1.8788846	1.3707241
23.018123078229	1.916892	1.3845187
23.03600974815619	1.9479995	1.3957075
23.053896987042194	1.9855149	1.409083
23.071784795377173	1.9948527	1.4123925
23.08967317365145	1.9649369	1.401762
23.10756212235546	1.9505585	1.396624
23.125451641979787	1.9634591	1.4012349
23.143341733015134	1.9427993	1.3938434
23.161232395952357	1.9375796	1.3919697
23.179123631282426	1.9252359	1.3875287
23.197015439496468	1.9383072	1.392231
23.214907821085717	1.9507483	1.3966919
23.23280077654157	1.96612	1.402184
23.250694306355538	1.9646735	1.4016681
23.268588411019277	1.9627403	1.4009783
23.28648309102458	1.9678928	1.402816
23.304378346863356	1.9589759	1.3996342
23.322274179027676	1.923271	1.3868204
23.340170588009723	1.9019235	1.3791025
23.358067574301852	1.9554571	1.3983766
23.37596513839651	1.9659456	1.4021218
23.39386328078629	1.9570094	1.3989315
23.411762001963947	1.9251306	1.3874907
23.429661302422353	1.9053545	1.3803458
23.4475611826545	1.9096247	1.3818917
23.46546164315356	1.9335085	1.3905066
23.48336268441279	1.9451691	1.3946931
23.501264306925638	1.930724	1.3895049
23.51916651118564	1.9100122	1.3820319
23.537069297686497	1.9061719	1.3806418
23.554972666922037	1.9117509	1.3826609
23.57287661938623	1.9299983	1.3892437
23.59078115557318	1.9254485	1.3876053
23.608686275977128	1.92474	1.38735
23.62659198109246	1.9083302	1.3814232
23.6444982714137	1.901636	1.3789982
23.66240514743549	1.9466717	1.3952317
23.68031260965263	1.9493246	1.3961822
23.698220658560068	1.9383479	1.3922457
23.716129294652845	1.9320688	1.3899888
23.7340385184262	1.9760605	1.4057242
23.75194833037546	1.9749205	1.4053186
23.769858730996123	1.9911703	1.4110883
23.78776972078382	1.9954433	1.4126016
23.80568130023431	1.9919238	1.4113553
23.823593469843495	1.9186038	1.3851367
23.841506230107424	1.8998541	1.3783519
23.859419581522275	1.8944452	1.3763884
23.87733352458438	1.9272281	1.3882464
23.89524805979019	1.930665	1.3894837
23.913163187636318	1.9299306	1.3892194
23.931078908619508	1.9715766	1.4041284
23.948995223236633	1.9728084	1.404567
23.966912131984735	2.02161	1.4218333
23.98482963536096	2.0551975	1.433596
24.002747733862616	2.0383835	1.4277197
24.020666427987155	2.0587978	1.4348512
24.038585718232156	2.1338553	1.4607722
24.056505605095353	2.174301	1.4745511
24.074426089074617	2.1785092	1.4759774
24.092347170667946	2.1554384	1.4681412
24.110268850373515	2.1345193	1.4609995
24.128191128689586	2.1342628	1.4609116
24.146114006114626	2.1293242	1.4592204
24.164037483147187	2.1211805	1.4564273
24.181961560286005	2.0742266	1.4402176
24.199886238029926	2.0492578	1.4315228
24.21781151687797	2.0049171	1.415951
24.235737397329274	2.027451	1.423886
24.253663879883135	2.0916324	1.4462477
24.271590965038975	2.1229563	1.4570369
24.289518653296376	2.0814836	1.4427347
24.30744694515505	2.050469	1.4319458
24.32537584111486	2.0440252	1.429694
24.34330534167581	2.0452888	1.430136
24.361235447338046	2.0631628	1.4363714
24.379166158601876	2.0261495	1.4234288
24.39709747596772	2.0066667	1.4165686
24.41502939993615	2.0095067	1.4175707
24.432961931007917	2.041985	1.4289805
24.450895069683856	2.095001	1.4474118
24.468828816465	2.070595	1.4389563
24.4867631718525	2.0329726	1.4258235
24.504698136347656	2.0246716	1.4229095
24.52263371045192	2.0303936	1.4249188
24.540569894666874	2.0175889	1.4204185
24.558506689494266	2.001429	1.4147187
24.57644409543597	1.9595257	1.3998306
24.594382112994012	1.9379678	1.3921092
24.61232074267057	1.9779365	1.4063913
24.630259984967953	1.9547907	1.3981383
24.64819984038863	1.9564174	1.3987199
24.66614030943522	1.9109856	1.3823841
24.684081392610462	1.9654099	1.4019308
24.702023090417274	2.0102239	1.4178237
24.7199654033587	2.0409517	1.4286188
24.737908331937927	1.9999366	1.4141911
24.755851876658305	1.9881208	1.4100074
24.773796038023324	2.0148025	1.4194374
24.79174081653661	2.0549037	1.4334935
24.809686212701962	2.0750012	1.4404864
24.827632227023294	2.1094468	1.4523934
24.8455788600047	2.0868526	1.4445943
24.8635261121504	2.081627	1.4427844
24.88147398396475	2.0675018	1.437881
24.899422475952303	2.1266158	1.4582921
24.917371588617698	2.168685	1.4726455
24.935321322465768	2.2477212	1.4992402
24.953271678001478	2.3367922	1.528657
24.97122265572994	2.5224612	1.5882258
24.989174256156414	2.8554165	1.6897978
25.00712647978632	3.4678338	1.8622121
25.02507932712521	4.4622784	2.1124105
25.043032798678798	6.007619	2.4510446
25.060986894952933	7.5930066	2.755541
25.078941616453637	9.139317	3.0231302
25.096896963687055	10.082492	3.175294
25.114852937159508	10.912949	3.3034751
25.132809537377444	10.692581	3.2699513
25.150766764847468	10.073655	3.1739023
25.168724620076347	8.69086	2.9480264
25.186683103570985	7.3455415	2.7102659
25.204642215838426	5.839695	2.416546
25.222601957385894	4.669733	2.1609566
25.24056232872074	3.6441536	1.9089667
25.25852333035048	2.939465	1.7144868
25.276484962782778	2.4453743	1.5637692
25.294447226525435	2.1917398	1.4804525
25.312410122086423	2.0437245	1.4295889
25.330373649973843	1.999111	1.4138992
25.348337810695988	1.978844	1.406714
25.366302604761245	1.9855353	1.4090903
25.384268032678207	2.00679	1.4166121
25.40223409495558	1.9955112	1.4126257
25.420200792102257	1.9247895	1.3873678
25.438168124627246	1.8800604	1.371153
25.45613609303974	1.8366272	1.3552222
25.474104697849057	1.9274933	1.3883419
25.492073939564698	1.954709	1.3981091
25.510043818696285	1.9399667	1.3928269
25.528014335753614	1.8814243	1.3716502
25.54598549124664	1.8580309	1.3630961
25.56395728568544	1.8376558	1.3556017
25.58192971958028	1.8189113	1.3486702
25.59990279344156	1.8371185	1.3554034
25.617876507779833	1.8348002	1.354548
25.635850863105826	1.9070634	1.3809646
25.653825859930386	1.9259632	1.3877908
25.671801498764548	1.8951666	1.3766506
25.68977778011949	1.8610548	1.3642048
25.707754704506524	1.8765099	1.3698577
25.725732272437153	1.8893062	1.3745203
25.743710484423012	1.8705344	1.3676748
25.761689340975888	1.8140689	1.3468738
25.77966884260774	1.7942432	1.3394936
25.797648989830662	1.7965047	1.3403375
25.815629783156922	1.8305115	1.3529639
25.83361122309895	1.8495806	1.3599929
25.85159331016929	1.8800423	1.3711463
25.869576044880695	1.8553265	1.3621037
25.887559427746034	1.8778718	1.3703547
25.90554345927836	1.8571144	1.3627598
25.92352813999086	1.8732513	1.3686677
25.94151347039689	1.8255429	1.3511266
25.959499451009965	1.7848387	1.3359785
25.97748608234374	1.7923213	1.3387761
25.995473364912062	1.8408889	1.3567936
26.013461299228904	1.8605613	1.3640239
26.03144988580839	1.809214	1.3450702
26.04943912516483	1.805365	1.3436387
26.067429017812675	1.8172837	1.3480667
26.085419564266537	1.8038394	1.3430709
26.103410765041186	1.808488	1.3448004
26.12140262065155	1.8608452	1.364128
26.139395131612723	1.8945613	1.3764306
26.157388298439948	1.8813946	1.3716394
26.17538212164861	1.8479702	1.3594007
26.193376601754295	1.8302071	1.3528515
26.211371739272714	1.8254521	1.3510929
26.229367534719746	1.820536	1.3492724
26.247363988611433	1.7990143	1.3412734
26.26536110146397	1.7972746	1.3406247
26.283358873793727	1.7924395	1.3388202
26.301357306117204	1.7757369	1.3325678
26.319356398951104	1.7993139	1.3413851
26.33735615281224	1.8448607	1.3582565
26.35535656821762	1.8299335	1.3527503
26.373357645684404	1.7884957	1.3373466
26.39135938572991	1.7840263	1.3356744
26.409361788871614	1.8128315	1.3464143
26.427364855627165	1.8583221	1.3632029
26.445368586514352	1.8438952	1.357901
26.46337298205115	1.8045279	1.3433272
26.48137804275568	1.7601285	1.3266983
26.499383769146217	1.7495108	1.3226907
26.517390161741215	1.7481925	1.3221923
26.53539722105928	1.8019803	1.3423786
26.553404947619182	1.8617779	1.3644698
26.571413341939856	1.8900305	1.3747838
26.589422404540397	1.8812385	1.3715825
26.60743213594006	1.8388962	1.3560591
26.62544253665827	1.780166	1.3342286
26.64345360721459	1.7626029	1.3276305
26.66146534812879	1.7837772	1.3355812
26.679477759920758	1.7975293	1.3407197
26.69749084311057	1.8189983	1.3487024
26.71550459821847	1.8274908	1.3518472
26.733519025764842	1.7907232	1.3381791
26.751534126270258	1.7699798	1.3304058
26.769549900255434	1.7936289	1.3392643
26.787566348241267	1.8068113	1.3441768
26.80558347074881	1.7452347	1.3210733
26.823601268299267	1.7224275	1.3124129
26.841619741414036	1.7420547	1.3198692
26.85963889061465	1.7738808	1.3318712
26.877658716422832	1.8029073	1.3427238
26.89567921936045	1.8347512	1.3545299
26.913700399949544	1.8234438	1.3503495
26.93172225871233	1.8433926	1.357716
26.949744796171174	1.8271437	1.3517188
26.967768012848605	1.8268238	1.3516005
26.98579190926733	1.8156703	1.3474681
27.003816485950225	1.797814	1.3408259
27.021841743420318	1.7902062	1.3379859
27.039867682200814	1.8050145	1.3435082
27.057894302815072	1.8199316	1.3490484
27.07592160578664	1.7927297	1.3389286
27.0939495916392	1.8055116	1.3436933
27.111978260896635	1.8681259	1.366794
27.13000761408296	1.8947607	1.3765031
27.148037651722397	1.8718122	1.3681419
27.166068374339304	1.7895916	1.3377562
27.184099782458215	1.7227913	1.3125515
27.20213187660384	1.7092706	1.3073908
27.22016465730105	1.7757761	1.3325825
27.23819812507487	1.8918204	1.3754346
27.256232280450533	1.8969895	1.3773124
27.274267123953383	1.8510233	1.3605232
27.292302656108987	1.8413558	1.3569657
27.31033887744306	1.8347654	1.3545351
27.32837578848146	1.8303343	1.3528985
27.34641338975026	1.8417633	1.3571157
27.364451681775673	1.8124558	1.3462747
27.382490665084074	1.7921711	1.33872
27.400530340202046	1.8053584	1.3436363
27.41857070765629	1.8225672	1.3500249
27.436611767973726	1.8116229	1.3459654
27.454653521681404	1.8178773	1.3482867
27.472695969306564	1.7998853	1.341598
27.490739111376627	1.8220868	1.349847
27.508782948419153	1.903729	1.3797568
27.526827480961902	1.9102511	1.3821183
27.54487270953279	1.8642356	1.3653702
27.562918634659898	1.8193797	1.3488438
27.580965256871508	1.8260906	1.3513292
27.599012576696026	1.845733	1.3585776
27.617060594662068	1.8630005	1.3649178
27.63510931129842	1.8713899	1.3679875
27.65315872713401	1.8659614	1.366002
27.67120884269797	1.8600732	1.363845
27.68925965851958	1.8826071	1.3720813
27.707311175128307	1.9224674	1.3865306
27.725363393053787	1.9470567	1.3953698
27.74341631282583	1.9704964	1.4037437
27.7614699349744	2.0047894	1.4159058
27.77952426002968	2.2286377	1.4928622
27.797579288521973	2.2806923	1.5101961
27.815635020981784	2.7118866	1.6467807
27.83369145793979	2.783004	1.6682338
27.85174859992682	2.5964339	1.6113454
27.869806447473923	2.444032	1.56334
27.887865001112267	2.1352384	1.4612455
27.905924261373233	2.0293117	1.4245391
27.92398422878836	1.9730844	1.4046652
27.94204490388936	1.9333001	1.3904316
27.96010628720813	1.9127195	1.383011
27.978168379276728	1.8769015	1.3700006
27.9962311806274	1.8210804	1.3494742
28.014294691792568	1.8288511	1.3523502
28.0323589133048	1.8461443	1.3587289
28.050423845696887	1.8524044	1.3610306
28.068489489501758	1.8928922	1.3758242
28.086555845252523	1.9120148	1.3827562
28.104622913482487	1.976207	1.4057763
28.122690694725115	1.9365774	1.3916097
28.14075918951405	1.8683296	1.3668685
28.15882839838312	1.8981925	1.3777491
28.176898321866304	1.97618	1.4057667
28.1949689604978	2.008253	1.4171284
28.213040314811945	1.9599925	1.3999974
28.23111238534327	1.9150938	1.3838692
28.249185172626493	1.9440153	1.3942795
28.267258677196473	1.9658359	1.4020827
28.285332899588294	1.9963734	1.4129308
28.303407840337172	2.0283458	1.4242
28.321483499978545	2.0248947	1.4229879
28.33955987904799	2.0263395	1.4234955
28.357636978081285	2.0236063	1.4225352
28.37571479761439	1.9997512	1.4141256
28.393793338183425	2.0280504	1.4240963
28.41187260032469	2.0218415	1.4219147
28.429952584574686	2.0370014	1.4272356
28.448033291470065	2.0416625	1.4288676
28.46611472154769	2.0839367	1.4435847
28.484196875344566	2.0939932	1.4470637
28.502279753397914	2.1094208	1.4523845
28.52036335624511	2.078582	1.4417288
28.538447684423716	2.0119138	1.4184195
28.556532738471482	1.971873	1.4042339
28.574618518926325	2.0046492	1.4158564
28.59270502632635	2.0308704	1.4250861
28.61079226120985	2.05117	1.4321907
28.628880224115274	2.0247319	1.4229307
28.646968915581287	2.0280676	1.4241024
28.66505833614671	2.0858302	1.4442403
28.68314848635055	2.1342335	1.4609016
28.701239366732004	2.1004164	1.4492813
28.71933097783044	2.0949607	1.447398
28.737423320185403	2.1770818	1.4754938
28.75551639433665	2.2073255	1.485707
28.773610200824074	2.1337948	1.4607514
28.791704740187793	2.0698295	1.4386902
28.80980001296809	2.0895474	1.4455267
28.827896019705413	2.1613183	1.4701422
28.845992760940433	2.1708322	1.4733744
28.86409023721397	2.182411	1.4772985
28.88218844906704	2.1816583	1.4770437
28.900287397040845	2.218831	1.4895741
28.918387081676755	2.2755766	1.5085014
28.936487503516343	2.2846305	1.5114994
28.954588663101365	2.2883127	1.512717
28.97269056097374	2.330785	1.5266908
28.990793197675597	2.3478582	1.5322722
29.00889657374923	2.3599257	1.5362049
29.027000689737125	2.3923736	1.5467299
29.04510554618196	2.4225585	1.556457
29.06321114362659	2.4237514	1.5568402
29.08131748261405	2.5098069	1.584237
29.099424563687567	2.543782	1.5949239
29.11753238739057	2.5310998	1.5909431
29.13564095426663	2.519575	1.587317
29.15375026485954	2.5669947	1.6021843
29.171860319713275	2.6339736	1.6229521
29.18997111937199	2.7220628	1.6498675
29.20808266438002	2.775914	1.6661074
29.226194955281898	2.7753792	1.665947
29.244307992622335	2.7956262	1.6720126
29.26242177694624	2.851903	1.6887578
29.2805363087987	2.8031592	1.6742638
29.29865158872498	2.7966938	1.6723318
29.316767617270557	2.8789537	1.696748
29.334884394981064	2.9472377	1.716752
29.353001922402367	3.007161	1.7341168
29.37112020008047	3.0820343	1.7555723
29.389239228561596	3.1661289	1.779362
29.407359008392152	3.2964845	1.8156223
29.42547954011872	3.6170683	1.9018592
29.44360082428809	4.1284647	2.0318623
29.46172286144722	5.0982876	2.2579389
29.479845652143283	6.6768146	2.5839534
29.497969196923606	9.281718	3.0465913
29.516093496335728	13.031526	3.6099205
29.5342185509274	16.740368	4.0914993
29.55234436124651	19.95388	4.4669766
29.570470927841175	21.250845	4.6098638
29.588598251259686	20.89584	4.5711966
29.60672633205055	19.136383	4.374515
29.624855170762405	16.09669	4.012068
29.642984767944146	12.697267	3.5633223
29.66111512414481	9.491701	3.0808604
29.67924623991366	6.979742	2.64192
29.697378115800138	5.2386146	2.288802
29.71551075235387	4.326535	2.0800326
29.733644150124675	3.8089242	1.9516466
29.751778309662576	3.5961661	1.896356
29.769913231517766	3.6005867	1.8975211
29.78804891624066	3.500247	1.8708947
29.806185364381818	3.4350202	1.8533808
29.82432257649206	3.448356	1.856975
29.842460553122333	3.4061277	1.8455697
29.86059929482382	3.311482	1.8197478
29.878738802147872	3.3120744	1.8199105
29.896879075646048	3.3738775	1.8368118
29.915020115870114	3.378054	1.8379483
29.933161923371976	3.313121	1.820198
29.951304498703777	3.2141864	1.7928152
29.969447842417857	3.251479	1.8031858
29.987591955066733	3.3377311	1.8269459
30.005736837203123	3.3412852	1.8279183
30.023882489379943	3.2800834	1.8111
30.04202891215028	3.2326915	1.7979687
30.060176106067455	3.2297351	1.7971464
30.078324071684946	3.1919482	1.7866024
30.09647280955646	3.2596264	1.8054435
30.114622320235863	3.261041	1.8058352
30.132772604277257	3.2438617	1.8010724
30.1509236622349	3.2247868	1.7957691
30.16907549466328	3.1823633	1.7839179
30.18722810211705	3.111687	1.7639974
30.205381485151097	3.1171064	1.7655329
30.22353564432045	3.101011	1.7609688
30.241690580180403	3.1123626	1.7641889
30.25984629328638	3.072426	1.7528337
30.278002784194037	3.0241199	1.7389997
30.296160053459246	3.0309951	1.7409754
30.314318101638033	3.033782	1.7417755
30.332476929286646	3.0326798	1.7414591
30.35063653696153	3.0107918	1.7351633
30.368796925219307	2.953823	1.7186689
30.386958094616844	2.9507782	1.717783
30.40512004571115	2.9563794	1.7194126
30.423282779059463	2.9853475	1.7278159
30.441446295219233	2.9551613	1.7190583
30.459610594748067	2.9163237	1.7077247
30.47777567820382	2.901179	1.7032847
30.495941546144504	2.8866115	1.6990031
30.51410819912835	2.890574	1.7001688
30.532275637713795	2.9376671	1.7139624
30.55044386245946	2.920708	1.7090079
30.56861287392416	2.8421664	1.6858726
30.586782672666956	2.8299541	1.6822468
30.604953259247047	2.8269975	1.6813678
30.623124634223885	2.8003778	1.673433
30.641296798157075	2.7887177	1.6699455
30.659469751606462	2.8560297	1.6899792
30.677643495132074	2.8801672	1.6971055
30.695818029294152	2.878144	1.6965094
30.713993354653116	2.8484173	1.6877254
30.73216947176962	2.803126	1.674254
30.75034638120448	2.745164	1.6568537
30.768524083518756	2.7558982	1.6600899
30.786702579273673	2.8109043	1.6765752
30.80488186903069	2.9893205	1.7289652
30.82306195335144	3.1748126	1.7818004
30.841242832797782	3.3749647	1.8371077
30.85942450793176	3.666036	1.9146895
30.877606979315637	4.120492	2.0298996
30.895790247511883	4.506134	2.1227655
30.913974313083134	4.905261	2.2147825
30.932159176592283	5.2964735	2.3014069
30.95034483860237	5.569806	2.3600438
30.968531299676698	5.529921	2.3515785
30.98671856037873	5.301777	2.3025587
31.00490662127215	4.8876157	2.2107952
31.023095482920848	4.421367	2.1027048
31.04128514588892	3.862249	1.9652605
31.059475610740662	3.277936	1.810507
31.07766687804056	2.842087	1.6858491
31.09585894835335	2.6346815	1.6231701
31.11405182224393	2.571478	1.6035829
31.132245500277417	2.5228736	1.5883557
31.15043998301914	2.48965	1.5778625
31.168635271034628	2.531258	1.5909928
31.18683136488964	2.5435352	1.5948465
31.20502826515008	2.498803	1.5807602
31.223225972382135	2.4015381	1.5496897
31.241424487152155	2.373809	1.5407171
31.259623810026692	2.4541616	1.5665764
31.27782394157253	2.4915028	1.5784495
31.296024882356644	2.520035	1.5874618
31.314226632946237	2.5142906	1.5856515
31.332429193908684	2.4892175	1.5777254
31.350632565811598	2.4034781	1.5503155
31.368836749222787	2.3926287	1.5468124
31.387041744710295	2.4274418	1.558025
31.40524755284232	2.5035384	1.5822574
31.423454174187317	2.5613956	1.6004361
31.441661609313922	2.5697362	1.6030397
31.459869858791002	2.5689502	1.6027945
31.478078923187628	2.481151	1.5751671
31.496288803073064	2.4394286	1.561867
31.514499499016807	2.4080136	1.5517776
31.532711011588546	2.3589952	1.535902
31.550923341358178	2.386398	1.5447971
31.56913648889584	2.4021294	1.5498805
31.587350454771844	2.4511576	1.5656173
31.605565239556732	2.4682324	1.5710609
31.62378084382127	2.4782376	1.5742419
31.641997268136382	2.4037766	1.5504118
31.660214513073274	2.3346663	1.5279615
31.67843257920331	2.306026	1.5185605
31.6966514670981	2.3823442	1.5434844
31.71487117732944	2.3669772	1.5384984
31.733091710469346	2.3209825	1.5234771
31.751313067090052	2.331783	1.5270177
31.769535247764008	2.3631494	1.5372539
31.787758253063878	2.2846043	1.5114907
31.805982083562526	2.2304757	1.4934777
31.824206739833024	2.2375076	1.49583
31.84243222244869	2.188132	1.4792336
31.860658531983013	2.2156465	1.4885048
31.878885669009737	2.2292287	1.4930602
31.897113634102784	2.2400188	1.4966693
31.91534242783632	2.2687395	1.5062336
31.933572050784694	2.3107882	1.5201277
31.951802503522508	2.286008	1.511955
31.970033786624548	2.2478614	1.499287
31.988265900665834	2.2058742	1.4852185
32.006498846221575	2.1697161	1.4729956
32.02473262386724	2.192803	1.4808116
32.04296723417845	2.2296746	1.4932095
32.0612026777311	2.2123854	1.487409
32.07943895510129	2.216476	1.4887834
32.097676066865304	2.2086122	1.48614
32.115914013599685	2.2203107	1.4900707
32.13415279588115	2.164944	1.4713749
32.152392414286666	2.093767	1.4469855
32.1706328693934	2.106484	1.4513731
32.18887416177875	2.166084	1.4717622
32.20711629202032	2.1837668	1.4777573
32.225359260695924	2.1595733	1.4695487
32.243603068383614	2.1345866	1.4610225
32.26184771566166	2.149353	1.4660672
32.28009320310852	2.1721604	1.4738251
32.2983395313029	2.1957202	1.4817963
32.31658670082372	2.191949	1.4805232
32.33483471225012	2.1230302	1.4570621
32.35308356616143	2.0890422	1.445352
32.371333263137245	2.0450153	1.4300404
32.38958380375734	2.1264215	1.4582255
32.407835188601744	2.1819444	1.4771407
32.42608741825067	2.176395	1.475261
32.444340493284585	2.0008821	1.4145254
32.46259441428416	1.9596156	1.3998626
32.48084918183028	2.0578575	1.4345235
32.49910479650405	2.127377	1.4585531
32.51736125888683	2.0769727	1.4411706
32.53561856956014	2.026352	1.4235
32.5538767291058	1.9958911	1.4127601
32.572135738105764	2.0945244	1.4472471
32.59039559714228	2.0645323	1.436848
32.608656306797776	1.9862201	1.4093332
32.62691786765491	2.0456815	1.4302732
32.645180280296586	2.1181555	1.4553884
32.663443545305896	2.119669	1.4559083
32.68170766326619	2.0052702	1.4160757
32.69997263476099	1.999892	1.4141754
32.7182384603741	2.0637255	1.4365673
32.7365051406895	2.0528145	1.4327646
32.75477267629144	2.1057904	1.4511342
32.77304106776434	2.0766664	1.4410644
32.79131031569289	2.0610886	1.4356492
32.809580420661966	2.0571544	1.4342784
32.827851383256714	1.9703907	1.4037061
32.84612320406245	1.8624597	1.3647196
32.86439588366476	1.9118267	1.3826883
32.88266942264945	1.9825867	1.4080436
32.9009438216025	1.9254154	1.3875934
32.9192190811102	1.8546561	1.3618575
32.937495201758985	1.9246327	1.3873113
32.95577218413556	2.0545852	1.4333824
32.974050028826866	2.060478	1.4354365
32.992328736420035	2.0949845	1.4474062
33.010608307502444	2.0332522	1.4259216
33.02888874266169	2.0665643	1.437555
33.047170042485604	2.1025581	1.4500201
33.06545220756225	2.0885386	1.4451777
33.083735238479896	2.002047	1.4149371
33.10201913582707	1.9374437	1.3919209
33.12030390019248	2.023586	1.422528
33.138589532165135	2.1292737	1.4592031
33.15687603233419	2.110166	1.452641
33.17516340128909	2.0274742	1.423894
33.19345163961947	1.9293219	1.3890003
33.211740747915215	1.9911369	1.4110765
33.23003072676643	2.0200603	1.4212883
33.248321576763466	2.0660582	1.4373789
33.266613298496885	2.0486603	1.4313142
33.28490589255747	2.0532117	1.4329033
33.30319935953626	2.0023892	1.415058
33.32149370002451	2.0057752	1.4162539
33.339788914613706	1.9965414	1.4129902
33.358085003895575	1.9682214	1.4029331
33.376381968462034	1.9921768	1.4114449
33.39467980890529	1.9756986	1.4055954
33.41297852581774	2.009743	1.417654
33.43127811979204	2.0210865	1.4216492
33.44957859142105	1.9506034	1.3966401
33.467879941297866	1.9690121	1.4032149
33.486182170015844	2.0053828	1.4161154
33.50448527816853	1.9935741	1.4119399
33.522789266349754	2.0207455	1.4215293
33.541094135153514	1.9702513	1.4036564
33.55939988517411	1.9890047	1.4103208
33.57770651700602	1.9772469	1.4061462
33.59601403124398	1.8573859	1.3628595
33.61432242848296	1.7849823	1.3360323
33.632631709318154	1.9217694	1.386279
33.650941874344994	1.9757099	1.4055995
33.66925292415916	1.9288331	1.3888243
33.68756485935654	1.9648924	1.4017462
33.70587768053328	1.9769433	1.4060382
33.724191388285746	1.9314815	1.3897775
33.74250598321054	1.9037569	1.379767
33.760821465904506	1.9181979	1.3849902
33.77913783696474	1.9477965	1.3956348
33.79745509698852	1.91602	1.3842038
33.815773246573414	1.8779534	1.3703845
33.8340922863172	1.8939887	1.3762226
33.852412216817896	1.9605855	1.4002091
33.87073303867377	1.967773	1.4027733
33.889054752483304	1.9487363	1.3959714
33.907377358845245	1.9912853	1.4111291
33.92570085835853	1.9935927	1.4119464
33.94402525162239	1.917868	1.3848711
33.96235053923627	1.9250959	1.3874782
33.980676721799824	1.894681	1.3764741
33.999003799912984	1.8768373	1.3699771
34.01733177417592	1.9646462	1.4016584
34.03566064518901	2.010958	1.4180825
34.0539904135529	1.8823705	1.3719951
34.07232107986846	1.8397802	1.356385
34.090652644736785	1.92402	1.3870904
34.108985108759235	1.9714344	1.4040778
34.12731847253742	2.008682	1.4172798
34.14565273667313	1.9083534	1.3814317
34.16398790176847	1.8717327	1.3681128
34.18232396842574	1.961345	1.4004803
34.20066093724749	1.930158	1.3893013
34.21899880883651	1.7864515	1.3365821
34.23733758379583	1.776404	1.332818
34.25567726272874	1.8738142	1.3688734
34.27401784623872	1.8821341	1.3719089
34.29235933492957	1.865094	1.3656844
34.31070172940526	1.8690598	1.3671356
34.32904503027003	1.9090973	1.3817009
34.347389238128386	1.896704	1.3772087
34.36573435358502	1.9106171	1.3822508
34.38408037724492	2.085538	1.4441391
34.402427309713296	2.1092753	1.4523344
34.42077515159559	1.9901489	1.4107264
34.43912390349752	1.9035202	1.3796812
34.45747356602499	1.8830807	1.3722539
34.47582413978423	1.9495571	1.3962654
34.49417562538163	2.0264828	1.4235458
34.51252802342388	1.9510324	1.3967936
34.53088133451789	1.8999584	1.3783897
34.54923555927084	1.9241177	1.3871257
34.567590698290104	1.9915557	1.4112248
34.58594675218336	1.972312	1.4043902
34.6043037215585	1.9233849	1.3868616
34.62266160702365	1.9097756	1.3819463
34.641020409187234	1.7847153	1.3359324
34.65938012865785	1.8154118	1.3473722
34.677740766044394	1.9222729	1.3864605
34.69610232195598	2.0545247	1.4333613
34.714464797002016	2.02151	1.4217981
34.73282819179208	1.9461901	1.3950592
34.751192506936064	1.9125782	1.38296
34.76955774304408	2.063222	1.436392
34.7879239007265	2.3250515	1.524812
34.80629098059391	2.413898	1.5536724
34.824658983257194	2.2992592	1.5163308
34.843027909327446	2.0222292	1.4220511
34.86139775941603	1.9322913	1.3900688
34.879768534134534	1.9998388	1.4141566
34.89814023409483	1.9470946	1.3953834
34.91651285990901	1.9203861	1.38578
34.93488641218944	1.8657708	1.3659322
34.95326089154871	1.8013697	1.3421512
34.97163629859967	1.6135671	1.2702626
34.99001263395542	1.7576138	1.3257502
35.00838989822934	1.9842793	1.4086444
35.02676809203499	2.025267	1.4231187
35.04514721598624	2.1022315	1.4499074
35.063527270697215	2.0032408	1.4153589
35.081908256782256	1.9373395	1.3918835
35.10029017485597	2.0284536	1.4242378
35.11867302553321	2.0466683	1.4306182
35.137056809429104	2.0652633	1.4371024
35.155441527159006	1.8087847	1.3449106
35.173827179338524	1.6812223	1.2966195
35.19221376658354	1.651811	1.285228
35.21060128951017	1.8523911	1.3610258
35.2289897487348	1.9809904	1.4074767
35.24737914487405	1.804948	1.3434836
35.26576947854479	1.9880052	1.4099663
35.28416075036418	2.1066704	1.4514374
35.30255296094958	2.1293278	1.4592216
35.32094611091867	2.0895166	1.445516
35.33934020088932	2.0474935	1.4309065
35.35773523147969	1.8782816	1.3705041
35.3761312033082	1.8307312	1.3530451
35.394528116993506	1.776239	1.3327562
35.41292597315452	2.03102	1.4251386
35.431324772410434	2.17212	1.4738114
35.449724515380666	2.3498569	1.5329243
35.46812520268491	2.2320073	1.4939904
35.486526834943106	1.9047571	1.3801293
35.504929412775454	1.8920168	1.375506
35.52333293680242	1.7963041	1.3402627
35.54173740764471	1.4837673	1.2180998
35.560142825923286	1.8845748	1.3727982
35.5785491922594	2.7087839	1.6458384
35.59695650727454	2.6167216	1.6176285
35.61536477159042	2.153149	1.4673612
