0.008763373481513119	0.0	0.0
0.026290120649546365	0.0	0.0
0.043816868432600686	0.13170215	0.36290792
0.06134361724069026	0.09919149	0.3149468
0.07887036748382949	0.07748628	0.27836356
0.0963971195720331	0.039012503	0.19751583
0.11392387391531617	0.0902755	0.30045882
0.1314506309236943	0.1214426	0.34848616
0.1489773910071836	0.096234724	0.31021723
0.16650415457580078	0.06626316	0.2574163
0.18403092203956356	0.09246637	0.30408284
0.20155769380849	0.0898377	0.29972938
0.2190844702925996	0.1476719	0.384281
0.2366112519019124	0.1482898	0.38508415
0.2541380390464497	0.20700331	0.45497617
0.27166483213623416	0.2429106	0.4928596
0.28919163158128947	0.20538253	0.4531915
0.3067184377916406	0.16998369	0.41229078
0.324245251177314	0.15138903	0.38908744
0.34177207214833777	0.18636538	0.43170056
0.3592989011147415	0.18818742	0.43380573
0.37682573848655654	0.20257995	0.45008883
0.39435258467381573	0.13703465	0.37018192
0.41187944008655414	0.13101138	0.36195496
0.42940630513480854	0.1139305	0.33753592
0.446933180228618	0.13738392	0.37065336
0.4644600657780234	0.16045709	0.40057096
0.48198696219306775	0.1722328	0.4150094
0.49951386988379676	0.16333653	0.40414914
0.5170407892602581	0.16699588	0.4086513
0.5345677207325025	0.17290941	0.41582376
0.5520946647105822	0.18288365	0.427649
0.5696216216045534	0.1793046	0.42344373
0.5871485918244737	0.19765982	0.4445895
0.6046755757804043	0.17156933	0.41420928
0.6222025738824094	0.15685003	0.39604297
0.6397295865405557	0.15025312	0.38762498
0.6572566141649129	0.13710348	0.37027487
0.6747836571655547	0.120886795	0.34768778
0.6923107159525568	0.118049785	0.34358373
0.7098377909359992	0.12513714	0.35374728
0.7273648825259653	0.16578838	0.4071712
0.7448919911325411	0.18764107	0.43317556
0.762419117165817	0.1911382	0.43719354
0.7799462610358868	0.20832568	0.4564271
0.7974734231528482	0.23820893	0.48806652
0.8150006039268024	0.27310896	0.52259827
0.8325278037678551	0.2745336	0.5239595
0.8500550230861152	0.2686577	0.518322
0.8675822622916969	0.2626032	0.51244825
0.8851095217947171	0.23681527	0.4866367
0.9026368020052984	0.22925647	0.47880733
0.9201641033335665	0.18210284	0.4267351
0.9376914261896523	0.17133877	0.41393086
0.9552187709836915	0.19204083	0.43822464
0.9727461381258234	0.22578554	0.47516894
0.990273528026193	0.25902137	0.5089414
1.0078009410949496	0.2720988	0.52163094
1.0253283777422473	0.27300155	0.5224955
1.0428558383782454	0.2895516	0.5381
1.0603833234131086	0.2951999	0.54332304
1.0779108332570058	0.32822022	0.57290506
1.0954383683201119	0.30547178	0.55269504
1.112965929012607	0.33452612	0.5783823
1.1304935157446763	0.44463104	0.6668066
1.1480211289265108	0.5172925	0.7192305
1.1655487689683062	1.37448	1.1723822
1.1830764362802655	1.7097137	1.3075602
1.200604131272596	2.0742807	1.4402363
1.2181318543555117	2.346469	1.5318189
1.235659605939232	2.344553	1.5311934
1.253187386433982	3.9668367	1.991692
1.270715196249994	6.3857927	2.5270126
1.2882430357975057	11.99968	3.4640553
1.3057709054867608	16.912907	4.11253
1.3232988057280106	22.787386	4.7736135
1.3408267369315112	27.63121	5.25654
1.358354699507526	31.307669	5.5953255
1.3758826938663256	34.99771	5.9158864
1.3934107204181858	36.741665	6.0614905
1.410938779573391	37.09339	6.0904346
1.4284668717422309	38.200935	6.1806903
1.4459949973350033	37.844032	6.1517506
1.4635231567620117	37.895702	6.1559486
1.4810513504335687	36.930878	6.077078
1.4985795787599925	36.513226	6.0426173
1.5161078421516088	36.527054	6.0437617
1.5336361410187505	35.77218	5.9809847
1.5511644757717598	35.605045	5.966996
1.5686928468209842	35.946198	5.995515
1.58622125457678	36.424347	6.035259
1.6037496994495108	37.970722	6.162039
1.621278181849548	37.870132	6.1538715
1.6388067021872719	38.87213	6.2347517
1.6563352608730693	37.8214	6.1499104
1.673863858317336	36.65071	6.053983
1.6913924949304753	35.62619	5.968768
1.7089211711228998	34.580772	5.880542
1.7264498873050296	33.74874	5.8093667
1.7439786438872935	32.95448	5.740599
1.7615074412801288	31.92729	5.650424
1.779036279893981	31.216043	5.587132
1.796565160139305	30.26742	5.5015836
1.814094082426564	29.88936	5.4671164
1.8316230471662298	29.393026	5.4215336
1.849152054768784	28.333757	5.322946
1.8666811056447168	27.598936	5.253469
1.8842102002045273	26.492132	5.147051
1.901739338858724	26.087696	5.1076117
1.9192685220178245	25.689056	5.068437
1.9367977500923557	25.171932	5.0171638
1.9543270234928547	24.740595	4.973992
1.971856342629867	23.895403	4.8882923
1.9893857079139496	23.594297	4.857396
2.006915119755667	23.014202	4.797312
2.0244445785655945	22.53308	4.746902
2.0419740847543175	22.011211	4.691611
2.0595036387324317	21.619171	4.649642
2.0770332409105414	21.235527	4.608202
2.094562891699263	20.635849	4.54267
2.1120925915092217	20.028486	4.47532
2.129622340751053	19.555304	4.4221377
2.1471521398354043	187.9468	13.709369
2.1646819891729323	444.3029	21.078493
2.182211889174303	440.58704	20.990166
2.1997418402501974	453.207	21.288658
2.2172718428113023	433.149	20.812231
2.234801897268317	321.11472	17.919674
2.2523320040319548	17.4405	4.1761823
2.269862163512935	17.125444	4.13829
2.287392376121992	16.576904	4.0714746
2.304922642269869	16.4219	4.0523944
2.322452962367322	16.232265	4.0289288
2.3399833368251164	15.994951	3.999369
2.357513766054032	15.830968	3.9788148
2.3750442504648586	15.418648	3.9266586
2.3925747904683963	15.133963	3.8902395
2.410105386475459	14.759098	3.841757
2.4276360388968707	14.551675	3.8146658
2.445166748143469	14.296938	3.7811291
2.4626975146261025	14.044361	3.7475808
2.4802283387556323	13.684028	3.6991928
2.4977592209429305	13.165707	3.6284578
2.5152901615988825	12.928008	3.5955539
2.5328211611343865	12.764632	3.5727625
2.5503522199603523	12.659316	3.5579932
2.5678833384877024	12.497368	3.5351617
2.5854145171273712	12.270396	3.5029125
2.6029457562903064	12.117973	3.481088
2.620477056387469	12.150551	3.485764
2.6380084178298326	11.956841	3.4578667
2.655539841028383	11.62989	3.4102626
2.673071326394119	11.336912	3.3670332
2.6906028743380523	11.08601	3.329566
2.708134485271211	11.025178	3.3204184
2.7256661596046325	10.899322	3.301412
2.743197897749369	10.710175	3.2726402
2.760729700116486	10.522128	3.243783
2.778261567117063	10.3685875	3.220029
2.795793499162193	10.238245	3.1997259
2.8133254966629817	10.097552	3.1776645
2.830857560030551	10.002804	3.162721
2.8483896896760337	9.859687	3.140014
2.865921886010578	9.720156	3.1177163
2.883454149445347	9.580872	3.0952983
2.9009864803915177	9.514918	3.0846262
2.91851887926028	9.44793	3.0737486
2.9360513464628384	9.382334	3.0630596
2.953583882410413	9.123239	3.02047
2.9711164875142373	9.04816	3.0080159
2.9886491621855606	8.82815	2.9712203
3.0061819068356455	8.639399	2.9392853
3.023714721875769	8.582858	2.9296515
3.041247607717225	8.598729	2.932359
3.0587805647713213	8.60669	2.933716
3.0763135934493806	8.539925	2.922315
3.0938466941627407	8.293097	2.8797736
3.1113798673227544	8.094187	2.8450284
3.1289131133407904	7.971324	2.8233533
3.1464464326282315	7.783974	2.7899776
3.1639798255964786	7.6834183	2.771898
3.1815132926569443	7.603908	2.7575185
3.1990468342210603	7.5387545	2.7456791
3.216580450700272	7.45237	2.729903
3.2341141425060416	7.3863974	2.7177927
3.251647910049847	7.3403883	2.709315
3.2691817537431813	7.2318625	2.6892123
3.286715673997555	7.182847	2.6800835
3.3042496712244938	7.090938	2.6628816
3.32178374583554	7.069653	2.658882
3.339317898242251	6.92648	2.6318207
3.3568521288562034	6.833416	2.6140804
3.3743864380889876	6.727537	2.5937495
3.3919208263522127	6.692499	2.5869865
3.4094552940575023	6.7545924	2.59896
3.4269898416164972	6.7982454	2.6073446
3.444524469440858	6.7734685	2.602589
3.4620591779422587	6.6642084	2.581513
3.479593967532391	6.51278	2.5520148
3.4971288386229658	6.40744	2.5312922
3.5146637916257086	6.3068376	2.5113418
3.5321988269523628	6.3111086	2.512192
3.5497339450146903	6.182	2.486363
3.5672691462244708	6.2237797	2.4947505
3.5848044309934988	6.2432528	2.49865
3.60233979973359	6.3133383	2.5126357
3.619875252856575	6.305026	2.510981
3.6374107907743034	6.219304	2.4938533
3.6549464138986427	6.2770796	2.50541
3.6724821226414788	6.2259274	2.4951808
3.690017917414714	6.241828	2.4983652
3.7075537986302702	6.265209	2.50304
3.7250897667000857	6.336479	2.5172365
3.7426258220361235	6.5263047	2.5546634
3.7601619650503553	6.862774	2.6196897
3.777698196154779	7.4439135	2.7283535
3.7952345157614067	8.466336	2.9096968
3.8127709242822716	9.222681	3.0368867
3.830307422129425	11.292447	3.3604236
3.847844009714936	30.042444	5.4810987
3.8653806874508954	97.433556	9.870844
3.882917455749409	96.763466	9.836843
3.900454315022606	96.70128	9.833681
3.917991265682631	41.423126	6.43608
3.9355283081416506	11.032239	3.3214815
3.9530654428118495	8.823825	2.9704924
3.970602670105433	7.5449414	2.7468057
3.9881399904346244	6.671264	2.582879
4.005677404211669	6.6283555	2.5745592
4.023214911848827	6.593499	2.567781
4.0407525137583855	6.594936	2.5680606
4.058290210352644	6.4852505	2.5466156
4.075828002043927	6.371912	2.5242646
4.0933658892445814	6.329191	2.5157883
4.110903872366966	6.29022	2.5080311
4.128441951823468	6.2567825	2.5013561
4.145980128026488	6.2808766	2.5061677
4.163518401388452	6.219807	2.4939542
4.181056772321807	6.2324	2.4964776
4.1985952412390155	6.247341	2.499468
4.216133808552567	6.3118954	2.5123487
4.233672474674966	6.3974805	2.529324
4.251211240018741	6.54546	2.5584097
4.268750104996445	6.7132773	2.5909994
4.286289070020643	7.6212034	2.7606528
4.303828135503928	9.313796	3.0518513
4.3213673018589125	29.555893	5.436533
4.3389065694982305	90.70128	9.523722
4.356445938834537	165.82153	12.877171
4.3739854102805085	171.4849	13.095224
4.391524984248844	172.27792	13.125468
4.409064661152262	136.2417	11.672262
4.426604441403504	96.62996	9.830054
4.444144325415337	75.58437	8.693928
4.461684313600543	21.733158	4.6618834
4.47922440637193	22.01384	4.6918907
4.496764604142329	20.388416	4.515353
4.5143049073245916	18.698404	4.3241653
4.531845316331589	16.558731	4.069242
4.5493858315762195	13.626751	3.691443
4.566926453471405	11.28183	3.3588436
4.584467182430081	9.407492	3.0671635
4.602008018865218	8.399586	2.8982038
4.619548963189798	7.771567	2.787753
4.637090015816834	7.196305	2.6825929
4.654631177159353	6.926909	2.6319022
4.672172447630417	6.5531187	2.559906
4.689713827643102	6.418689	2.533513
4.7072553176105085	6.197185	2.4894147
4.724796917945764	6.070083	2.463754
4.742338629062015	5.972953	2.4439626
4.759880451372434	5.886222	2.4261537
4.777422385290215	5.7061043	2.3887453
4.794964431228581	5.6492457	2.3768141
4.812506589600768	5.5457253	2.3549364
4.830048860820047	5.506371	2.3465657
4.847591245299709	5.5750585	2.3611562
4.8651337434530655	5.594792	2.3653312
4.882676355693457	5.633963	2.3735971
4.900219082434242	5.6722746	2.3816538
4.917761924088813	5.710537	2.389673
4.935304881070575	5.6369367	2.3742235
4.952847953792969	5.549968	2.3558369
4.970391142669449	5.4570856	2.3360405
4.9879344481135055	5.490673	2.3432186
5.005477870538642	5.500838	2.3453865
5.023021410358394	5.5247836	2.3504858
5.040565067986324	5.553839	2.3566585
5.05810884383601	5.5569854	2.3573258
5.075652738321066	5.5763907	2.3614383
5.09319675185512	5.420265	2.3281462
5.110740884851836	5.363443	2.3159108
5.128285137724894	5.3450155	2.311929
5.145829510888007	5.369909	2.3173063
5.163374004754908	5.4617076	2.3370297
5.1809186197393595	5.4439263	2.3332224
5.198463356255145	5.438663	2.3320942
5.216008214716077	5.392542	2.3221848
5.233553195535998	5.3194385	2.3063908
5.251098299128764	5.2512035	2.2915504
5.268643525908272	5.22994	2.2869062
5.286188876288432	5.2814555	2.2981417
5.3037343506831895	5.257649	2.2929564
5.32127994950651	5.3055754	2.3033834
5.3388256731723915	5.3006186	2.3023071
5.356371522094851	5.296352	2.3013804
5.373917496687938	5.209956	2.282533
5.391463597365729	5.1752176	2.2749104
5.40900982454232	5.241397	2.2894096
5.426556178631843	5.2384405	2.288764
5.444102660048449	5.2422485	2.2895956
5.4616492692063225	5.2450957	2.2902174
5.479196006519669	5.25857	2.2931573
5.496742872402727	5.2346964	2.287946
5.514289867269756	5.258611	2.2931662
5.531836991535049	5.2416763	2.2894707
5.549384245612924	5.1970444	2.2797027
5.566931629917724	5.168491	2.2734315
5.584479144863822	5.106761	2.2598143
5.6020267908656205	5.1292815	2.2647917
5.619574568337545	5.193095	2.2788365
5.637122477694054	5.2913957	2.3003035
5.654670519349629	5.2966633	2.301448
5.672218693718784	5.2248015	2.2857826
5.689767001216059	5.227091	2.2862833
5.707315442256021	5.1689596	2.2735345
5.724864017253266	5.157827	2.271085
5.7424127266224225	5.2035613	2.2811315
5.75996157077814	5.2322893	2.2874198
5.777510550135105	5.3303304	2.3087509
5.795059665108022	5.357429	2.3146122
5.812608916111639	5.3251853	2.3076363
5.830158303560715	5.4511952	2.3347795
5.847707827870055	5.402988	2.3244328
5.86525748945448	5.454952	2.335584
5.8828072887288485	5.457153	2.336055
5.900357226108044	5.49285	2.343683
5.917907302006979	5.584836	2.3632257
5.9354575168406	6.267248	2.5034473
5.9530078710238765	6.891945	2.6252513
5.970558364971812	7.4735346	2.7337766
5.988108999099438	7.779429	2.7891629
6.005659773821818	8.186775	2.8612542
6.023210689554039	7.918665	2.8140123
6.040761746711227	8.288828	2.8790324
6.058312945708531	7.8084683	2.7943637
6.075864286961132	7.3774557	2.7161472
6.093415770884244	6.7176356	2.5918403
6.1109673978931065	6.1791735	2.4857943
6.128519168402993	5.5754232	2.3612335
6.146071082829204	5.4923744	2.3435814
6.163623141587075	5.3878574	2.3211758
6.181175345091969	5.4157896	2.327185
6.198727693759281	5.414473	2.326902
6.216280188004435	5.327318	2.3080983
6.233832828242885	5.2258077	2.2860026
6.251385614890126	5.207296	2.28195
6.268938548361669	5.2630906	2.2941427
6.286491629073067	5.234702	2.2879472
6.304044857439898	5.227334	2.2863364
6.321598233877777	5.1267195	2.264226
6.339151758802344	5.0447006	2.246041
6.356705432629277	5.10332	2.259053
6.37425925577428	5.112713	2.2611308
6.391813228653095	5.1319704	2.2653852
6.409367351681486	5.0361066	2.244127
6.426921625275259	4.968691	2.2290561
6.44447604985025	4.9138126	2.2167122
6.46203062582232	4.9771185	2.2309456
6.47958535360737	4.9764404	2.2307937
6.497140233621328	5.04968	2.2471495
6.514695266280161	5.020106	2.2405593
6.532250451999859	5.04529	2.2461722
6.549805791196454	5.0578294	2.248962
6.567361284286002	5.08043	2.2539809
6.584916931684597	5.1098065	2.260488
6.602472733808367	5.0187826	2.240264
6.6200286910734665	4.9624367	2.2276528
6.637584803896092	4.932263	2.2208698
6.655141072692462	5.0015135	2.2364063
6.672697497878842	5.040779	2.245168
6.690254079871514	5.1173773	2.262162
6.707810819086808	5.0993094	2.2581651
6.725367715941078	5.0506907	2.247374
6.742924770850719	5.006543	2.2375307
6.760481984232151	5.005851	2.237376
6.778039356501836	4.962953	2.2277687
6.795596888076266	4.972386	2.2298846
6.813154579371963	4.956405	2.2262986
6.830712430805492	4.986554	2.2330594
6.84827044279344	5.0167446	2.239809
6.865828615752445	5.016331	2.2397168
6.883386950099159	4.9960957	2.2351947
6.900945446250287	4.9464946	2.2240715
6.918504104622553	4.9341693	2.221299
6.936062925632727	4.982065	2.232054
6.953621909697607	5.0188174	2.2402718
6.971181057234028	5.054401	2.2481995
6.988740368658859	5.1346807	2.2659833
7.006299844389007	5.185072	2.2770753
7.023859484841407	5.2740192	2.2965233
7.041419290433036	5.359336	2.315024
7.058979261580902	5.5053577	2.34635
7.0765393987020495	5.7248225	2.3926601
7.094099702213559	6.0714784	2.464037
7.111660172532549	6.371959	2.524274
7.129220810076164	6.719758	2.5922496
7.146781615261595	7.275021	2.6972246
7.16434258850606	7.561754	2.7498643
7.181903730226821	7.961038	2.821531
7.1994650408411704	8.02802	2.8333762
7.217026520766437	8.138544	2.8528132
7.234588170419983	8.442991	2.9056826
7.252149990219215	8.522498	2.9193318
7.269711980581568	8.469443	2.9102309
7.2872741419245175	8.213398	2.8659027
7.304836474665574	7.752532	2.7843368
7.322398979222286	7.3784347	2.7163274
7.339961656012233	7.138736	2.6718414
7.357524505453039	6.78728	2.6052408
7.375087527962357	6.583662	2.5658648
7.392650723957886	6.3399005	2.517916
7.410214093857353	6.0763297	2.4650211
7.427777638078528	5.846314	2.417915
7.445341357039213	5.630351	2.372836
7.4629052511572525	5.3999577	2.323781
7.480469320850524	5.248239	2.2909036
7.498033566536948	5.1690516	2.2735548
7.5155979886344735	5.167808	2.2732813
7.5331625875610975	5.1924195	2.2786882
7.550727363734844	5.2052126	2.2814934
7.568292317573788	5.17743	2.2753966
7.585857449496025	5.225323	2.2858965
7.603422759919705	5.233792	2.287748
7.620988249263007	5.2331314	2.2876039
7.638553917944147	5.1975775	2.2798197
7.656119766381391	5.1721377	2.2742333
7.673685794993023	5.2618284	2.2938676
7.691252004197388	5.29192	2.3004174
7.70881839441285	5.2844706	2.2987976
7.726384966057826	5.220144	2.2847633
7.743951719550762	5.2172327	2.2841263
7.761518655310149	5.25554	2.2924964
7.779085773754511	5.2564344	2.2926915
7.796653075302419	5.2051945	2.2814896
7.814220560372475	5.1906023	2.2782893
7.831788229383323	5.23323	2.2876253
7.8493560827536495	5.285316	2.2989814
7.866924120902174	5.3405437	2.3109617
7.884492344247663	5.3374944	2.3103018
7.9020607532089135	5.3681583	2.3169286
7.919629348204771	5.4226556	2.3286595
7.937198129654115	5.4868894	2.342411
7.954767097975865	5.5123878	2.3478475
7.972336253588986	5.483492	2.3416858
7.989905596912472	5.446289	2.3337286
8.007475128365371	5.372621	2.3178916
8.025044848366756	5.4054093	2.3249536
8.042614757335754	5.524909	2.3505125
8.060184855691523	5.643118	2.3755248
8.07775514385327	5.8066545	2.4097002
8.095325622240228	5.9674606	2.4428387
8.112896291271687	6.0084414	2.4512122
8.130467151366968	6.0414433	2.4579349
8.148038202945436	5.994264	2.4483187
8.165609446426497	5.971101	2.4435835
8.183180882229594	6.0922823	2.4682548
8.200752510774217	6.082269	2.4662256
8.218324332479893	6.0899277	2.467778
8.235896347766193	6.0480328	2.4592748
8.253468557052724	6.00197	2.4498918
8.27104096075914	5.9760914	2.4446046
8.288613559305137	6.0089912	2.4513245
8.306186353110448	6.08822	2.4674318
8.32375934259485	6.2508163	2.5001633
8.341332528178162	6.2953844	2.5090604
8.358905910280246	6.291628	2.5083117
8.376479489321003	6.233754	2.4967487
8.394053265720377	6.21472	2.492934
8.411627239898356	6.213382	2.4926655
8.42920141227497	6.218788	2.4937499
8.44677578327029	6.2228312	2.4945602
8.464350353304427	6.2746143	2.504918
8.48192512279754	6.2766657	2.5053275
8.499500092169827	6.2984056	2.5096624
8.51707526184153	6.312571	2.5124831
8.534650632232934	6.2933025	2.5086455
8.552226203764365	6.263926	2.5027835
8.569801976856192	6.217074	2.493406
8.587377951928834	6.25268	2.500536
8.60495412940274	6.2938147	2.5087476
8.622530509698416	6.2950063	2.508985
8.6401070932364	6.382262	2.526314
8.657683880437283	6.540703	2.5574799
8.675260871721695	6.75066	2.5982032
8.692838067510303	6.931886	2.6328475
8.710415468223834	7.001906	2.6461115
8.727993074283043	7.1015744	2.664878
8.745570886108737	7.0909734	2.662888
8.763148904121765	7.1706424	2.6778054
8.78072712874302	7.1823034	2.679982
8.798305560393441	7.4613857	2.7315538
8.815884199494006	7.6235666	2.7610807
8.833463046465745	7.8611884	2.803781
8.851042101729728	8.046858	2.8366983
8.86862136570707	8.391059	2.8967326
8.886200838818924	8.491412	2.9140027
8.903780521486505	8.409682	2.8999453
8.921360414131055	8.464353	2.909356
8.938940517173874	8.598775	2.9323668
8.956520831036297	8.874539	2.9790165
8.97410135613971	9.178449	3.0295954
8.99168209290554	9.395257	3.0651684
9.009263041755265	9.61242	3.1003902
9.026844203110405	9.767472	3.1252956
9.044425577392525	9.946572	3.1538186
9.062007165023239	10.082256	3.175257
9.079588966424197	10.365965	3.219622
9.097170982017108	10.405472	3.2257514
9.11475321222372	11.228123	3.3508391
9.132335657465825	12.120097	3.481393
9.149918318165264	12.298529	3.5069258
9.167501194743924	12.984083	3.6033432
9.18508428762374	12.72805	3.5676394
9.202667597226693	12.67833	3.5606644
9.220251123974803	12.241354	3.4987648
9.237834868290143	11.95652	3.4578202
9.255418830594836	11.689136	3.4189377
9.273003011311046	11.183598	3.3441887
9.290587410860985	10.894816	3.3007298
9.308172029666911	10.263099	3.203607
9.32575686815113	9.989473	3.1606128
9.343341926735997	8.696518	2.9489858
9.360927205843916	8.479263	2.9119174
9.378512705897327	8.296493	2.8803632
9.396098427318728	8.07866	2.8422983
9.413684370530664	7.970297	2.8231714
9.431270535955722	7.910274	2.812521
9.448856924016539	7.83974	2.7999535
9.466443535135806	7.7622766	2.7860863
9.484030369736251	7.7610636	2.7858686
9.501617428240658	7.7278676	2.7799041
9.519204711071852	7.7078853	2.7763078
9.536792218652714	7.7584634	2.7854018
9.55437995140617	7.9199667	2.8142436
9.571967909755191	7.9792743	2.824761
9.589556094122802	8.040425	2.8355644
9.60714450493207	8.058609	2.838769
9.624733142606116	8.078583	2.8422847
9.642322007568108	8.043132	2.8360417
9.659911100241267	7.9917903	2.8269756
9.677500421048851	7.9750814	2.8240187
9.695089970414175	7.973261	2.8236964
9.712679748760609	8.021812	2.8322804
9.730269756511557	8.027572	2.833297
9.747859994090492	8.064531	2.8398118
9.765450461920915	8.118046	2.8492184
9.78304116042639	8.266678	2.875183
9.800632090030527	8.3046465	2.8817782
9.81822325115699	8.338945	2.8877232
9.835814644229481	8.3102665	2.8827534
9.853406269671762	8.314162	2.8834288
9.870998127907646	8.337546	2.887481
9.888590219360985	8.300808	2.8811123
9.906182544455698	8.2376585	2.8701322
9.923775103615734	8.299136	2.8808222
9.941367897265108	8.3529825	2.8901527
9.958960925827878	8.385614	2.8957925
9.97655418972816	8.3189125	2.8842525
9.994147689390106	8.303496	2.8815787
10.011741425237934	8.340136	2.8879292
10.029335397695904	8.352297	2.890034
10.04692960718833	8.390011	2.8965516
10.06452405413958	8.369623	2.8930302
10.082118738974064	8.321245	2.884657
10.099713662116246	8.282259	2.8778913
10.117308823990651	8.263895	2.874699
10.134904225021844	8.279379	2.877391
10.152499865634445	8.275277	2.8766782
10.170095746253125	8.301387	2.8812127
10.18769186730261	8.337399	2.8874555
10.205288229207675	8.344048	2.8886065
10.222884832393145	8.2560625	2.8733366
10.2404816772839	8.165673	2.8575642
10.258078764304868	8.100589	2.8461533
10.275676093881035	8.131999	2.851666
10.293273666437438	8.190966	2.8619864
10.310871482399158	8.2045965	2.8643668
10.32846954219134	8.214341	2.8660672
10.346067846239173	8.177078	2.859559
10.363666394967908	8.125823	2.8505828
10.38126518880283	8.079566	2.8424578
10.398864228169298	8.149612	2.8547525
10.416463513492713	8.260827	2.8741655
10.434063045198531	8.305973	2.8820086
10.451662823712262	8.358697	2.8911412
10.469262849459467	8.270838	2.8759065
10.486863122865758	8.166575	2.857722
10.504463644356806	8.0424	2.8359127
10.522064414358338	8.031098	2.8339193
10.539665433296118	8.060775	2.8391504
10.557266701595987	8.023054	2.8324997
10.574868219683818	7.9090247	2.8122988
10.592469987985552	7.738631	2.7818394
10.610072006927185	7.6044407	2.757615
10.627674276934751	7.434314	2.7265937
10.64527679843435	7.354208	2.7118642
10.662879571852143	7.2897234	2.6999488
10.680482597614331	7.246816	2.691991
10.698085876147173	7.1934214	2.6820555
10.715689407876988	7.0804915	2.6609192
10.733293193230146	7.092866	2.6632435
10.750897232633072	6.9330735	2.633073
10.76850152651225	6.8117228	2.6099277
10.786106075294207	6.6960382	2.5876703
10.803710879405534	6.656521	2.5800235
10.821315939272877	6.584429	2.5660143
10.83892125532294	6.491651	2.5478718
10.856526827982472	6.3800406	2.5258741
10.874132657678285	6.309256	2.5118232
10.891738744837243	6.276844	2.505363
10.909345089886271	6.2136426	2.492718
10.926951693252343	6.1290593	2.4756937
10.944558555362494	6.064871	2.4626958
10.96216567664381	6.0241904	2.4544227
10.979773057523436	6.0502243	2.4597204
10.997380698428573	6.0209517	2.4537628
11.014988599786477	5.916878	2.4324634
11.032596762024461	5.798577	2.4080234
11.050205185569892	5.704161	2.3883386
11.067813870850198	5.637096	2.3742568
11.085422818292859	5.594908	2.3653557
11.10303202832541	5.5101132	2.347363
11.120641501375454	5.42355	2.3288517
11.138251237870636	5.3020706	2.3026226
11.155861238238671	5.2747536	2.296683
11.173471502907317	5.244253	2.2900333
11.191082032304402	5.2424383	2.289637
11.208692826857805	5.1751575	2.2748973
11.226303886995465	5.1243405	2.2637007
11.243915213145371	5.050902	2.2474213
11.261526805735578	4.9905376	2.233951
11.279138665194196	4.9374313	2.2220333
11.296750791949393	4.861924	2.204977
11.314363186429393	4.779562	2.186221
11.331975849062479	4.710697	2.170414
11.34958878027699	4.650414	2.1564817
11.36720198050133	4.6509733	2.1566114
11.384815450163948	4.595481	2.1437073
11.402429189693366	4.5432816	2.1314974
11.420043199518153	4.4775023	2.116011
11.437657480066942	63.415268	7.9633703
11.455272031768422	85.124916	9.226316
11.472886855051353	107.51352	10.368873
11.490501950344528	99.12229	9.9560175
11.508117318076819	84.46982	9.190746
11.52573295867715	45.82113	6.7691307
11.543348872574514	4.1361246	2.0337465
11.560965060197946	4.096038	2.0238671
11.57858152197655	4.0639176	2.015916
11.59619825833949	4.0297575	2.0074255
11.613815269715985	4.009366	2.00234
11.631432556535323	38.520664	6.206502
11.649050119226837	83.08342	9.11501
11.666667958219929	93.499435	9.669511
11.68428607394406	107.72423	10.379028
11.701904466828756	82.56655	9.086614
11.719523137303586	65.364624	8.084839
11.737142085798196	4.622114	2.1499102
11.754761312742286	3.722577	1.9293981
11.772380818565619	3.689039	1.9206871
11.790000603698015	3.6314194	1.9056283
11.80762066856935	3.5845082	1.8932798
11.825241013609572	3.5447202	1.8827428
11.842861639248683	3.5836773	1.8930603
11.860482545916748	3.5858984	1.8936468
11.878103734043883	3.5569322	1.8859831
11.895725204060282	3.5277743	1.878237
11.91334695639619	3.4843545	1.8666426
11.930968991481919	3.4632773	1.8609883
11.948591309747824	3.4304504	1.8521476
11.966213911624347	3.3617754	1.8335145
11.98383679754198	3.320806	1.8223078
12.001459967931268	3.3156543	1.8208938
12.019083423222835	3.3551285	1.831701
12.036707163847352	3.3306775	1.8250144
12.05433119023556	3.3282378	1.8243458
12.071955502818259	3.2829733	1.8118978
12.089580102026313	3.2155704	1.7932012
12.107204988290643	3.1793232	1.7830657
12.12483016204224	3.1452372	1.7734816
12.142455623712152	3.1479464	1.7742453
12.16008137373149	3.1307871	1.7694031
12.177707412531431	3.1270645	1.7683507
12.19533374054321	3.1359174	1.7708522
12.212960358198126	3.0848	1.7563598
12.230587265927545	3.0545843	1.7477369
12.248214464162889	3.007251	1.7341428
12.265841953335649	2.9920623	1.7297579
12.283469733877375	2.9987173	1.7316805
12.301097806219685	2.984558	1.7275873
12.31872617079425	3.0314484	1.7411056
12.336354828032825	3.030544	1.7408458
12.353983778367205	2.9596655	1.7203679
12.371613022229262	2.90305	1.7038339
12.389242560050928	2.860897	1.6914186
12.406872392264201	2.8396091	1.685114
12.424502519301143	2.8431015	1.68615
12.442132941593874	2.895225	1.701536
12.459763659574586	2.9254959	1.7104081
12.477394673675532	2.9208095	1.7090375
12.49502598432903	2.8966076	1.7019423
12.51265759196746	2.8863516	1.6989266
12.530289497023267	2.8377545	1.6845636
12.547921699928967	2.7939372	1.6715075
12.565554201117134	2.8031201	1.6742522
12.583187001020404	2.8106096	1.6764873
12.600820100071486	2.7891016	1.6700604
12.618453498703152	2.7569346	1.6604019
12.636087197348235	2.7526667	1.6591163
12.65372119643964	2.757404	1.6605433
12.671355496410326	2.8130314	1.6772094
12.68899009769333	2.8105698	1.6764754
12.706625000721749	2.8640597	1.6923532
12.724260205928752	2.9088006	1.7055206
12.741895713747551	2.9283953	1.7112554
12.759531524611454	2.9574401	1.719721
12.777167638953818	2.965711	1.722124
12.794804057208072	2.9797404	1.7261925
12.812440779807702	3.009524	1.734798
12.830077807186271	3.191991	1.7866144
12.847715139777405	3.2651942	1.8069848
12.865352778014795	3.4968643	1.8699905
12.882990722332197	3.5924335	1.8953716
12.90062897316344	3.6870744	1.9201757
12.918267530942412	3.755728	1.93797
12.935906396103071	3.6238298	1.903636
12.953545569079449	3.769296	1.9414675
12.971185050305628	3.6110861	1.9002858
12.988824840215775	3.6265264	1.9043441
13.006464939244115	3.5795567	1.8919716
13.024105347824943	3.4044287	1.8451095
13.041746066392617	3.4945269	1.8693653
13.05938709538157	3.3150306	1.8207226
13.077028435226296	3.3939512	1.842268
13.094670086361363	3.306417	1.8183556
13.112312049221401	3.2454793	1.8015214
13.129954324241112	3.133461	1.7701584
13.147596911855258	2.9337811	1.7128284
13.165239812498685	2.8621488	1.6917887
13.182883026606293	2.7763848	1.6662487
13.200526554613058	2.725378	1.6508719
13.218170396954017	2.6905007	1.6402746
13.235814554064284	2.7355351	1.6539453
13.253459026379034	2.7384555	1.654828
13.271103814333523	2.7362633	1.6541654
13.288748918363058	2.7068133	1.6452396
13.306394338903031	2.6870787	1.6392311
13.32404007638889	2.6600308	1.6309601
13.341686131256164	2.6758573	1.6358048
13.359332503940449	2.6556208	1.6296076
13.376979194877402	2.6546056	1.6292961
13.394626204502751	2.666827	1.6330422
13.412273533252307	2.6518497	1.6284502
13.429921181561937	2.6618462	1.6315166
13.447569149867581	2.686361	1.6390122
13.465217438605247	2.7309258	1.6525513
13.482866048211022	2.7126486	1.647012
13.500514979121052	2.6898127	1.6400648
13.518164231771568	2.6930377	1.6410477
13.535813806598844	2.6996713	1.6430676
13.553463704039254	2.6909764	1.6404196
13.571113924529229	2.6832943	1.6380764
13.588764468505275	2.7260196	1.6510662
13.606415336403956	2.7522557	1.6589924
13.624066528661917	2.7978828	1.6726873
13.641718045715882	2.8587842	1.690794
13.659369888002635	2.9044566	1.7042466
13.67702205595903	2.9763286	1.725204
13.694674550021993	3.0455503	1.7451506
13.712327370628532	3.1129057	1.7643429
13.729980518215713	3.167701	1.7798036
13.747633993220681	3.2331865	1.7981063
13.765287796080647	3.2973566	1.8158625
13.7829419272329	3.351439	1.8306936
13.800596387114801	3.3660915	1.8346912
13.818251176163775	3.3442657	1.8287333
13.835906294817324	3.3629053	1.8338226
13.853561743513023	3.406264	1.8456067
13.871217522688525	3.4534094	1.8583351
13.888873632781538	3.4975412	1.8701714
13.906530074229858	3.5079324	1.8729476
13.92418684747135	3.500263	1.870899
13.941843952943948	3.4852626	1.8668858
13.959501391085665	3.463995	1.861181
13.977159162334578	3.4360683	1.8536634
13.994817267128846	3.3967433	1.8430256
14.012475705906693	3.347051	1.8294947
14.030134479106424	3.2532382	1.8036735
14.047793587166414	3.1471832	1.7740302
14.065453030525108	3.0561533	1.7481858
14.083112809621026	2.9774084	1.7255168
14.100772924892766	2.934998	1.7131836
14.118433376778997	2.9194312	1.7086343
14.136094165718458	2.8335345	1.6833106
14.153755292149969	2.7871425	1.6694738
14.171416756512416	2.7576315	1.6606117
14.189078559244768	2.7579648	1.6607121
14.20674070078606	2.6722	1.6346865
14.224403181575408	2.5794835	1.6060771
14.242066002051999	2.5008097	1.5813948
14.259729162655093	2.490415	1.5781049
14.277392663824022	2.4867868	1.576955
14.295056505998208	2.4901905	1.5780338
14.312720689617128	2.4942486	1.579319
14.330385215120348	2.4592109	1.5681871
14.348050082947497	2.4121592	1.5531127
14.3657152935383	2.3712356	1.5398817
14.383380847332528	2.3504226	1.5331088
14.401046744770051	2.3703456	1.5395926
14.418712986290798	2.394186	1.5473157
14.436379572334793	2.4026349	1.5500435
14.454046503342123	2.4088228	1.5520383
14.471713779752946	2.405502	1.5509682
14.489381402007504	2.3927107	1.5468389
14.507049370546113	2.3827105	1.5436031
14.524717685809168	2.3683827	1.5389551
14.542386348237134	2.448757	1.5648504
14.560055358270553	2.482726	1.5756669
14.577724716350051	2.4972627	1.580273
14.595394422916325	2.484014	1.5760756
14.61306447841015	2.5249593	1.589012
14.63073488327237	2.5148456	1.5858265
14.648405637943917	2.5263345	1.5894448
14.6660767428658	2.494309	1.5793382
14.683748198479094	2.5067475	1.5832711
14.701420005224954	2.5218942	1.5880473
14.719092163544628	2.5928888	1.610245
14.73676467387942	2.645284	1.6264329
14.754437536670727	2.682932	1.6379658
14.772110752360014	2.6747386	1.6354629
14.78978432138882	2.68715	1.6392529
14.807458244198777	2.6803925	1.6371905
14.82513252123159	2.6643937	1.632297
14.842807152929028	2.6628072	1.631811
14.860482139732962	2.6815176	1.637534
14.87815748208531	2.7058928	1.6449598
14.8958331804281	2.7323174	1.6529723
14.91350923520342	2.7008739	1.6434336
14.931185646853438	2.6902802	1.6402074
14.948862415820408	2.6960917	1.641978
14.966539542546656	2.7174473	1.6484681
14.98421702747459	2.6801817	1.6371261
15.001894871046696	2.6542952	1.6292008
15.019573073705542	2.6753232	1.6356416
15.037251635893766	2.6886537	1.6397115
15.054930558054092	2.7244482	1.6505903
15.072609840629323	2.7858195	1.6690774
15.090289484062351	2.9496198	1.7174457
15.107969488796124	3.2612364	1.8058894
15.125649855273691	3.6779041	1.9177862
15.14333058393817	4.1728168	2.0427473
15.161011675232768	5.1274467	2.2643867
15.17869312960076	6.389113	2.5276694
15.196374947485506	8.197159	2.863068
15.214057129330447	11.267342	3.356686
15.231739675579114	16.005991	4.0007486
15.249422586675102	20.993807	4.5819
15.267105863062092	24.04527	4.903598
15.284789505183847	24.278986	4.927371
15.302473513484218	22.17101	4.70861
15.320157888407127	18.59895	4.3126497
15.337842630396578	14.486417	3.8061025
15.355527739896656	11.297386	3.3611584
15.37321321735153	8.855022	2.975739
15.39089906320545	6.530347	2.5554543
15.408585277902748	4.9051857	2.2147653
15.42627186188783	3.7864454	1.9458791
15.443958815605198	3.2478821	1.8021882
15.461646139499424	2.947392	1.716797
15.479333834015168	2.8133292	1.6772982
15.497021899597165	2.798915	1.6729958
15.514710336690234	2.727937	1.6516467
15.53239914573928	2.66445	1.6323143
15.550088327189297	2.5746396	1.6045684
15.567777881485336	2.5560203	1.5987558
15.58546780907256	2.5147152	1.5857854
15.6031581103962	2.5175977	1.586694
15.620848785901568	2.5173833	1.5866264
15.638539836034063	2.4972754	1.580277
15.656231261239173	2.4719367	1.5722394
15.673923061962451	2.4604483	1.5685816
15.691615238649552	2.4612062	1.5688232
15.709307791746202	2.4488616	1.564884
15.727000721698221	2.4565494	1.5673383
15.744694028951498	2.4375453	1.561264
15.76238771395202	2.4099038	1.5523865
15.780081777145844	2.368455	1.5389786
15.797776218979125	2.3792324	1.542476
15.815471039898094	2.396356	1.5480168
15.833166240349064	2.3735673	1.5406386
15.850861820778437	2.3554144	1.5347359
15.868557781632699	2.3353698	1.5281917
15.886254123358412	2.3248043	1.5247309
15.903950846402232	2.3449476	1.5313221
15.921647951210897	2.391331	1.5463929
15.939345438231225	2.4166603	1.5545611
15.957043307910133	2.4038205	1.5504259
15.974741560694602	2.3639996	1.5375303
15.992440197031714	2.383534	1.5438699
16.01013921736862	2.3987172	1.5487792
16.02783862215259	2.3971703	1.5482798
16.045538411830933	2.3471453	1.5320396
16.06323858685107	2.361261	1.5366395
16.080939147660512	2.386794	1.5449252
16.09864009470684	2.3894033	1.5457695
16.11634142843774	2.4217687	1.5562032
16.134043149300954	2.4061573	1.5511793
16.15174525774433	2.4311488	1.5592141
16.169447754215817	2.4297314	1.5587596
16.18715063916342	2.419084	1.5553405
16.204853913035244	2.4255807	1.5574276
16.222557576279478	2.4546595	1.5667353
16.240261629344403	22.490395	4.742404
16.257966072678386	43.0611	6.5620956
16.275670906729868	38.149494	6.1765275
16.293376131947387	2.5288384	1.5902321
16.31108174877957	2.5243247	1.5888124
16.328787757675133	2.5630064	1.6009393
16.34649415908287	2.5866861	1.6083179
16.364200953451657	2.6050053	1.6140028
16.38190814123048	2.5711997	1.6034961
16.39961572286839	2.5714066	1.6035606
16.41732369881455	2.6369066	1.6238555
16.43503206951817	2.685876	1.6388642
16.45274083542859	2.7542806	1.6596025
16.47044999699522	2.7892568	1.6701068
16.488159554667558	2.8522966	1.6888744
16.505869508895184	2.871563	1.6945686
16.523579860127786	2.951307	1.7179369
16.541290608815117	3.025385	1.7393633
16.559001755407035	3.0489724	1.7461307
16.57671330035348	3.053338	1.7473804
16.59442524410448	3.0794704	1.754842
16.61213758711015	3.1600275	1.7776467
16.629850329820705	3.227726	1.7965873
16.647563472686436	3.3270102	1.8240094
16.665277016157724	3.4299457	1.8520112
16.682990960685053	3.4715285	1.8632039
16.70070530671898	3.4744701	1.863993
16.718420054710155	3.486144	1.8671218
16.736135205109335	3.5645258	1.8879952
16.753850758367335	3.6243293	1.9037671
16.771566714935087	3.6299217	1.9052353
16.789283075263597	3.684848	1.9195958
16.80699983980398	3.7350445	1.9326264
16.82471700900741	3.8467453	1.9613122
16.84243458332518	3.9441478	1.9859879
16.860152563208665	4.0073323	2.0018322
16.87787094910932	4.0109625	2.0027387
16.89558974147871	4.019638	2.0049036
16.913308940768466	4.1052804	2.0261493
16.931028547430333	4.2144175	2.0529046
16.94874856191613	4.3361278	2.0823371
16.966468984677785	4.3537173	2.0865564
16.98418981616729	4.3853273	2.0941174
17.00191105683676	4.4279237	2.1042633
17.019632707138374	4.4853826	2.1178722
17.03735476752442	4.5299597	2.1283703
17.05507723844728	4.599826	2.1447206
17.072800120359403	4.63599	2.153135
17.090523413713353	4.661786	2.159117
17.108247118961785	4.6352606	2.1529655
17.125971236557437	4.6502385	2.1564412
17.143695766953133	4.6733546	2.1617944
17.161420710601806	4.694358	2.1666467
17.179146067956477	4.7201552	2.172592
17.19687183947025	4.688278	2.1652431
17.21459802559634	4.6421194	2.1545577
17.232324626788028	4.665342	2.1599402
17.25005164349871	4.6892853	2.1654758
17.267779076181863	4.725581	2.1738403
17.285506925291074	4.682849	2.163989
17.30323519127999	4.6254606	2.1506884
17.320963874602384	4.5677304	2.137225
17.33869297571211	4.569055	2.1375349
17.356422495063114	4.609592	2.146996
17.37415243310944	4.58531	2.1413336
17.391882790305218	4.5380416	2.1302679
17.40961356710468	4.503779	2.1222107
17.42734476396215	4.523702	2.1268997
17.445076381332044	4.536556	2.1299193
17.462808419668868	4.6185527	2.1490817
17.48054087942723	4.7644124	2.1827533
17.498273761061835	5.0478206	2.2467356
17.51600706502747	5.4996476	2.3451328
17.533740791779024	6.223481	2.4946907
17.551474941771485	7.6566577	2.7670667
17.56920951545993	8.7284355	2.9543927
17.586944513299528	10.788377	3.2845664
17.60467993574556	12.292933	3.506128
17.622415783253373	13.892406	3.7272518
17.64015205627843	15.230158	3.9025836
17.657888755276293	16.384235	4.0477443
17.675625880702604	16.922243	4.1136656
17.69336343301311	16.88029	4.108563
17.71110141266366	16.174341	4.0217338
17.728839820110178	15.22979	3.9025364
17.746578655808705	14.172777	3.764675
17.764317920215372	12.724894	3.5671968
17.7820576137864	11.295894	3.3609364
17.79979773697811	9.340165	3.0561683
17.81753829024692	7.4582353	2.730977
17.835279274049356	5.7691493	2.4019053
17.85302068884201	4.839695	2.1999307
17.870762535081607	4.2274747	2.0560822
17.888504813224934	3.9314237	1.9827818
17.90624752372891	3.7511408	1.9367862
17.923990667050536	3.674113	1.9167976
17.941734243646895	3.5578165	1.8862175
17.959478253975185	3.4779866	1.8649361
17.9772226984927	3.4318297	1.8525199
17.994967577656833	3.412573	1.8473151
18.01271289192506	3.4157648	1.8481787
18.030458641754965	3.3460157	1.8292117
18.04820482760425	3.2944324	1.8150572
18.06595144993067	3.3060355	1.8182507
18.083698509192125	3.277163	1.8102937
18.101446005846576	3.2852876	1.8125362
18.119193940352105	3.2478497	1.8021791
18.136942313166887	3.2138472	1.7927206
18.1546911247492	3.1842473	1.7844459
18.1724403755574	3.14913	1.7745788
18.19019006604997	3.1616855	1.7781129
18.207940196685467	3.149053	1.7745571
18.225690767922575	3.125876	1.7680147
18.243441780220046	3.0870106	1.7569891
18.261193234036764	3.0647027	1.7506292
18.278945129831676	3.0752656	1.7536435
18.29669746806386	3.0359163	1.7423881
18.314450249192483	3.01437	1.7361941
18.3322034736768	3.0070157	1.7340748
18.349957141976184	3.0584815	1.7488514
18.3677112545501	3.0941405	1.7590169
18.385465811858108	3.0882952	1.7573546
18.403220814359884	3.0792077	1.7547672
18.420976262515172	3.1050048	1.7621024
18.43873215678387	3.136714	1.771077
18.456488497625923	3.1842644	1.7844508
18.474245285501407	3.232978	1.7980484
18.492002520870486	3.3098295	1.8192936
18.50976020419343	3.38082	1.8387007
18.527518335930615	3.7044752	1.9247013
18.545276916542516	4.3123417	2.076618
18.563035946489688	4.463347	2.1126635
18.580795426232832	4.8577743	2.204036
18.598555356232698	4.722765	2.1731923
18.616315736950185	5.0166626	2.2397907
18.63407656884626	4.7086577	2.1699443
18.65183785238201	4.9110928	2.2160985
18.669599588018617	4.7234387	2.1733475
18.68736177621737	4.709902	2.1702309
18.705124417439652	4.742148	2.1776474
18.72288751214696	4.5444713	2.1317766
18.740651060800886	4.6863127	2.1647892
18.758415063863115	4.387982	2.0947511
18.77617952179546	4.561488	2.1357641
18.793944435059814	4.2982597	2.0732245
18.811709804118184	4.338342	2.0828688
18.829475629432675	4.3447685	2.084411
18.8472419114655	4.1278296	2.031706
18.86500865067897	4.1447735	2.0358717
18.88277584753551	3.728785	1.9310062
18.90054350249763	3.7318199	1.9317919
18.918311616027957	3.4073577	1.8459029
18.936080188589226	3.3223615	1.8227346
18.953849220644265	2.991089	1.7294766
18.971618712656007	2.8287008	1.6818742
18.9893886650875	2.7602262	1.6613928
19.007159078401887	7.9696646	2.8230593
19.024929953062408	32.868095	5.7330704
19.042701289532435	32.842285	5.7308187
19.060473088275405	25.414507	5.0412803
19.07824534975489	2.714116	1.6474575
19.096018074434568	2.676133	1.635889
19.113791262778197	2.6549497	1.6294017
19.13156491524966	2.6148624	1.6170536
19.149339032312945	2.591664	1.6098646
19.167113614432136	2.5492513	1.5966375
19.184888662071433	2.531325	1.5910139
19.202664175695123	2.5378954	1.5930773
19.220440155767623	2.5207574	1.5876893
19.238216602753447	2.4894657	1.5778041
19.2559935171172	2.4836383	1.5759563
19.27377089932361	2.5111258	1.5846533
19.291548749837514	2.5913577	1.6097695
19.309327069123835	2.5751553	1.604729
19.32710585764763	2.544338	1.5950981
19.344885115874032	2.4818764	1.5753973
19.362664844268313	2.452231	1.56596
19.380445043295822	2.451237	1.5656427
19.39822571342203	2.4970684	1.5802115
19.41600685511252	2.4847028	1.5762941
19.43378846883297	2.471465	1.5720894
19.451570555049173	2.4867074	1.5769298
19.469353114227037	2.5267327	1.5895699
19.48713614683254	2.5119772	1.5849218
19.50491965333182	2.4548695	1.5668023
19.52270363419109	2.4200082	1.5556376
19.540488089876686	2.4248328	1.5571874
19.55827302085503	2.4765189	1.5736959
19.576058427592674	2.4949617	1.5795448
19.593844310556282	2.49859	1.5806929
19.611630670212598	2.4806108	1.5749955
19.629417507028506	2.471325	1.5720448
19.64720482147098	2.4837382	1.575988
19.6649926140071	2.5217667	1.5880071
19.682780885104084	2.565929	1.6018517
19.70056963522921	2.5455828	1.5954883
19.718358864849908	2.4987285	1.5807368
19.7361485744337	2.4847636	1.5763133
19.753938764448215	2.5173962	1.5866305
19.771729435361202	2.5674384	1.6023228
19.789520587640506	2.5752532	1.6047596
19.807312221754092	2.5588095	1.599628
19.825104338170043	2.5189908	1.5871329
19.842896937356517	2.477197	1.5739113
19.860690019781824	2.5036824	1.5823029
19.87848358591436	2.5270922	1.589683
19.896277636222635	2.5278747	1.5899291
19.914072171175278	2.5095158	1.5841451
19.931867191241015	2.5167172	1.5864165
19.94966269688869	2.5162163	1.5862585
19.967458688587264	2.4859493	1.5766894
19.985255166805807	2.4899654	1.5779624
20.00305213201348	2.4759188	1.5735053
20.020849584679578	2.460595	1.5686283
20.038647525273507	2.4615521	1.5689335
20.05644595426477	2.4583132	1.5679009
20.07424487212299	2.4434948	1.5631682
20.092044279317903	2.461848	1.5690278
20.109844176319353	2.4975972	1.5803788
20.127644563597304	2.46459	1.5699013
20.145445441621817	2.4567661	1.5674075
20.16324681086307	2.4478133	1.5645489
20.181048671791373	2.4742985	1.5729903
20.198851024877122	2.4874094	1.5771523
20.216653870590836	2.463608	1.5695885
20.234457209403146	2.43308	1.5598333
20.252261041784802	2.3875933	1.5451839
20.270065368206662	2.3745494	1.5409573
20.287870189139685	2.3771093	1.5417877
20.305675505054968	2.3893704	1.5457588
20.323481316423702	2.4144793	1.5538595
20.341287623717207	2.4176557	1.5548812
20.359094427406884	2.401634	1.5497206
20.376901727964288	2.3827965	1.543631
20.39470952586107	2.354808	1.5345384
20.41251782156899	2.3242457	1.5245477
20.430326615559935	2.281163	1.5103519
20.448135908305886	2.2703967	1.5067836
20.465945700278965	2.3008826	1.5168661
20.483755991951384	2.3133554	1.5209719
20.50156678379548	2.325621	1.5249987
20.519378076283708	2.3630154	1.5372102
20.537189869888635	2.3858404	1.5446166
20.55500216508294	2.363947	1.5375133
20.572814962339415	2.3167117	1.5220748
20.59062826213098	2.30565	1.5184367
20.60844206493066	2.3343437	1.5278559
20.626256371211593	2.3528612	1.533904
20.644071181447032	2.3622227	1.5369524
20.66188649611036	2.3408303	1.5299772
20.67970231567506	2.3134072	1.520989
20.697518640614742	2.2883785	1.5127387
20.715335471403122	2.2988722	1.5162033
20.73315280851404	2.3050396	1.5182357
20.750970652421447	2.2873244	1.5123903
20.768789003599412	2.2733593	1.5077664
20.786607862522136	2.271783	1.5072435
20.8044272296639	2.2817037	1.510531
20.82224710549913	2.2891223	1.5129846
20.84006749050237	2.327327	1.5255579
20.857888385148268	3.8829844	1.970529
20.8757097899116	45.96264	6.7795753
20.893531705267254	64.82232	8.05123
20.911354131690224	83.830154	9.155881
20.92917706965566	69.080696	8.31148
20.94700051963877	50.111732	7.078964
20.96482448211493	29.37054	5.4194593
20.982648957559622	4.145015	2.0359309
21.00047394644843	2.2576373	1.5025436
21.01829944925707	2.2414114	1.4971344
21.036125466461375	2.2170029	1.4889604
21.053951998537297	2.2410252	1.4970055
21.071779045960906	2.2562943	1.5020967
21.089606609208378	2.2759666	1.5086308
21.10743468875603	2.2725658	1.5075032
21.12526328508028	2.2764044	1.5087758
21.143092398657675	2.2467349	1.4989113
21.16092202996488	2.2257106	1.4918816
21.17875217947867	2.2280087	1.4926516
21.19658284767596	2.2357876	1.495255
21.21441403503377	2.2132251	1.4876912
21.232245742029225	2.2024403	1.4840621
21.2500779691396	2.2431889	1.4977279
21.26791071684227	2.2669213	1.5056299
21.28574398561475	2.2323358	1.4941003
21.30357777593465	2.1615272	1.4702133
21.321412088279704	2.1268291	1.4583652
21.339246923127792	2.1251798	1.4577997
21.357082280956888	2.1661189	1.4717741
21.3749181622451	2.2088652	1.4862251
21.392754567470647	2.1953785	1.481681
21.41059149711187	2.185953	1.4784968
21.42842895164726	2.1566894	1.4685671
21.446266931555378	2.1242976	1.457497
21.464105437314945	2.0907497	1.4459425
21.481944469404798	2.0789695	1.4418632
21.49978402830388	2.0876205	1.44486
21.51762411449127	2.0905826	1.4458847
21.53546472844617	2.0934734	1.446884
21.553305870647876	2.0647237	1.4369147
21.571147541575865	2.095455	1.4475687
21.58898974170967	2.1222963	1.4568104
21.60683247152899	2.131339	1.4599106
21.62467573151363	2.127214	1.4584972
21.642519522143523	2.14445	1.4643941
21.660363843898722	2.1117446	1.4531844
21.6782086972594	2.0856183	1.444167
21.696054082705864	2.0585263	1.4347565
21.713900000718535	2.0281491	1.424131
21.73174645177795	2.033672	1.4260688
21.749593436364794	2.0180035	1.4205645
21.767440954959845	2.0154452	1.4196638
21.785289008044032	1.996457	1.4129604
21.803137596098388	2.032186	1.4255476
21.820986719604086	2.0548308	1.4334681
21.838836379042412	2.0605962	1.4354777
21.85668657489478	2.0514474	1.4322875
21.87453730764273	2.038751	1.4278483
21.892388577767914	2.0356944	1.4267776
21.91024038575213	2.0203578	1.4213929
21.928092732077285	2.0081823	1.4171035
21.945945617225426	2.0015948	1.4147773
21.963799041678694	2.0259192	1.4233478
21.981653005919398	31.353722	5.5994396
21.999507510429943	78.12518	8.838845
22.01736255569286	73.05489	8.547215
22.035218142190818	4.1518726	2.0376143
22.05307427040661	1.9622039	1.4007869
22.07093094082315	1.9562168	1.3986483
22.088788153923474	1.9826467	1.4080648
22.106645910190746	2.0078063	1.4169708
22.12450421010827	2.0169	1.420176
22.142363054159464	1.9988259	1.4137985
22.16022244282787	1.9987701	1.4137787
22.178082376597164	1.9871922	1.409678
22.195942855951145	1.9945992	1.4123029
22.213803881373742	1.9791065	1.4068072
22.231665453349002	1.9758538	1.4056506
22.24952757236111	2.0037303	1.4155318
22.26739023889438	1.9482564	1.3957995
22.28525345343323	1.9306704	1.3894856
22.30311721646225	1.9244865	1.3872586
22.320981528466113	1.9693657	1.4033409
22.33884638992964	1.9877542	1.4098774
22.356711801337788	1.9894867	1.4104917
22.37457776317561	1.967374	1.402631
22.392444275928337	1.9666237	1.4023637
22.410311340081282	1.9521389	1.3971896
22.428178956119904	1.9374815	1.3919344
22.446047124529805	1.9351122	1.3910831
22.46391584579669	1.9818077	1.4077669
22.481785120406414	1.9711334	1.4039706
22.49965494884496	1.9448508	1.394579
22.51752533159841	1.9694949	1.403387
22.53539626915302	1.987281	1.4097096
22.553267761995137	1.9591967	1.399713
22.571139810611264	1.9323502	1.39009
22.589012415488025	1.9462308	1.3950738
22.60688557711216	1.9537443	1.3977641
22.624759295970566	1.944847	1.3945777
22.642633572550263	1.942493	1.3937335
22.660508407338362	1.9520795	1.3971684
22.67838380082217	1.9404339	1.3929945
22.696259753489077	1.9506779	1.3966666
22.714136265826614	1.9198331	1.3855804
22.73201333832246	1.9414216	1.393349
22.74989097146439	1.9583516	1.3994112
22.76776916574035	1.9505335	1.396615
22.785647921638393	1.9131535	1.383168
22.803527239646712	1.908024	1.3813124
22.82140712025363	1.9258167	1.387738
22.839287563947593	1.9620819	1.4007434
22.85716857121719	1.9302101	1.38932
22.875050142551135	1.9252042	1.3875172
22.892932278438277	1.9394971	1.3926582
22.910814979367604	1.9844365	1.4087003
22.928698245828222	1.9780505	1.4064318
22.946582078309387	1.945531	1.394823
22.96446647730047	1.9551101	1.3982525
22.98235144329098	1.9454999	1.3948117
23.000236976770562	1.9230646	1.386746
23.018123078229	1.8920604	1.3755219
23.03600974815619	1.9121526	1.3828061
23.053896987042194	1.9103101	1.3821397
23.071784795377173	1.9001899	1.3784738
23.08967317365145	1.8826004	1.3720789
23.10756212235546	1.8933039	1.3759738
23.125451641979787	1.908313	1.381417
23.143341733015134	1.9411323	1.3932452
23.161232395952357	1.9087723	1.3815833
23.179123631282426	1.9560915	1.3986034
23.197015439496468	2.005962	1.4163198
23.214907821085717	2.0147114	1.4194053
23.23280077654157	1.9369811	1.3917546
23.250694306355538	1.9150424	1.3838506
23.268588411019277	1.9206479	1.3858744
23.28648309102458	1.9340801	1.3907121
23.304378346863356	1.9328226	1.3902599
23.322274179027676	1.9147857	1.3837578
23.340170588009723	1.9656365	1.4020116
23.358067574301852	1.9625363	1.4009055
23.37596513839651	1.9668499	1.4024442
23.39386328078629	1.9535536	1.3976958
23.411762001963947	1.9753542	1.405473
23.429661302422353	2.0082228	1.4171178
23.4475611826545	1.9998721	1.4141684
23.46546164315356	1.985159	1.4089568
23.48336268441279	1.9235766	1.3869306
23.501264306925638	1.9233202	1.3868382
23.51916651118564	1.9391078	1.3925185
23.537069297686497	1.9304544	1.3894079
23.554972666922037	1.9019555	1.379114
23.57287661938623	1.8718108	1.3681414
23.59078115557318	1.8659359	1.3659927
23.608686275977128	1.9022098	1.3792062
23.62659198109246	1.8940217	1.3762347
23.6444982714137	1.9045662	1.3800602
23.66240514743549	1.8966924	1.3772045
23.68031260965263	1.9492006	1.3961377
23.698220658560068	1.9358579	1.3913511
23.716129294652845	1.9452313	1.3947155
23.7340385184262	1.9442273	1.3943555
23.75194833037546	1.9328283	1.390262
23.769858730996123	1.9344121	1.3908315
23.78776972078382	1.8986856	1.377928
23.80568130023431	1.8962291	1.3770363
23.823593469843495	1.9130303	1.3831234
23.841506230107424	1.9032807	1.3795944
23.859419581522275	1.9031144	1.3795341
23.87733352458438	1.9013549	1.3788962
23.89524805979019	1.8769245	1.370009
23.913163187636318	1.8761826	1.3697381
23.931078908619508	1.9218347	1.3863026
23.948995223236633	1.9469632	1.3953363
23.966912131984735	2.0017667	1.4148381
23.98482963536096	2.0259645	1.4233638
24.002747733862616	2.024177	1.4227358
24.020666427987155	2.007411	1.4168314
24.038585718232156	2.0272002	1.4237978
24.056505605095353	1.9979457	1.4134871
24.074426089074617	1.9918818	1.4113405
24.092347170667946	1.9900079	1.4106764
24.110268850373515	2.0259166	1.423347
24.128191128689586	2.0294774	1.4245973
24.146114006114626	2.0267591	1.4236429
24.164037483147187	2.031334	1.4252487
24.181961560286005	2.050291	1.4318837
24.199886238029926	2.0629165	1.4362856
24.21781151687797	2.0989628	1.4487797
24.235737397329274	2.1003168	1.449247
24.253663879883135	2.0590572	1.4349415
24.271590965038975	2.0206406	1.4214923
24.289518653296376	1.9997884	1.4141388
24.30744694515505	2.0241332	1.4227203
24.32537584111486	2.0483167	1.4311942
24.34330534167581	2.0380805	1.4276135
24.361235447338046	2.0229628	1.4223089
24.379166158601876	2.0003598	1.4143407
24.39709747596772	1.9990298	1.4138705
24.41502939993615	2.0296898	1.4246718
24.432961931007917	2.020137	1.4213153
24.450895069683856	2.0137503	1.4190667
24.468828816465	1.9467688	1.3952665
24.4867631718525	1.898929	1.3780164
24.504698136347656	1.930518	1.3894309
24.52263371045192	1.9464242	1.395143
24.540569894666874	1.9750808	1.4053757
24.558506689494266	1.920004	1.385642
24.57644409543597	1.9113679	1.3825223
24.594382112994012	1.9099048	1.381993
24.61232074267057	1.9639633	1.4014148
24.630259984967953	1.98834	1.4100851
24.64819984038863	1.9788666	1.406722
24.66614030943522	1.9993676	1.4139899
24.684081392610462	2.0195222	1.421099
24.702023090417274	2.0500867	1.4318124
24.7199654033587	2.0082185	1.4171163
24.737908331937927	1.974491	1.4051658
24.755851876658305	1.9901205	1.4107163
24.773796038023324	2.0428169	1.4292715
24.79174081653661	2.0696526	1.4386287
24.809686212701962	2.07429	1.4402395
24.827632227023294	2.070503	1.4389242
24.8455788600047	2.0789454	1.4418548
24.8635261121504	2.0912902	1.4461294
24.88147398396475	2.0495448	1.4316231
24.899422475952303	2.0848897	1.4439147
24.917371588617698	2.1402626	1.4629636
24.935321322465768	2.1743457	1.4745663
24.953271678001478	2.2357643	1.4952472
24.97122265572994	2.4574351	1.5676209
24.989174256156414	2.780116	1.667368
25.00712647978632	3.2553384	1.8042556
25.02507932712521	3.8313208	1.957376
25.043032798678798	4.3886037	2.0948994
25.060986894952933	4.946056	2.223973
25.078941616453637	5.6180687	2.3702466
25.096896963687055	6.54449	2.5582201
25.114852937159508	7.621947	2.7607872
25.132809537377444	8.142786	2.8535566
25.150766764847468	8.202878	2.8640666
25.168724620076347	7.693497	2.7737155
25.186683103570985	6.615133	2.57199
25.204642215838426	5.434105	2.3311167
25.222601957385894	4.1406074	2.0348482
25.24056232872074	3.1981514	1.7883376
25.25852333035048	2.6321695	1.6223962
25.276484962782778	2.253196	1.5010649
25.294447226525435	2.046034	1.4303964
25.312410122086423	1.9461802	1.3950557
25.330373649973843	1.9471483	1.3954026
25.348337810695988	1.9571471	1.3989807
25.366302604761245	1.96502	1.4017917
25.384268032678207	1.9543234	1.3979712
25.40223409495558	1.9383569	1.3922489
25.420200792102257	1.883743	1.3724952
25.438168124627246	1.878073	1.3704281
25.45613609303974	1.8602685	1.3639166
25.474104697849057	1.900664	1.3786457
25.492073939564698	1.8655761	1.3658609
25.510043818696285	1.8888716	1.3743622
25.528014335753614	1.9140424	1.3834893
25.54598549124664	1.9305751	1.3894514
25.56395728568544	1.848527	1.3596054
25.58192971958028	1.8286581	1.3522788
25.59990279344156	1.8538958	1.3615785
25.617876507779833	1.855866	1.3623017
25.635850863105826	1.8313192	1.3532624
25.653825859930386	1.8055837	1.3437201
25.671801498764548	1.8581951	1.3631563
25.68977778011949	1.8945612	1.3764306
25.707754704506524	1.8942746	1.3763264
25.725732272437153	1.8515737	1.3607254
25.743710484423012	1.8131891	1.3465471
25.761689340975888	1.8411067	1.3568739
25.77966884260774	1.8602351	1.3639044
25.797648989830662	1.8738446	1.3688844
25.815629783156922	1.8531361	1.3612994
25.83361122309895	1.8428894	1.3575306
25.85159331016929	1.8472736	1.3591444
25.869576044880695	1.8748312	1.3692448
25.887559427746034	1.8519602	1.3608674
25.90554345927836	1.8433965	1.3577174
25.92352813999086	1.8118753	1.3460592
25.94151347039689	1.8064903	1.3440574
25.959499451009965	1.8292017	1.3524798
25.97748608234374	1.8634567	1.3650849
25.995473364912062	1.885614	1.3731766
26.013461299228904	1.8687252	1.3670132
26.03144988580839	1.8796134	1.3709899
26.04943912516483	1.8610536	1.3642044
26.067429017812675	1.864713	1.3655449
26.085419564266537	1.8700786	1.3675082
26.103410765041186	1.8880725	1.3740715
26.12140262065155	1.9174322	1.3847138
26.139395131612723	1.8862444	1.3734062
26.157388298439948	1.8724003	1.3683568
26.17538212164861	1.8380736	1.3557557
26.193376601754295	1.8508934	1.3604754
26.211371739272714	1.8068719	1.3441993
26.229367534719746	1.8085871	1.3448372
26.247363988611433	1.854712	1.3618782
26.26536110146397	1.8868566	1.373629
26.283358873793727	1.8767086	1.3699301
26.301357306117204	1.8616948	1.3644394
26.319356398951104	1.8635955	1.3651357
26.33735615281224	1.8322693	1.3536134
26.35535656821762	1.8165672	1.3478009
26.373357645684404	1.831822	1.3534482
26.39135938572991	1.8437877	1.3578614
26.409361788871614	1.8261693	1.3513583
26.427364855627165	1.7836126	1.3355196
26.445368586514352	1.7952758	1.339879
26.46337298205115	1.8654408	1.3658115
26.48137804275568	1.8806456	1.3713664
26.499383769146217	1.8284345	1.3521962
26.517390161741215	1.7845649	1.3358761
26.53539722105928	1.7466273	1.3216003
26.553404947619182	1.7485988	1.322346
26.571413341939856	1.7425716	1.320065
26.589422404540397	1.7620977	1.3274403
26.60743213594006	1.787025	1.3367965
26.62544253665827	1.8138317	1.3467857
26.64345360721459	1.7830119	1.3352947
26.66146534812879	1.7445649	1.3208197
26.679477759920758	1.819126	1.3487498
26.69749084311057	1.869173	1.367177
26.71550459821847	1.8496268	1.3600098
26.733519025764842	1.8422959	1.357312
26.751534126270258	1.8358623	1.3549399
26.769549900255434	1.8342718	1.354353
26.787566348241267	1.8108972	1.3456959
26.80558347074881	1.7995181	1.3414612
26.823601268299267	1.8403391	1.356591
26.841619741414036	1.8381188	1.3557724
26.85963889061465	1.7812941	1.3346514
26.877658716422832	1.747952	1.3221014
26.89567921936045	1.8016489	1.3422551
26.913700399949544	1.8415284	1.3570293
26.93172225871233	1.8732297	1.3686599
26.949744796171174	1.8662752	1.3661169
26.967768012848605	1.874874	1.3692604
26.98579190926733	1.8365611	1.3551978
27.003816485950225	1.8110923	1.3457683
27.021841743420318	1.8050574	1.3435242
27.039867682200814	1.8129351	1.3464528
27.057894302815072	1.8333495	1.3540124
27.07592160578664	1.8142569	1.3469435
27.0939495916392	1.8632933	1.365025
27.111978260896635	1.8997123	1.3783005
27.13000761408296	1.8831269	1.3722707
27.148037651722397	1.8164318	1.3477507
27.166068374339304	1.7700297	1.3304247
27.184099782458215	1.7570763	1.3255476
27.20213187660384	1.8168232	1.3478959
27.22016465730105	1.8448337	1.3582466
27.23819812507487	1.8301519	1.3528311
27.256232280450533	1.8211024	1.3494823
27.274267123953383	1.793831	1.3393397
27.292302656108987	1.8061868	1.3439445
27.31033887744306	1.8404688	1.3566388
27.32837578848146	1.8519121	1.3608497
27.34641338975026	1.8306973	1.3530326
27.364451681775673	1.7825199	1.3351104
27.382490665084074	1.7616652	1.3272774
27.400530340202046	1.7637858	1.328076
27.41857070765629	1.7646389	1.3283972
27.436611767973726	1.7882751	1.3372641
27.454653521681404	1.814327	1.3469696
27.472695969306564	1.8174088	1.3481131
27.490739111376627	1.8501204	1.3601913
27.508782948419153	1.8791056	1.3708047
27.526827480961902	1.7956246	1.3400092
27.54487270953279	1.7496159	1.3227304
27.562918634659898	1.7765051	1.3328559
27.580965256871508	1.8080367	1.3446325
27.599012576696026	1.8634311	1.3650755
27.617060594662068	1.8847566	1.3728644
27.63510931129842	1.8575402	1.3629161
27.65315872713401	1.789616	1.3377653
27.67120884269797	1.773841	1.3318563
27.68925965851958	1.7734153	1.3316964
27.707311175128307	1.7730052	1.3315424
27.725363393053787	1.825761	1.3512073
27.74341631282583	1.836005	1.3549926
27.7614699349744	1.843096	1.3576068
27.77952426002968	2.0483313	1.4311992
27.797579288521973	2.1515872	1.466829
27.815635020981784	2.591247	1.6097351
27.83369145793979	2.6382546	1.6242704
27.85174859992682	2.4545007	1.5666846
27.869806447473923	2.3179855	1.5224932
27.887865001112267	2.0358293	1.4268249
27.905924261373233	1.8930129	1.3758681
27.92398422878836	1.8928882	1.3758228
27.94204490388936	1.8559813	1.362344
27.96010628720813	1.8577267	1.3629845
27.978168379276728	1.8606898	1.364071
27.9962311806274	1.8504194	1.3603013
28.014294691792568	1.8523723	1.3610189
28.0323589133048	1.851882	1.3608387
28.050423845696887	1.8266567	1.3515387
28.068489489501758	1.7915329	1.3384815
28.086555845252523	1.8061316	1.3439239
28.104622913482487	1.8052528	1.3435969
28.122690694725115	1.8738515	1.368887
28.14075918951405	1.912858	1.383061
28.15882839838312	1.934432	1.3908386
28.176898321866304	1.856962	1.3627039
28.1949689604978	1.8624269	1.3647076
28.213040314811945	1.8496127	1.3600047
28.23111238534327	1.8322906	1.3536214
28.249185172626493	1.862274	1.3646517
28.267258677196473	1.9074516	1.3811052
28.285332899588294	1.9665227	1.4023277
28.303407840337172	1.9764346	1.4058572
28.321483499978545	1.9794906	1.4069437
28.33955987904799	1.9476568	1.3955847
28.357636978081285	1.9111813	1.3824549
28.37571479761439	1.888203	1.374119
28.393793338183425	1.9168961	1.3845202
28.41187260032469	1.9576707	1.3991679
28.429952584574686	1.9612882	1.40046
28.448033291470065	1.9245579	1.3872844
28.46611472154769	1.9747932	1.4052733
28.484196875344566	2.0360389	1.4268984
28.502279753397914	2.0614665	1.4357808
28.52036335624511	2.0250053	1.4230268
28.538447684423716	1.9725443	1.404473
28.556532738471482	1.9287933	1.38881
28.574618518926325	1.9336269	1.3905492
28.59270502632635	1.9593211	1.3997575
28.61079226120985	2.0918663	1.4463285
28.628880224115274	2.084549	1.4437968
28.646968915581287	2.0260177	1.4233825
28.66505833614671	2.0298803	1.4247386
28.68314848635055	2.061013	1.4356228
28.701239366732004	2.0319028	1.4254483
28.71933097783044	2.02374	1.4225821
28.737423320185403	2.0515952	1.4323391
28.75551639433665	2.075256	1.4405749
28.773610200824074	2.1303375	1.4595675
28.791704740187793	2.1432314	1.4639779
28.80980001296809	2.1026573	1.4500543
28.827896019705413	2.105729	1.4511131
28.845992760940433	2.1712227	1.4735069
28.86409023721397	2.2392752	1.4964209
28.88218844906704	2.1974177	1.482369
28.900287397040845	2.2000432	1.4832543
28.918387081676755	2.1968467	1.4821763
28.936487503516343	2.214691	1.4881837
28.954588663101365	2.2118692	1.4872354
28.97269056097374	2.1990397	1.482916
28.990793197675597	2.2263966	1.4921114
29.00889657374923	2.3338778	1.5277034
29.027000689737125	2.3793504	1.5425143
29.04510554618196	2.406244	1.5512073
29.06321114362659	2.4439957	1.5633284
29.08131748261405	2.4937673	1.5791667
29.099424563687567	2.4536853	1.5664244
29.11753238739057	2.4266782	1.5577799
29.13564095426663	2.4178207	1.5549343
29.15375026485954	2.489091	1.5776854
29.171860319713275	2.5913181	1.6097572
29.18997111937199	2.676426	1.6359786
29.20808266438002	2.8358603	1.6840012
29.226194955281898	2.886919	1.6990936
29.244307992622335	2.8551567	1.6897209
29.26242177694624	2.910713	1.7060812
29.2805363087987	2.9120579	1.7064753
29.29865158872498	2.8648944	1.6925999
29.316767617270557	2.8409042	1.6854982
29.334884394981064	2.9024737	1.7036648
29.353001922402367	2.9283545	1.7112435
29.37112020008047	3.0011446	1.7323812
29.389239228561596	3.1580837	1.7770998
29.407359008392152	3.370981	1.8360231
29.42547954011872	3.7092457	1.9259402
29.44360082428809	4.252952	2.0622687
29.46172286144722	5.1478357	2.2688842
29.479845652143283	6.6171584	2.5723839
29.497969196923606	8.688474	2.9476216
29.516093496335728	11.221875	3.3499067
29.5342185509274	13.862134	3.7231886
29.55234436124651	16.055748	4.0069623
29.570470927841175	17.370125	4.167748
29.588598251259686	17.145178	4.1406736
29.60672633205055	16.019676	4.0024586
29.624855170762405	14.044988	3.7476642
29.642984767944146	11.441396	3.3825133
29.66111512414481	8.777507	2.9626858
29.67924623991366	6.580631	2.565274
29.697378115800138	5.108717	2.260247
29.71551075235387	4.1841135	2.0455105
29.733644150124675	3.7856355	1.945671
29.751778309662576	3.631469	1.9056413
29.769913231517766	3.4564302	1.8591477
29.78804891624066	3.3082485	1.8188591
29.806185364381818	3.271295	1.8086722
29.82432257649206	3.2720168	1.8088716
29.842460553122333	3.257611	1.8048853
29.86059929482382	3.329155	1.8245972
29.878738802147872	3.3559358	1.8319213
29.896879075646048	3.330445	1.8249507
29.915020115870114	3.3354201	1.8263133
29.933161923371976	3.3578303	1.8324383
29.951304498703777	3.3717017	1.8362194
29.969447842417857	3.3770373	1.8376718
29.987591955066733	3.331067	1.8251212
30.005736837203123	3.2685566	1.807915
30.023882489379943	3.2576325	1.8048912
30.04202891215028	3.3159146	1.8209653
30.060176106067455	3.287867	1.8132477
30.078324071684946	3.194768	1.7873914
30.09647280955646	3.0992246	1.7604614
30.114622320235863	3.0479171	1.7458285
30.132772604277257	3.073867	1.7532448
30.1509236622349	3.0886776	1.7574635
30.16907549466328	3.0695481	1.7520126
30.18722810211705	3.0778565	1.7543821
30.205381485151097	3.0555475	1.7480124
30.22353564432045	2.975335	1.7249159
30.241690580180403	2.927986	1.7111359
30.25984629328638	2.939174	1.714402
30.278002784194037	2.9472828	1.7167652
30.296160053459246	2.8713071	1.6944932
30.314318101638033	2.8480654	1.6876212
30.332476929286646	2.8569295	1.6902454
30.35063653696153	2.909976	1.7058651
30.368796925219307	2.8919666	1.7005783
30.386958094616844	2.9183977	1.7083318
30.40512004571115	2.992378	1.7298491
30.423282779059463	3.0709636	1.7524165
30.441446295219233	3.0010173	1.7323445
30.459610594748067	2.8737576	1.6952161
30.47777567820382	2.8425775	1.6859945
30.495941546144504	2.880736	1.6972731
30.51410819912835	2.875127	1.69562
30.532275637713795	2.7793517	1.6671388
30.55044386245946	2.7002094	1.6432314
30.56861287392416	2.6934845	1.6411839
30.586782672666956	2.784304	1.6686233
30.604953259247047	2.8387935	1.6848719
30.623124634223885	2.8222725	1.679962
30.641296798157075	2.8202217	1.6793516
30.659469751606462	2.7761405	1.6661754
30.677643495132074	2.758902	1.6609943
30.695818029294152	2.7148106	1.6476682
30.713993354653116	2.7200732	1.6492645
30.73216947176962	2.7797008	1.6672435
30.75034638120448	2.795866	1.6720843
30.768524083518756	2.7652185	1.6628946
30.786702579273673	2.736276	1.6541692
30.80488186903069	2.788717	1.6699452
30.82306195335144	2.9664578	1.7223408
30.841242832797782	3.2421956	1.8006098
30.85942450793176	3.498983	1.8705568
30.877606979315637	3.7067688	1.925297
30.895790247511883	4.103104	2.025612
30.913974313083134	4.4947023	2.1200714
30.932159176592283	4.7599754	2.1817367
30.95034483860237	4.837506	2.199433
30.968531299676698	4.656098	2.1577992
30.98671856037873	4.3456073	2.0846121
31.00490662127215	3.973046	1.9932501
31.023095482920848	3.5889368	1.894449
31.04128514588892	3.1652439	1.7791132
31.059475610740662	2.7822928	1.6680206
31.07766687804056	2.5887153	1.6089485
31.09585894835335	2.563378	1.6010553
31.11405182224393	2.5372987	1.59289
31.132245500277417	2.5511677	1.5972376
31.15043998301914	2.494901	1.5795256
31.168635271034628	2.4886355	1.577541
31.18683136488964	2.3934484	1.5470774
31.20502826515008	2.3516405	1.5335059
31.223225972382135	2.4301186	1.5588838
31.241424487152155	2.5061073	1.583069
31.259623810026692	2.4717727	1.5721872
31.27782394157253	2.396667	1.5481173
31.296024882356644	2.354539	1.5344507
31.314226632946237	2.4242682	1.5570062
31.332429193908684	2.5143845	1.5856811
31.350632565811598	2.5488684	1.5965176
31.368836749222787	2.507068	1.5833724
31.387041744710295	2.5015707	1.5816355
31.40524755284232	2.5200942	1.5874804
31.423454174187317	2.5221643	1.5881324
31.441661609313922	2.5052142	1.5827868
31.459869858791002	2.4820092	1.5754393
31.478078923187628	2.4342709	1.560215
31.496288803073064	2.344085	1.5310404
31.514499499016807	2.3180454	1.5225128
31.532711011588546	2.335107	1.5281057
31.550923341358178	2.3117445	1.5204422
31.56913648889584	2.3545067	1.5344402
31.587350454771844	2.3171053	1.522204
31.605565239556732	2.330251	1.526516
31.62378084382127	2.3189447	1.5228082
31.641997268136382	2.2962008	1.515322
31.660214513073274	2.2724404	1.5074615
31.67843257920331	2.3283558	1.5258951
31.6966514670981	2.398886	1.5488337
31.71487117732944	2.3824933	1.5435327
31.733091710469346	2.2775764	1.5091642
31.751313067090052	2.2009408	1.4835569
31.769535247764008	2.219146	1.4896798
31.787758253063878	2.268971	1.5063103
31.805982083562526	2.3224442	1.5239568
31.824206739833024	2.2935405	1.514444
31.84243222244869	2.282501	1.5107948
31.860658531983013	2.218468	1.4894522
31.878885669009737	2.2325838	1.4941833
31.897113634102784	2.2807024	1.5101994
31.91534242783632	2.2794297	1.509778
31.933572050784694	2.2588787	1.5029566
31.951802503522508	2.2912204	1.5136778
31.970033786624548	2.325011	1.5247986
31.988265900665834	2.3034878	1.5177245
32.006498846221575	2.2802026	1.510034
32.02473262386724	2.192242	1.4806222
32.04296723417845	2.1118453	1.4532189
32.0612026777311	2.066414	1.4375027
32.07943895510129	2.1227217	1.4569563
32.097676066865304	2.1710148	1.4734364
32.115914013599685	2.2518198	1.5006065
32.13415279588115	2.214328	1.4880618
32.152392414286666	2.1724856	1.4739354
32.1706328693934	2.1540585	1.4676712
32.18887416177875	2.1409326	1.4631926
32.20711629202032	2.1423347	1.4636717
32.225359260695924	2.1255352	1.4579215
32.243603068383614	2.1600418	1.4697081
32.26184771566166	2.1816406	1.4770378
32.28009320310852	2.1963623	1.4820129
32.2983395313029	2.16038	1.4698231
32.31658670082372	2.1529548	1.467295
32.33483471225012	2.156309	1.4684376
32.35308356616143	2.1222894	1.456808
32.371333263137245	2.0411398	1.4286847
32.38958380375734	2.0128713	1.418757
32.407835188601744	2.0210059	1.4216208
32.42608741825067	1.991238	1.4111123
32.444340493284585	1.9634135	1.4012185
32.46259441428416	2.0233295	1.4224379
32.48084918183028	2.0458558	1.4303341
32.49910479650405	2.0777004	1.441423
32.51736125888683	2.0482976	1.4311875
32.53561856956014	2.0794837	1.4420415
32.5538767291058	2.1082048	1.4519658
32.572135738105764	2.171048	1.4734477
32.59039559714228	2.143362	1.4640225
32.608656306797776	2.1104975	1.4527551
32.62691786765491	2.0412416	1.4287202
32.645180280296586	2.014611	1.4193699
32.663443545305896	2.0154548	1.4196671
32.68170766326619	2.0188334	1.4208566
32.69997263476099	2.0543933	1.4333155
32.7182384603741	2.08856	1.4451852
32.7365051406895	2.1122217	1.4533484
32.75477267629144	2.059039	1.4349352
32.77304106776434	1.9954952	1.41262
32.79131031569289	2.0146854	1.4193962
32.809580420661966	2.005278	1.4160784
32.827851383256714	2.0167868	1.4201362
32.84612320406245	1.9949429	1.4124244
32.86439588366476	1.8940998	1.376263
32.88266942264945	1.9175006	1.3847384
32.9009438216025	2.0065758	1.4165366
32.9192190811102	2.075835	1.4407759
32.937495201758985	1.984869	1.4088538
32.95577218413556	1.8423066	1.357316
32.974050028826866	1.8696282	1.3673434
32.992328736420035	2.0128672	1.4187555
33.010608307502444	2.04915	1.4314853
33.02888874266169	2.0815978	1.4427743
33.047170042485604	2.038071	1.4276102
33.06545220756225	1.9686215	1.4030757
33.083735238479896	1.9303808	1.3893814
33.10201913582707	1.994335	1.4122093
33.12030390019248	2.0623198	1.436078
33.138589532165135	2.0604615	1.4354308
33.15687603233419	1.9843727	1.4086777
33.17516340128909	1.9966408	1.4130254
33.19345163961947	1.951258	1.3968743
33.211740747915215	1.9711999	1.4039942
33.23003072676643	1.9153924	1.383977
33.248321576763466	1.8718835	1.368168
33.266613298496885	1.8204714	1.3492484
33.28490589255747	1.8475586	1.3592492
33.30319935953626	1.8639393	1.3652617
33.32149370002451	1.9571081	1.3989668
33.339788914613706	1.9540582	1.3978763
33.358085003895575	1.8296635	1.3526505
33.376381968462034	1.7848974	1.3360006
33.39467980890529	1.8324194	1.3536688
33.41297852581774	1.9396056	1.3926972
33.43127811979204	1.9517761	1.3970598
33.44957859142105	1.9233279	1.3868409
33.467879941297866	1.9152524	1.3839265
33.486182170015844	1.8264365	1.3514572
33.50448527816853	1.7816061	1.3347682
33.522789266349754	1.7501428	1.3229296
33.541094135153514	1.769282	1.3301436
33.55939988517411	1.8342549	1.3543466
33.57770651700602	2.0050077	1.415983
33.59601403124398	2.0471876	1.4307996
33.61432242848296	1.9962467	1.4128859
33.632631709318154	1.8867121	1.3735764
33.650941874344994	1.8458185	1.3586091
33.66925292415916	1.8850513	1.3729717
33.68756485935654	2.0063944	1.4164726
33.70587768053328	1.8607885	1.3641073
33.724191388285746	1.6677592	1.2914175
33.74250598321054	1.6820393	1.2969346
33.760821465904506	1.7582915	1.3260058
33.77913783696474	1.8462988	1.3587857
33.79745509698852	1.9600343	1.4000123
33.815773246573414	1.9539531	1.3978387
33.8340922863172	1.9722368	1.4043635
33.852412216817896	2.0645356	1.4368492
33.87073303867377	2.0675697	1.4379046
33.889054752483304	2.073535	1.4399774
33.907377358845245	1.985467	1.409066
33.92570085835853	1.9857839	1.4091785
33.94402525162239	2.0645175	1.4368429
33.96235053923627	2.0421972	1.4290546
33.980676721799824	1.827818	1.3519682
33.999003799912984	1.799608	1.3414947
34.01733177417592	1.7892783	1.3376391
34.03566064518901	1.8287976	1.3523304
34.0539904135529	2.011702	1.4183449
34.07232107986846	2.0238078	1.422606
34.090652644736785	1.9267043	1.3880577
34.108985108759235	1.9178048	1.3848484
34.12731847253742	1.9615905	1.4005679
34.14565273667313	1.8787956	1.3706917
34.16398790176847	1.8651626	1.3657095
34.18232396842574	1.8702312	1.367564
34.20066093724749	2.009883	1.4177034
34.21899880883651	2.0512216	1.4322087
34.23733758379583	2.0265985	1.4235865
34.25567726272874	1.9954742	1.4126126
34.27401784623872	1.9937358	1.4119971
34.29235933492957	2.1924953	1.4807078
34.31070172940526	2.0959823	1.4477508
34.32904503027003	1.8705503	1.3676807
34.347389238128386	1.8171487	1.3480166
34.36573435358502	1.9031593	1.3795503
34.38408037724492	2.0476832	1.4309728
34.402427309713296	1.9861302	1.4093013
34.42077515159559	1.8911477	1.37519
34.43912390349752	2.0767202	1.441083
34.45747356602499	2.1885953	1.4793901
34.47582413978423	2.0670989	1.4377409
34.49417562538163	1.8914051	1.3752836
34.51252802342388	1.8671554	1.366439
34.53088133451789	2.06121	1.4356915
34.54923555927084	2.183065	1.4775199
34.567590698290104	2.0946267	1.4472826
34.58594675218336	2.0592983	1.4350256
34.6043037215585	2.0325847	1.4256874
34.62266160702365	1.8918405	1.3754419
34.641020409187234	1.7887347	1.3374358
34.65938012865785	1.81534	1.3473456
34.677740766044394	1.8877552	1.373956
34.69610232195598	1.7734104	1.3316946
34.714464797002016	1.6246448	1.2746155
34.73282819179208	1.715052	1.3096
34.751192506936064	1.9302976	1.3893515
34.76955774304408	2.0659053	1.4373257
34.7879239007265	2.168254	1.4724993
34.80629098059391	2.080395	1.4423574
34.824658983257194	1.9330175	1.39033
34.843027909327446	1.950507	1.3966055
34.86139775941603	1.9747698	1.4052651
34.879768534134534	1.9783387	1.4065343
34.89814023409483	1.9845306	1.4087337
34.91651285990901	1.9293475	1.3890096
34.93488641218944	1.9378716	1.3920746
34.95326089154871	1.9322805	1.390065
34.97163629859967	1.957401	1.3990715
34.99001263395542	2.043176	1.4293971
35.00838989822934	2.121889	1.4566705
35.02676809203499	2.0568798	1.4341826
35.04514721598624	2.0181513	1.4206165
35.063527270697215	1.9385917	1.3923331
35.081908256782256	1.7251	1.3134307
35.10029017485597	1.638611	1.2800823
35.11867302553321	1.8243159	1.3506724
35.137056809429104	2.0727026	1.4396884
35.155441527159006	2.1563559	1.4684535
35.173827179338524	2.1113276	1.4530408
35.19221376658354	2.1530135	1.4673151
35.21060128951017	2.1930106	1.4808817
35.2289897487348	2.1866207	1.4787227
35.24737914487405	2.1149242	1.4542779
35.26576947854479	2.2180545	1.4893135
35.28416075036418	2.2087438	1.4861844
35.30255296094958	2.1272445	1.4585077
35.32094611091867	2.1834812	1.4776608
35.33934020088932	2.2448585	1.4982852
35.35773523147969	2.1339915	1.4608188
35.3761312033082	2.0388734	1.4278913
35.394528116993506	2.0324783	1.4256501
35.41292597315452	1.6241329	1.2744147
35.431324772410434	1.4588848	1.2078431
35.449724515380666	1.9787772	1.4066901
35.46812520268491	2.0719783	1.4394368
35.486526834943106	2.0531905	1.4328958
35.504929412775454	1.8344182	1.354407
35.52333293680242	1.4827434	1.2176795
35.54173740764471	1.3650894	1.1683704
35.560142825923286	1.5167185	1.2315513
35.5785491922594	1.3601795	1.1662674
35.59695650727454	1.1010565	1.0493124
35.61536477159042	1.3578206	1.1652557
