0.008763373481513119	0.61777776	0.7859884
0.026290120649546365	0.373186	0.6108895
0.043816868432600686	0.21454643	0.46319157
0.06134361724069026	0.08536854	0.29217896
0.07887036748382949	0.04592965	0.21431205
0.0963971195720331	0.053569306	0.23145044
0.11392387391531617	0.179153	0.42326468
0.1314506309236943	0.2969831	0.5449616
0.1489773910071836	0.3054611	0.5526854
0.16650415457580078	0.23719528	0.487027
0.18403092203956356	0.1389888	0.372812
0.20155769380849	0.06546015	0.2558518
0.2190844702925996	0.082177915	0.2866669
0.2366112519019124	0.19281472	0.43910673
0.2541380390464497	0.22931744	0.47887102
0.27166483213623416	0.18004924	0.4243221
0.28919163158128947	0.11737304	0.34259748
0.3067184377916406	0.08382182	0.28951997
0.324245251177314	0.12911244	0.3593222
0.34177207214833777	0.13771853	0.37110448
0.3592989011147415	0.14268142	0.37773195
0.37682573848655654	0.18203929	0.42666063
0.39435258467381573	0.25631505	0.50627565
0.41187944008655414	0.2576576	0.50759983
0.42940630513480854	0.21085285	0.45918715
0.446933180228618	0.18934076	0.43513304
0.4644600657780234	0.17413467	0.41729447
0.48198696219306775	0.17275532	0.41563845
0.49951386988379676	0.19150278	0.4376103
0.5170407892602581	0.21027121	0.45855337
0.5345677207325025	0.22140785	0.47053996
0.5520946647105822	0.21579397	0.46453628
0.5696216216045534	0.21854961	0.4674929
0.5871485918244737	0.18219198	0.42683953
0.6046755757804043	0.17578824	0.41927108
0.6222025738824094	0.18505625	0.43018165
0.6397295865405557	0.1914681	0.4375707
0.6572566141649129	0.15831432	0.39788732
0.6747836571655547	0.13292791	0.3645928
0.6923107159525568	0.12651955	0.35569587
0.7098377909359992	0.16854127	0.41053778
0.7273648825259653	0.20041786	0.44768053
0.7448919911325411	0.21385266	0.46244207
0.762419117165817	0.19545564	0.44210365
0.7799462610358868	0.17582136	0.41931057
0.7974734231528482	0.15207702	0.38997054
0.8150006039268024	0.16429532	0.40533358
0.8325278037678551	0.15266648	0.39072558
0.8500550230861152	0.19310556	0.43943778
0.8675822622916969	0.22872752	0.47825465
0.8851095217947171	0.22395222	0.4732359
0.9026368020052984	0.2220875	0.47126162
0.9201641033335665	0.18297015	0.4277501
0.9376914261896523	0.22093715	0.47003952
0.9552187709836915	0.25310796	0.50309837
0.9727461381258234	0.26932004	0.51896054
0.990273528026193	0.28985012	0.5383773
1.0078009410949496	0.30759865	0.5546158
1.0253283777422473	0.28955367	0.5381019
1.0428558383782454	0.26521865	0.51499385
1.0603833234131086	0.24543048	0.4954094
1.0779108332570058	0.23191036	0.48157072
1.0954383683201119	0.2662944	0.5160372
1.112965929012607	0.30107328	0.54870147
1.1304935157446763	0.43746775	0.66141343
1.1480211289265108	0.50118357	0.7079432
1.1655487689683062	1.4298099	1.1957465
1.1830764362802655	1.7789285	1.3337648
1.200604131272596	2.1144638	1.4541196
1.2181318543555117	2.3429103	1.5306568
1.235659605939232	2.3586552	1.5357914
1.253187386433982	4.0172925	2.0043185
1.270715196249994	6.390908	2.5280244
1.2882430357975057	12.049268	3.4712055
1.3057709054867608	16.722397	4.0893025
1.3232988057280106	22.52255	4.745793
1.3408267369315112	27.272686	5.222326
1.358354699507526	30.741583	5.5445094
1.3758826938663256	34.66374	5.887592
1.3934107204181858	36.518215	6.0430303
1.410938779573391	36.8635	6.071532
1.4284668717422309	37.402325	6.115744
1.4459949973350033	37.386974	6.114489
1.4635231567620117	37.566875	6.1291823
1.4810513504335687	36.977135	6.0808825
1.4985795787599925	36.34515	6.0286937
1.5161078421516088	36.31036	6.025808
1.5336361410187505	35.793877	5.9827986
1.5511644757717598	36.09733	6.0081053
1.5686928468209842	36.59949	6.0497513
1.58622125457678	36.841415	6.069713
1.6037496994495108	37.8008	6.1482353
1.621278181849548	37.21867	6.1007104
1.6388067021872719	38.22258	6.182441
1.6563352608730693	37.665123	6.137192
1.673863858317336	36.77626	6.0643435
1.6913924949304753	36.004887	6.000407
1.7089211711228998	35.002502	5.916291
1.7264498873050296	34.375557	5.863067
1.7439786438872935	33.422707	5.7812376
1.7615074412801288	32.13653	5.668909
1.779036279893981	31.366749	5.6006026
1.796565160139305	30.284992	5.50318
1.814094082426564	29.894062	5.4675465
1.8316230471662298	29.059633	5.390699
1.849152054768784	28.027521	5.2941027
1.8666811056447168	27.589855	5.2526045
1.8842102002045273	26.809141	5.1777544
1.901739338858724	26.521881	5.14994
1.9192685220178245	25.88504	5.087734
1.9367977500923557	25.218664	5.0218186
1.9543270234928547	24.498875	4.9496336
1.971856342629867	23.760345	4.8744583
1.9893857079139496	23.272772	4.8241863
2.006915119755667	22.88691	4.7840266
2.0244445785655945	22.411303	4.734058
2.0419740847543175	22.099022	4.7009597
2.0595036387324317	21.493261	4.6360826
2.0770332409105414	20.739716	4.5540876
2.094562891699263	20.09106	4.482305
2.1120925915092217	19.78292	4.4477997
2.129622340751053	19.71937	4.4406495
2.1471521398354043	188.10045	13.714972
2.1646819891729323	444.45837	21.082182
2.182211889174303	440.52527	20.988693
2.1997418402501974	452.7003	21.276754
2.2172718428113023	432.7625	20.802944
2.234801897268317	320.77463	17.910183
2.2523320040319548	17.307262	4.1601996
2.269862163512935	16.937847	4.1155615
2.287392376121992	16.613205	4.07593
2.304922642269869	16.536724	4.066537
2.322452962367322	16.294712	4.0366707
2.3399833368251164	16.079037	4.009867
2.357513766054032	15.583104	3.947544
2.3750442504648586	15.052499	3.879755
2.3925747904683963	14.696708	3.8336284
2.410105386475459	14.352937	3.788527
2.4276360388968707	14.065179	3.7503572
2.445166748143469	14.004558	3.7422664
2.4626975146261025	13.805692	3.7156012
2.4802283387556323	13.672419	3.6976233
2.4977592209429305	13.401005	3.6607382
2.5152901615988825	13.192491	3.6321468
2.5328211611343865	12.969737	3.6013522
2.5503522199603523	12.580308	3.546873
2.5678833384877024	12.420106	3.5242171
2.5854145171273712	12.343631	3.5133502
2.6029457562903064	12.336866	3.5123875
2.620477056387469	12.075212	3.4749405
2.6380084178298326	11.7362795	3.4258254
2.655539841028383	11.3801155	3.3734426
2.673071326394119	11.324315	3.365162
2.6906028743380523	11.333729	3.3665605
2.708134485271211	11.260489	3.3556652
2.7256661596046325	11.128326	3.3359146
2.743197897749369	10.8670635	3.2965229
2.760729700116486	10.700048	3.271093
2.778261567117063	10.514147	3.2425525
2.795793499162193	10.195643	3.1930618
2.8133254966629817	9.793039	3.1293833
2.830857560030551	9.607019	3.0995193
2.8483896896760337	9.534981	3.0878763
2.865921886010578	9.450428	3.0741549
2.883454149445347	9.374391	3.0617626
2.9009864803915177	9.202411	3.0335476
2.91851887926028	9.1140375	3.0189464
2.9360513464628384	9.067596	3.011245
2.953583882410413	8.929118	2.988163
2.9711164875142373	8.673566	2.9450917
2.9886491621855606	8.547339	2.9235833
3.0061819068356455	8.539059	2.9221668
3.023714721875769	8.463093	2.9091396
3.041247607717225	8.436755	2.9046092
3.0587805647713213	8.370219	2.8931332
3.0763135934493806	8.234669	2.8696113
3.0938466941627407	8.03078	2.833863
3.1113798673227544	7.7929144	2.7915792
3.1289131133407904	7.6777773	2.7708802
3.1464464326282315	7.6042643	2.7575831
3.1639798255964786	7.5579004	2.7491636
3.1815132926569443	7.5547795	2.748596
3.1990468342210603	7.4619737	2.7316613
3.216580450700272	7.4996376	2.7385466
3.2341141425060416	7.478528	2.7346897
3.251647910049847	7.3982387	2.7199702
3.2691817537431813	7.248826	2.6923645
3.286715673997555	7.222926	2.6875503
3.3042496712244938	7.1519513	2.6743133
3.32178374583554	7.145093	2.6730306
3.339317898242251	7.1010427	2.6647782
3.3568521288562034	6.95032	2.6363459
3.3743864380889876	6.891615	2.6251886
3.3919208263522127	6.882465	2.6234453
3.4094552940575023	6.9431925	2.6349938
3.4269898416164972	6.8819156	2.6233406
3.444524469440858	6.8321633	2.6138408
3.4620591779422587	6.751869	2.5984359
3.479593967532391	6.6435356	2.5775056
3.4971288386229658	6.5732512	2.5638351
3.5146637916257086	6.539371	2.5572195
3.5321988269523628	6.4930224	2.548141
3.5497339450146903	6.442234	2.5381556
3.5672691462244708	6.3702283	2.523931
3.5848044309934988	6.33355	2.5166545
3.60233979973359	6.3867774	2.5272074
3.619875252856575	6.470872	2.5437908
3.6374107907743034	6.4380217	2.5373256
3.6549464138986427	6.412559	2.532303
3.6724821226414788	6.279612	2.5059154
3.690017917414714	6.1888046	2.4877307
3.7075537986302702	6.2706594	2.5041285
3.7250897667000857	6.382862	2.5264328
3.7426258220361235	6.5525417	2.5597932
3.7601619650503553	6.819486	2.6114147
3.777698196154779	7.3132434	2.7043009
3.7952345157614067	8.463246	2.9091659
3.8127709242822716	9.373033	3.0615408
3.830307422129425	11.604965	3.4066062
3.847844009714936	30.478456	5.5207295
3.8653806874508954	97.97194	9.898078
3.882917455749409	97.13877	9.855901
3.900454315022606	96.688156	9.833014
3.917991265682631	41.123653	6.4127727
3.9355283081416506	10.751409	3.278934
3.9530654428118495	8.639754	2.9393458
3.970602670105433	7.440571	2.727741
3.9881399904346244	6.4978294	2.549084
4.005677404211669	6.342016	2.518336
4.023214911848827	6.3757663	2.525028
4.0407525137583855	6.4148836	2.532762
4.058290210352644	6.406322	2.5310714
4.075828002043927	6.213432	2.4926755
4.0933658892445814	6.200963	2.4901733
4.110903872366966	6.272892	2.5045743
4.128441951823468	6.154794	2.4808857
4.145980128026488	6.093078	2.4684162
4.163518401388452	6.0564237	2.4609802
4.181056772321807	6.16078	2.482092
4.1985952412390155	6.2310705	2.4962113
4.216133808552567	6.30984	2.5119395
4.233672474674966	6.314777	2.512922
4.251211240018741	6.5359116	2.5565429
4.268750104996445	6.6786094	2.5843005
4.286289070020643	7.4628434	2.7318206
4.303828135503928	9.086458	3.0143752
4.3213673018589125	29.500021	5.431392
4.3389065694982305	90.6146	9.51917
4.356445938834537	165.92334	12.881124
4.3739854102805085	171.34798	13.089995
4.391524984248844	172.22942	13.123621
4.409064661152262	136.39801	11.678956
4.426604441403504	96.693085	9.833264
4.444144325415337	75.78318	8.705354
4.461684313600543	21.906752	4.6804647
4.47922440637193	22.265469	4.71863
4.496764604142329	20.613136	4.5401692
4.5143049073245916	18.731066	4.32794
4.531845316331589	16.664543	4.082223
4.5493858315762195	13.70942	3.7026234
4.566926453471405	11.314094	3.363643
4.584467182430081	9.274717	3.045442
4.602008018865218	8.193118	2.8623624
4.619548963189798	7.542634	2.7463856
4.637090015816834	7.085244	2.6618123
4.654631177159353	6.7795506	2.603757
4.672172447630417	6.5307937	2.5555418
4.689713827643102	6.3487644	2.5196755
4.7072553176105085	6.113382	2.4725254
4.724796917945764	5.9770975	2.4448104
4.742338629062015	5.846474	2.4179482
4.759880451372434	5.7306223	2.3938718
4.777422385290215	5.688499	2.3850574
4.794964431228581	5.6250677	2.3717225
4.812506589600768	5.6904726	2.385471
4.830048860820047	5.7005925	2.3875914
4.847591245299709	5.707324	2.3890007
4.8651337434530655	5.6452365	2.3759706
4.882676355693457	5.5854216	2.3633497
4.900219082434242	5.5337934	2.3524017
4.917761924088813	5.5694785	2.3599741
4.935304881070575	5.5736613	2.3608603
4.952847953792969	5.5480843	2.3554373
4.970391142669449	5.5092473	2.3471787
4.9879344481135055	5.421711	2.3284569
5.005477870538642	5.425807	2.3293362
5.023021410358394	5.468559	2.338495
5.040565067986324	5.5137143	2.34813
5.05810884383601	5.5202074	2.349512
5.075652738321066	5.3834705	2.3202307
5.09319675185512	5.334099	2.3095667
5.110740884851836	5.277567	2.2972956
5.128285137724894	5.329951	2.3086686
5.145829510888007	5.36995	2.317315
5.163374004754908	5.355826	2.3142657
5.1809186197393595	5.3105664	2.3044667
5.198463356255145	5.2698045	2.2956054
5.216008214716077	5.2396417	2.2890263
5.233553195535998	5.2236476	2.28553
5.251098299128764	5.3030767	2.302841
5.268643525908272	5.3010855	2.3024087
5.286188876288432	5.3513055	2.313289
5.3037343506831895	5.2954793	2.3011909
5.32127994950651	5.2523584	2.2918024
5.3388256731723915	5.169326	2.2736151
5.356371522094851	5.139173	2.2669744
5.373917496687938	5.121165	2.262999
5.391463597365729	5.2433314	2.289832
5.40900982454232	5.234679	2.2879422
5.426556178631843	5.2100577	2.282555
5.444102660048449	5.1913085	2.2784443
5.4616492692063225	5.175849	2.2750492
5.479196006519669	5.195496	2.2793632
5.496742872402727	5.222713	2.2853255
5.514289867269756	5.2418766	2.2895145
5.531836991535049	5.237999	2.2886674
5.549384245612924	5.1824827	2.2765067
5.566931629917724	5.152156	2.2698362
5.584479144863822	5.1838374	2.2768042
5.6020267908656205	5.148602	2.2690532
5.619574568337545	5.101244	2.2585933
5.637122477694054	5.057217	2.2488258
5.654670519349629	5.103072	2.2589982
5.672218693718784	5.2423716	2.2896225
5.689767001216059	5.2174864	2.2841818
5.707315442256021	5.1351275	2.266082
5.724864017253266	5.112934	2.26118
5.7424127266224225	5.149586	2.26927
5.75996157077814	5.2098923	2.2825189
5.777510550135105	5.1723914	2.2742891
5.795059665108022	5.103418	2.2590744
5.812608916111639	5.0995064	2.2582088
5.830158303560715	5.0964804	2.2575386
5.847707827870055	5.137395	2.2665823
5.86525748945448	5.228332	2.2865546
5.8828072887288485	5.4133344	2.3266573
5.900357226108044	5.515252	2.3484573
5.917907302006979	5.569821	2.3600469
5.9354575168406	6.179155	2.4857905
5.9530078710238765	6.809229	2.6094499
5.970558364971812	7.4049563	2.721205
5.988108999099438	7.725405	2.7794614
6.005659773821818	8.182433	2.8604953
6.023210689554039	7.9283056	2.8157246
6.040761746711227	8.30081	2.8811126
6.058312945708531	7.7159195	2.7777543
6.075864286961132	7.293432	2.7006354
6.093415770884244	6.6178007	2.5725086
6.1109673978931065	6.143497	2.478608
6.128519168402993	5.4745946	2.339785
6.146071082829204	5.3542085	2.3139162
6.163623141587075	5.2344184	2.2878852
6.181175345091969	5.114787	2.2615895
6.198727693759281	5.057396	2.2488654
6.216280188004435	4.993105	2.2345257
6.233832828242885	5.070004	2.251667
6.251385614890126	5.147745	2.2688644
6.268938548361669	5.194315	2.279104
6.286491629073067	5.1468506	2.2686672
6.304044857439898	5.13295	2.2656014
6.321598233877777	5.093435	2.2568638
6.339151758802344	5.0953484	2.2572877
6.356705432629277	5.0024076	2.2366064
6.37425925577428	5.003413	2.236831
6.391813228653095	4.9516597	2.2252326
6.409367351681486	4.97197	2.2297914
6.426921625275259	4.9706345	2.229492
6.44447604985025	4.950074	2.2248762
6.46203062582232	4.8627863	2.2051725
6.47958535360737	4.7874575	2.188026
6.497140233621328	4.8681903	2.2063975
6.514695266280161	4.9846053	2.2326229
6.532250451999859	5.08074	2.2540498
6.549805791196454	5.0777774	2.2533925
6.567361284286002	5.0412464	2.245272
6.584916931684597	5.03617	2.2441413
6.602472733808367	4.992825	2.234463
6.6200286910734665	4.9584107	2.226749
6.637584803896092	4.9222507	2.2186146
6.655141072692462	4.983	2.2322633
6.672697497878842	5.0602684	2.249504
6.690254079871514	5.0684023	2.2513113
6.707810819086808	5.009557	2.238204
6.725367715941078	5.00157	2.236419
6.742924770850719	4.9622006	2.2275999
6.760481984232151	4.9771943	2.2309628
6.778039356501836	4.932645	2.2209558
6.795596888076266	4.9586544	2.2268035
6.813154579371963	5.031196	2.2430327
6.830712430805492	5.0788054	2.2536206
6.84827044279344	5.016203	2.2396882
6.865828615752445	4.9567857	2.226384
6.883386950099159	4.937003	2.2219367
6.900945446250287	4.9979086	2.2356002
6.918504104622553	5.049685	2.2471504
6.936062925632727	5.0679464	2.25121
6.953621909697607	5.088572	2.2557864
6.971181057234028	5.0758977	2.2529752
6.988740368658859	5.1118546	2.260941
7.006299844389007	5.1742473	2.274697
7.023859484841407	5.266773	2.2949452
7.041419290433036	5.340384	2.3109272
7.058979261580902	5.5090046	2.347127
7.0765393987020495	5.801483	2.4086268
7.094099702213559	6.1784854	2.485656
7.111660172532549	6.4333763	2.53641
7.129220810076164	6.7213244	2.5925517
7.146781615261595	7.3457246	2.7102997
7.16434258850606	7.6678104	2.769081
7.181903730226821	8.144518	2.8538601
7.1994650408411704	8.142717	2.8535447
7.217026520766437	8.280125	2.8775206
7.234588170419983	8.519423	2.918805
7.252149990219215	8.51167	2.9174767
7.269711980581568	8.394188	2.8972726
7.2872741419245175	8.103534	2.8466706
7.304836474665574	7.7622805	2.786087
7.322398979222286	7.5095105	2.7403486
7.339961656012233	7.2142797	2.6859412
7.357524505453039	6.8271637	2.6128843
7.375087527962357	6.486062	2.5467749
7.392650723957886	6.23103	2.4962032
7.410214093857353	5.948147	2.4388824
7.427777638078528	5.752609	2.3984597
7.445341357039213	5.5539436	2.3566806
7.4629052511572525	5.433436	2.3309731
7.480469320850524	5.346817	2.3123186
7.498033566536948	5.266016	2.2947803
7.5155979886344735	5.1665907	2.2730136
7.5331625875610975	5.1206555	2.2628865
7.550727363734844	5.143435	2.2679143
7.568292317573788	5.183562	2.2767437
7.585857449496025	5.2251744	2.285864
7.603422759919705	5.3102026	2.3043876
7.620988249263007	5.3212805	2.30679
7.638553917944147	5.287706	2.2995012
7.656119766381391	5.2479596	2.2908425
7.673685794993023	5.2220464	2.2851796
7.691252004197388	5.201422	2.2806628
7.70881839441285	5.206913	2.281866
7.726384966057826	5.1674614	2.273205
7.743951719550762	5.210808	2.2827194
7.761518655310149	5.2609057	2.2936664
7.779085773754511	5.3017426	2.3025513
7.796653075302419	5.320072	2.306528
7.814220560372475	5.3011107	2.3024142
7.831788229383323	5.246596	2.290545
7.8493560827536495	5.279489	2.2977138
7.866924120902174	5.294276	2.3009295
7.884492344247663	5.2854614	2.2990131
7.9020607532089135	5.2821994	2.2983036
7.919629348204771	5.280204	2.2978694
7.937198129654115	5.3156233	2.3055634
7.954767097975865	5.391161	2.3218873
7.972336253588986	5.4245696	2.3290706
7.989905596912472	5.4197145	2.328028
8.007475128365371	5.4146156	2.3269327
8.025044848366756	5.462531	2.337206
8.042614757335754	5.5147314	2.3483465
8.060184855691523	5.5501738	2.3558807
8.07775514385327	5.681051	2.3834956
8.095325622240228	5.7683444	2.4017377
8.112896291271687	5.877951	2.4244487
8.130467151366968	5.9453077	2.4383001
8.148038202945436	5.9564295	2.4405797
8.165609446426497	5.9303455	2.43523
8.183180882229594	5.9414864	2.4375165
8.200752510774217	5.9544644	2.4401772
8.218324332479893	5.9982038	2.4491231
8.235896347766193	5.9988556	2.4492562
8.253468557052724	5.9669976	2.4427438
8.27104096075914	5.9643593	2.4422038
8.288613559305137	6.044406	2.4585373
8.306186353110448	6.113559	2.4725611
8.32375934259485	6.1826477	2.486493
8.341332528178162	6.1421866	2.4783435
8.358905910280246	6.134903	2.4768736
8.376479489321003	6.1660028	2.4831438
8.394053265720377	6.210046	2.4919963
8.411627239898356	6.269049	2.5038068
8.42920141227497	6.278176	2.5056288
8.44677578327029	6.3085213	2.511677
8.464350353304427	6.2977376	2.5095294
8.48192512279754	6.289877	2.5079627
8.499500092169827	6.2746162	2.5049183
8.51707526184153	6.1872754	2.4874234
8.534650632232934	6.157218	2.4813743
8.552226203764365	6.1406407	2.4780316
8.569801976856192	6.1594205	2.481818
8.587377951928834	6.235697	2.4971378
8.60495412940274	6.3138523	2.512738
8.622530509698416	6.4025407	2.5303242
8.6401070932364	6.425011	2.5347605
8.657683880437283	6.4660287	2.5428388
8.675260871721695	6.576991	2.5645645
8.692838067510303	6.7987633	2.6074438
8.710415468223834	6.9553785	2.6373053
8.727993074283043	7.0887094	2.662463
8.745570886108737	7.059547	2.6569808
8.763148904121765	7.1180086	2.6679597
8.78072712874302	7.1967964	2.6826847
8.798305560393441	7.4350915	2.7267363
8.815884199494006	7.5785584	2.7529182
8.833463046465745	7.7684674	2.787197
8.851042101729728	7.928123	2.8156922
8.86862136570707	8.207785	2.8649232
8.886200838818924	8.312867	2.8832042
8.903780521486505	8.307349	2.8822472
8.921360414131055	8.421884	2.902048
8.938940517173874	8.546706	2.923475
8.956520831036297	8.759184	2.9595919
8.97410135613971	9.05658	3.0094151
8.99168209290554	9.273088	3.0451746
9.009263041755265	9.489176	3.0804505
9.026844203110405	9.682506	3.1116724
9.044425577392525	9.893673	3.145421
9.062007165023239	9.985504	3.1599848
9.079588966424197	10.274264	3.2053494
9.097170982017108	10.3695545	3.2201793
9.11475321222372	11.403477	3.3769035
9.132335657465825	12.296253	3.5066013
9.149918318165264	12.389298	3.5198436
9.167501194743924	12.973147	3.6018255
9.18508428762374	12.6097765	3.5510247
9.202667597226693	12.601517	3.5498614
9.220251123974803	12.306436	3.508053
9.237834868290143	11.971698	3.460014
9.255418830594836	11.683064	3.4180498
9.273003011311046	11.194298	3.345788
9.290587410860985	11.07979	3.3286319
9.308172029666911	10.576516	3.2521555
9.32575686815113	10.245465	3.2008538
9.343341926735997	8.820086	2.969863
9.360927205843916	8.508694	2.9169664
9.378512705897327	8.291531	2.8795018
9.396098427318728	8.057872	2.838639
9.413684370530664	7.9962616	2.8277662
9.431270535955722	7.923099	2.8148
9.448856924016539	7.8831015	2.807686
9.466443535135806	7.788543	2.7907963
9.484030369736251	7.7622585	2.786083
9.501617428240658	7.805905	2.793905
9.519204711071852	7.763803	2.7863603
9.536792218652714	7.7670894	2.7869499
9.55437995140617	7.751025	2.7840662
9.571967909755191	7.78937	2.7909443
9.589556094122802	7.838423	2.7997184
9.60714450493207	7.843139	2.8005605
9.624733142606116	7.906433	2.811838
9.642322007568108	8.024064	2.8326778
9.659911100241267	8.055264	2.8381798
9.677500421048851	8.040117	2.83551
9.695089970414175	8.013087	2.8307397
9.712679748760609	8.002977	2.8289535
9.730269756511557	8.085426	2.8434885
9.747859994090492	8.094209	2.8450322
9.765450461920915	8.119995	2.8495605
9.78304116042639	8.174416	2.8590934
9.800632090030527	8.121414	2.8498094
9.81822325115699	8.194195	2.8625505
9.835814644229481	8.220066	2.8670657
9.853406269671762	8.352445	2.8900597
9.870998127907646	8.387298	2.896083
9.888590219360985	8.395281	2.8974612
9.906182544455698	8.389625	2.8964849
9.923775103615734	8.342148	2.8882778
9.941367897265108	8.327037	2.8856606
9.958960925827878	8.312474	2.8831363
9.97655418972816	8.314214	2.8834379
9.994147689390106	8.322618	2.8848946
10.011741425237934	8.348574	2.8893898
10.029335397695904	8.402659	2.898734
10.04692960718833	8.345391	2.888839
10.06452405413958	8.305527	2.881931
10.082118738974064	8.265049	2.8748999
10.099713662116246	8.331155	2.886374
10.117308823990651	8.334993	2.887039
10.134904225021844	8.335047	2.887048
10.152499865634445	8.356043	2.890682
10.170095746253125	8.331136	2.8863707
10.18769186730261	8.339958	2.8878987
10.205288229207675	8.292982	2.8797538
10.222884832393145	8.215848	2.8663301
10.2404816772839	8.160414	2.8566437
10.258078764304868	8.059801	2.8389788
10.275676093881035	8.028648	2.833487
10.293273666437438	8.084144	2.843263
10.310871482399158	8.126017	2.850617
10.32846954219134	8.151367	2.8550599
10.346067846239173	8.151278	2.8550441
10.363666394967908	8.132132	2.8516893
10.38126518880283	8.095287	2.8452218
10.398864228169298	8.106831	2.8472497
10.416463513492713	8.195225	2.8627303
10.434063045198531	8.23068	2.8689163
10.451662823712262	8.19628	2.8629146
10.469262849459467	8.212355	2.8657205
10.486863122865758	8.145273	2.8539925
10.504463644356806	8.125143	2.8504636
10.522064414358338	8.081828	2.8428557
10.539665433296118	8.059042	2.8388453
10.557266701595987	7.9991612	2.8282788
10.574868219683818	7.860811	2.8037138
10.592469987985552	7.71588	2.7777474
10.610072006927185	7.652054	2.7662346
10.627674276934751	7.5816164	2.7534735
10.64527679843435	7.4184413	2.7236817
10.662879571852143	7.2888656	2.69979
10.680482597614331	7.1929483	2.6819673
10.698085876147173	7.144451	2.6729107
10.715689407876988	7.0976143	2.6641347
10.733293193230146	6.9704604	2.640163
10.750897232633072	6.8321667	2.6138413
10.76850152651225	6.7082744	2.5900338
10.786106075294207	6.604049	2.5698345
10.803710879405534	6.520239	2.5534759
10.821315939272877	6.4251266	2.5347834
10.83892125532294	6.3413024	2.5181942
10.856526827982472	6.305299	2.5110354
10.874132657678285	6.258727	2.5017447
10.891738744837243	6.2439437	2.4987884
10.909345089886271	6.1789784	2.4857552
10.926951693252343	6.127389	2.4753563
10.944558555362494	6.0217752	2.4539306
10.96216567664381	5.918662	2.43283
10.979773057523436	5.7856092	2.4053292
10.997380698428573	5.718215	2.391279
11.014988599786477	5.68047	2.3833737
11.032596762024461	5.642699	2.3754365
11.050205185569892	5.5582404	2.357592
11.067813870850198	5.5227313	2.3500493
11.085422818292859	5.472511	2.3393397
11.10303202832541	5.4398184	2.332342
11.120641501375454	5.3840117	2.3203473
11.138251237870636	5.35964	2.3150897
11.155861238238671	5.297441	2.3016171
11.173471502907317	5.1764874	2.2751896
11.191082032304402	5.0961413	2.2574635
11.208692826857805	5.0496655	2.2471461
11.226303886995465	5.023805	2.2413847
11.243915213145371	5.0173545	2.2399452
11.261526805735578	4.9275703	2.219813
11.279138665194196	4.871149	2.207068
11.296750791949393	4.769212	2.1838524
11.314363186429393	4.6863627	2.164801
11.331975849062479	4.6552896	2.157612
11.34958878027699	4.629828	2.1517036
11.36720198050133	4.6484194	2.1560194
11.384815450163948	4.6690264	2.160793
11.402429189693366	4.620493	2.1495333
11.420043199518153	4.5176835	2.1254842
11.437657480066942	63.413174	7.9632387
11.455272031768422	85.085724	9.224193
11.472886855051353	107.54235	10.370263
11.490501950344528	99.17768	9.958799
11.508117318076819	84.50733	9.192787
11.52573295867715	45.8557	6.7716837
11.543348872574514	4.111803	2.0277581
11.560965060197946	4.1026917	2.0255103
11.57858152197655	4.08112	2.0201783
11.59619825833949	4.092661	2.0230327
11.613815269715985	4.031684	2.0079052
11.631432556535323	38.529	6.2071733
11.649050119226837	83.04388	9.112842
11.666667958219929	93.45732	9.667333
11.68428607394406	107.73778	10.379681
11.701904466828756	82.53859	9.085075
11.719523137303586	65.361176	8.084626
11.737142085798196	4.587074	2.1417456
11.754761312742286	3.7214768	1.9291129
11.772380818565619	3.6582663	1.9126595
11.790000603698015	3.6071398	1.8992472
11.80762066856935	3.5599382	1.8867799
11.825241013609572	3.531583	1.8792506
11.842861639248683	3.5101779	1.8735468
11.860482545916748	3.5414138	1.8818644
11.878103734043883	3.50905	1.8732458
11.895725204060282	3.4850285	1.8668231
11.91334695639619	3.4351573	1.8534178
11.930968991481919	3.4129152	1.8474077
11.948591309747824	3.3658295	1.8346198
11.966213911624347	3.3474271	1.8295975
11.98383679754198	3.339961	1.827556
12.001459967931268	3.3563783	1.8320421
12.019083423222835	3.3381178	1.8270516
12.036707163847352	3.292738	1.8145903
12.05433119023556	3.273903	1.8093929
12.071955502818259	3.2660456	1.8072203
12.089580102026313	3.2775562	1.8104023
12.107204988290643	3.2437866	1.8010515
12.12483016204224	3.2136395	1.7926627
12.142455623712152	3.2042122	1.7900313
12.16008137373149	3.1699197	1.7804269
12.177707412531431	3.1273928	1.7684436
12.19533374054321	3.1105611	1.7636783
12.212960358198126	3.0899858	1.7578355
12.230587265927545	3.0665483	1.7511563
12.248214464162889	3.0422552	1.7442062
12.265841953335649	3.012355	1.7356137
12.283469733877375	2.9777446	1.7256143
12.301097806219685	2.938627	1.7142425
12.31872617079425	2.9117532	1.706386
12.336354828032825	2.9575467	1.719752
12.353983778367205	2.9749968	1.7248179
12.371613022229262	3.0061085	1.7338133
12.389242560050928	2.9954262	1.7307299
12.406872392264201	2.9705298	1.7235225
12.424502519301143	2.8940873	1.7012017
12.442132941593874	2.8734329	1.6951203
12.459763659574586	2.9007754	1.7031662
12.477394673675532	2.8872578	1.6991932
12.49502598432903	2.8934376	1.7010108
12.51265759196746	2.8449416	1.6866955
12.530289497023267	2.8234854	1.680323
12.547921699928967	2.8363583	1.6841491
12.565554201117134	2.835146	1.6837891
12.583187001020404	2.8111942	1.6766616
12.600820100071486	2.7749782	1.6658266
12.618453498703152	2.7764611	1.6662716
12.636087197348235	2.7804003	1.6674533
12.65372119643964	2.8090703	1.6760281
12.671355496410326	2.8233721	1.6802893
12.68899009769333	2.827927	1.6816442
12.706625000721749	2.815469	1.677936
12.724260205928752	2.8838692	1.6981958
12.741895713747551	2.9335167	1.7127513
12.759531524611454	2.997211	1.7312455
12.777167638953818	3.0108104	1.7351687
12.794804057208072	3.008322	1.7344515
12.812440779807702	3.0800438	1.7550054
12.830077807186271	3.251489	1.8031886
12.847715139777405	3.292043	1.8143988
12.865352778014795	3.4666977	1.861907
12.882990722332197	3.5254762	1.8776251
12.90062897316344	3.6075234	1.8993481
12.918267530942412	3.7062597	1.9251648
12.935906396103071	3.6276171	1.9046304
12.953545569079449	3.831256	1.9573594
12.971185050305628	3.6617963	1.9135821
12.988824840215775	3.6254263	1.9040552
13.006464939244115	3.585675	1.8935878
13.024105347824943	3.4171438	1.8485519
13.041746066392617	3.532853	1.8795885
13.05938709538157	3.3262272	1.8237947
13.077028435226296	3.3784835	1.8380651
13.094670086361363	3.3043752	1.8177941
13.112312049221401	3.2303674	1.7973223
13.129954324241112	3.1126819	1.7642794
13.147596911855258	2.8918097	1.7005322
13.165239812498685	2.8925347	1.7007453
13.182883026606293	2.8117604	1.6768304
13.200526554613058	2.8169734	1.6783842
13.218170396954017	2.7620082	1.661929
13.235814554064284	2.7517388	1.6588366
13.253459026379034	2.7197142	1.6491556
13.271103814333523	2.6779072	1.6364312
13.288748918363058	2.6977797	1.6424919
13.306394338903031	2.7139156	1.6473966
13.32404007638889	2.7019098	1.6437486
13.341686131256164	2.686991	1.6392044
13.359332503940449	2.667769	1.6333306
13.376979194877402	2.6607206	1.6311716
13.394626204502751	2.6776679	1.6363581
13.412273533252307	2.678435	1.6365925
13.429921181561937	2.685913	1.6388756
13.447569149867581	2.7452056	1.6568662
13.465217438605247	2.752123	1.6589525
13.482866048211022	2.7444317	1.6566327
13.500514979121052	2.7374907	1.6545364
13.518164231771568	2.709951	1.6461929
13.535813806598844	2.7114491	1.6466478
13.553463704039254	2.68785	1.6394664
13.571113924529229	2.6564574	1.6298642
13.588764468505275	2.6686575	1.6336026
13.606415336403956	2.6871533	1.6392539
13.624066528661917	2.7523317	1.6590153
13.641718045715882	2.7991168	1.6730561
13.659369888002635	2.8518481	1.6887416
13.67702205595903	2.9315188	1.7121679
13.694674550021993	3.008748	1.7345743
13.712327370628532	3.0742016	1.7533401
13.729980518215713	3.1576445	1.7769762
13.747633993220681	3.2214046	1.7948272
13.765287796080647	3.2359347	1.7988704
13.7829419272329	3.261141	1.805863
13.800596387114801	3.2951381	1.8152516
13.818251176163775	3.334234	1.8259885
13.835906294817324	3.387616	1.8405477
13.853561743513023	3.4228463	1.8500936
13.871217522688525	3.4760017	1.8644038
13.888873632781538	3.49976	1.8707645
13.906530074229858	3.4955144	1.8696295
13.92418684747135	3.4938846	1.8691936
13.941843952943948	3.4793825	1.8653103
13.959501391085665	3.452522	1.8580964
13.977159162334578	3.3684206	1.8353257
13.994817267128846	3.3669767	1.8349323
14.012475705906693	3.3236053	1.8230758
14.030134479106424	3.22641	1.796221
14.047793587166414	3.087348	1.7570851
14.065453030525108	2.978109	1.7257198
14.083112809621026	2.957918	1.7198598
14.100772924892766	2.9322755	1.7123889
14.118433376778997	2.9369383	1.7137498
14.136094165718458	2.8892405	1.6997766
14.153755292149969	2.8435073	1.6862702
14.171416756512416	2.755488	1.6599662
14.189078559244768	2.6633697	1.6319834
14.20674070078606	2.6136727	1.6166857
14.224403181575408	2.6050131	1.6140053
14.242066002051999	2.5640926	1.6012784
14.259729162655093	2.491088	1.5783181
14.277392663824022	2.430754	1.5590875
14.295056505998208	2.4147375	1.5539426
14.312720689617128	2.4129117	1.553355
14.330385215120348	2.3874993	1.5451535
14.348050082947497	2.3881671	1.5453696
14.3657152935383	2.3939989	1.5472553
14.383380847332528	2.414789	1.5539591
14.401046744770051	2.4366527	1.560978
14.418712986290798	2.4285436	1.5583785
14.436379572334793	2.430759	1.5590892
14.454046503342123	2.3696918	1.5393803
14.471713779752946	2.3628438	1.5371544
14.489381402007504	2.3349178	1.5280437
14.507049370546113	2.4037163	1.5503923
14.524717685809168	2.4020782	1.5498639
14.542386348237134	2.4064956	1.5512884
14.560055358270553	2.4226773	1.5564952
14.577724716350051	2.4736304	1.572778
14.595394422916325	2.4923656	1.5787227
14.61306447841015	2.4908633	1.578247
14.63073488327237	2.4667017	1.5705737
14.648405637943917	2.4784236	1.574301
14.6660767428658	2.483061	1.5757731
14.683748198479094	2.4750333	1.5732238
14.701420005224954	2.5194075	1.5872642
14.719092163544628	2.6475897	1.6271416
14.73676467387942	2.7331653	1.6532288
14.754437536670727	2.730156	1.6523184
14.772110752360014	2.676674	1.6360544
14.78978432138882	2.6313014	1.6221286
14.807458244198777	2.6719189	1.6346005
14.82513252123159	2.6739888	1.6352335
14.842807152929028	2.7113237	1.6466098
14.860482139732962	2.6659563	1.6327757
14.87815748208531	2.6801267	1.6371093
14.8958331804281	2.6694765	1.6338533
14.91350923520342	2.6712766	1.6344041
14.931185646853438	2.6895115	1.639973
14.948862415820408	2.6547477	1.6293397
14.966539542546656	2.6400197	1.6248137
14.98421702747459	2.5933356	1.6103837
15.001894871046696	2.6401894	1.624866
15.019573073705542	2.697468	1.642397
15.037251635893766	2.7348056	1.6537248
15.054930558054092	2.7637177	1.6624433
15.072609840629323	2.760837	1.6615766
15.090289484062351	2.8799245	1.697034
15.107969488796124	3.1535516	1.7758242
15.125649855273691	3.5484824	1.8837416
15.14333058393817	4.0384693	2.0095942
15.161011675232768	5.0353746	2.243964
15.17869312960076	6.381528	2.5261686
15.196374947485506	8.168217	2.8580093
15.214057129330447	11.211353	3.348336
15.231739675579114	15.976041	3.997004
15.249422586675102	21.064968	4.5896587
15.267105863062092	24.23518	4.922924
15.284789505183847	24.61522	4.961373
15.302473513484218	22.585222	4.7523913
15.320157888407127	18.89649	4.347009
15.337842630396578	14.61672	3.8231819
15.355527739896656	11.347822	3.3686528
15.37321321735153	8.897009	2.9827855
15.39089906320545	6.4717674	2.5439668
15.408585277902748	4.778169	2.1859024
15.42627186188783	3.6468248	1.9096662
15.443958815605198	3.146602	1.7738664
15.461646139499424	2.9301407	1.7117654
15.479333834015168	2.7831979	1.6682919
15.497021899597165	2.7226615	1.650049
15.514710336690234	2.6483078	1.6273623
15.53239914573928	2.5946689	1.6107976
15.550088327189297	2.5416543	1.5942566
15.567777881485336	2.5306025	1.5907867
15.58546780907256	2.524035	1.5887212
15.6031581103962	2.5095441	1.5841541
15.620848785901568	2.5117226	1.5848415
15.638539836034063	2.4859128	1.5766778
15.656231261239173	2.4587672	1.5680456
15.673923061962451	2.4128978	1.5533506
15.691615238649552	2.4048903	1.5507709
15.709307791746202	2.4238567	1.556874
15.727000721698221	2.4542232	1.566596
15.744694028951498	2.4508524	1.5655198
15.76238771395202	2.3642845	1.537623
15.780081777145844	2.3288631	1.5260613
15.797776218979125	2.292335	1.514046
15.815471039898094	2.3188903	1.5227903
15.833166240349064	2.3273335	1.52556
15.850861820778437	2.3106377	1.5200782
15.868557781632699	2.3308258	1.5267042
15.886254123358412	2.3771257	1.541793
15.903950846402232	2.4111059	1.5527736
15.921647951210897	2.4015708	1.5497003
15.939345438231225	2.4000032	1.5491943
15.957043307910133	2.4224093	1.5564091
15.974741560694602	2.4354405	1.5605898
15.992440197031714	2.4046211	1.5506841
16.01013921736862	2.3947635	1.5475023
16.02783862215259	2.3836753	1.5439156
16.045538411830933	2.396482	1.5480574
16.06323858685107	2.3966866	1.5481236
16.080939147660512	2.3750012	1.5411038
16.09864009470684	2.3343182	1.5278475
16.11634142843774	2.3466318	1.531872
16.134043149300954	2.3522263	1.5336969
16.15174525774433	2.3688648	1.5391117
16.169447754215817	2.3683958	1.5389594
16.18715063916342	2.435542	1.5606223
16.204853913035244	2.4298744	1.5588055
16.222557576279478	2.4678895	1.5709518
16.240261629344403	22.454418	4.7386093
16.257966072678386	43.021835	6.559103
16.275670906729868	38.120968	6.174218
16.293376131947387	2.5270069	1.5896562
16.31108174877957	2.522414	1.5882109
16.328787757675133	2.5379448	1.5930928
16.34649415908287	2.5531542	1.5978593
16.364200953451657	2.5939002	1.610559
16.38190814123048	2.6303382	1.6218318
16.39961572286839	2.6662605	1.6328688
16.41732369881455	2.7064202	1.6451201
16.43503206951817	2.7205298	1.6494029
16.45274083542859	2.7375624	1.6545581
16.47044999699522	2.768074	1.663753
16.488159554667558	2.8172011	1.678452
16.505869508895184	2.8615716	1.6916181
16.523579860127786	2.8798673	1.6970172
16.541290608815117	2.9189286	1.7084873
16.559001755407035	3.0146453	1.7362734
16.57671330035348	3.0854728	1.7565514
16.59442524410448	3.1719267	1.7809904
16.61213758711015	3.2421796	1.8006053
16.629850329820705	3.3029037	1.8173892
16.647563472686436	3.372797	1.8365176
16.665277016157724	3.4084601	1.8462015
16.682990960685053	3.456565	1.8591839
16.70070530671898	3.4958305	1.869714
16.718420054710155	3.527682	1.8782125
16.736135205109335	3.57026	1.8895131
16.753850758367335	3.590124	1.8947623
16.771566714935087	3.6444123	1.9090344
16.789283075263597	3.7084584	1.9257358
16.80699983980398	3.7596054	1.9389702
16.82471700900741	3.805777	1.9508401
16.84243458332518	3.8495424	1.962025
16.860152563208665	3.924392	1.9810078
16.87787094910932	3.9928577	1.9982136
16.89558974147871	4.100258	2.0249093
16.913308940768466	4.154692	2.0383062
16.931028547430333	4.187134	2.0462487
16.94874856191613	4.196556	2.0485497
16.966468984677785	4.285231	2.07008
16.98418981616729	4.367751	2.0899165
17.00191105683676	4.417418	2.1017654
17.019632707138374	4.403588	2.0984728
17.03735476752442	4.450966	2.1097312
17.05507723844728	4.4928904	2.119644
17.072800120359403	4.529964	2.1283712
17.090523413713353	4.5330415	2.1290941
17.108247118961785	4.5871406	2.141761
17.125971236557437	4.659345	2.1585517
17.143695766953133	4.671373	2.161336
17.161420710601806	4.7246842	2.1736338
17.179146067956477	4.711698	2.1706445
17.19687183947025	4.6886506	2.1653292
17.21459802559634	4.6502852	2.156452
17.232324626788028	4.6420264	2.1545362
17.25005164349871	4.6020255	2.1452332
17.267779076181863	4.588373	2.1420488
17.285506925291074	4.551467	2.1334167
17.30323519127999	4.577097	2.139415
17.320963874602384	4.5797	2.1400235
17.33869297571211	4.6021104	2.145253
17.356422495063114	4.585316	2.1413352
17.37415243310944	4.5596704	2.1353385
17.391882790305218	4.5354257	2.129654
17.40961356710468	4.5193467	2.1258755
17.42734476396215	4.5369873	2.1300204
17.445076381332044	4.5373287	2.1301007
17.462808419668868	4.6039104	2.1456726
17.48054087942723	4.7362156	2.1762848
17.498273761061835	4.99118	2.2340949
17.51600706502747	5.4360337	2.3315303
17.533740791779024	6.167024	2.4833493
17.551474941771485	7.5616374	2.7498431
17.56920951545993	8.634953	2.938529
17.586944513299528	10.823284	3.289876
17.60467993574556	12.526337	3.5392566
17.622415783253373	14.36958	3.7907228
17.64015205627843	15.823015	3.9778154
17.657888755276293	16.876791	4.108137
17.675625880702604	17.314566	4.1610775
17.69336343301311	17.132769	4.139175
17.71110141266366	16.397217	4.049348
17.728839820110178	15.386937	3.9226186
17.746578655808705	14.43831	3.7997775
17.764317920215372	12.835688	3.5826929
17.7820576137864	11.359253	3.3703492
17.79979773697811	9.354211	3.0584655
17.81753829024692	7.563867	2.7502484
17.835279274049356	5.8618755	2.4211311
17.85302068884201	4.8659687	2.205894
17.870762535081607	4.241855	2.0595765
17.888504813224934	3.9223976	1.9805044
17.90624752372891	3.7007074	1.9237223
17.923990667050536	3.580777	1.892294
17.941734243646895	3.483272	1.8663526
17.959478253975185	3.4637837	1.8611243
17.9772226984927	3.4641182	1.8612142
17.994967577656833	3.4644177	1.8612946
18.01271289192506	3.4774249	1.8647854
18.030458641754965	3.3979368	1.8433493
18.04820482760425	3.3362365	1.8265368
18.06595144993067	3.3319726	1.8253691
18.083698509192125	3.3194733	1.8219422
18.101446005846576	3.2730157	1.8091478
18.119193940352105	3.1949315	1.7874371
18.136942313166887	3.2191978	1.7942123
18.1546911247492	3.2327356	1.797981
18.1724403755574	3.2137232	1.792686
18.19019006604997	3.1365469	1.7710298
18.207940196685467	3.0892363	1.7576224
18.225690767922575	3.0766351	1.7540339
18.243441780220046	3.0859985	1.756701
18.261193234036764	3.0706139	1.7523167
18.278945129831676	3.0822875	1.7556444
18.29669746806386	3.089894	1.7578094
18.314450249192483	3.0593412	1.7490972
18.3322034736768	3.0435774	1.7445852
18.349957141976184	3.005963	1.7337713
18.3677112545501	3.0406573	1.7437481
18.385465811858108	3.0343757	1.741946
18.403220814359884	3.0273654	1.7399327
18.420976262515172	3.098612	1.7602875
18.43873215678387	3.1377358	1.7713655
18.456488497625923	3.1608617	1.7778813
18.474245285501407	3.19196	1.7866057
18.492002520870486	3.311458	1.8197412
18.50976020419343	3.3941646	1.8423258
18.527518335930615	3.6888227	1.9206308
18.545276916542516	4.239572	2.0590222
18.563035946489688	4.4104147	2.1000988
18.580795426232832	4.893792	2.2121918
18.598555356232698	4.788634	2.1882946
18.616315736950185	5.0989685	2.2580895
18.63407656884626	4.7562203	2.180876
18.65183785238201	4.934611	2.2213984
18.669599588018617	4.7127686	2.1708913
18.68736177621737	4.6866612	2.1648698
18.705124417439652	4.623434	2.1502173
18.72288751214696	4.4009676	2.0978484
18.740651060800886	4.5571265	2.1347427
18.758415063863115	4.2711244	2.06667
18.77617952179546	4.451003	2.10974
18.793944435059814	4.201841	2.0498393
18.811709804118184	4.2084994	2.0514627
18.829475629432675	4.1497107	2.0370839
18.8472419114655	4.003041	2.00076
18.86500865067897	4.161949	2.0400856
18.88277584753551	3.8577728	1.9641213
18.90054350249763	3.8018913	1.9498439
18.918311616027957	3.460946	1.8603618
18.936080188589226	3.362812	1.8337972
18.953849220644265	3.0575025	1.7485715
18.971618712656007	2.8783934	1.6965829
18.9893886650875	2.8397167	1.6851459
19.007159078401887	8.05123	2.837469
19.024929953062408	32.930355	5.7384977
19.042701289532435	32.87163	5.733379
19.060473088275405	25.419012	5.041727
19.07824534975489	2.6761062	1.6358808
19.096018074434568	2.640081	1.6248326
19.113791262778197	2.6058288	1.6142579
19.13156491524966	2.5959668	1.6112005
19.149339032312945	2.6089928	1.6152377
19.167113614432136	2.5919507	1.6099536
19.184888662071433	2.5313487	1.5910213
19.202664175695123	2.533718	1.5917658
19.220440155767623	2.5373518	1.5929067
19.238216602753447	2.5485363	1.5964136
19.2559935171172	2.5360548	1.5924996
19.27377089932361	2.549194	1.5966196
19.291548749837514	2.5773146	1.6054018
19.309327069123835	2.6055443	1.6141698
19.32710585764763	2.5968578	1.6114769
19.344885115874032	2.5655131	1.6017219
19.362664844268313	2.5335188	1.591703
19.380445043295822	2.512797	1.5851805
19.39822571342203	2.5286205	1.5901637
19.41600685511252	2.5196667	1.5873458
19.43378846883297	2.4939744	1.5792322
19.451570555049173	2.4410415	1.5623833
19.469353114227037	2.4417038	1.5625952
19.48713614683254	2.4668462	1.5706197
19.50491965333182	2.4570382	1.5674943
19.52270363419109	2.4641356	1.5697565
19.540488089876686	2.4792156	1.5745525
19.55827302085503	2.4972067	1.5802553
19.576058427592674	2.4986284	1.580705
19.593844310556282	2.4896278	1.5778555
19.611630670212598	2.501606	1.5816466
19.629417507028506	2.5034795	1.5822388
19.64720482147098	2.52417	1.5887636
19.6649926140071	2.498736	1.580739
19.682780885104084	2.4813557	1.5752319
19.70056963522921	2.466264	1.5704343
19.718358864849908	2.4767458	1.573768
19.7361485744337	2.4651387	1.570076
19.753938764448215	2.4714231	1.5720761
19.771729435361202	2.4765098	1.573693
19.789520587640506	2.502986	1.5820827
19.807312221754092	2.5152898	1.5859665
19.825104338170043	2.481101	1.5751511
19.842896937356517	2.5176985	1.5867257
19.860690019781824	2.5360441	1.5924962
19.87848358591436	2.550481	1.5970225
19.896277636222635	2.5114713	1.5847622
19.914072171175278	2.4975207	1.5803546
19.931867191241015	2.4623518	1.5691882
19.94966269688869	2.455375	1.5669636
19.967458688587264	2.4629817	1.569389
19.985255166805807	2.4911406	1.5783348
20.00305213201348	2.4954476	1.5796986
20.020849584679578	2.4530625	1.5662255
20.038647525273507	2.4275317	1.5580539
20.05644595426477	2.4170783	1.5546956
20.07424487212299	2.4623938	1.5692016
20.092044279317903	2.4675648	1.5708485
20.109844176319353	2.4682565	1.5710685
20.127644563597304	2.4582925	1.5678943
20.145445441621817	2.4355547	1.5606264
20.16324681086307	2.4156196	1.5542264
20.181048671791373	2.4092607	1.5521793
20.198851024877122	2.442468	1.5628397
20.216653870590836	2.4076712	1.5516672
20.234457209403146	2.381931	1.5433506
20.252261041784802	2.3423252	1.5304657
20.270065368206662	2.339784	1.5296352
20.287870189139685	2.335324	1.5281767
20.305675505054968	2.3430617	1.5307063
20.323481316423702	2.3472507	1.532074
20.341287623717207	2.31551	1.52168
20.359094427406884	2.31879	1.5227574
20.376901727964288	2.309082	1.5195664
20.39470952586107	2.3170018	1.5221701
20.41251782156899	2.3220422	1.5238248
20.430326615559935	2.3360775	1.5284232
20.448135908305886	2.365673	1.5380745
20.465945700278965	2.3809395	1.5430293
20.483755991951384	2.3528218	1.5338911
20.50156678379548	2.3402731	1.5297952
20.519378076283708	2.324209	1.5245357
20.537189869888635	2.320421	1.5232928
20.55500216508294	2.3523724	1.5337446
20.572814962339415	2.3779247	1.5420521
20.59062826213098	2.3479483	1.5323017
20.60844206493066	2.304295	1.5179905
20.626256371211593	2.2927067	1.5141686
20.644071181447032	2.3075037	1.519047
20.66188649611036	2.3266776	1.5253451
20.67970231567506	2.3290868	1.5261346
20.697518640614742	2.3343399	1.5278547
20.715335471403122	2.3079798	1.5192037
20.73315280851404	2.2945783	1.5147866
20.750970652421447	2.28186	1.5105827
20.768789003599412	2.2587552	1.5029156
20.786607862522136	2.2537556	1.5012513
20.8044272296639	2.2428544	1.4976162
20.82224710549913	2.2544155	1.5014712
20.84006749050237	2.271987	1.5073112
20.857888385148268	3.8497198	1.9620702
20.8757097899116	45.96458	6.7797184
20.893531705267254	64.81752	8.050933
20.911354131690224	83.8327	9.15602
20.92917706965566	69.118515	8.313755
20.94700051963877	50.197487	7.0850186
20.96482448211493	29.45481	5.4272285
20.982648957559622	4.169166	2.0418537
21.00047394644843	2.2644963	1.5048244
21.01829944925707	2.2291543	1.4930353
21.036125466461375	2.224459	1.491462
21.053951998537297	2.2199407	1.4899465
21.071779045960906	2.2274203	1.4924544
21.089606609208378	2.240285	1.4967581
21.10743468875603	2.2451973	1.4983982
21.12526328508028	2.2202158	1.4900389
21.143092398657675	2.1780016	1.4758054
21.16092202996488	2.1482644	1.4656959
21.17875217947867	2.1233094	1.457158
21.19658284767596	2.1392438	1.4626154
21.21441403503377	2.1764457	1.4752781
21.232245742029225	2.210302	1.4867085
21.2500779691396	2.2013948	1.4837098
21.26791071684227	2.1638784	1.4710127
21.28574398561475	2.1483502	1.4657252
21.30357777593465	2.1920176	1.4805464
21.321412088279704	2.1877775	1.4791138
21.339246923127792	2.1280968	1.4587998
21.357082280956888	2.0830512	1.443278
21.3749181622451	2.0934808	1.4468865
21.392754567470647	2.074358	1.4402632
21.41059149711187	2.1011484	1.4495338
21.42842895164726	2.1350799	1.4611913
21.446266931555378	2.1206594	1.4562484
21.464105437314945	2.122194	1.4567752
21.481944469404798	2.096838	1.4480463
21.49978402830388	2.0993867	1.4489261
21.51762411449127	2.1217132	1.4566102
21.53546472844617	2.1418374	1.4635017
21.553305870647876	2.131088	1.4598247
21.571147541575865	2.0944335	1.4472158
21.58898974170967	2.0657809	1.4372824
21.60683247152899	2.0530043	1.4328308
21.62467573151363	2.0551283	1.4335719
21.642519522143523	2.0669012	1.4376721
21.660363843898722	2.090149	1.4457347
21.6782086972594	2.090766	1.4459481
21.696054082705864	2.0657184	1.4372607
21.713900000718535	2.0316586	1.4253626
21.73174645177795	2.0255394	1.4232144
21.749593436364794	2.0370398	1.4272491
21.767440954959845	2.0339136	1.4261534
21.785289008044032	2.0050888	1.4160116
21.803137596098388	2.0048459	1.4159257
21.820986719604086	2.0162303	1.4199402
21.838836379042412	2.023683	1.4225621
21.85668657489478	2.012287	1.418551
21.87453730764273	2.0028641	1.4152259
21.892388577767914	1.9672229	1.4025773
21.91024038575213	1.9747697	1.405265
21.928092732077285	2.002596	1.4151311
21.945945617225426	2.0201416	1.4213169
21.963799041678694	2.0298119	1.4247147
21.981653005919398	31.319733	5.5964036
21.999507510429943	78.103195	8.837602
22.01736255569286	73.07851	8.548596
22.035218142190818	4.179167	2.044301
22.05307427040661	2.009577	1.4175955
22.07093094082315	1.9915223	1.411213
22.088788153923474	1.9953899	1.4125828
22.106645910190746	1.9621828	1.4007794
22.12450421010827	1.964218	1.4015056
22.142363054159464	1.9608308	1.4002967
22.16022244282787	1.9643462	1.4015514
22.178082376597164	1.9864693	1.4094216
22.195942855951145	1.9991031	1.4138964
22.213803881373742	1.9903765	1.410807
22.231665453349002	1.9323667	1.390096
22.24952757236111	1.9160864	1.3842278
22.26739023889438	1.9345499	1.390881
22.28525345343323	1.9615972	1.4005703
22.30311721646225	1.939162	1.392538
22.320981528466113	1.9143513	1.3836008
22.33884638992964	1.9463073	1.3951012
22.356711801337788	1.9478881	1.3956677
22.37457776317561	1.9324105	1.3901117
22.392444275928337	1.8645236	1.3654757
22.410311340081282	1.8863878	1.3734584
22.428178956119904	1.8844452	1.372751
22.446047124529805	1.9261262	1.3878495
22.46391584579669	1.9285712	1.38873
22.481785120406414	1.9427519	1.3938264
22.49965494884496	1.9351131	1.3910834
22.51752533159841	1.9422872	1.3936596
22.53539626915302	1.9395887	1.3926911
22.553267761995137	1.9447746	1.3945518
22.571139810611264	1.9636799	1.4013137
22.589012415488025	1.9778816	1.4063717
22.60688557711216	1.9430554	1.3939352
22.624759295970566	1.9415585	1.3933982
22.642633572550263	1.9113133	1.3825026
22.660508407338362	1.925613	1.3876646
22.67838380082217	1.9259188	1.3877748
22.696259753489077	1.9174936	1.384736
22.714136265826614	1.8881726	1.374108
22.73201333832246	1.930844	1.3895481
22.74989097146439	1.9646573	1.4016623
22.76776916574035	1.9431572	1.3939717
22.785647921638393	1.8963289	1.3770726
22.803527239646712	1.888668	1.3742882
22.82140712025363	1.9052441	1.3803058
22.839287563947593	1.9129413	1.3830912
22.85716857121719	1.9359953	1.3914005
22.875050142551135	1.9648031	1.4017143
22.892932278438277	1.9421549	1.3936121
22.910814979367604	1.9042373	1.379941
22.928698245828222	1.8603839	1.363959
22.946582078309387	1.8730124	1.3685805
22.96446647730047	1.8878415	1.3739874
22.98235144329098	1.861497	1.3643669
23.000236976770562	1.8363202	1.3551089
23.018123078229	1.8467771	1.3589618
23.03600974815619	1.8489919	1.3597764
23.053896987042194	1.8440026	1.3579406
23.071784795377173	1.8639637	1.3652706
23.08967317365145	1.8958161	1.3768864
23.10756212235546	1.9481862	1.3957744
23.125451641979787	1.9523116	1.3972515
23.143341733015134	1.9530166	1.3975037
23.161232395952357	1.9297975	1.3891715
23.179123631282426	1.9207398	1.3859075
23.197015439496468	1.9111102	1.3824291
23.214907821085717	1.9470012	1.3953499
23.23280077654157	1.9665354	1.4023322
23.250694306355538	1.9683281	1.4029711
23.268588411019277	1.9545183	1.3980409
23.28648309102458	1.9688812	1.4031683
23.304378346863356	1.96421	1.4015027
23.322274179027676	1.9319707	1.3899535
23.340170588009723	1.9189396	1.385258
23.358067574301852	1.9112605	1.3824835
23.37596513839651	1.9324944	1.3901418
23.39386328078629	1.9449372	1.39461
23.411762001963947	1.937373	1.3918955
23.429661302422353	1.9654914	1.4019599
23.4475611826545	1.933396	1.3904661
23.46546164315356	1.9460719	1.3950168
23.48336268441279	1.9499872	1.3964194
23.501264306925638	1.9409361	1.3931748
23.51916651118564	1.9042695	1.3799527
23.537069297686497	1.8983464	1.3778049
23.554972666922037	1.8964956	1.3771331
23.57287661938623	1.8952035	1.3766639
23.59078115557318	1.9057481	1.3804884
23.608686275977128	1.9293214	1.3890002
23.62659198109246	1.9385511	1.3923186
23.6444982714137	1.9306357	1.3894732
23.66240514743549	1.9424098	1.3937036
23.68031260965263	1.9330635	1.3903465
23.698220658560068	1.9388101	1.3924116
23.716129294652845	1.8989458	1.3780224
23.7340385184262	1.8821615	1.3719189
23.75194833037546	1.8992428	1.3781302
23.769858730996123	1.9525409	1.3973335
23.78776972078382	2.0061426	1.4163836
23.80568130023431	2.0234654	1.4224856
23.823593469843495	2.006975	1.4166775
23.841506230107424	1.9494798	1.3962377
23.859419581522275	1.9328594	1.3902731
23.87733352458438	1.8988496	1.3779875
23.89524805979019	1.8967487	1.377225
23.913163187636318	1.9067582	1.3808541
23.931078908619508	1.8886698	1.3742888
23.948995223236633	1.9067115	1.3808372
23.966912131984735	1.9794303	1.4069223
23.98482963536096	2.0290601	1.4244509
24.002747733862616	2.038186	1.4276506
24.020666427987155	2.065449	1.437167
24.038585718232156	2.0936465	1.4469439
24.056505605095353	2.0704217	1.438896
24.074426089074617	2.0734124	1.4399348
24.092347170667946	2.0088806	1.4173498
24.110268850373515	1.9717357	1.404185
24.128191128689586	2.0204084	1.4214107
24.146114006114626	2.0870798	1.444673
24.164037483147187	2.1220813	1.4567366
24.181961560286005	2.0879579	1.4449768
24.199886238029926	2.0426052	1.4291974
24.21781151687797	2.0600421	1.4352847
24.235737397329274	2.0572174	1.4343003
24.253663879883135	2.0268779	1.4236846
24.271590965038975	2.0089574	1.417377
24.289518653296376	2.0261228	1.4234194
24.30744694515505	1.9750829	1.4053764
24.32537584111486	1.9867672	1.4095273
24.34330534167581	2.007546	1.4168789
24.361235447338046	1.9755111	1.4055288
24.379166158601876	1.9519497	1.3971219
24.39709747596772	1.98606	1.4092764
24.41502939993615	2.0004818	1.4143839
24.432961931007917	1.9458688	1.3949441
24.450895069683856	1.9122531	1.3828424
24.468828816465	1.9255258	1.3876332
24.4867631718525	1.9684232	1.4030051
24.504698136347656	2.0086083	1.4172539
24.52263371045192	2.0260851	1.4234061
24.540569894666874	2.0342152	1.4262592
24.558506689494266	1.9570067	1.3989305
24.57644409543597	1.9127246	1.3830129
24.594382112994012	1.8949776	1.3765818
24.61232074267057	1.9772062	1.4061316
24.630259984967953	1.9858812	1.409213
24.64819984038863	1.9933501	1.4118606
24.66614030943522	1.9912696	1.4111235
24.684081392610462	1.9690373	1.4032239
24.702023090417274	1.9673905	1.402637
24.7199654033587	2.0012124	1.4146421
24.737908331937927	2.0729914	1.4397887
24.755851876658305	2.088319	1.4451017
24.773796038023324	2.0905385	1.4458694
24.79174081653661	2.1128297	1.4535576
24.809686212701962	2.0939276	1.447041
24.827632227023294	2.0810237	1.4425753
24.8455788600047	2.0977147	1.448349
24.8635261121504	2.1363099	1.4616121
24.88147398396475	2.1319518	1.4601204
24.899422475952303	2.114517	1.4541379
24.917371588617698	2.1027577	1.4500889
24.935321322465768	2.1671486	1.4721239
24.953271678001478	2.2927485	1.5141824
24.97122265572994	2.4732904	1.5726699
24.989174256156414	2.7842908	1.6686194
25.00712647978632	3.2711842	1.8086416
25.02507932712521	3.8450828	1.9608883
25.043032798678798	4.337057	2.0825603
25.060986894952933	4.8997865	2.213546
25.078941616453637	5.688093	2.3849723
25.096896963687055	6.683663	2.585278
25.114852937159508	7.826015	2.7975016
25.132809537377444	8.220343	2.867114
25.150766764847468	8.215787	2.8663194
25.168724620076347	7.6083865	2.7583303
25.186683103570985	6.6391225	2.5766494
25.204642215838426	5.534959	2.3526492
25.222601957385894	4.1757545	2.0434663
25.24056232872074	3.1425946	1.7727364
25.25852333035048	2.560588	1.6001837
25.276484962782778	2.267516	1.5058273
25.294447226525435	2.1387682	1.4624528
25.312410122086423	2.0690022	1.4384027
25.330373649973843	1.9770987	1.4060935
25.348337810695988	1.9281836	1.3885905
25.366302604761245	1.8799314	1.3711059
25.384268032678207	1.8266314	1.3515292
25.40223409495558	1.8153123	1.3473352
25.420200792102257	1.9246886	1.3873315
25.438168124627246	1.9572204	1.399007
25.45613609303974	1.8988671	1.3779938
25.474104697849057	1.8740083	1.3689442
25.492073939564698	1.8664773	1.3661908
25.510043818696285	1.8371989	1.3554331
25.528014335753614	1.8215307	1.349641
25.54598549124664	1.8557484	1.3622586
25.56395728568544	1.915202	1.3839083
25.58192971958028	1.9125208	1.3829392
25.59990279344156	1.8735733	1.3687854
25.617876507779833	1.8617164	1.3644472
25.635850863105826	1.8268975	1.3516277
25.653825859930386	1.7855501	1.3362448
25.671801498764548	1.8145456	1.3470507
25.68977778011949	1.8722539	1.3683033
25.707754704506524	1.8858862	1.3732758
25.725732272437153	1.8456773	1.3585571
25.743710484423012	1.8097126	1.3452556
25.761689340975888	1.777082	1.3330724
25.77966884260774	1.7940178	1.3394095
25.797648989830662	1.7994711	1.3414437
25.815629783156922	1.826027	1.3513057
25.83361122309895	1.8449318	1.3582827
25.85159331016929	1.8298472	1.3527185
25.869576044880695	1.8201298	1.3491218
25.887559427746034	1.8562653	1.3624483
25.90554345927836	1.8563809	1.3624907
25.92352813999086	1.83297	1.3538722
25.94151347039689	1.8041257	1.3431774
25.959499451009965	1.808331	1.344742
25.97748608234374	1.833139	1.3539346
25.995473364912062	1.8618025	1.3644788
26.013461299228904	1.8822085	1.3719361
26.03144988580839	1.8990333	1.3780541
26.04943912516483	1.9035991	1.3797098
26.067429017812675	1.8947064	1.3764833
26.085419564266537	1.829447	1.3525705
26.103410765041186	1.7843965	1.335813
26.12140262065155	1.7790345	1.3338045
26.139395131612723	1.8289268	1.3523782
26.157388298439948	1.8866907	1.3735687
26.17538212164861	1.879444	1.3709282
26.193376601754295	1.8311087	1.3531847
26.211371739272714	1.7835773	1.3355064
26.229367534719746	1.7697895	1.3303343
26.247363988611433	1.75554	1.324968
26.26536110146397	1.7921147	1.3386989
26.283358873793727	1.7695918	1.33026
26.301357306117204	1.7909663	1.3382698
26.319356398951104	1.8210838	1.3494754
26.33735615281224	1.8269429	1.3516445
26.35535656821762	1.819486	1.3488833
26.373357645684404	1.8004702	1.3418161
26.39135938572991	1.7980324	1.3409073
26.409361788871614	1.7658906	1.3288682
26.427364855627165	1.7808961	1.3345022
26.445368586514352	1.7686678	1.3299127
26.46337298205115	1.790249	1.3380018
26.48137804275568	1.8058962	1.3438363
26.499383769146217	1.8256754	1.3511755
26.517390161741215	1.8098882	1.3453208
26.53539722105928	1.8071667	1.344309
26.553404947619182	1.8007904	1.3419353
26.571413341939856	1.828203	1.3521105
26.589422404540397	1.8333203	1.3540015
26.60743213594006	1.8170539	1.3479815
26.62544253665827	1.8123674	1.346242
26.64345360721459	1.8584657	1.3632555
26.66146534812879	1.8334647	1.3540549
26.679477759920758	1.8274055	1.3518156
26.69749084311057	1.8286575	1.3522786
26.71550459821847	1.8140737	1.3468755
26.733519025764842	1.8083204	1.344738
26.751534126270258	1.7778637	1.3333656
26.769549900255434	1.7916007	1.3385069
26.787566348241267	1.8006485	1.3418825
26.80558347074881	1.7543474	1.3245178
26.823601268299267	1.7469398	1.3217185
26.841619741414036	1.7922758	1.3387591
26.85963889061465	1.8243041	1.3506681
26.877658716422832	1.8317783	1.353432
26.89567921936045	1.845037	1.3583214
26.913700399949544	1.8321108	1.3535548
26.93172225871233	1.84055	1.3566687
26.949744796171174	1.8185759	1.3485458
26.967768012848605	1.8011916	1.3420848
26.98579190926733	1.7952973	1.339887
27.003816485950225	1.8095382	1.3451908
27.021841743420318	1.8019031	1.3423499
27.039867682200814	1.8290899	1.3524384
27.057894302815072	1.7804495	1.3343349
27.07592160578664	1.7512294	1.3233403
27.0939495916392	1.7842978	1.3357761
27.111978260896635	1.7846417	1.3359048
27.13000761408296	1.7610866	1.3270594
27.148037651722397	1.7959958	1.3401477
27.166068374339304	1.8126227	1.3463367
27.184099782458215	1.7851446	1.3360931
27.20213187660384	1.7852576	1.3361353
27.22016465730105	1.803203	1.342834
27.23819812507487	1.8255261	1.3511204
27.256232280450533	1.8334603	1.3540533
27.274267123953383	1.7624359	1.3275677
27.292302656108987	1.7540097	1.3243903
27.31033887744306	1.7687609	1.3299477
27.32837578848146	1.7589834	1.3262666
27.34641338975026	1.7705978	1.3306382
27.364451681775673	1.8123176	1.3462235
27.382490665084074	1.7786976	1.3336782
27.400530340202046	1.7637707	1.3280703
27.41857070765629	1.8008734	1.3419663
27.436611767973726	1.8307772	1.3530622
27.454653521681404	1.8030504	1.3427771
27.472695969306564	1.7797999	1.3340914
27.490739111376627	1.7635909	1.3280026
27.508782948419153	1.7542974	1.3244989
27.526827480961902	1.7339107	1.3167804
27.54487270953279	1.7674136	1.3294411
27.562918634659898	1.8189477	1.3486837
27.580965256871508	1.8591516	1.3635072
27.599012576696026	1.8572853	1.3628225
27.617060594662068	1.8085452	1.3448217
27.63510931129842	1.7989621	1.3412539
27.65315872713401	1.835509	1.3548095
27.67120884269797	1.8324552	1.353682
27.68925965851958	1.8123664	1.3462416
27.707311175128307	1.7835246	1.3354867
27.725363393053787	1.8404514	1.3566324
27.74341631282583	1.8959789	1.3769455
27.7614699349744	1.907216	1.38102
27.77952426002968	2.077708	1.4414257
27.797579288521973	2.1350396	1.4611775
27.815635020981784	2.5261252	1.5893788
27.83369145793979	2.5544744	1.5982723
27.85174859992682	2.414936	1.5540065
27.869806447473923	2.3017168	1.517141
27.887865001112267	2.0143507	1.4192783
27.905924261373233	1.8913001	1.3752455
27.92398422878836	1.8710282	1.3678553
27.94204490388936	1.8629023	1.3648818
27.96010628720813	1.8209256	1.3494167
27.978168379276728	1.8121732	1.3461698
27.9962311806274	1.827386	1.3518084
28.014294691792568	1.8462609	1.3587718
28.0323589133048	1.8907229	1.3750356
28.050423845696887	1.9154685	1.3840045
28.068489489501758	1.8810562	1.371516
28.086555845252523	1.8169597	1.3479465
28.104622913482487	1.8564798	1.362527
28.122690694725115	1.8873898	1.373823
28.14075918951405	1.9367758	1.391681
28.15882839838312	1.9681652	1.4029131
28.176898321866304	1.9419271	1.3935305
28.1949689604978	1.8612638	1.3642814
28.213040314811945	1.8851678	1.3730141
28.23111238534327	1.9301431	1.3892959
28.249185172626493	1.9431905	1.3939837
28.267258677196473	1.9040068	1.3798575
28.285332899588294	1.9342166	1.3907611
28.303407840337172	1.9592948	1.3997481
28.321483499978545	1.9406531	1.3930732
28.33955987904799	1.9523383	1.397261
28.357636978081285	1.983871	1.4084996
28.37571479761439	2.0034213	1.4154227
28.393793338183425	1.9868069	1.4095414
28.41187260032469	1.9555832	1.3984216
28.429952584574686	1.9849256	1.4088739
28.448033291470065	1.9412675	1.3932937
28.46611472154769	1.8773487	1.3701637
28.484196875344566	1.897249	1.3774066
28.502279753397914	1.9262642	1.3878992
28.52036335624511	1.9515768	1.3969885
28.538447684423716	1.9674197	1.4026474
28.556532738471482	1.9557422	1.3984785
28.574618518926325	1.9533534	1.3976243
28.59270502632635	2.0214114	1.4217635
28.61079226120985	2.0369606	1.4272213
28.628880224115274	2.02325	1.42241
28.646968915581287	1.9709684	1.4039118
28.66505833614671	1.981942	1.4078146
28.68314848635055	1.988505	1.4101436
28.701239366732004	2.008881	1.41735
28.71933097783044	2.0786247	1.4417436
28.737423320185403	2.1206853	1.4562573
28.75551639433665	2.1387212	1.4624368
28.773610200824074	2.1444433	1.4643918
28.791704740187793	2.0954983	1.4475836
28.80980001296809	2.1143675	1.4540864
28.827896019705413	2.1763744	1.475254
28.845992760940433	2.2343493	1.494774
28.86409023721397	2.2330375	1.4943352
28.88218844906704	2.2073383	1.4857113
28.900287397040845	2.2169342	1.4889373
28.918387081676755	2.1996765	1.4831307
28.936487503516343	2.2213144	1.4904075
28.954588663101365	2.292424	1.5140753
28.97269056097374	2.3534768	1.5341046
28.990793197675597	2.3589413	1.5358845
29.00889657374923	2.399011	1.548874
29.027000689737125	2.48038	1.5749222
29.04510554618196	2.4304855	1.5590014
29.06321114362659	2.414639	1.5539109
29.08131748261405	2.4343662	1.5602455
29.099424563687567	2.4597507	1.5683593
29.11753238739057	2.4476957	1.5645113
29.13564095426663	2.52061	1.5876429
29.15375026485954	2.5682685	1.6025819
29.171860319713275	2.6000926	1.6124803
29.18997111937199	2.6028273	1.613328
29.20808266438002	2.5926018	1.6101558
29.226194955281898	2.7161922	1.6480875
29.244307992622335	2.8291166	1.6819978
29.26242177694624	2.873054	1.6950085
29.2805363087987	2.9065163	1.7048508
29.29865158872498	2.8889377	1.6996875
29.316767617270557	2.9012842	1.7033156
29.334884394981064	2.952069	1.7181586
29.353001922402367	3.0073993	1.7341855
29.37112020008047	3.0421033	1.7441627
29.389239228561596	3.121605	1.7668064
29.407359008392152	3.340071	1.827586
29.42547954011872	3.707052	1.9253706
29.44360082428809	4.306442	2.0751967
29.46172286144722	5.3240366	2.3073874
29.479845652143283	6.7650547	2.600972
29.497969196923606	8.721037	2.9531403
29.516093496335728	11.262772	3.3560052
29.5342185509274	14.164925	3.7636318
29.55234436124651	16.620687	4.0768476
29.570470927841175	18.06806	4.250654
29.588598251259686	18.039	4.2472343
29.60672633205055	16.798801	4.0986342
29.624855170762405	14.517943	3.810242
29.642984767944146	11.728243	3.4246523
29.66111512414481	8.955806	2.9926252
29.67924623991366	6.5629907	2.5618334
29.697378115800138	4.9687276	2.2290642
29.71551075235387	4.0885043	2.022005
29.733644150124675	3.6431885	1.9087138
29.751778309662576	3.4652634	1.8615218
29.769913231517766	3.4045255	1.8451357
29.78804891624066	3.2305453	1.7973717
29.806185364381818	3.2122345	1.7922708
29.82432257649206	3.317377	1.8213668
29.842460553122333	3.4861662	1.8671278
29.86059929482382	3.4772096	1.8647277
29.878738802147872	3.423284	1.8502119
29.896879075646048	3.3327768	1.8255894
29.915020115870114	3.2354424	1.7987336
29.933161923371976	3.2127862	1.7924247
29.951304498703777	3.1554916	1.7763703
29.969447842417857	3.1510117	1.7751089
29.987591955066733	3.1777668	1.7826291
30.005736837203123	3.181569	1.7836953
30.023882489379943	3.128899	1.7688694
30.04202891215028	3.1224365	1.7670418
30.060176106067455	3.116467	1.7653518
30.078324071684946	3.097038	1.7598404
30.09647280955646	3.138067	1.771459
30.114622320235863	3.1162279	1.7652841
30.132772604277257	3.0987024	1.7603132
30.1509236622349	3.0727026	1.7529126
30.16907549466328	3.0802255	1.7550571
30.18722810211705	3.0515623	1.7468722
30.205381485151097	2.9567552	1.7195218
30.22353564432045	2.9084356	1.7054136
30.241690580180403	2.984964	1.7277048
30.25984629328638	3.0012999	1.732426
30.278002784194037	2.9442465	1.7158806
30.296160053459246	2.9206057	1.7089779
30.314318101638033	3.0087893	1.7345862
30.332476929286646	3.0865011	1.756844
30.35063653696153	3.0935574	1.7588512
30.368796925219307	2.9607444	1.7206814
30.386958094616844	2.8629649	1.6920298
30.40512004571115	2.8710024	1.6944033
30.423282779059463	2.8877814	1.6993474
30.441446295219233	2.8278294	1.6816151
30.459610594748067	2.8022885	1.6740037
30.47777567820382	2.7984638	1.672861
30.495941546144504	2.7816374	1.6678241
30.51410819912835	2.8290396	1.6819749
30.532275637713795	2.8931236	1.7009184
30.55044386245946	2.909727	1.7057922
30.56861287392416	2.826849	1.6813235
30.586782672666956	2.7686667	1.6639311
30.604953259247047	2.798755	1.672948
30.623124634223885	2.7976751	1.6726252
30.641296798157075	2.798941	1.6730036
30.659469751606462	2.8046632	1.6747129
30.677643495132074	2.7429652	1.6561899
30.695818029294152	2.6659303	1.6327677
30.713993354653116	2.6688352	1.633657
30.73216947176962	2.6635091	1.6320261
30.75034638120448	2.6552687	1.6294996
30.768524083518756	2.6327994	1.6225903
30.786702579273673	2.7136931	1.6473291
30.80488186903069	2.8355348	1.6839046
30.82306195335144	2.9635432	1.7214944
30.841242832797782	3.0949962	1.7592602
30.85942450793176	3.3335953	1.8258137
30.877606979315637	3.721722	1.9291764
30.895790247511883	4.1327257	2.0329106
30.913974313083134	4.5270925	2.1276965
30.932159176592283	4.8227468	2.1960752
30.95034483860237	4.905599	2.2148588
30.968531299676698	4.606469	2.1462686
30.98671856037873	4.2415905	2.0595121
31.00490662127215	3.8932555	1.9731334
31.023095482920848	3.5681403	1.8889521
31.04128514588892	3.253248	1.8036762
31.059475610740662	2.9804401	1.7263951
31.07766687804056	2.7582364	1.6607939
31.09585894835335	2.6014538	1.6129023
31.11405182224393	2.5398483	1.5936902
31.132245500277417	2.5747666	1.6046079
31.15043998301914	2.5504496	1.5970128
31.168635271034628	2.476128	1.5735718
31.18683136488964	2.4153817	1.5541499
31.20502826515008	2.4186015	1.5551853
31.223225972382135	2.475138	1.5732571
31.241424487152155	2.5068076	1.5832901
31.259623810026692	2.4853442	1.5764974
31.27782394157253	2.4229796	1.5565923
31.296024882356644	2.463469	1.5695442
31.314226632946237	2.506443	1.583175
31.332429193908684	2.4841523	1.5761194
31.350632565811598	2.4491472	1.5649751
31.368836749222787	2.4337854	1.5600594
31.387041744710295	2.5051546	1.582768
31.40524755284232	2.5635273	1.6011019
31.423454174187317	2.595866	1.6111691
31.441661609313922	2.543294	1.5947708
31.459869858791002	2.4076998	1.5516765
31.478078923187628	2.351342	1.5334086
31.496288803073064	2.3443067	1.5311129
31.514499499016807	2.3578265	1.5355215
31.532711011588546	2.3832066	1.5437638
31.550923341358178	2.415878	1.5543095
31.56913648889584	2.4000974	1.5492247
31.587350454771844	2.277208	1.5090421
31.605565239556732	2.2671318	1.5056998
31.62378084382127	2.321955	1.5237962
31.641997268136382	2.3830538	1.5437143
31.660214513073274	2.4100783	1.5524427
31.67843257920331	2.3731275	1.5404959
31.6966514670981	2.2912655	1.5136926
31.71487117732944	2.2576313	1.5025417
31.733091710469346	2.2299333	1.4932961
31.751313067090052	2.204278	1.4846811
31.769535247764008	2.1652622	1.471483
31.787758253063878	2.190658	1.4800872
31.805982083562526	2.2448542	1.4982837
31.824206739833024	2.2933955	1.5143961
31.84243222244869	2.249154	1.499718
31.860658531983013	2.149677	1.4661777
31.878885669009737	2.1421208	1.4635986
31.897113634102784	2.1698854	1.4730531
31.91534242783632	2.2608573	1.5036148
31.933572050784694	2.2801692	1.5100229
31.951802503522508	2.2660341	1.5053352
31.970033786624548	2.2248855	1.491605
31.988265900665834	2.1478798	1.4655647
32.006498846221575	2.0518446	1.4324261
32.02473262386724	1.9965396	1.4129896
32.04296723417845	2.0576963	1.4344673
32.0612026777311	2.1088815	1.4521989
32.07943895510129	2.1337645	1.460741
32.097676066865304	2.150257	1.4663755
32.115914013599685	2.164867	1.4713486
32.13415279588115	2.1519222	1.4669431
32.152392414286666	2.1862729	1.478605
32.1706328693934	2.2712848	1.5070783
32.18887416177875	2.2051039	1.4849592
32.20711629202032	2.0416143	1.4288507
32.225359260695924	2.0937939	1.4469948
32.243603068383614	2.1647437	1.4713068
32.26184771566166	2.1912856	1.4802991
32.28009320310852	2.1929963	1.4808768
32.2983395313029	2.218836	1.4895757
32.31658670082372	2.1775897	1.4756658
32.33483471225012	2.1831584	1.4775515
32.35308356616143	2.2211494	1.4903522
32.371333263137245	2.1821158	1.4771986
32.38958380375734	2.1732323	1.4741887
32.407835188601744	2.1212785	1.456461
32.42608741825067	2.052198	1.4325495
32.444340493284585	2.0291703	1.4244895
32.46259441428416	2.0457954	1.4303131
32.48084918183028	2.054189	1.4332442
32.49910479650405	2.066205	1.43743
32.51736125888683	2.112785	1.4535422
32.53561856956014	2.162297	1.4704751
32.5538767291058	2.082756	1.4431757
32.572135738105764	2.0768616	1.4411321
32.59039559714228	1.9822056	1.4079082
32.608656306797776	1.9837759	1.4084657
32.62691786765491	2.014284	1.4192547
32.645180280296586	2.1112292	1.453007
32.663443545305896	2.0857823	1.4442238
32.68170766326619	1.9948937	1.412407
32.69997263476099	1.9141176	1.3835164
32.7182384603741	1.9762166	1.4057797
32.7365051406895	2.1059606	1.4511929
32.75477267629144	2.0939426	1.4470462
32.77304106776434	1.9716979	1.4041716
32.79131031569289	1.8982404	1.3777665
32.809580420661966	1.9967235	1.4130547
32.827851383256714	2.0299227	1.4247535
32.84612320406245	1.9937392	1.4119983
32.86439588366476	1.9606129	1.4002188
32.88266942264945	1.9603783	1.400135
32.9009438216025	1.9707696	1.403841
32.9192190811102	1.9652296	1.4018664
32.937495201758985	1.9815447	1.4076735
32.95577218413556	1.9243569	1.3872119
32.974050028826866	1.9074372	1.3810999
32.992328736420035	1.969465	1.4033763
33.010608307502444	2.0073476	1.416809
33.02888874266169	1.9620708	1.4007394
33.047170042485604	1.9101305	1.3820747
33.06545220756225	1.8849299	1.3729275
33.083735238479896	1.9402773	1.3929384
33.10201913582707	1.9532654	1.3975928
33.12030390019248	1.8850161	1.3729589
33.138589532165135	1.8824183	1.3720125
33.15687603233419	1.945408	1.3947788
33.17516340128909	1.8645641	1.3654904
33.19345163961947	1.7954823	1.339956
33.211740747915215	1.8503355	1.3602704
33.23003072676643	2.0147476	1.4194181
33.248321576763466	2.007182	1.4167504
33.266613298496885	1.921972	1.3863521
33.28490589255747	1.8648213	1.3655846
33.30319935953626	1.8657738	1.3659333
33.32149370002451	1.8906261	1.3750004
33.339788914613706	1.8952854	1.3766936
33.358085003895575	1.8983383	1.377802
33.376381968462034	1.90993	1.3820021
33.39467980890529	1.9352655	1.3911382
33.41297852581774	1.8928789	1.3758193
33.43127811979204	1.8928939	1.3758248
33.44957859142105	1.922884	1.386681
33.467879941297866	1.9647135	1.4016824
33.486182170015844	1.9498408	1.396367
33.50448527816853	1.8721529	1.3682663
33.522789266349754	1.9173331	1.384678
33.541094135153514	2.006681	1.4165736
33.55939988517411	1.9307766	1.3895239
33.57770651700602	1.9133784	1.3832492
33.59601403124398	1.9013901	1.378909
33.61432242848296	1.9592335	1.3997263
33.632631709318154	2.0387993	1.4278653
33.650941874344994	1.9343657	1.3908148
33.66925292415916	1.9175808	1.3847674
33.68756485935654	1.9242877	1.387187
33.70587768053328	1.9829108	1.4081587
33.724191388285746	1.9430336	1.3939273
33.74250598321054	2.006897	1.4166499
33.760821465904506	2.0503066	1.4318892
33.77913783696474	2.0356085	1.4267476
33.79745509698852	1.9051541	1.3802732
33.815773246573414	1.8725784	1.3684219
33.8340922863172	1.8085424	1.3448206
33.852412216817896	1.8155628	1.3474282
33.87073303867377	1.9094026	1.3818114
33.889054752483304	1.9187027	1.3851725
33.907377358845245	1.9304543	1.3894079
33.92570085835853	1.9446368	1.3945024
33.94402525162239	1.9768623	1.4060093
33.96235053923627	1.9888002	1.4102483
33.980676721799824	1.9414451	1.3933575
33.999003799912984	1.8863436	1.3734423
34.01733177417592	1.9732287	1.4047166
34.03566064518901	1.9588717	1.3995969
34.0539904135529	1.8920726	1.3755263
34.07232107986846	1.8843284	1.3727084
34.090652644736785	1.9536526	1.3977312
34.108985108759235	2.0129075	1.4187697
34.12731847253742	1.9893708	1.4104506
34.14565273667313	1.8464459	1.3588399
34.16398790176847	1.8272687	1.351765
34.18232396842574	1.8202317	1.3491596
34.20066093724749	1.8484609	1.3595811
34.21899880883651	2.0227587	1.4222373
34.23733758379583	2.1889658	1.4795154
34.25567726272874	2.2246096	1.4915125
34.27401784623872	2.0106454	1.4179723
34.29235933492957	1.983829	1.4084847
34.31070172940526	2.075161	1.4405419
34.32904503027003	2.0334644	1.425996
34.347389238128386	1.9336109	1.3905433
34.36573435358502	1.9333721	1.3904575
34.38408037724492	2.0410926	1.4286681
34.402427309713296	2.0384965	1.4277593
34.42077515159559	1.8833548	1.3723538
34.43912390349752	1.8246133	1.3507825
34.45747356602499	1.9632422	1.4011575
34.47582413978423	2.0318959	1.4254458
34.49417562538163	2.028575	1.4242805
34.51252802342388	1.928216	1.3886021
34.53088133451789	1.8979249	1.3776519
34.54923555927084	1.8991667	1.3781025
34.567590698290104	2.019683	1.4211555
34.58594675218336	2.086596	1.4445055
34.6043037215585	1.8671314	1.3664302
34.62266160702365	1.7699814	1.3304064
34.641020409187234	1.781903	1.3348794
34.65938012865785	1.7915183	1.3384762
34.677740766044394	1.9235401	1.3869175
34.69610232195598	2.0262601	1.4234676
34.714464797002016	2.0136466	1.4190302
34.73282819179208	2.1221185	1.4567493
34.751192506936064	2.2293508	1.4931011
34.76955774304408	2.0651743	1.4370714
34.7879239007265	1.8249266	1.3508985
34.80629098059391	1.9122823	1.382853
34.824658983257194	2.0986192	1.4486612
34.843027909327446	2.04138	1.4287686
34.86139775941603	1.8691548	1.3671703
34.879768534134534	1.8204111	1.3492261
34.89814023409483	1.8697101	1.3673735
34.91651285990901	1.8846459	1.3728241
34.93488641218944	2.0428345	1.4292777
34.95326089154871	2.0671775	1.4377682
34.97163629859967	1.9029075	1.3794591
34.99001263395542	2.0267973	1.4236563
35.00838989822934	2.1402915	1.4629735
35.02676809203499	2.0305214	1.4249636
35.04514721598624	1.9858261	1.4091934
35.063527270697215	1.9302534	1.3893356
35.081908256782256	1.8437537	1.3578489
35.10029017485597	2.016662	1.4200922
35.11867302553321	2.194741	1.4814658
35.137056809429104	2.057483	1.4343929
35.155441527159006	1.9842196	1.4086233
35.173827179338524	1.8978457	1.3776232
35.19221376658354	1.9765015	1.405881
35.21060128951017	2.1550894	1.4680222
35.2289897487348	2.1876545	1.4790722
35.24737914487405	1.9127804	1.383033
35.26576947854479	1.7712847	1.3308963
35.28416075036418	1.8554009	1.362131
35.30255296094958	2.0641556	1.4367169
35.32094611091867	2.060257	1.4353595
35.33934020088932	1.9579675	1.3992739
35.35773523147969	1.765373	1.3286734
35.3761312033082	1.7777413	1.3333197
35.394528116993506	2.0640745	1.4366888
35.41292597315452	2.1608288	1.4699758
35.431324772410434	2.0946217	1.4472808
35.449724515380666	1.9525669	1.3973428
35.46812520268491	2.112675	1.4535043
35.486526834943106	2.091033	1.4460404
35.504929412775454	2.210261	1.4866947
35.52333293680242	2.2291577	1.4930364
35.54173740764471	1.7325721	1.316272
35.560142825923286	1.6957254	1.3022002
35.5785491922594	2.0884244	1.4451382
35.59695650727454	1.9243428	1.3872068
35.61536477159042	1.1889042	1.0903689
