0.008763373481513119	0.0	0.0
0.026290120649546365	0.17179282	0.414479
0.043816868432600686	0.12005361	0.34648752
0.06134361724069026	0.082868464	0.28786883
0.07887036748382949	0.110861406	0.33295858
0.0963971195720331	0.10629405	0.3260277
0.11392387391531617	0.11096778	0.33311826
0.1314506309236943	0.18259482	0.42731115
0.1489773910071836	0.19670174	0.44351068
0.16650415457580078	0.21375686	0.46233848
0.18403092203956356	0.21607861	0.46484256
0.20155769380849	0.13414627	0.36625984
0.2190844702925996	0.15363257	0.3919599
0.2366112519019124	0.17182124	0.41451326
0.2541380390464497	0.1696683	0.41190812
0.27166483213623416	0.115945056	0.34050706
0.28919163158128947	0.07512977	0.2740981
0.3067184377916406	0.101649284	0.31882486
0.324245251177314	0.14072512	0.37513348
0.34177207214833777	0.15688603	0.39608842
0.3592989011147415	0.17574222	0.41921622
0.37682573848655654	0.14771807	0.3843411
0.39435258467381573	0.15496394	0.39365458
0.41187944008655414	0.14328746	0.3785333
0.42940630513480854	0.12695764	0.35631114
0.446933180228618	0.11497121	0.33907405
0.4644600657780234	0.12481695	0.35329443
0.48198696219306775	0.1522301	0.39016676
0.49951386988379676	0.19214682	0.43834555
0.5170407892602581	0.20298117	0.4505343
0.5345677207325025	0.23663855	0.48645508
0.5520946647105822	0.2621493	0.51200515
0.5696216216045534	0.26649806	0.5162345
0.5871485918244737	0.22146776	0.47060362
0.6046755757804043	0.16781066	0.409647
0.6222025738824094	0.15252943	0.39055017
0.6397295865405557	0.16235842	0.40293723
0.6572566141649129	0.14089571	0.3753608
0.6747836571655547	0.16399238	0.4049597
0.6923107159525568	0.15206625	0.3899567
0.7098377909359992	0.16746153	0.40922064
0.7273648825259653	0.16731937	0.40904692
0.7448919911325411	0.13530841	0.3678429
0.762419117165817	0.17419073	0.41736162
0.7799462610358868	0.1561088	0.39510605
0.7974734231528482	0.16312858	0.4038918
0.8150006039268024	0.16263187	0.4032764
0.8325278037678551	0.18632026	0.4316483
0.8500550230861152	0.22929229	0.47884473
0.8675822622916969	0.24783698	0.49783227
0.8851095217947171	0.25325093	0.5032404
0.9026368020052984	0.25065905	0.50065863
0.9201641033335665	0.22212404	0.47130036
0.9376914261896523	0.22554104	0.4749116
0.9552187709836915	0.23668945	0.4865074
0.9727461381258234	0.2454732	0.49545252
0.990273528026193	0.26066273	0.5105514
1.0078009410949496	0.23814645	0.4880025
1.0253283777422473	0.22910155	0.47864553
1.0428558383782454	0.22434637	0.47365215
1.0603833234131086	0.2522721	0.50226694
1.0779108332570058	0.28212774	0.53115696
1.0954383683201119	0.28587848	0.5346761
1.112965929012607	0.38221192	0.6182329
1.1304935157446763	0.54079705	0.73538905
1.1480211289265108	0.57381845	0.75750804
1.1655487689683062	1.4431585	1.2013153
1.1830764362802655	1.7205449	1.3116955
1.200604131272596	2.1366093	1.4617145
1.2181318543555117	2.3964694	1.5480534
1.235659605939232	2.4163725	1.5544685
1.253187386433982	4.011996	2.0029967
1.270715196249994	6.28447	2.5068846
1.2882430357975057	11.557951	3.3996987
1.3057709054867608	15.864038	3.9829686
1.3232988057280106	21.274275	4.6124043
1.3408267369315112	25.851316	5.084419
1.358354699507526	29.263655	5.4095893
1.3758826938663256	33.54653	5.791937
1.3934107204181858	35.53738	5.9613237
1.410938779573391	36.09227	6.007684
1.4284668717422309	36.806202	6.0668116
1.4459949973350033	36.70077	6.058116
1.4635231567620117	36.60183	6.0499444
1.4810513504335687	35.51934	5.9598103
1.4985795787599925	34.718193	5.892215
1.5161078421516088	34.070698	5.837011
1.5336361410187505	33.665344	5.8021846
1.5511644757717598	33.818165	5.8153386
1.5686928468209842	34.077103	5.8375597
1.58622125457678	34.50765	5.874321
1.6037496994495108	35.68782	5.9739285
1.621278181849548	35.895782	5.9913087
1.6388067021872719	36.381794	6.031732
1.6563352608730693	35.72687	5.9771957
1.673863858317336	34.693966	5.890158
1.6913924949304753	34.209576	5.848895
1.7089211711228998	33.129448	5.755819
1.7264498873050296	32.255604	5.679402
1.7439786438872935	31.533735	5.6154904
1.7615074412801288	30.989246	5.5667987
1.779036279893981	30.538418	5.5261574
1.796565160139305	29.886835	5.466885
1.814094082426564	29.358103	5.4183116
1.8316230471662298	28.601007	5.347991
1.849152054768784	27.640564	5.2574296
1.8666811056447168	26.73252	5.17035
1.8842102002045273	25.82751	5.0820775
1.901739338858724	25.145805	5.0145593
1.9192685220178245	24.494947	4.949237
1.9367977500923557	23.7093	4.86922
1.9543270234928547	23.429153	4.840367
1.971856342629867	23.233713	4.820136
1.9893857079139496	22.742445	4.7689037
2.006915119755667	22.2151	4.7132897
2.0244445785655945	21.668465	4.6549397
2.0419740847543175	21.146915	4.5985775
2.0595036387324317	20.79539	4.5601964
2.0770332409105414	20.053148	4.478074
2.094562891699263	19.610926	4.4284225
2.1120925915092217	18.981487	4.356775
2.129622340751053	18.70126	4.3244953
2.1471521398354043	187.0643	13.677145
2.1646819891729323	443.59085	21.061596
2.182211889174303	439.95886	20.975197
2.1997418402501974	452.22223	21.265518
2.2172718428113023	432.0686	20.78626
2.234801897268317	320.0965	17.891241
2.2523320040319548	16.487953	4.060536
2.269862163512935	16.291367	4.0362563
2.287392376121992	16.113693	4.0141864
2.304922642269869	15.673554	3.958984
2.322452962367322	15.225758	3.9020197
2.3399833368251164	14.723945	3.8371792
2.357513766054032	14.535032	3.8124838
2.3750442504648586	14.220322	3.7709842
2.3925747904683963	14.025619	3.7450793
2.410105386475459	13.934837	3.7329395
2.4276360388968707	13.783198	3.712573
2.445166748143469	13.68802	3.6997323
2.4626975146261025	13.488105	3.6726155
2.4802283387556323	13.141876	3.6251726
2.4977592209429305	13.067168	3.6148539
2.5152901615988825	12.825176	3.5812256
2.5328211611343865	12.606186	3.550519
2.5503522199603523	12.211444	3.4944878
2.5678833384877024	11.985441	3.4619997
2.5854145171273712	11.750101	3.4278421
2.6029457562903064	11.522046	3.394414
2.620477056387469	11.377806	3.3731003
2.6380084178298326	11.243351	3.3531106
2.655539841028383	11.029823	3.3211179
2.673071326394119	11.044424	3.3233151
2.6906028743380523	10.823525	3.2899127
2.708134485271211	10.705292	3.2718942
2.7256661596046325	10.499336	3.240268
2.743197897749369	10.195779	3.193083
2.760729700116486	10.031173	3.1672027
2.778261567117063	9.909867	3.1479943
2.795793499162193	9.798958	3.1303287
2.8133254966629817	9.694466	3.1135936
2.830857560030551	9.486865	3.0800755
2.8483896896760337	9.370063	3.061056
2.865921886010578	9.280925	3.046461
2.883454149445347	9.288854	3.0477622
2.9009864803915177	9.30616	3.0506
2.91851887926028	9.189503	3.0314193
2.9360513464628384	9.092594	3.0153928
2.953583882410413	8.893383	2.9821775
2.9711164875142373	8.572172	2.9278271
2.9886491621855606	8.473925	2.9110007
3.0061819068356455	8.243177	2.8710935
3.023714721875769	8.182804	2.8605602
3.041247607717225	8.136311	2.8524218
3.0587805647713213	8.07674	2.8419607
3.0763135934493806	8.0032215	2.8289967
3.0938466941627407	7.8807034	2.807259
3.1113798673227544	7.8443317	2.8007734
3.1289131133407904	7.740152	2.7821128
3.1464464326282315	7.672068	2.7698498
3.1639798255964786	7.563725	2.7502227
3.1815132926569443	7.364786	2.713814
3.1990468342210603	7.2609606	2.694617
3.216580450700272	7.2849317	2.6990612
3.2341141425060416	7.229262	2.6887286
3.251647910049847	7.083594	2.6615021
3.2691817537431813	6.8562984	2.6184535
3.286715673997555	6.7135696	2.5910556
3.3042496712244938	6.762151	2.6004136
3.32178374583554	6.7310557	2.5944278
3.339317898242251	6.791534	2.6060572
3.3568521288562034	6.6833415	2.585216
3.3743864380889876	6.5324874	2.5558732
3.3919208263522127	6.4338536	2.5365043
3.4094552940575023	6.402937	2.5304024
3.4269898416164972	6.518409	2.5531175
3.444524469440858	6.5892434	2.5669522
3.4620591779422587	6.5471435	2.5587387
3.479593967532391	6.407045	2.531214
3.4971288386229658	6.2650332	2.5030048
3.5146637916257086	6.162041	2.4823458
3.5321988269523628	6.0923057	2.4682596
3.5497339450146903	6.1155615	2.4729662
3.5672691462244708	6.1922107	2.4884152
3.5848044309934988	6.319813	2.513924
3.60233979973359	6.288993	2.5077865
3.619875252856575	6.1741533	2.4847844
3.6374107907743034	6.0419645	2.4580407
3.6549464138986427	5.979789	2.4453607
3.6724821226414788	5.9038606	2.4297862
3.690017917414714	5.843642	2.4173627
3.7075537986302702	5.9172535	2.4325407
3.7250897667000857	6.067422	2.4632137
3.7426258220361235	6.290745	2.5081358
3.7601619650503553	6.5336666	2.5561037
3.777698196154779	7.105783	2.6656675
3.7952345157614067	8.319752	2.884398
3.8127709242822716	9.244002	3.040395
3.830307422129425	11.584204	3.4035575
3.847844009714936	30.27682	5.5024376
3.8653806874508954	97.71624	9.885153
3.882917455749409	96.92167	9.84488
3.900454315022606	96.53394	9.825169
3.917991265682631	41.064804	6.4081826
3.9355283081416506	10.708368	3.2723644
3.9530654428118495	8.657523	2.9423668
3.970602670105433	7.470832	2.7332823
3.9881399904346244	6.543048	2.557938
4.005677404211669	6.398782	2.5295813
4.023214911848827	6.282593	2.50651
4.0407525137583855	6.2094026	2.4918673
4.058290210352644	6.15978	2.4818904
4.075828002043927	6.1409087	2.4780858
4.0933658892445814	6.0728383	2.464313
4.110903872366966	6.0530705	2.4602988
4.128441951823468	5.8908277	2.4271028
4.145980128026488	5.873457	2.4235215
4.163518401388452	5.8647532	2.4217253
4.181056772321807	5.8871813	2.4263515
4.1985952412390155	5.884835	2.4258678
4.216133808552567	5.948375	2.438929
4.233672474674966	6.0297537	2.4555557
4.251211240018741	6.1294904	2.4757807
4.268750104996445	6.268863	2.5037699
4.286289070020643	7.168395	2.6773858
4.303828135503928	8.727041	2.9541566
4.3213673018589125	29.11668	5.3959875
4.3389065694982305	90.268524	9.500975
4.356445938834537	165.58923	12.868148
4.3739854102805085	170.5487	13.05943
4.391524984248844	171.42477	13.092928
4.409064661152262	135.38258	11.635402
4.426604441403504	95.667244	9.780963
4.444144325415337	75.00236	8.66039
4.461684313600543	21.038467	4.586771
4.47922440637193	21.696295	4.657928
4.496764604142329	20.200747	4.494524
4.5143049073245916	18.417858	4.291603
4.531845316331589	16.222086	4.027665
4.5493858315762195	13.165193	3.628387
4.566926453471405	11.019045	3.3194947
4.584467182430081	8.895898	2.9825993
4.602008018865218	7.8387117	2.7997699
4.619548963189798	7.2382603	2.6904016
4.637090015816834	6.736601	2.5954962
4.654631177159353	6.401969	2.5302112
4.672172447630417	6.0271373	2.4550228
4.689713827643102	5.9525766	2.4397902
4.7072553176105085	5.846316	2.4179156
4.724796917945764	5.869094	2.4226213
4.742338629062015	5.7779803	2.403743
4.759880451372434	5.677644	2.3827808
4.777422385290215	5.5258594	2.3507147
4.794964431228581	5.424819	2.329124
4.812506589600768	5.413197	2.3266277
4.830048860820047	5.4485106	2.3342044
4.847591245299709	5.4537354	2.3353233
4.8651337434530655	5.436955	2.331728
4.882676355693457	5.418386	2.3277426
4.900219082434242	5.4182186	2.3277068
4.917761924088813	5.4580364	2.336244
4.935304881070575	5.3621864	2.3156395
4.952847953792969	5.2954564	2.3011858
4.970391142669449	5.248046	2.2908614
4.9879344481135055	5.285847	2.299097
5.005477870538642	5.2685933	2.2953417
5.023021410358394	5.2920356	2.3004425
5.040565067986324	5.31173	2.304719
5.05810884383601	5.250916	2.2914877
5.075652738321066	5.315536	2.3055446
5.09319675185512	5.30339	2.3029091
5.110740884851836	5.2790465	2.2976177
5.128285137724894	5.283865	2.298666
5.145829510888007	5.2319775	2.2873516
5.163374004754908	5.143029	2.267825
5.1809186197393595	5.0714283	2.2519832
5.198463356255145	5.096215	2.2574797
5.216008214716077	5.0755053	2.2528882
5.233553195535998	5.0858874	2.2551913
5.251098299128764	5.075851	2.252965
5.268643525908272	5.059577	2.2493503
5.286188876288432	5.0482287	2.2468264
5.3037343506831895	5.034588	2.2437887
5.32127994950651	5.0483875	2.2468617
5.3388256731723915	5.0523887	2.247752
5.356371522094851	5.007893	2.2378323
5.373917496687938	4.929356	2.2202153
5.391463597365729	4.920585	2.2182393
5.40900982454232	4.897607	2.2130537
5.426556178631843	4.9864798	2.2330427
5.444102660048449	5.005118	2.2372122
5.4616492692063225	5.0401506	2.245028
5.479196006519669	4.9719095	2.2297778
5.496742872402727	4.9242034	2.2190547
5.514289867269756	4.9457483	2.223904
5.531836991535049	4.9307113	2.2205205
5.549384245612924	4.944575	2.22364
5.566931629917724	4.860664	2.2046914
5.584479144863822	4.814857	2.1942782
5.6020267908656205	4.7972236	2.1902566
5.619574568337545	4.7925625	2.1891923
5.637122477694054	4.8135805	2.1939874
5.654670519349629	4.8798995	2.2090495
5.672218693718784	4.9397926	2.2225645
5.689767001216059	4.99393	2.2347102
5.707315442256021	5.065695	2.2507098
5.724864017253266	5.0544333	2.2482066
5.7424127266224225	5.0685244	2.2513382
5.75996157077814	5.0374227	2.2444203
5.777510550135105	4.9948664	2.2349198
5.795059665108022	4.967872	2.2288723
5.812608916111639	5.000666	2.236217
5.830158303560715	5.1851525	2.277093
5.847707827870055	5.270331	2.29572
5.86525748945448	5.247834	2.290815
5.8828072887288485	5.2831883	2.2985187
5.900357226108044	5.3219237	2.3069296
5.917907302006979	5.507516	2.3468096
5.9354575168406	6.2214465	2.4942827
5.9530078710238765	6.8573413	2.6186526
5.970558364971812	7.402578	2.720768
5.988108999099438	7.7767596	2.7886841
6.005659773821818	8.373094	2.8936298
6.023210689554039	8.128974	2.8511355
6.040761746711227	8.557348	2.9252946
6.058312945708531	7.8151937	2.7955668
6.075864286961132	7.2365837	2.69009
6.093415770884244	6.5499315	2.5592835
6.1109673978931065	5.951725	2.4396157
6.128519168402993	5.3814974	2.3198054
6.146071082829204	5.279621	2.2977426
6.163623141587075	5.1606936	2.271716
6.181175345091969	5.1217637	2.2631314
6.198727693759281	5.0779514	2.253431
6.216280188004435	5.0675225	2.2511158
6.233832828242885	4.968369	2.2289839
6.251385614890126	4.938473	2.2222676
6.268938548361669	4.9367247	2.2218742
6.286491629073067	4.8820763	2.209542
6.304044857439898	4.8365045	2.1992054
6.321598233877777	4.747812	2.1789474
6.339151758802344	4.672141	2.1615136
6.356705432629277	4.7148104	2.1713614
6.37425925577428	4.784544	2.18736
6.391813228653095	4.854672	2.203332
6.409367351681486	4.831537	2.1980758
6.426921625275259	4.8135285	2.1939754
6.44447604985025	4.747793	2.1789432
6.46203062582232	4.7475114	2.1788785
6.47958535360737	4.8212132	2.1957262
6.497140233621328	4.8121953	2.1936717
6.514695266280161	4.7907243	2.1887724
6.532250451999859	4.7916994	2.1889951
6.549805791196454	4.8158774	2.1945107
6.567361284286002	4.8379083	2.1995246
6.584916931684597	4.8252397	2.1966429
6.602472733808367	4.84704	2.2015994
6.6200286910734665	4.8577185	2.2040234
6.637584803896092	4.8311605	2.1979902
6.655141072692462	4.777532	2.1857567
6.672697497878842	4.8295426	2.197622
6.690254079871514	4.8850017	2.210204
6.707810819086808	4.8802004	2.2091177
6.725367715941078	4.8240194	2.196365
6.742924770850719	4.7684493	2.183678
6.760481984232151	4.810153	2.193206
6.778039356501836	4.8544917	2.2032912
6.795596888076266	4.8748984	2.2079172
6.813154579371963	4.815597	2.1944468
6.830712430805492	4.820366	2.1955333
6.84827044279344	4.8475404	2.201713
6.865828615752445	4.817391	2.1948555
6.883386950099159	4.807737	2.1926553
6.900945446250287	4.812362	2.1937096
6.918504104622553	4.847057	2.2016032
6.936062925632727	4.9034066	2.2143638
6.953621909697607	4.93422	2.2213104
6.971181057234028	4.9184556	2.2177591
6.988740368658859	4.9050117	2.214726
7.006299844389007	4.9278646	2.2198794
7.023859484841407	4.986421	2.2330296
7.041419290433036	5.1296186	2.264866
7.058979261580902	5.2959538	2.3012938
7.0765393987020495	5.5184765	2.3491437
7.094099702213559	5.836323	2.4158483
7.111660172532549	6.0321126	2.4560359
7.129220810076164	6.3306575	2.51608
7.146781615261595	6.805345	2.6087055
7.16434258850606	7.151153	2.674164
7.181903730226821	7.524028	2.7429962
7.1994650408411704	7.7161856	2.7778022
7.217026520766437	7.8525987	2.802249
7.234588170419983	8.197284	2.8630898
7.252149990219215	8.325789	2.8854444
7.269711980581568	8.207025	2.8647904
7.2872741419245175	7.9722548	2.823518
7.304836474665574	7.5018935	2.7389584
7.322398979222286	7.11849	2.6680498
7.339961656012233	6.832056	2.6138203
7.357524505453039	6.5500784	2.559312
7.375087527962357	6.3596053	2.5218258
7.392650723957886	6.1656585	2.4830744
7.410214093857353	5.766119	2.4012744
7.427777638078528	5.509525	2.3472376
7.445341357039213	5.253496	2.2920506
7.4629052511572525	5.1623015	2.27207
7.480469320850524	5.1297903	2.264904
7.498033566536948	5.1028967	2.2589593
7.5155979886344735	5.0489755	2.2469926
7.5331625875610975	5.015373	2.239503
7.550727363734844	4.9659476	2.2284405
7.568292317573788	4.9338155	2.2212193
7.585857449496025	4.9344172	2.2213547
7.603422759919705	4.935292	2.2215517
7.620988249263007	5.011694	2.2386813
7.638553917944147	5.0958266	2.2573938
7.656119766381391	5.091968	2.2565389
7.673685794993023	5.048115	2.246801
7.691252004197388	5.013865	2.239166
7.70881839441285	5.0192633	2.2403712
7.726384966057826	5.1069126	2.2598479
7.743951719550762	5.094734	2.2571518
7.761518655310149	5.062945	2.250099
7.779085773754511	5.0292215	2.2425926
7.796653075302419	5.0608525	2.2496338
7.814220560372475	5.1079288	2.2600727
7.831788229383323	5.083067	2.2545657
7.8493560827536495	5.070746	2.2518318
7.866924120902174	5.1418686	2.2675688
7.884492344247663	5.232005	2.2873576
7.9020607532089135	5.24321	2.2898057
7.919629348204771	5.20952	2.2824373
7.937198129654115	5.164246	2.2724977
7.954767097975865	5.1856537	2.277203
7.972336253588986	5.213503	2.2833097
7.989905596912472	5.2045918	2.2813575
8.007475128365371	5.1822	2.2764447
8.025044848366756	5.2127404	2.2831426
8.042614757335754	5.273838	2.2964838
8.060184855691523	5.3267198	2.3079689
8.07775514385327	5.4980936	2.3448014
8.095325622240228	5.563024	2.3586063
8.112896291271687	5.6602798	2.3791342
8.130467151366968	5.6435413	2.375614
8.148038202945436	5.639305	2.374722
8.165609446426497	5.60804	2.36813
8.183180882229594	5.611573	2.368876
8.200752510774217	5.648649	2.3766887
8.218324332479893	5.65372	2.3777552
8.235896347766193	5.6945806	2.386332
8.253468557052724	5.7327533	2.394317
8.27104096075914	5.8099065	2.4103746
8.288613559305137	5.852844	2.4192653
8.306186353110448	5.910743	2.431202
8.32375934259485	5.9635515	2.4420383
8.341332528178162	5.9436374	2.4379575
8.358905910280246	5.9794054	2.4452822
8.376479489321003	5.98099	2.4456062
8.394053265720377	6.034722	2.456567
8.411627239898356	6.046082	2.4588783
8.42920141227497	6.013319	2.4522069
8.44677578327029	6.047611	2.4591892
8.464350353304427	6.0105767	2.4516478
8.48192512279754	5.9842587	2.4462745
8.499500092169827	6.0439954	2.458454
8.51707526184153	6.0466638	2.4589965
8.534650632232934	6.0405235	2.4577477
8.552226203764365	6.012205	2.4519799
8.569801976856192	6.039168	2.4574718
8.587377951928834	6.128702	2.4756215
8.60495412940274	6.1286726	2.4756155
8.622530509698416	6.128714	2.475624
8.6401070932364	6.2166705	2.4933252
8.657683880437283	6.3054934	2.511074
8.675260871721695	6.403051	2.530425
8.692838067510303	6.4790382	2.5453956
8.710415468223834	6.6551228	2.5797524
8.727993074283043	6.7790413	2.6036592
8.745570886108737	6.8088927	2.6093855
8.763148904121765	6.8629494	2.619723
8.78072712874302	6.827252	2.612901
8.798305560393441	6.959981	2.6381776
8.815884199494006	7.0939746	2.6634517
8.833463046465745	7.2681656	2.6959536
8.851042101729728	7.465597	2.7323246
8.86862136570707	7.7742953	2.7882423
8.886200838818924	7.891432	2.8091693
8.903780521486505	7.9936404	2.8273027
8.921360414131055	8.142998	2.8535938
8.938940517173874	8.311188	2.882913
8.956520831036297	8.478686	2.9118185
8.97410135613971	8.656407	2.9421773
8.99168209290554	8.82342	2.9704242
9.009263041755265	9.164962	3.0273688
9.026844203110405	9.36803	3.0607238
9.044425577392525	9.565097	3.092749
9.062007165023239	9.607056	3.099525
9.079588966424197	9.996656	3.161749
9.097170982017108	10.130939	3.1829135
9.11475321222372	11.315872	3.3639073
9.132335657465825	12.141951	3.4845302
9.149918318165264	12.186562	3.4909256
9.167501194743924	12.923047	3.594864
9.18508428762374	12.585191	3.5475612
9.202667597226693	12.599419	3.549566
9.220251123974803	12.127135	3.4824038
9.237834868290143	11.682736	3.418002
9.255418830594836	11.621287	3.4090009
9.273003011311046	11.072989	3.3276103
9.290587410860985	10.857674	3.2950985
9.308172029666911	10.231534	3.1986768
9.32575686815113	9.92427	3.150281
9.343341926735997	8.5842905	2.9298959
9.360927205843916	8.343623	2.888533
9.378512705897327	8.15591	2.8558552
9.396098427318728	7.945245	2.818731
9.413684370530664	7.8216267	2.7967172
9.431270535955722	7.7071047	2.7761672
9.448856924016539	7.520896	2.7424252
9.466443535135806	7.4154487	2.7231321
9.484030369736251	7.418013	2.723603
9.501617428240658	7.474881	2.7340229
9.519204711071852	7.54042	2.7459826
9.536792218652714	7.594484	2.755809
9.55437995140617	7.6470284	2.765326
9.571967909755191	7.699398	2.7747788
9.589556094122802	7.72813	2.7799513
9.60714450493207	7.7124023	2.7771213
9.624733142606116	7.7138114	2.777375
9.642322007568108	7.7799764	2.7892609
9.659911100241267	7.8353033	2.7991612
9.677500421048851	7.857384	2.8031025
9.695089970414175	7.8320165	2.798574
9.712679748760609	7.825898	2.7974806
9.730269756511557	7.880289	2.8071852
9.747859994090492	7.969121	2.8229632
9.765450461920915	8.028768	2.833508
9.78304116042639	8.022216	2.8323517
9.800632090030527	8.015572	2.8311784
9.81822325115699	7.983145	2.8254461
9.835814644229481	7.958166	2.8210223
9.853406269671762	8.014628	2.831012
9.870998127907646	8.048636	2.8370118
9.888590219360985	8.066284	2.8401206
9.906182544455698	8.087848	2.8439143
9.923775103615734	8.080637	2.8426461
9.941367897265108	8.07534	2.8417144
9.958960925827878	8.00991	2.8301783
9.97655418972816	7.9534044	2.820178
9.994147689390106	7.9678307	2.8227346
10.011741425237934	8.035082	2.834622
10.029335397695904	8.038474	2.8352203
10.04692960718833	8.074687	2.8415995
10.06452405413958	8.019677	2.8319035
10.082118738974064	8.039879	2.835468
10.099713662116246	8.036485	2.8348694
10.117308823990651	8.027792	2.8333359
10.134904225021844	8.045089	2.8363867
10.152499865634445	8.035765	2.8347425
10.170095746253125	7.934605	2.816843
10.18769186730261	7.894262	2.8096728
10.205288229207675	7.8663363	2.804699
10.222884832393145	7.8562346	2.8028975
10.2404816772839	7.8512387	2.8020062
10.258078764304868	7.783465	2.7898862
10.275676093881035	7.8375487	2.7995622
10.293273666437438	7.8528566	2.802295
10.310871482399158	7.9319177	2.816366
10.32846954219134	7.888539	2.8086543
10.346067846239173	7.887538	2.8084762
10.363666394967908	7.8402877	2.8000515
10.38126518880283	7.826107	2.797518
10.398864228169298	7.845585	2.800997
10.416463513492713	7.866941	2.8048067
10.434063045198531	7.9020786	2.8110635
10.451662823712262	7.9238415	2.8149319
10.469262849459467	7.924416	2.815034
10.486863122865758	7.8799834	2.8071308
10.504463644356806	7.833003	2.7987502
10.522064414358338	7.763347	2.7862785
10.539665433296118	7.711794	2.7770116
10.557266701595987	7.6086674	2.7583814
10.574868219683818	7.489791	2.7367482
10.592469987985552	7.362461	2.7133856
10.610072006927185	7.3080573	2.703342
10.627674276934751	7.258313	2.6941257
10.64527679843435	7.160768	2.6759613
10.662879571852143	7.004155	2.6465364
10.680482597614331	6.8852615	2.6239781
10.698085876147173	6.7906504	2.6058877
10.715689407876988	6.6495166	2.5786657
10.733293193230146	6.5629487	2.5618253
10.750897232633072	6.47912	2.5454116
10.76850152651225	6.4486604	2.5394213
10.786106075294207	6.38813	2.527475
10.803710879405534	6.324129	2.5147822
10.821315939272877	6.270093	2.5040154
10.83892125532294	6.240716	2.4981425
10.856526827982472	6.1354556	2.4769852
10.874132657678285	6.098077	2.4694285
10.891738744837243	6.017854	2.4531314
10.909345089886271	5.998065	2.4490948
10.926951693252343	5.9846473	2.446354
10.944558555362494	5.9434867	2.4379268
10.96216567664381	5.8050833	2.409374
10.979773057523436	5.7499356	2.3979023
10.997380698428573	5.6216497	2.371002
11.014988599786477	5.60115	2.366675
11.032596762024461	5.5657573	2.3591857
11.050205185569892	5.523516	2.3502162
11.067813870850198	5.452938	2.3351526
11.085422818292859	5.3384953	2.3105185
11.10303202832541	5.3016977	2.3025415
11.120641501375454	5.2522063	2.2917693
11.138251237870636	5.2220025	2.28517
11.155861238238671	5.094633	2.2571294
11.173471502907317	5.054884	2.248307
11.191082032304402	4.9619303	2.227539
11.208692826857805	4.9252815	2.2192976
11.226303886995465	4.827447	2.1971452
11.243915213145371	4.7842	2.1872814
11.261526805735578	4.7605696	2.1818728
11.279138665194196	4.72519	2.1737502
11.296750791949393	4.66353	2.1595209
11.314363186429393	4.625077	2.1505992
11.331975849062479	4.610409	2.1471863
11.34958878027699	4.59583	2.1437886
11.36720198050133	4.572001	2.138224
11.384815450163948	4.4881573	2.1185272
11.402429189693366	4.4135756	2.100851
11.420043199518153	4.3379	2.0827627
11.437657480066942	63.308212	7.956646
11.455272031768422	85.03026	9.221186
11.472886855051353	107.40037	10.363415
11.490501950344528	99.00276	9.950013
11.508117318076819	84.36927	9.185275
11.52573295867715	45.794197	6.767141
11.543348872574514	4.1326346	2.0328882
11.560965060197946	4.062508	2.0155663
11.57858152197655	3.977056	1.9942558
11.59619825833949	3.8842525	1.9708507
11.613815269715985	3.8586004	1.964332
11.631432556535323	38.423557	6.1986737
11.649050119226837	82.9884	9.1097975
11.666667958219929	93.36064	9.662331
11.68428607394406	107.56347	10.371281
11.701904466828756	82.35131	9.074762
11.719523137303586	65.170074	8.072799
11.737142085798196	4.4289675	2.1045113
11.754761312742286	3.569774	1.8893845
11.772380818565619	3.5558002	1.885683
11.790000603698015	3.5366857	1.8806078
11.80762066856935	3.4994268	1.8706754
11.825241013609572	3.4806304	1.8656448
11.842861639248683	3.434159	1.8531485
11.860482545916748	3.3638065	1.8340683
11.878103734043883	3.3349729	1.8261908
11.895725204060282	3.320288	1.8221657
11.91334695639619	3.333907	1.8258989
11.930968991481919	3.2893748	1.8136634
11.948591309747824	3.2474546	1.8020695
11.966213911624347	3.2133179	1.792573
11.98383679754198	3.207476	1.7909428
12.001459967931268	3.189557	1.7859331
12.019083423222835	3.1673636	1.7797089
12.036707163847352	3.133691	1.7702235
12.05433119023556	3.1053243	1.7621931
12.071955502818259	3.0872197	1.7570486
12.089580102026313	3.09065	1.7580245
12.107204988290643	3.070904	1.7523994
12.12483016204224	3.059439	1.7491252
12.142455623712152	3.019722	1.7377347
12.16008137373149	3.0096664	1.7348391
12.177707412531431	3.0153532	1.7364773
12.19533374054321	3.0127897	1.735739
12.212960358198126	3.0115056	1.735369
12.230587265927545	2.9948528	1.7305642
12.248214464162889	2.9646811	1.721825
12.265841953335649	2.9160795	1.7076532
12.283469733877375	2.8807545	1.6972785
12.301097806219685	2.8744485	1.6954199
12.31872617079425	2.839881	1.6851946
12.336354828032825	2.8155332	1.677955
12.353983778367205	2.7869506	1.6694162
12.371613022229262	2.7641547	1.6625748
12.389242560050928	2.7749271	1.6658113
12.406872392264201	2.777104	1.6664644
12.424502519301143	2.7992404	1.6730931
12.442132941593874	2.7861872	1.6691875
12.459763659574586	2.790838	1.6705801
12.477394673675532	2.758533	1.6608832
12.49502598432903	2.7492297	1.6580801
12.51265759196746	2.7023518	1.6438831
12.530289497023267	2.7223873	1.6499659
12.547921699928967	2.7064717	1.6451358
12.565554201117134	2.7034454	1.6442157
12.583187001020404	2.6855872	1.6387761
12.600820100071486	2.6672142	1.6331608
12.618453498703152	2.6932802	1.6411216
12.636087197348235	2.664229	1.6322466
12.65372119643964	2.6603408	1.6310551
12.671355496410326	2.6684487	1.6335387
12.68899009769333	2.670882	1.6342833
12.706625000721749	2.714174	1.647475
12.724260205928752	2.756376	1.6602337
12.741895713747551	2.7944808	1.6716701
12.759531524611454	2.8557882	1.6899078
12.777167638953818	2.8691258	1.6938494
12.794804057208072	2.8547018	1.6895863
12.812440779807702	2.8800533	1.697072
12.830077807186271	3.0363479	1.742512
12.847715139777405	3.1095073	1.7633796
12.865352778014795	3.3679729	1.8352038
12.882990722332197	3.5219755	1.8766927
12.90062897316344	3.635105	1.9065951
12.918267530942412	3.6868618	1.9201202
12.935906396103071	3.545492	1.8829477
12.953545569079449	3.676739	1.9174825
12.971185050305628	3.484115	1.8665783
12.988824840215775	3.4923236	1.868776
13.006464939244115	3.5306191	1.8789942
13.024105347824943	3.3800256	1.8384846
13.041746066392617	3.483631	1.8664488
13.05938709538157	3.3000324	1.8165991
13.077028435226296	3.3380833	1.8270422
13.094670086361363	3.2174683	1.7937303
13.112312049221401	3.1328862	1.769996
13.129954324241112	3.0294256	1.7405245
13.147596911855258	2.8141444	1.6775411
13.165239812498685	2.7704878	1.6644782
13.182883026606293	2.6595669	1.6308179
13.200526554613058	2.6107464	1.6157805
13.218170396954017	2.588536	1.6088928
13.235814554064284	2.6326134	1.6225331
13.253459026379034	2.6548462	1.6293699
13.271103814333523	2.6517582	1.628422
13.288748918363058	2.6244633	1.6200196
13.306394338903031	2.6120512	1.6161841
13.32404007638889	2.601587	1.6129436
13.341686131256164	2.6174858	1.6178646
13.359332503940449	2.5885403	1.6088941
13.376979194877402	2.5769472	1.6052873
13.394626204502751	2.596357	1.6113216
13.412273533252307	2.5983436	1.6119379
13.429921181561937	2.6008546	1.6127166
13.447569149867581	2.6439078	1.6260098
13.465217438605247	2.6988075	1.6428047
13.482866048211022	2.6715856	1.6344986
13.500514979121052	2.6570241	1.630038
13.518164231771568	2.6049623	1.6139896
13.535813806598844	2.5613122	1.60041
13.553463704039254	2.5339644	1.5918431
13.571113924529229	2.5357857	1.5924151
13.588764468505275	2.5691614	1.6028603
13.606415336403956	2.5930822	1.610305
13.624066528661917	2.6064584	1.614453
13.641718045715882	2.637569	1.6240594
13.659369888002635	2.6967847	1.642189
13.67702205595903	2.7924826	1.6710722
13.694674550021993	2.8886845	1.6996131
13.712327370628532	2.971011	1.723662
13.729980518215713	3.0616722	1.7497635
13.747633993220681	3.1345851	1.770476
13.765287796080647	3.1436849	1.773044
13.7829419272329	3.1428676	1.7728134
13.800596387114801	3.174655	1.7817562
13.818251176163775	3.2420783	1.8005772
13.835906294817324	3.3157613	1.8209232
13.853561743513023	3.3597975	1.832975
13.871217522688525	3.3693242	1.8355719
13.888873632781538	3.3809495	1.8387358
13.906530074229858	3.4359472	1.8536308
13.92418684747135	3.4338794	1.853073
13.941843952943948	3.3862078	1.8401651
13.959501391085665	3.3166888	1.8211778
13.977159162334578	3.2967553	1.815697
13.994817267128846	3.2896342	1.8137349
14.012475705906693	3.2100048	1.7916486
14.030134479106424	3.0945532	1.7591342
14.047793587166414	3.0435462	1.7445762
14.065453030525108	2.9906023	1.7293358
14.083112809621026	2.9448173	1.716047
14.100772924892766	2.8814747	1.6974907
14.118433376778997	2.8458755	1.6869723
14.136094165718458	2.7572997	1.6605119
14.153755292149969	2.6974947	1.6424052
14.171416756512416	2.6187768	1.6182635
14.189078559244768	2.5779948	1.6056136
14.20674070078606	2.5151856	1.5859337
14.224403181575408	2.4914904	1.5784456
14.242066002051999	2.472156	1.5723091
14.259729162655093	2.453497	1.5663643
14.277392663824022	2.3923943	1.5467367
14.295056505998208	2.3782084	1.5421441
14.312720689617128	2.3908238	1.5462289
14.330385215120348	2.3985815	1.5487355
14.348050082947497	2.3536339	1.5341557
14.3657152935383	2.307092	1.5189115
14.383380847332528	2.2314274	1.4937963
14.401046744770051	2.2165027	1.4887923
14.418712986290798	2.2565873	1.5021942
14.436379572334793	2.2993479	1.51636
14.454046503342123	2.3251898	1.5248573
14.471713779752946	2.2872446	1.5123639
14.489381402007504	2.2814589	1.5104499
14.507049370546113	2.2669713	1.5056465
14.524717685809168	2.273763	1.5079001
14.542386348237134	2.2791116	1.5096726
14.560055358270553	2.3031337	1.5176079
14.577724716350051	2.3456488	1.5315511
14.595394422916325	2.3969698	1.548215
14.61306447841015	2.428119	1.5582422
14.63073488327237	2.4122765	1.5531505
14.648405637943917	2.3855214	1.5445133
14.6660767428658	2.3532922	1.5340444
14.683748198479094	2.3749783	1.5410964
14.701420005224954	2.4568884	1.5674465
14.719092163544628	2.5997896	1.6123863
14.73676467387942	2.6044228	1.6138225
14.754437536670727	2.5848002	1.6077313
14.772110752360014	2.5412655	1.5941347
14.78978432138882	2.605894	1.6142782
14.807458244198777	2.6325526	1.6225142
14.82513252123159	2.6016734	1.6129704
14.842807152929028	2.5854228	1.6079249
14.860482139732962	2.5685325	1.6026642
14.87815748208531	2.5270395	1.5896665
14.8958331804281	2.5367422	1.5927154
14.91350923520342	2.5392275	1.5934954
14.931185646853438	2.6250052	1.6201868
14.948862415820408	2.642301	1.6255156
14.966539542546656	2.651842	1.6284478
14.98421702747459	2.6230493	1.619583
15.001894871046696	2.6568105	1.6299726
15.019573073705542	2.6549368	1.6293976
15.037251635893766	2.6122632	1.6162497
15.054930558054092	2.5679727	1.6024895
15.072609840629323	2.6344893	1.623111
15.090289484062351	2.8079731	1.6757008
15.107969488796124	3.096917	1.7598059
15.125649855273691	3.4400015	1.854724
15.14333058393817	3.9071984	1.9766635
15.161011675232768	4.811669	2.1935515
15.17869312960076	6.0505314	2.4597828
15.196374947485506	7.7994056	2.7927415
15.214057129330447	10.722745	3.2745602
15.231739675579114	15.517205	3.9391885
15.249422586675102	20.775581	4.558024
15.267105863062092	24.306705	4.930183
15.284789505183847	25.034697	5.0034685
15.302473513484218	23.483215	4.845948
15.320157888407127	20.028656	4.4753385
15.337842630396578	15.569766	3.9458542
15.355527739896656	11.920919	3.4526684
15.37321321735153	9.075167	3.0125017
15.39089906320545	6.4957023	2.5486667
15.408585277902748	4.726435	2.1740365
15.42627186188783	3.5681322	1.88895
15.443958815605198	3.0147943	1.7363163
15.461646139499424	2.751383	1.6587293
15.479333834015168	2.6320815	1.622369
15.497021899597165	2.5929751	1.6102718
15.514710336690234	2.5545423	1.5982935
15.53239914573928	2.489289	1.5777481
15.550088327189297	2.4428291	1.5629553
15.567777881485336	2.4273846	1.5580066
15.58546780907256	2.4202912	1.5557286
15.6031581103962	2.4094434	1.5522382
15.620848785901568	2.4062958	1.551224
15.638539836034063	2.3970923	1.5482546
15.656231261239173	2.4165473	1.5545248
15.673923061962451	2.4020298	1.5498483
15.691615238649552	2.396904	1.5481938
15.709307791746202	2.3677366	1.5387452
15.727000721698221	2.352614	1.5338233
15.744694028951498	2.331345	1.5268743
15.76238771395202	2.327337	1.5255612
15.780081777145844	2.3274682	1.5256042
15.797776218979125	2.3208385	1.5234299
15.815471039898094	2.3247604	1.5247165
15.833166240349064	2.313702	1.5210859
15.850861820778437	2.29743	1.5157275
15.868557781632699	2.277031	1.5089834
15.886254123358412	2.2925546	1.5141184
15.903950846402232	2.3067577	1.5188015
15.921647951210897	2.3268743	1.5254096
15.939345438231225	2.343496	1.5308481
15.957043307910133	2.3549623	1.5345887
15.974741560694602	2.366566	1.5383646
15.992440197031714	2.3680563	1.538849
16.01013921736862	2.3353956	1.5282001
16.02783862215259	2.3315191	1.5269313
16.045538411830933	2.331205	1.5268284
16.06323858685107	2.3695512	1.5393347
16.080939147660512	2.3450868	1.5313677
16.09864009470684	2.3121674	1.5205812
16.11634142843774	2.3165705	1.5220284
16.134043149300954	2.3127935	1.5207871
16.15174525774433	2.3088748	1.5194982
16.169447754215817	2.3148103	1.52145
16.18715063916342	2.343751	1.5309314
16.204853913035244	2.3308163	1.5267011
16.222557576279478	2.3357124	1.5283037
16.240261629344403	22.309702	4.723315
16.257966072678386	42.880314	6.548306
16.275670906729868	37.967995	6.1618176
16.293376131947387	2.3825152	1.5435399
16.31108174877957	2.3977747	1.5484749
16.328787757675133	2.4475377	1.5644609
16.34649415908287	2.458484	1.5679554
16.364200953451657	2.502944	1.5820695
16.38190814123048	2.5254824	1.5891767
16.39961572286839	2.5482268	1.5963167
16.41732369881455	2.5815842	1.6067309
16.43503206951817	2.650232	1.6279533
16.45274083542859	2.7236838	1.6503587
16.47044999699522	2.742966	1.6561902
16.488159554667558	2.7849	1.6688019
16.505869508895184	2.8181932	1.6787475
16.523579860127786	2.8928866	1.7008488
16.541290608815117	2.913124	1.7067877
16.559001755407035	2.9804823	1.7264074
16.57671330035348	3.0341167	1.7418716
16.59442524410448	3.0888112	1.7575014
16.61213758711015	3.1385956	1.7716082
16.629850329820705	3.144223	1.7731957
16.647563472686436	3.2230868	1.7952957
16.665277016157724	3.28693	1.8129892
16.682990960685053	3.3416233	1.8280108
16.70070530671898	3.3848379	1.8397928
16.718420054710155	3.414564	1.8478539
16.736135205109335	3.4828143	1.86623
16.753850758367335	3.4908466	1.8683808
16.771566714935087	3.5198758	1.8761332
16.789283075263597	3.5879488	1.8941882
16.80699983980398	3.7020006	1.9240583
16.82471700900741	3.8115933	1.9523302
16.84243458332518	3.861016	1.9649469
16.860152563208665	3.9034295	1.9757099
16.87787094910932	3.9111369	1.9776595
16.89558974147871	3.9661222	1.9915125
16.913308940768466	4.030484	2.0076065
16.931028547430333	4.0959053	2.0238342
16.94874856191613	4.1189194	2.0295122
16.966468984677785	4.138144	2.0342429
16.98418981616729	4.2014027	2.0497324
17.00191105683676	4.282128	2.0693302
17.019632707138374	4.3396373	2.0831797
17.03735476752442	4.350711	2.0858357
17.05507723844728	4.400412	2.0977159
17.072800120359403	4.4429317	2.1078262
17.090523413713353	4.490724	2.1191328
17.108247118961785	4.5107546	2.1238537
17.125971236557437	4.5348907	2.1295283
17.143695766953133	4.561033	2.1356575
17.161420710601806	4.5896883	2.1423557
17.179146067956477	4.5908146	2.1426187
17.19687183947025	4.553747	2.1339512
17.21459802559634	4.5357738	2.1297357
17.232324626788028	4.5509787	2.1333022
17.25005164349871	4.4960995	2.1204007
17.267779076181863	4.489663	2.1188824
17.285506925291074	4.484152	2.1175816
17.30323519127999	4.480302	2.1166723
17.320963874602384	4.439599	2.1070356
17.33869297571211	4.4393773	2.106983
17.356422495063114	4.4313364	2.105074
17.37415243310944	4.402186	2.0981386
17.391882790305218	4.4123507	2.1005597
17.40961356710468	4.4228697	2.103062
17.42734476396215	4.4106493	2.1001546
17.445076381332044	4.3832	2.0936093
17.462808419668868	4.423852	2.1032956
17.48054087942723	4.5565004	2.134596
17.498273761061835	4.8162155	2.1945877
17.51600706502747	5.2504826	2.291393
17.533740791779024	5.903796	2.4297729
17.551474941771485	7.266569	2.6956575
17.56920951545993	8.310331	2.8827646
17.586944513299528	10.63322	3.2608619
17.60467993574556	12.514882	3.537638
17.622415783253373	14.426106	3.7981715
17.64015205627843	16.066679	4.008326
17.657888755276293	17.414385	4.1730547
17.675625880702604	18.184902	4.264376
17.69336343301311	18.168886	4.2624974
17.71110141266366	17.146297	4.1408086
17.728839820110178	15.86478	3.9830618
17.746578655808705	14.435869	3.7994564
17.764317920215372	12.550301	3.5426404
17.7820576137864	10.874667	3.297676
17.79979773697811	8.878283	2.9796448
17.81753829024692	7.0587926	2.656839
17.835279274049356	5.501977	2.3456292
17.85302068884201	4.579268	2.1399224
17.870762535081607	4.022327	2.005574
17.888504813224934	3.7636878	1.9400226
17.90624752372891	3.567617	1.8888136
17.923990667050536	3.4642088	1.8612385
17.941734243646895	3.4159849	1.8482383
17.959478253975185	3.376571	1.8375448
17.9772226984927	3.3576066	1.8323773
17.994967577656833	3.296076	1.8155099
18.01271289192506	3.2729104	1.8091186
18.030458641754965	3.227647	1.7965653
18.04820482760425	3.1919372	1.7865994
18.06595144993067	3.1833942	1.7842069
18.083698509192125	3.153855	1.7759097
18.101446005846576	3.1482148	1.774321
18.119193940352105	3.1432905	1.7729328
18.136942313166887	3.1462102	1.7737559
18.1546911247492	3.1137073	1.76457
18.1724403755574	3.0920703	1.7584283
18.19019006604997	3.1034696	1.7616667
18.207940196685467	3.0751028	1.7535971
18.225690767922575	3.0319164	1.7412399
18.243441780220046	3.0007625	1.732271
18.261193234036764	3.0114357	1.7353489
18.278945129831676	2.9981318	1.7315114
18.29669746806386	2.9681435	1.72283
18.314450249192483	2.990454	1.7292929
18.3322034736768	2.9770634	1.7254169
18.349957141976184	2.9534683	1.7185658
18.3677112545501	2.9261959	1.7106128
18.385465811858108	2.940948	1.7149192
18.403220814359884	2.965828	1.722158
18.420976262515172	2.9876113	1.7284708
18.43873215678387	2.9983697	1.7315801
18.456488497625923	3.0310593	1.7409937
18.474245285501407	3.1205156	1.7664981
18.492002520870486	3.2216623	1.794899
18.50976020419343	3.298693	1.8162304
18.527518335930615	3.5907545	1.8949286
18.545276916542516	4.179527	2.044389
18.563035946489688	4.326048	2.0799153
18.580795426232832	4.680854	2.1635282
18.598555356232698	4.530689	2.1285415
18.616315736950185	4.7755647	2.1853065
18.63407656884626	4.457216	2.111212
18.65183785238201	4.639892	2.1540408
18.669599588018617	4.4495764	2.109402
18.68736177621737	4.4371204	2.1064475
18.705124417439652	4.4001226	2.097647
18.72288751214696	4.220365	2.0543528
18.740651060800886	4.3660355	2.0895061
18.758415063863115	4.1144967	2.028422
18.77617952179546	4.273537	2.0672536
18.793944435059814	4.048236	2.0120227
18.811709804118184	4.0460024	2.0114677
18.829475629432675	3.9786031	1.9946436
18.8472419114655	3.80336	1.9502205
18.86500865067897	3.9271276	1.9816982
18.88277584753551	3.6592891	1.9129268
18.90054350249763	3.6309185	1.905497
18.918311616027957	3.3006783	1.8167769
18.936080188589226	3.176101	1.7821618
18.953849220644265	2.9243405	1.7100704
18.971618712656007	2.7883382	1.6698318
18.9893886650875	2.7543988	1.6596382
19.007159078401887	7.9393353	2.8176825
19.024929953062408	32.815414	5.728474
19.042701289532435	32.741154	5.7219887
19.060473088275405	25.31041	5.0309453
19.07824534975489	2.5895755	1.6092159
19.096018074434568	2.597452	1.6116612
19.113791262778197	2.6051328	1.6140424
19.13156491524966	2.589178	1.6090924
19.149339032312945	2.5837927	1.6074181
19.167113614432136	2.5352824	1.592257
19.184888662071433	2.4903486	1.5780839
19.202664175695123	2.4655814	1.570217
19.220440155767623	2.438683	1.5616283
19.238216602753447	2.4648097	1.5699712
19.2559935171172	2.4422786	1.5627792
19.27377089932361	2.4510636	1.5655873
19.291548749837514	2.4124615	1.55321
19.309327069123835	2.4007437	1.5494334
19.32710585764763	2.3978682	1.5485052
19.344885115874032	2.442723	1.5629213
19.362664844268313	2.4860208	1.576712
19.380445043295822	2.459366	1.5682366
19.39822571342203	2.4257154	1.5574708
19.41600685511252	2.4018629	1.5497944
19.43378846883297	2.397042	1.5482384
19.451570555049173	2.4070976	1.5514824
19.469353114227037	2.4305716	1.5590291
19.48713614683254	2.4307377	1.5590824
19.50491965333182	2.4294498	1.5586692
19.52270363419109	2.4537313	1.566439
19.540488089876686	2.4741611	1.5729467
19.55827302085503	2.4642	1.569777
19.576058427592674	2.4421315	1.5627321
19.593844310556282	2.407889	1.5517374
19.611630670212598	2.4134896	1.553541
19.629417507028506	2.3966348	1.5481069
19.64720482147098	2.3913794	1.5464085
19.6649926140071	2.3950806	1.5476048
19.682780885104084	2.410493	1.5525762
19.70056963522921	2.4226882	1.5564988
19.718358864849908	2.4412847	1.5624611
19.7361485744337	2.4201703	1.5556897
19.753938764448215	2.4412057	1.5624359
19.771729435361202	2.4443803	1.5634514
19.789520587640506	2.4338841	1.560091
19.807312221754092	2.3996491	1.5490801
19.825104338170043	2.404628	1.5506864
19.842896937356517	2.4360707	1.5607917
19.860690019781824	2.488953	1.5776416
19.87848358591436	2.4815125	1.5752817
19.896277636222635	2.4559019	1.5671318
19.914072171175278	2.4173894	1.5547956
19.931867191241015	2.4206219	1.5558348
19.94966269688869	2.4117117	1.5529686
19.967458688587264	2.4040666	1.5505053
19.985255166805807	2.417828	1.5549366
20.00305213201348	2.4395795	1.5619153
20.020849584679578	2.414908	1.5539974
20.038647525273507	2.3710012	1.5398055
20.05644595426477	2.3553488	1.5347146
20.07424487212299	2.3578608	1.5355327
20.092044279317903	2.3601806	1.5362879
20.109844176319353	2.3603158	1.5363319
20.127644563597304	2.3606026	1.5364252
20.145445441621817	2.3636665	1.5374221
20.16324681086307	2.3838842	1.5439832
20.181048671791373	2.3652651	1.5379418
20.198851024877122	2.3642085	1.5375983
20.216653870590836	2.3656523	1.5380677
20.234457209403146	2.3456933	1.5315657
20.252261041784802	2.2895443	1.513124
20.270065368206662	2.2604	1.5034627
20.287870189139685	2.257786	1.5025932
20.305675505054968	2.2654066	1.5051268
20.323481316423702	2.2615705	1.5038519
20.341287623717207	2.2909386	1.5135847
20.359094427406884	2.296471	1.5154113
20.376901727964288	2.3047214	1.5181309
20.39470952586107	2.304464	1.5180461
20.41251782156899	2.2721426	1.5073628
20.430326615559935	2.2672708	1.5057459
20.448135908305886	2.2722108	1.5073854
20.465945700278965	2.2611766	1.5037209
20.483755991951384	2.2307398	1.4935662
20.50156678379548	2.241718	1.4972368
20.519378076283708	2.2617748	1.5039198
20.537189869888635	2.2603617	1.5034499
20.55500216508294	2.249208	1.499736
20.572814962339415	2.231064	1.4936746
20.59062826213098	2.2237706	1.4912312
20.60844206493066	2.2395935	1.4965272
20.626256371211593	2.2872908	1.5123792
20.644071181447032	2.2975974	1.5157827
20.66188649611036	2.290025	1.5132829
20.67970231567506	2.271764	1.5072372
20.697518640614742	2.2614844	1.5038233
20.715335471403122	2.2553618	1.5017862
20.73315280851404	2.263041	1.5043408
20.750970652421447	2.2689767	1.5063123
20.768789003599412	2.2703261	1.5067601
20.786607862522136	2.247861	1.4992868
20.8044272296639	2.2502244	1.5000747
20.82224710549913	2.219434	1.4897765
20.84006749050237	2.196084	1.481919
20.857888385148268	3.7593431	1.9389026
20.8757097899116	45.872902	6.7729535
20.893531705267254	64.741295	8.046198
20.911354131690224	83.748985	9.151447
20.92917706965566	68.98641	8.305806
20.94700051963877	50.063408	7.07555
20.96482448211493	29.362396	5.418708
20.982648957559622	4.10126	2.0251567
21.00047394644843	2.2021344	1.4839591
21.01829944925707	2.2187293	1.48954
21.036125466461375	2.2261045	1.4920136
21.053951998537297	2.1905966	1.4800664
21.071779045960906	2.1299937	1.4594498
21.089606609208378	2.1280277	1.4587761
21.10743468875603	2.1649745	1.4713852
21.12526328508028	2.1642575	1.4711416
21.143092398657675	2.1373453	1.4619663
21.16092202996488	2.1337054	1.4607209
21.17875217947867	2.1128402	1.4535612
21.19658284767596	2.0940547	1.4470849
21.21441403503377	2.0940247	1.4470745
21.232245742029225	2.1235616	1.4572445
21.2500779691396	2.1325855	1.4603375
21.26791071684227	2.1275592	1.4586155
21.28574398561475	2.1275427	1.4586098
21.30357777593465	2.1091433	1.452289
21.321412088279704	2.1017663	1.449747
21.339246923127792	2.1121788	1.4533337
21.357082280956888	2.1378653	1.4621441
21.3749181622451	2.1369367	1.4618264
21.392754567470647	2.1474166	1.4654067
21.41059149711187	2.1241386	1.4574425
21.42842895164726	2.0838583	1.4435575
21.446266931555378	2.0570543	1.4342434
21.464105437314945	2.0503504	1.4319044
21.481944469404798	2.0428789	1.4292932
21.49978402830388	2.029265	1.4245228
21.51762411449127	2.0526924	1.432722
21.53546472844617	2.056285	1.4339752
21.553305870647876	2.0437446	1.429596
21.571147541575865	2.0125952	1.4186597
21.58898974170967	1.9919575	1.4113673
21.60683247152899	2.00279	1.4151996
21.62467573151363	2.0095124	1.4175727
21.642519522143523	2.0073657	1.4168153
21.660363843898722	1.9933972	1.4118772
21.6782086972594	1.9764435	1.4058604
21.696054082705864	2.0154343	1.4196599
21.713900000718535	2.0174077	1.4203547
21.73174645177795	1.9909078	1.4109954
21.749593436364794	1.958937	1.3996203
21.767440954959845	1.9695355	1.4034014
21.785289008044032	1.967499	1.4026756
21.803137596098388	1.9798422	1.4070686
21.820986719604086	1.9787928	1.4066957
21.838836379042412	2.0123162	1.4185613
21.85668657489478	1.9930726	1.4117622
21.87453730764273	1.9756426	1.4055755
21.892388577767914	1.9631888	1.4011384
21.91024038575213	1.9836422	1.4084183
21.928092732077285	1.9575496	1.3991246
21.945945617225426	1.9478129	1.3956407
21.963799041678694	1.9605805	1.4002073
21.981653005919398	31.277637	5.5926414
21.999507510429943	78.08662	8.836663
22.01736255569286	73.07199	8.548216
22.035218142190818	4.1739044	2.0430136
22.05307427040661	2.008028	1.417049
22.07093094082315	1.9665526	1.4023383
22.088788153923474	1.932295	1.3900701
22.106645910190746	1.891927	1.3754734
22.12450421010827	1.9032152	1.3795706
22.142363054159464	1.8932247	1.375945
22.16022244282787	1.9066205	1.3808043
22.178082376597164	1.9206268	1.3858668
22.195942855951145	1.9221133	1.386403
22.213803881373742	1.9315826	1.3898139
22.231665453349002	1.9334724	1.3904936
22.24952757236111	1.9572725	1.3990256
22.26739023889438	1.9581697	1.3993461
22.28525345343323	1.9328738	1.3902783
22.30311721646225	1.9282824	1.3886261
22.320981528466113	1.9199698	1.3856298
22.33884638992964	1.9398037	1.3927684
22.356711801337788	1.9257069	1.3876984
22.37457776317561	1.9453624	1.3947625
22.392444275928337	1.9016215	1.3789929
22.410311340081282	1.9112903	1.3824942
22.428178956119904	1.9373896	1.3919015
22.446047124529805	1.9569635	1.3989152
22.46391584579669	1.9551739	1.3982753
22.481785120406414	1.8828974	1.372187
22.49965494884496	1.8940548	1.3762466
22.51752533159841	1.9106139	1.3822496
22.53539626915302	1.9294487	1.389046
22.553267761995137	1.933152	1.3903784
22.571139810611264	1.9112998	1.3824977
22.589012415488025	1.929217	1.3889625
22.60688557711216	1.9218446	1.386306
22.624759295970566	1.9071931	1.3810116
22.642633572550263	1.9001614	1.3784634
22.660508407338362	1.9236166	1.3869451
22.67838380082217	1.9033774	1.3796295
22.696259753489077	1.894309	1.376339
22.714136265826614	1.9031397	1.3795433
22.73201333832246	1.9152509	1.3839259
22.74989097146439	1.9040159	1.3798609
22.76776916574035	1.8566555	1.3625915
22.785647921638393	1.8499616	1.3601329
22.803527239646712	1.8706907	1.3677319
22.82140712025363	1.8767715	1.369953
22.839287563947593	1.8644295	1.3654411
22.85716857121719	1.880963	1.371482
22.875050142551135	1.8736155	1.3688008
22.892932278438277	1.8417524	1.3571118
22.910814979367604	1.8223431	1.3499418
22.928698245828222	1.8424101	1.357354
22.946582078309387	1.8835815	1.3724363
22.96446647730047	1.8859531	1.3733001
22.98235144329098	1.8327312	1.3537841
23.000236976770562	1.818322	1.3484517
23.018123078229	1.821644	1.3496829
23.03600974815619	1.8438332	1.3578782
23.053896987042194	1.8987222	1.3779413
23.071784795377173	1.9311945	1.3896743
23.08967317365145	1.9026327	1.3793595
23.10756212235546	1.8921566	1.3755568
23.125451641979787	1.9137894	1.3833978
23.143341733015134	1.9260665	1.387828
23.161232395952357	1.9021193	1.3791734
23.179123631282426	1.9078438	1.3812472
23.197015439496468	1.8930066	1.3758657
23.214907821085717	1.8964349	1.3771111
23.23280077654157	1.8834769	1.3723983
23.250694306355538	1.8992828	1.3781447
23.268588411019277	1.8881286	1.374092
23.28648309102458	1.9054459	1.380379
23.304378346863356	1.9296772	1.3891282
23.322274179027676	1.9227793	1.3866432
23.340170588009723	1.898754	1.3779528
23.358067574301852	1.863338	1.3650414
23.37596513839651	1.818038	1.3483464
23.39386328078629	1.7953264	1.3398979
23.411762001963947	1.8187258	1.3486015
23.429661302422353	1.8492073	1.3598557
23.4475611826545	1.849219	1.35986
23.46546164315356	1.8343215	1.3543713
23.48336268441279	1.812885	1.3464342
23.501264306925638	1.8202637	1.3491715
23.51916651118564	1.8101679	1.3454248
23.537069297686497	1.8637198	1.3651812
23.554972666922037	1.8886087	1.3742666
23.57287661938623	1.9157724	1.3841143
23.59078115557318	1.8569573	1.3627023
23.608686275977128	1.842865	1.3575217
23.62659198109246	1.8192393	1.3487917
23.6444982714137	1.8232579	1.3502806
23.66240514743549	1.8118	1.3460312
23.68031260965263	1.8143321	1.3469715
23.698220658560068	1.8057326	1.3437755
23.716129294652845	1.7985435	1.3410978
23.7340385184262	1.8208835	1.3494011
23.75194833037546	1.8278707	1.3519877
23.769858730996123	1.8017222	1.3422824
23.78776972078382	1.7626334	1.3276421
23.80568130023431	1.7438023	1.3205311
23.823593469843495	1.757903	1.3258593
23.841506230107424	1.7613717	1.3271668
23.859419581522275	1.7971382	1.3405738
23.87733352458438	1.8057387	1.3437778
23.89524805979019	1.8215263	1.3496393
23.913163187636318	1.8682885	1.3668535
23.931078908619508	1.9191221	1.3853239
23.948995223236633	1.9766744	1.4059426
23.966912131984735	1.9801214	1.4071679
23.98482963536096	2.0095212	1.4175758
24.002747733862616	1.9561522	1.3986251
24.020666427987155	1.9317039	1.3898575
24.038585718232156	1.9350256	1.391052
24.056505605095353	1.9652525	1.4018747
24.074426089074617	2.04464	1.4299091
24.092347170667946	2.0699894	1.4387457
24.110268850373515	2.0830674	1.4432836
24.128191128689586	2.0586133	1.4347868
24.146114006114626	1.9870018	1.4096105
24.164037483147187	1.961371	1.4004896
24.181961560286005	1.9696403	1.4034387
24.199886238029926	1.950202	1.3964963
24.21781151687797	1.9412769	1.3932971
24.235737397329274	1.9825065	1.4080151
24.253663879883135	2.0329869	1.4258285
24.271590965038975	2.050462	1.4319434
24.289518653296376	1.9901026	1.41071
24.30744694515505	1.9463419	1.3951136
24.32537584111486	1.961407	1.4005024
24.34330534167581	2.0162344	1.4199417
24.361235447338046	2.0606394	1.4354928
24.379166158601876	2.044435	1.4298375
24.39709747596772	1.9941311	1.412137
24.41502939993615	1.9632124	1.4011468
24.432961931007917	1.956195	1.3986404
24.450895069683856	1.9673601	1.4026262
24.468828816465	1.938776	1.3923994
24.4867631718525	1.878109	1.3704412
24.504698136347656	1.8739934	1.3689388
24.52263371045192	1.8637983	1.3652099
24.540569894666874	1.8727238	1.368475
24.558506689494266	1.8556033	1.3622053
24.57644409543597	1.8658134	1.3659478
24.594382112994012	1.8638321	1.3652223
24.61232074267057	1.8947587	1.3765024
24.630259984967953	1.9273071	1.3882749
24.64819984038863	1.8984436	1.3778402
24.66614030943522	1.8427697	1.3574866
24.684081392610462	1.8352463	1.3547126
24.702023090417274	1.8864046	1.3734645
24.7199654033587	1.9269016	1.3881288
24.737908331937927	1.9473611	1.3954788
24.755851876658305	1.9864149	1.4094024
24.773796038023324	2.0364425	1.4270397
24.79174081653661	2.0186653	1.4207975
24.809686212701962	2.0455947	1.4302429
24.827632227023294	2.1243055	1.4574997
24.8455788600047	2.153749	1.4675657
24.8635261121504	2.12951	1.4592841
24.88147398396475	2.0351229	1.4265773
24.899422475952303	1.9883404	1.4100852
24.917371588617698	1.9692988	1.4033171
24.935321322465768	2.0513396	1.4322499
24.953271678001478	2.1969106	1.4821979
24.97122265572994	2.4045784	1.5506703
24.989174256156414	2.7163672	1.6481405
25.00712647978632	3.1621525	1.7782443
25.02507932712521	3.7456515	1.9353685
25.043032798678798	4.4029045	2.09831
25.060986894952933	5.1093616	2.2603898
25.078941616453637	5.8343134	2.4154325
25.096896963687055	6.899997	2.6267846
25.114852937159508	8.180112	2.8600895
25.132809537377444	8.671297	2.9447067
25.150766764847468	8.552448	2.9244568
25.168724620076347	7.837971	2.7996378
25.186683103570985	6.783609	2.6045363
25.204642215838426	5.577369	2.3616455
25.222601957385894	4.1961484	2.0484502
25.24056232872074	3.1663482	1.7794236
25.25852333035048	2.6101387	1.6155924
25.276484962782778	2.211991	1.4872764
25.294447226525435	1.992628	1.4116048
25.312410122086423	1.9168115	1.3844897
25.330373649973843	1.8628078	1.3648472
25.348337810695988	1.818105	1.3483713
25.366302604761245	1.8102022	1.3454375
25.384268032678207	1.8051618	1.3435631
25.40223409495558	1.7875457	1.3369913
25.420200792102257	1.8070982	1.3442835
25.438168124627246	1.8274496	1.3518319
25.45613609303974	1.8312638	1.3532419
25.474104697849057	1.8429762	1.3575625
25.492073939564698	1.867238	1.3664691
25.510043818696285	1.8437704	1.3578551
25.528014335753614	1.840317	1.3565829
25.54598549124664	1.8372958	1.3554689
25.56395728568544	1.8358794	1.3549463
25.58192971958028	1.8118703	1.3460573
25.59990279344156	1.8479366	1.3593884
25.617876507779833	1.8245646	1.3507644
25.635850863105826	1.804327	1.3432524
25.653825859930386	1.773504	1.3317297
25.671801498764548	1.7901994	1.3379834
25.68977778011949	1.7943476	1.3395326
25.707754704506524	1.823517	1.3503766
25.725732272437153	1.8351386	1.3546729
25.743710484423012	1.8346939	1.3545088
25.761689340975888	1.8238171	1.3504877
25.77966884260774	1.7808876	1.334499
25.797648989830662	1.7756255	1.332526
25.815629783156922	1.8006994	1.3419014
25.83361122309895	1.8431089	1.3576114
25.85159331016929	1.8208121	1.3493747
25.869576044880695	1.8287675	1.3523194
25.887559427746034	1.7989184	1.3412377
25.90554345927836	1.7557422	1.3250443
25.92352813999086	1.7198027	1.3114125
25.94151347039689	1.7609643	1.3270133
25.959499451009965	1.7732323	1.3316277
25.97748608234374	1.8085724	1.3448317
25.995473364912062	1.8069689	1.3442354
26.013461299228904	1.7995716	1.3414811
26.03144988580839	1.7859586	1.3363976
26.04943912516483	1.767499	1.3294731
26.067429017812675	1.7800283	1.334177
26.085419564266537	1.7938936	1.3393631
26.103410765041186	1.7788181	1.3337234
26.12140262065155	1.7950078	1.339779
26.139395131612723	1.8101201	1.345407
26.157388298439948	1.8079603	1.3446041
26.17538212164861	1.8071193	1.3442913
26.193376601754295	1.8284832	1.3522142
26.211371739272714	1.8145804	1.3470637
26.229367534719746	1.7654483	1.3287017
26.247363988611433	1.8045316	1.3433286
26.26536110146397	1.8401636	1.3565263
26.283358873793727	1.8481172	1.3594548
26.301357306117204	1.8208107	1.3493742
26.319356398951104	1.7931216	1.3390749
26.33735615281224	1.7598666	1.3265996
26.35535656821762	1.736427	1.3177356
26.373357645684404	1.7706465	1.3306564
26.39135938572991	1.7789669	1.3337792
26.409361788871614	1.8351238	1.3546674
26.427364855627165	1.8339024	1.3542165
26.445368586514352	1.7867452	1.3366919
26.46337298205115	1.7383128	1.3184509
26.48137804275568	1.726445	1.3139426
26.499383769146217	1.7486913	1.3223809
26.517390161741215	1.7997966	1.341565
26.53539722105928	1.8003769	1.3417813
26.553404947619182	1.7429085	1.3201926
26.571413341939856	1.755984	1.3251355
26.589422404540397	1.7713902	1.3309358
26.60743213594006	1.7355907	1.3174182
26.62544253665827	1.7485068	1.3223112
26.64345360721459	1.7600116	1.3266543
26.66146534812879	1.775704	1.3325554
26.679477759920758	1.8112022	1.3458091
26.69749084311057	1.7759436	1.3326453
26.71550459821847	1.7589722	1.3262625
26.733519025764842	1.7562172	1.3252234
26.751534126270258	1.774543	1.3321197
26.769549900255434	1.7254294	1.3135561
26.787566348241267	1.7063326	1.3062667
26.80558347074881	1.7659273	1.328882
26.823601268299267	1.8106055	1.3455874
26.841619741414036	1.8202053	1.3491498
26.85963889061465	1.8142291	1.3469332
26.877658716422832	1.8156955	1.3474774
26.89567921936045	1.8244154	1.3507092
26.913700399949544	1.8100041	1.345364
26.93172225871233	1.7575092	1.3257109
26.949744796171174	1.7608354	1.3269647
26.967768012848605	1.7707596	1.330699
26.98579190926733	1.7840078	1.3356675
27.003816485950225	1.8044984	1.3433162
27.021841743420318	1.8264273	1.3514538
27.039867682200814	1.7859201	1.3363832
27.057894302815072	1.7899449	1.3378882
27.07592160578664	1.7533166	1.3241286
27.0939495916392	1.7346925	1.3170773
27.111978260896635	1.7741042	1.3319551
27.13000761408296	1.8213673	1.3495804
27.148037651722397	1.8051852	1.3435718
27.166068374339304	1.7106965	1.307936
27.184099782458215	1.7123632	1.308573
27.20213187660384	1.742986	1.3202219
27.22016465730105	1.7610629	1.3270504
27.23819812507487	1.776825	1.332976
27.256232280450533	1.7720741	1.3311927
27.274267123953383	1.7398775	1.3190441
27.292302656108987	1.7089514	1.3072686
27.31033887744306	1.674492	1.2940216
27.32837578848146	1.7046181	1.3056102
27.34641338975026	1.7340201	1.3168219
27.364451681775673	1.7518857	1.3235881
27.382490665084074	1.7846599	1.3359116
27.400530340202046	1.803965	1.3431176
27.41857070765629	1.7971338	1.3405722
27.436611767973726	1.7625806	1.3276222
27.454653521681404	1.7450501	1.3210034
27.472695969306564	1.7106302	1.3079106
27.490739111376627	1.7575064	1.3257098
27.508782948419153	1.7642471	1.3282496
27.526827480961902	1.7286443	1.3147792
27.54487270953279	1.7040205	1.3053814
27.562918634659898	1.760108	1.3266907
27.580965256871508	1.7952821	1.3398814
27.599012576696026	1.8258381	1.3512357
27.617060594662068	1.8127352	1.3463786
27.63510931129842	1.7823706	1.3350545
27.65315872713401	1.7441361	1.3206575
27.67120884269797	1.761956	1.3273869
27.68925965851958	1.8257697	1.3512105
27.707311175128307	1.8179506	1.3483139
27.725363393053787	1.8162515	1.3476838
27.74341631282583	1.8275608	1.351873
27.7614699349744	1.8367878	1.3552815
27.77952426002968	1.9852159	1.4089769
27.797579288521973	2.0206826	1.4215071
27.815635020981784	2.271821	1.5072562
27.83369145793979	2.3207438	1.5233988
27.85174859992682	2.2915297	1.5137799
27.869806447473923	2.168861	1.4727052
27.887865001112267	1.9330837	1.3903538
27.905924261373233	1.8773994	1.3701823
27.92398422878836	1.8689995	1.3671136
27.94204490388936	1.8763876	1.369813
27.96010628720813	1.8606076	1.364041
27.978168379276728	1.8388696	1.3560493
27.9962311806274	1.781935	1.3348913
28.014294691792568	1.74774	1.3220212
28.0323589133048	1.7579823	1.3258892
28.050423845696887	1.7869657	1.3367743
28.068489489501758	1.8394291	1.3562555
28.086555845252523	1.8653724	1.3657864
28.104622913482487	1.912951	1.3830947
28.122690694725115	1.9101037	1.382065
28.14075918951405	1.8595204	1.3636423
28.15882839838312	1.8621656	1.3646119
28.176898321866304	1.8728714	1.368529
28.1949689604978	1.8771615	1.3700955
28.213040314811945	1.8622679	1.3646493
28.23111238534327	1.8819045	1.3718252
28.249185172626493	1.8672181	1.3664619
28.267258677196473	1.8679069	1.3667139
28.285332899588294	1.8661429	1.3660684
28.303407840337172	1.8620096	1.3645548
28.321483499978545	1.8676533	1.3666211
28.33955987904799	1.8752456	1.3693961
28.357636978081285	1.901667	1.3790095
28.37571479761439	1.9103518	1.3821547
28.393793338183425	1.9251224	1.3874878
28.41187260032469	1.9118111	1.3826826
28.429952584574686	1.9674404	1.4026548
28.448033291470065	1.97551	1.4055284
28.46611472154769	1.94548	1.3948046
28.484196875344566	1.9308956	1.3895667
28.502279753397914	1.9439514	1.3942566
28.52036335624511	1.9307377	1.3895099
28.538447684423716	1.8707782	1.367764
28.556532738471482	1.8733743	1.3687127
28.574618518926325	1.8611189	1.3642284
28.59270502632635	1.8816909	1.3717474
28.61079226120985	1.9106773	1.3822725
28.628880224115274	1.96461	1.4016454
28.646968915581287	1.9529519	1.3974806
28.66505833614671	1.955912	1.3985392
28.68314848635055	1.9756511	1.4055786
28.701239366732004	2.0209928	1.4216162
28.71933097783044	2.0593247	1.4350348
28.737423320185403	2.0424502	1.4291432
28.75551639433665	2.029243	1.424515
28.773610200824074	2.0143054	1.4192623
28.791704740187793	1.996268	1.4128935
28.80980001296809	2.0138562	1.419104
28.827896019705413	2.0629294	1.4362901
28.845992760940433	2.0730047	1.4397933
28.86409023721397	2.0726013	1.4396532
28.88218844906704	2.0793297	1.4419881
28.900287397040845	2.0864112	1.4444414
28.918387081676755	2.1361911	1.4615715
28.936487503516343	2.23579	1.4952558
28.954588663101365	2.2818885	1.5105921
28.97269056097374	2.3375802	1.5289147
28.990793197675597	2.261574	1.5038531
29.00889657374923	2.2408388	1.4969431
29.027000689737125	2.317921	1.522472
29.04510554618196	2.3009374	1.5168841
29.06321114362659	2.2900705	1.5132979
29.08131748261405	2.3775578	1.5419332
29.099424563687567	2.4013364	1.5496246
29.11753238739057	2.38437	1.5441406
29.13564095426663	2.4096296	1.5522982
29.15375026485954	2.4553118	1.5669434
29.171860319713275	2.5013728	1.5815729
29.18997111937199	2.5254793	1.5891757
29.20808266438002	2.5865705	1.6082819
29.226194955281898	2.6648378	1.632433
29.244307992622335	2.8139577	1.6774856
29.26242177694624	2.8113503	1.6767082
29.2805363087987	2.767483	1.6635754
29.29865158872498	2.7623658	1.6620367
29.316767617270557	2.829334	1.6820624
29.334884394981064	2.9655445	1.7220756
29.353001922402367	3.0002568	1.7321249
29.37112020008047	2.9956264	1.7307878
29.389239228561596	3.0875812	1.7571515
29.407359008392152	3.3047051	1.8178848
29.42547954011872	3.6355946	1.9067235
29.44360082428809	4.1917524	2.0473769
29.46172286144722	5.167752	2.273269
29.479845652143283	6.77254	2.6024106
29.497969196923606	9.178307	3.029572
29.516093496335728	12.115194	3.4806888
29.5342185509274	15.363071	3.9195755
29.55234436124651	17.934431	4.234906
29.570470927841175	19.51797	4.4179144
29.588598251259686	19.344719	4.398263
29.60672633205055	17.94137	4.2357254
29.624855170762405	15.540313	3.9421203
29.642984767944146	12.547825	3.542291
29.66111512414481	9.440836	3.0725944
29.67924623991366	6.818658	2.611256
29.697378115800138	5.054605	2.2482448
29.71551075235387	4.059498	2.0148196
29.733644150124675	3.665634	1.9145845
29.751778309662576	3.468565	1.8624084
29.769913231517766	3.3999355	1.8438914
29.78804891624066	3.3129504	1.8201512
29.806185364381818	3.2840846	1.8122044
29.82432257649206	3.2949235	1.8151925
29.842460553122333	3.3568673	1.8321756
29.86059929482382	3.3281937	1.8243338
29.878738802147872	3.258933	1.8052515
29.896879075646048	3.219016	1.7941617
29.915020115870114	3.1146512	1.7648375
29.933161923371976	3.072724	1.7529187
29.951304498703777	3.1802387	1.7833223
29.969447842417857	3.2495496	1.8026507
29.987591955066733	3.2353852	1.7987176
30.005736837203123	3.183428	1.7842164
30.023882489379943	3.2155728	1.7932018
30.04202891215028	3.2323546	1.797875
30.060176106067455	3.1594243	1.7774769
30.078324071684946	3.1116853	1.763997
30.09647280955646	3.1073601	1.7627705
30.114622320235863	3.086388	1.756812
30.132772604277257	3.012414	1.7356308
30.1509236622349	3.007667	1.7342627
30.16907549466328	3.0456867	1.7451895
30.18722810211705	2.983869	1.7273879
30.205381485151097	2.985113	1.7277479
30.22353564432045	2.9627476	1.7212634
30.241690580180403	2.9403343	1.7147403
30.25984629328638	2.8972168	1.7021213
30.278002784194037	2.8561468	1.6900139
30.296160053459246	2.8582568	1.690638
30.314318101638033	2.8951697	1.7015198
30.332476929286646	2.8706338	1.6942945
30.35063653696153	2.8282242	1.6817325
30.368796925219307	2.850096	1.6882228
30.386958094616844	2.871993	1.6946956
30.40512004571115	2.896732	1.7019789
30.423282779059463	2.8092031	1.6760677
30.441446295219233	2.7415774	1.6557709
30.459610594748067	2.8412097	1.6855888
30.47777567820382	2.8183846	1.6788045
30.495941546144504	2.7540166	1.659523
30.51410819912835	2.75795	1.6607077
30.532275637713795	2.7316632	1.6527745
30.55044386245946	2.7237165	1.6503686
30.56861287392416	2.7003005	1.643259
30.586782672666956	2.6991758	1.6429169
30.604953259247047	2.6572404	1.6301044
30.623124634223885	2.6447976	1.6262834
30.641296798157075	2.726704	1.6512734
30.659469751606462	2.7659726	1.6631213
30.677643495132074	2.713842	1.6473743
30.695818029294152	2.683252	1.6380635
30.713993354653116	2.6921158	1.6407669
30.73216947176962	2.6620047	1.6315651
30.75034638120448	2.6430361	1.6257417
30.768524083518756	2.6116283	1.6160533
30.786702579273673	2.6256783	1.6203945
30.80488186903069	2.7306433	1.6524658
30.82306195335144	2.8548055	1.6896169
30.841242832797782	3.0319414	1.741247
30.85942450793176	3.313847	1.8203975
30.877606979315637	3.8009396	1.9495999
30.895790247511883	4.2582774	2.0635593
30.913974313083134	4.6712613	2.1613102
30.932159176592283	4.8776436	2.2085388
30.95034483860237	4.9185314	2.2177763
30.968531299676698	4.858514	2.2042036
30.98671856037873	4.5603642	2.135501
31.00490662127215	4.06241	2.015542
31.023095482920848	3.5627854	1.8875343
31.04128514588892	3.142569	1.7727293
31.059475610740662	2.7804046	1.6674545
31.07766687804056	2.5445557	1.5951663
31.09585894835335	2.4626896	1.5692959
31.11405182224393	2.377845	1.5420263
31.132245500277417	2.3142223	1.5212568
31.15043998301914	2.2897317	1.513186
31.168635271034628	2.3431668	1.5307406
31.18683136488964	2.4019988	1.5498383
31.20502826515008	2.3651056	1.53789
31.223225972382135	2.3141236	1.5212244
31.241424487152155	2.231788	1.493917
31.259623810026692	2.259287	1.5030925
31.27782394157253	2.3830092	1.5436999
31.296024882356644	2.447892	1.564574
31.314226632946237	2.4058511	1.5510806
31.332429193908684	2.3989596	1.5488576
31.350632565811598	2.4097536	1.5523381
31.368836749222787	2.4059637	1.551117
31.387041744710295	2.356232	1.5350022
31.40524755284232	2.4270077	1.5578856
31.423454174187317	2.4612703	1.5688436
31.441661609313922	2.4422371	1.5627658
31.459869858791002	2.4073427	1.5515614
31.478078923187628	2.299208	1.5163139
31.496288803073064	2.2406843	1.4968915
31.514499499016807	2.338881	1.52934
31.532711011588546	2.4011621	1.5495684
31.550923341358178	2.3359466	1.5283804
31.56913648889584	2.2557776	1.5019246
31.587350454771844	2.257542	1.5025119
31.605565239556732	2.2670352	1.5056677
31.62378084382127	2.2405357	1.4968419
31.641997268136382	2.2309704	1.4936433
31.660214513073274	2.2755618	1.5084965
31.67843257920331	2.2795312	1.5098116
31.6966514670981	2.2832308	1.5110363
31.71487117732944	2.3020635	1.5172552
31.733091710469346	2.314238	1.521262
31.751313067090052	2.272967	1.5076363
31.769535247764008	2.2125392	1.4874606
31.787758253063878	2.1548932	1.4679555
31.805982083562526	2.129241	1.4591919
31.824206739833024	2.1515367	1.4668118
31.84243222244869	2.2028239	1.4841913
31.860658531983013	2.2324426	1.4941361
31.878885669009737	2.1620605	1.4703947
31.897113634102784	2.0992146	1.4488666
31.91534242783632	2.0504966	1.4319555
31.933572050784694	2.046932	1.4307103
31.951802503522508	2.1682909	1.4725118
31.970033786624548	2.2251306	1.4916872
31.988265900665834	2.243536	1.4978437
32.006498846221575	2.2012455	1.4836595
32.02473262386724	2.1910543	1.480221
32.04296723417845	2.2247412	1.4915566
32.0612026777311	2.1440513	1.464258
32.07943895510129	2.0962265	1.4478351
32.097676066865304	2.141472	1.463377
32.115914013599685	2.1880445	1.479204
32.13415279588115	2.1180725	1.4553599
32.152392414286666	2.041685	1.4288754
32.1706328693934	2.0914311	1.4461781
32.18887416177875	2.0490897	1.4314642
32.20711629202032	2.0022693	1.4150157
32.225359260695924	1.954085	1.3978859
32.243603068383614	1.9922228	1.4114612
32.26184771566166	2.1232545	1.4571391
32.28009320310852	2.1877873	1.479117
32.2983395313029	2.1864269	1.4786571
32.31658670082372	2.1310532	1.4598128
32.33483471225012	2.1231344	1.4570979
32.35308356616143	2.073337	1.4399087
32.371333263137245	2.041339	1.4287543
32.38958380375734	1.9831468	1.4082425
32.407835188601744	2.090301	1.4457873
32.42608741825067	2.180723	1.4767271
32.444340493284585	2.198517	1.4827397
32.46259441428416	2.133775	1.4607446
32.48084918183028	2.0415065	1.428813
32.49910479650405	2.0037918	1.4155536
32.51736125888683	2.0469787	1.4307266
32.53561856956014	2.079834	1.442163
32.5538767291058	2.0334306	1.425984
32.572135738105764	2.0362892	1.4269861
32.59039559714228	2.0353653	1.4266623
32.608656306797776	1.9217213	1.3862616
32.62691786765491	1.8635793	1.3651297
32.645180280296586	1.8645319	1.3654786
32.663443545305896	1.8913137	1.3752505
32.68170766326619	1.9344009	1.3908274
32.69997263476099	1.9911772	1.4110907
32.7182384603741	2.0839052	1.4435737
32.7365051406895	2.0789917	1.4418709
32.75477267629144	1.9639864	1.401423
32.77304106776434	1.9265637	1.3880072
32.79131031569289	1.955333	1.3983322
32.809580420661966	1.9648937	1.4017466
32.827851383256714	1.9149262	1.3838086
32.84612320406245	1.8672305	1.3664664
32.86439588366476	1.9411001	1.3932337
32.88266942264945	2.0553	1.4336318
32.9009438216025	2.0150223	1.4195148
32.9192190811102	1.967556	1.402696
32.937495201758985	1.9201418	1.3856918
32.95577218413556	1.9386178	1.3923426
32.974050028826866	1.9100174	1.3820338
32.992328736420035	1.8998098	1.378336
33.010608307502444	1.9167435	1.3844651
33.02888874266169	1.9723719	1.4044116
33.047170042485604	1.9440738	1.3943005
33.06545220756225	1.9174278	1.3847122
33.083735238479896	1.8909836	1.3751304
33.10201913582707	1.9403815	1.3929758
33.12030390019248	1.9863544	1.4093808
33.138589532165135	2.0083535	1.4171638
33.15687603233419	1.9901586	1.4107298
33.17516340128909	1.9420767	1.3935841
33.19345163961947	1.903473	1.3796641
33.211740747915215	1.860522	1.3640095
33.23003072676643	1.9124429	1.3829111
33.248321576763466	1.9399426	1.3928182
33.266613298496885	1.9669491	1.4024796
33.28490589255747	1.9346172	1.3909051
33.30319935953626	1.8829672	1.3722125
33.32149370002451	1.9434668	1.3940828
33.339788914613706	2.0544722	1.433343
33.358085003895575	2.0616891	1.4358584
33.376381968462034	2.0730543	1.4398105
33.39467980890529	2.0852551	1.4440413
33.41297852581774	1.9342511	1.3907735
33.43127811979204	1.8421518	1.3572589
33.44957859142105	1.8343356	1.3543764
33.467879941297866	1.8840992	1.372625
33.486182170015844	1.7623029	1.3275175
33.50448527816853	1.7189306	1.31108
33.522789266349754	1.7328281	1.3163693
33.541094135153514	1.8414898	1.357015
33.55939988517411	1.9265561	1.3880043
33.57770651700602	1.9355243	1.3912312
33.59601403124398	1.8290157	1.352411
33.61432242848296	1.835261	1.3547181
33.632631709318154	1.796809	1.340451
33.650941874344994	1.7450283	1.3209952
33.66925292415916	1.8240528	1.350575
33.68756485935654	1.9528699	1.3974512
33.70587768053328	1.8935676	1.3760697
33.724191388285746	1.8326602	1.3537579
33.74250598321054	1.825427	1.3510836
33.760821465904506	1.7917515	1.3385632
33.77913783696474	1.7567911	1.3254399
33.79745509698852	1.8687109	1.367008
33.815773246573414	1.9232442	1.3868108
33.8340922863172	1.9105612	1.3822305
33.852412216817896	2.0094266	1.4175425
33.87073303867377	2.013522	1.4189862
33.889054752483304	1.9018165	1.3790636
33.907377358845245	1.9100184	1.3820342
33.92570085835853	1.9055018	1.3803991
33.94402525162239	1.8685409	1.3669459
33.96235053923627	1.8228209	1.3501189
33.980676721799824	1.8862373	1.3734035
33.999003799912984	1.913922	1.3834457
34.01733177417592	1.9792237	1.4068489
34.03566064518901	1.9891446	1.4103703
34.0539904135529	2.016359	1.4199857
34.07232107986846	1.9526287	1.397365
34.090652644736785	1.9032272	1.379575
34.108985108759235	1.8556619	1.3622268
34.12731847253742	1.902739	1.3793981
34.14565273667313	1.9451228	1.3946766
34.16398790176847	2.0403154	1.4283961
34.18232396842574	2.1081166	1.4519355
34.20066093724749	2.057707	1.434471
34.21899880883651	1.9696907	1.4034567
34.23733758379583	1.9019918	1.3791271
34.25567726272874	1.8116477	1.3459746
34.27401784623872	1.8548144	1.3619157
34.29235933492957	1.9183204	1.3850344
34.31070172940526	1.9240434	1.3870989
34.32904503027003	1.8162738	1.347692
34.347389238128386	1.8233008	1.3502966
34.36573435358502	1.9206498	1.3858751
34.38408037724492	1.9520549	1.3971596
34.402427309713296	1.857006	1.36272
34.42077515159559	1.8303034	1.352887
34.43912390349752	1.8472425	1.359133
34.45747356602499	1.8726469	1.368447
34.47582413978423	1.7630761	1.3278087
34.49417562538163	1.7946768	1.3396555
34.51252802342388	1.97199	1.4042757
34.53088133451789	2.0840788	1.4436339
34.54923555927084	1.932949	1.3903054
34.567590698290104	1.8571098	1.3627582
34.58594675218336	1.8186208	1.3485625
34.6043037215585	1.8751086	1.369346
34.62266160702365	1.934447	1.390844
34.641020409187234	2.0956125	1.447623
34.65938012865785	2.0622823	1.4360648
34.677740766044394	2.0984962	1.4486188
34.69610232195598	2.1160314	1.4546585
34.714464797002016	2.0668433	1.437652
34.73282819179208	2.118706	1.4555775
34.751192506936064	2.0620167	1.4359725
34.76955774304408	1.8216728	1.3496935
34.7879239007265	1.8453072	1.3584208
34.80629098059391	2.1368124	1.461784
34.824658983257194	2.013969	1.4191438
34.843027909327446	1.9164381	1.3843547
34.86139775941603	1.9063689	1.3807132
34.879768534134534	1.9120896	1.3827833
34.89814023409483	1.9742632	1.4050847
34.91651285990901	2.0461364	1.4304322
34.93488641218944	2.0727735	1.439713
34.95326089154871	1.9024318	1.3792868
34.97163629859967	1.871982	1.3682039
34.99001263395542	1.9665335	1.4023315
35.00838989822934	1.8744152	1.3690928
35.02676809203499	1.777868	1.3333672
35.04514721598624	1.7442508	1.3207009
35.063527270697215	1.7902933	1.3380184
35.081908256782256	1.9290752	1.3889115
35.10029017485597	1.953439	1.3976548
35.11867302553321	1.9542185	1.3979336
35.137056809429104	1.8920106	1.3755038
35.155441527159006	1.8835394	1.372421
35.173827179338524	2.1567528	1.4685887
35.19221376658354	1.9125558	1.3829519
35.21060128951017	1.5597454	1.2488977
35.2289897487348	1.5623101	1.2499241
35.24737914487405	1.7755336	1.3324915
35.26576947854479	2.1394322	1.4626797
35.28416075036418	2.2433784	1.4977912
35.30255296094958	2.1634755	1.4708757
35.32094611091867	2.3141882	1.5212456
35.33934020088932	2.3831444	1.5437436
35.35773523147969	1.9759498	1.4056848
35.3761312033082	1.9298563	1.3891927
35.394528116993506	2.1177392	1.4552454
35.41292597315452	1.9051626	1.3802763
35.431324772410434	1.8628837	1.364875
35.449724515380666	2.1382732	1.4622836
35.46812520268491	2.3178787	1.5224581
35.486526834943106	2.5335217	1.591704
35.504929412775454	2.544948	1.5952893
35.52333293680242	2.4279945	1.5582023
35.54173740764471	2.3543093	1.5343759
35.560142825923286	2.390768	1.5462109
35.5785491922594	2.1127162	1.4535185
35.59695650727454	1.5294447	1.2367072
35.61536477159042	0.4990961	0.70646733
