0.008763373481513119	0.0	0.0
0.026290120649546365	0.14626539	0.3824466
0.043816868432600686	0.18034895	0.4246751
0.06134361724069026	0.23978344	0.48967686
0.07887036748382949	0.19335079	0.43971673
0.0963971195720331	0.09639584	0.3104768
0.11392387391531617	0.043001473	0.20736797
0.1314506309236943	0.038846023	0.19709395
0.1489773910071836	0.053902913	0.23217002
0.16650415457580078	0.16179061	0.40223202
0.18403092203956356	0.17461501	0.4178696
0.20155769380849	0.20367736	0.45130628
0.2190844702925996	0.13237841	0.36383843
0.2366112519019124	0.099645704	0.31566706
0.2541380390464497	0.07461577	0.27315888
0.27166483213623416	0.16571532	0.40708145
0.28919163158128947	0.19289617	0.43919948
0.3067184377916406	0.18905087	0.4347998
0.324245251177314	0.14922027	0.3862904
0.34177207214833777	0.1221526	0.34950337
0.3592989011147415	0.17208533	0.4148317
0.37682573848655654	0.1571627	0.3964375
0.39435258467381573	0.16917552	0.4113095
0.41187944008655414	0.14348866	0.37879896
0.42940630513480854	0.12685074	0.35616112
0.446933180228618	0.13399073	0.36604744
0.4644600657780234	0.1659946	0.40742436
0.48198696219306775	0.2050546	0.45282954
0.49951386988379676	0.21705215	0.46588856
0.5170407892602581	0.19548142	0.4421328
0.5345677207325025	0.1584137	0.3980122
0.5520946647105822	0.15364133	0.39197108
0.5696216216045534	0.20169108	0.4491003
0.5871485918244737	0.22935753	0.47891286
0.6046755757804043	0.23564328	0.48543102
0.6222025738824094	0.2137495	0.46233052
0.6397295865405557	0.17434952	0.41755182
0.6572566141649129	0.18017451	0.42446968
0.6747836571655547	0.1505507	0.38800862
0.6923107159525568	0.12148763	0.34855077
0.7098377909359992	0.13510074	0.36756054
0.7273648825259653	0.16050488	0.4006306
0.7448919911325411	0.20315462	0.45072678
0.762419117165817	0.20413904	0.45181748
0.7799462610358868	0.20675568	0.45470396
0.7974734231528482	0.20093732	0.4482603
0.8150006039268024	0.19904739	0.44614726
0.8325278037678551	0.21760133	0.46647757
0.8500550230861152	0.22060749	0.4696887
0.8675822622916969	0.19901676	0.44611296
0.8851095217947171	0.19046819	0.4364266
0.9026368020052984	0.1932176	0.43956524
0.9201641033335665	0.18413709	0.429112
0.9376914261896523	0.19052427	0.43649086
0.9552187709836915	0.1968682	0.44369832
0.9727461381258234	0.23335095	0.48306412
0.990273528026193	0.24757954	0.49757364
1.0078009410949496	0.2477987	0.49779382
1.0253283777422473	0.23871735	0.48858708
1.0428558383782454	0.23778589	0.48763296
1.0603833234131086	0.2483729	0.49837023
1.0779108332570058	0.32567558	0.5706799
1.0954383683201119	0.3475998	0.58957595
1.112965929012607	0.3947969	0.6283287
1.1304935157446763	0.4689205	0.6847777
1.1480211289265108	0.51534164	0.717873
1.1655487689683062	1.37507	1.1726338
1.1830764362802655	1.6623975	1.2893399
1.200604131272596	2.1146429	1.4541812
1.2181318543555117	2.54779	1.5961798
1.235659605939232	2.6193676	1.618446
1.253187386433982	4.013017	2.0032516
1.270715196249994	6.1659174	2.4831266
1.2882430357975057	11.416885	3.3788881
1.3057709054867608	16.189684	4.0236406
1.3232988057280106	21.927052	4.682633
1.3408267369315112	27.176662	5.2131243
1.358354699507526	31.020454	5.569601
1.3758826938663256	35.293556	5.940838
1.3934107204181858	37.165108	6.096319
1.410938779573391	37.44449	6.11919
1.4284668717422309	37.845757	6.1518903
1.4459949973350033	37.248997	6.1031957
1.4635231567620117	36.85792	6.0710726
1.4810513504335687	36.196716	6.016371
1.4985795787599925	35.498695	5.9580784
1.5161078421516088	35.27825	5.93955
1.5336361410187505	34.6797	5.888947
1.5511644757717598	35.333664	5.9442124
1.5686928468209842	36.015	6.00125
1.58622125457678	36.586376	6.0486674
1.6037496994495108	37.293526	6.1068425
1.621278181849548	36.93217	6.0771847
1.6388067021872719	37.84947	6.152192
1.6563352608730693	37.35833	6.112146
1.673863858317336	36.81718	6.067716
1.6913924949304753	35.700504	5.97499
1.7089211711228998	34.562336	5.878974
1.7264498873050296	33.693695	5.804627
1.7439786438872935	32.918148	5.737434
1.7615074412801288	32.059757	5.6621337
1.779036279893981	31.62563	5.623667
1.796565160139305	30.553097	5.5274854
1.814094082426564	29.665417	5.4465966
1.8316230471662298	28.883816	5.3743668
1.849152054768784	28.220999	5.312344
1.8666811056447168	27.789001	5.2715273
1.8842102002045273	26.788088	5.175721
1.901739338858724	26.029228	5.101885
1.9192685220178245	25.39352	5.0391984
1.9367977500923557	24.840063	4.9839807
1.9543270234928547	24.485193	4.9482517
1.971856342629867	23.782906	4.876772
1.9893857079139496	23.157013	4.8121734
2.006915119755667	22.628002	4.75689
2.0244445785655945	22.038914	4.694562
2.0419740847543175	21.805582	4.669645
2.0595036387324317	21.428644	4.6291084
2.0770332409105414	20.926437	4.5745425
2.094562891699263	20.593939	4.5380545
2.1120925915092217	20.01358	4.473654
2.129622340751053	19.815403	4.4514494
2.1471521398354043	187.99864	13.71126
2.1646819891729323	444.14737	21.074804
2.182211889174303	440.3643	20.98486
2.1997418402501974	452.7697	21.278385
2.2172718428113023	432.7746	20.803236
2.234801897268317	320.78986	17.910608
2.2523320040319548	17.353878	4.1657987
2.269862163512935	17.097775	4.1349454
2.287392376121992	16.374151	4.046499
2.304922642269869	15.922487	3.9902992
2.322452962367322	15.601592	3.9498851
2.3399833368251164	15.284181	3.9094987
2.357513766054032	15.219209	3.9011805
2.3750442504648586	15.172612	3.8952038
2.3925747904683963	15.1704	3.8949196
2.410105386475459	15.01154	3.8744729
2.4276360388968707	14.650909	3.8276505
2.445166748143469	14.249492	3.77485
2.4626975146261025	13.762517	3.7097867
2.4802283387556323	13.548548	3.6808352
2.4977592209429305	13.37886	3.6577125
2.5152901615988825	13.333915	3.6515634
2.5328211611343865	13.234909	3.6379814
2.5503522199603523	12.82856	3.581698
2.5678833384877024	12.498029	3.5352552
2.5854145171273712	12.289963	3.5057044
2.6029457562903064	12.144425	3.4848852
2.620477056387469	11.98457	3.4618738
2.6380084178298326	11.908787	3.450911
2.655539841028383	11.658321	3.4144285
2.673071326394119	11.533817	3.3961475
2.6906028743380523	11.249769	3.3540676
2.708134485271211	11.153642	3.339707
2.7256661596046325	10.925446	3.3053663
2.743197897749369	10.67688	3.2675495
2.760729700116486	10.616954	3.2583668
2.778261567117063	10.419533	3.22793
2.795793499162193	10.434232	3.2302063
2.8133254966629817	10.18079	3.190735
2.830857560030551	9.982801	3.159557
2.8483896896760337	9.902144	3.1467674
2.865921886010578	9.738682	3.120686
2.883454149445347	9.525552	3.0863492
2.9009864803915177	9.431086	3.0710073
2.91851887926028	9.384392	3.0633955
2.9360513464628384	9.416284	3.0685964
2.953583882410413	9.23116	3.0382824
2.9711164875142373	8.973783	2.9956272
2.9886491621855606	8.739835	2.9563212
3.0061819068356455	8.577013	2.9286537
3.023714721875769	8.6007595	2.9327052
3.041247607717225	8.48509	2.9129179
3.0587805647713213	8.250456	2.8723607
3.0763135934493806	8.113664	2.8484492
3.0938466941627407	7.991768	2.8269715
3.1113798673227544	8.000518	2.8285186
3.1289131133407904	8.004157	2.829162
3.1464464326282315	7.940596	2.8179064
3.1639798255964786	7.7820253	2.7896283
3.1815132926569443	7.6692786	2.7693462
3.1990468342210603	7.4557643	2.7305245
3.216580450700272	7.3973637	2.7198095
3.2341141425060416	7.3599353	2.71292
3.251647910049847	7.2685294	2.696021
3.2691817537431813	7.195451	2.6824338
3.286715673997555	7.100264	2.664632
3.3042496712244938	7.0381727	2.6529555
3.32178374583554	7.007556	2.647179
3.339317898242251	6.9477305	2.6358547
3.3568521288562034	6.914291	2.629504
3.3743864380889876	6.786719	2.605133
3.3919208263522127	6.735176	2.5952218
3.4094552940575023	6.6206264	2.573058
3.4269898416164972	6.5994835	2.568946
3.444524469440858	6.602298	2.5694938
3.4620591779422587	6.5937114	2.5678222
3.479593967532391	6.5205245	2.553532
3.4971288386229658	6.4068565	2.5311768
3.5146637916257086	6.4104586	2.5318882
3.5321988269523628	6.584967	2.5661192
3.5497339450146903	6.530457	2.555476
3.5672691462244708	6.3654013	2.5229747
3.5848044309934988	6.2867217	2.5073335
3.60233979973359	6.249862	2.4999723
3.619875252856575	6.207188	2.491423
3.6374107907743034	6.221915	2.4943767
3.6549464138986427	6.239583	2.4979157
3.6724821226414788	6.260109	2.502021
3.690017917414714	6.223151	2.4946244
3.7075537986302702	6.1244397	2.4747605
3.7250897667000857	6.144846	2.47888
3.7426258220361235	6.33108	2.5161638
3.7601619650503553	6.623082	2.573535
3.777698196154779	7.206212	2.684439
3.7952345157614067	8.304202	2.8817012
3.8127709242822716	9.227492	3.0376787
3.830307422129425	11.419759	3.3793135
3.847844009714936	30.279652	5.502695
3.8653806874508954	97.921486	9.895529
3.882917455749409	97.18898	9.858447
3.900454315022606	96.93996	9.845809
3.917991265682631	41.36614	6.431651
3.9355283081416506	10.895258	3.3007965
3.9530654428118495	8.683484	2.9467752
3.970602670105433	7.3888774	2.7182488
3.9881399904346244	6.491426	2.5478277
4.005677404211669	6.424094	2.5345798
4.023214911848827	6.427714	2.5352936
4.0407525137583855	6.485481	2.5466607
4.058290210352644	6.5051494	2.5505195
4.075828002043927	6.422415	2.5342484
4.0933658892445814	6.374057	2.5246894
4.110903872366966	6.216472	2.4932854
4.128441951823468	6.0215416	2.453883
4.145980128026488	6.006098	2.4507341
4.163518401388452	6.0657268	2.4628696
4.181056772321807	6.0823293	2.4662378
4.1985952412390155	6.022076	2.453992
4.216133808552567	6.0445766	2.4585721
4.233672474674966	6.0942535	2.4686542
4.251211240018741	6.3498344	2.5198877
4.268750104996445	6.5756736	2.5643077
4.286289070020643	7.5626388	2.7500253
4.303828135503928	9.223994	3.037103
4.3213673018589125	29.593504	5.439991
4.3389065694982305	90.699036	9.523604
4.356445938834537	165.94167	12.881835
4.3739854102805085	171.25266	13.086353
4.391524984248844	172.12584	13.119674
4.409064661152262	136.18568	11.669862
4.426604441403504	96.46877	9.821852
4.444144325415337	75.852875	8.709355
4.461684313600543	21.800173	4.6690655
4.47922440637193	22.250147	4.717006
4.496764604142329	20.491623	4.5267673
4.5143049073245916	18.655773	4.319233
4.531845316331589	16.625067	4.077385
4.5493858315762195	13.718842	3.7038956
4.566926453471405	11.364039	3.3710592
4.584467182430081	9.295058	3.0487797
4.602008018865218	8.106571	2.8472042
4.619548963189798	7.3885293	2.718185
4.637090015816834	6.8466487	2.61661
4.654631177159353	6.652268	2.579199
4.672172447630417	6.327916	2.5155349
4.689713827643102	6.1588745	2.481708
4.7072553176105085	5.91824	2.4327433
4.724796917945764	5.920757	2.4332604
4.742338629062015	5.8592906	2.420597
4.759880451372434	5.7382255	2.3954594
4.777422385290215	5.6523457	2.3774662
4.794964431228581	5.5855193	2.3633704
4.812506589600768	5.630071	2.372777
4.830048860820047	5.538241	2.3533468
4.847591245299709	5.5228825	2.3500814
4.8651337434530655	5.529887	2.3515713
4.882676355693457	5.5585437	2.3576565
4.900219082434242	5.635162	2.3738496
4.917761924088813	5.6508746	2.3771567
4.935304881070575	5.601048	2.3666534
4.952847953792969	5.5204444	2.3495626
4.970391142669449	5.4777036	2.3404493
4.9879344481135055	5.498846	2.344962
5.005477870538642	5.436761	2.3316863
5.023021410358394	5.500395	2.345292
5.040565067986324	5.4520946	2.3349721
5.05810884383601	5.4173083	2.327511
5.075652738321066	5.328122	2.3082726
5.09319675185512	5.26163	2.2938244
5.110740884851836	5.306728	2.3036337
5.128285137724894	5.2745004	2.296628
5.145829510888007	5.315431	2.305522
5.163374004754908	5.2551765	2.2924173
5.1809186197393595	5.2635403	2.2942407
5.198463356255145	5.2995343	2.3020718
5.216008214716077	5.328751	2.3084087
5.233553195535998	5.278438	2.297485
5.251098299128764	5.2529893	2.29194
5.268643525908272	5.233047	2.2875855
5.286188876288432	5.257481	2.2929199
5.3037343506831895	5.2278695	2.2864535
5.32127994950651	5.1733294	2.2744954
5.3388256731723915	5.156447	2.270781
5.356371522094851	5.110695	2.2606845
5.373917496687938	5.0743704	2.2526364
5.391463597365729	5.1322145	2.265439
5.40900982454232	5.127896	2.2644858
5.426556178631843	5.132003	2.2653925
5.444102660048449	5.20105	2.280581
5.4616492692063225	5.2757316	2.296896
5.479196006519669	5.3200727	2.3065283
5.496742872402727	5.3264675	2.307914
5.514289867269756	5.180676	2.27611
5.531836991535049	5.110773	2.260702
5.549384245612924	5.112398	2.2610612
5.566931629917724	5.153466	2.2701247
5.584479144863822	5.162595	2.2721343
5.6020267908656205	5.07993	2.25387
5.619574568337545	5.0954633	2.2573133
5.637122477694054	5.1063766	2.2597294
5.654670519349629	5.0835724	2.2546778
5.672218693718784	5.0744624	2.2526567
5.689767001216059	5.038189	2.244591
5.707315442256021	5.0674014	2.2510889
5.724864017253266	5.153102	2.2700446
5.7424127266224225	5.1383348	2.2667894
5.75996157077814	5.0629854	2.2501078
5.777510550135105	5.0472546	2.2466097
5.795059665108022	5.1066785	2.2597961
5.812608916111639	5.150153	2.2693949
5.830158303560715	5.266319	2.294846
5.847707827870055	5.2031937	2.281051
5.86525748945448	5.3123484	2.3048532
5.8828072887288485	5.4100266	2.3259463
5.900357226108044	5.485804	2.3421793
5.917907302006979	5.5747657	2.3610942
5.9354575168406	6.2958965	2.5091624
5.9530078710238765	7.054669	2.6560626
5.970558364971812	7.5237317	2.742942
5.988108999099438	7.8251395	2.7973452
6.005659773821818	8.31267	2.8831701
6.023210689554039	8.102639	2.8465135
6.040761746711227	8.49743	2.9150352
6.058312945708531	7.7938514	2.791747
6.075864286961132	7.278852	2.6979349
6.093415770884244	6.641438	2.5770988
6.1109673978931065	6.097327	2.4692767
6.128519168402993	5.50906	2.3471386
6.146071082829204	5.3805637	2.3196042
6.163623141587075	5.243228	2.2898097
6.181175345091969	5.195707	2.2794094
6.198727693759281	5.2531924	2.2919843
6.216280188004435	5.276516	2.297067
6.233832828242885	5.2494645	2.291171
6.251385614890126	5.244944	2.2901843
6.268938548361669	5.178377	2.2756047
6.286491629073067	5.0878153	2.2556186
6.304044857439898	5.098966	2.258089
6.321598233877777	5.116192	2.2619
6.339151758802344	5.1336193	2.2657492
6.356705432629277	5.1755857	2.2749913
6.37425925577428	5.052948	2.2478764
6.391813228653095	5.0229993	2.241205
6.409367351681486	4.9752007	2.2305157
6.426921625275259	4.91955	2.218006
6.44447604985025	4.946048	2.2239711
6.46203062582232	4.9259105	2.2194393
6.47958535360737	4.988131	2.2334125
6.497140233621328	5.032149	2.2432451
6.514695266280161	5.0556645	2.2484806
6.532250451999859	5.0438724	2.2458568
6.549805791196454	5.0487304	2.246938
6.567361284286002	4.9770236	2.2309244
6.584916931684597	4.9709005	2.2295516
6.602472733808367	5.001623	2.236431
6.6200286910734665	5.058042	2.2490091
6.637584803896092	5.0596437	2.249365
6.655141072692462	5.0433874	2.2457488
6.672697497878842	4.9821253	2.2320676
6.690254079871514	4.9718075	2.229755
6.707810819086808	4.927844	2.2198749
6.725367715941078	4.9253407	2.2193108
6.742924770850719	4.967357	2.228757
6.760481984232151	4.979917	2.2315729
6.778039356501836	5.02361	2.241341
6.795596888076266	5.068526	2.2513387
6.813154579371963	5.030023	2.2427714
6.830712430805492	5.0230503	2.2412162
6.84827044279344	4.962291	2.22762
6.865828615752445	4.9158134	2.2171633
6.883386950099159	4.8336005	2.198545
6.900945446250287	4.8213806	2.1957643
6.918504104622553	4.874273	2.2077756
6.936062925632727	4.9210024	2.2183332
6.953621909697607	4.9907894	2.2340076
6.971181057234028	5.0533233	2.2479599
6.988740368658859	5.1055284	2.2595415
7.006299844389007	5.1776166	2.2754376
7.023859484841407	5.238971	2.2888799
7.041419290433036	5.3164744	2.3057482
7.058979261580902	5.437842	2.331918
7.0765393987020495	5.680778	2.3834383
7.094099702213559	6.065595	2.462843
7.111660172532549	6.3761077	2.5250955
7.129220810076164	6.6628094	2.5812418
7.146781615261595	7.153885	2.6746747
7.16434258850606	7.3490286	2.7109091
7.181903730226821	7.822526	2.7968779
7.1994650408411704	8.00534	2.829371
7.217026520766437	8.200974	2.8637342
7.234588170419983	8.364171	2.8920877
7.252149990219215	8.3580265	2.891025
7.269711980581568	8.257568	2.8735986
7.2872741419245175	8.144115	2.8537896
7.304836474665574	7.721648	2.7787855
7.322398979222286	7.37126	2.7150066
7.339961656012233	7.122831	2.6688633
7.357524505453039	6.778894	2.603631
7.375087527962357	6.4958596	2.5486977
7.392650723957886	6.2118273	2.4923537
7.410214093857353	5.8455925	2.417766
7.427777638078528	5.657968	2.3786483
7.445341357039213	5.557965	2.3575337
7.4629052511572525	5.4462194	2.3337138
7.480469320850524	5.3751287	2.3184323
7.498033566536948	5.277534	2.2972884
7.5155979886344735	5.170464	2.2738655
7.5331625875610975	5.094941	2.2571976
7.550727363734844	5.069617	2.251581
7.568292317573788	5.052379	2.2477498
7.585857449496025	5.0946026	2.2571225
7.603422759919705	5.155628	2.2706008
7.620988249263007	5.1646056	2.2725768
7.638553917944147	5.1856275	2.2771974
7.656119766381391	5.116941	2.2620656
7.673685794993023	5.0642433	2.2503874
7.691252004197388	5.080762	2.2540545
7.70881839441285	5.1069846	2.2598639
7.726384966057826	5.167943	2.2733111
7.743951719550762	5.162197	2.2720468
7.761518655310149	5.1694994	2.2736533
7.779085773754511	5.156979	2.2708983
7.796653075302419	5.132368	2.2654731
7.814220560372475	5.128247	2.2645633
7.831788229383323	5.1818933	2.2763772
7.8493560827536495	5.279962	2.2978168
7.866924120902174	5.3432317	2.3115432
7.884492344247663	5.3920774	2.3220847
7.9020607532089135	5.368608	2.3170257
7.919629348204771	5.3296647	2.3086066
7.937198129654115	5.289612	2.2999156
7.954767097975865	5.2917213	2.3003743
7.972336253588986	5.3305187	2.3087916
7.989905596912472	5.3362136	2.3100245
8.007475128365371	5.3358526	2.3099465
8.025044848366756	5.4045196	2.3247623
8.042614757335754	5.5147223	2.3483446
8.060184855691523	5.5640993	2.3588343
8.07775514385327	5.633161	2.373428
8.095325622240228	5.6586404	2.3787897
8.112896291271687	5.7104135	2.3896472
8.130467151366968	5.8261557	2.413743
8.148038202945436	5.846379	2.4179287
8.165609446426497	5.895872	2.4281416
8.183180882229594	5.946403	2.4385247
8.200752510774217	5.945942	2.4384303
8.218324332479893	5.9396176	2.437133
8.235896347766193	5.8543634	2.4195793
8.253468557052724	5.9306974	2.4353023
8.27104096075914	6.034669	2.4565563
8.288613559305137	6.125787	2.4750326
8.306186353110448	6.178669	2.4856927
8.32375934259485	6.2654247	2.503083
8.341332528178162	6.203027	2.4905877
8.358905910280246	6.1853685	2.48704
8.376479489321003	6.1070127	2.4712372
8.394053265720377	6.186591	2.4872859
8.411627239898356	6.3202243	2.5140057
8.42920141227497	6.350116	2.5199437
8.44677578327029	6.3157997	2.5131254
8.464350353304427	6.237217	2.497442
8.48192512279754	6.176739	2.4853046
8.499500092169827	6.1443224	2.4787743
8.51707526184153	6.119431	2.4737484
8.534650632232934	6.148136	2.4795434
8.552226203764365	6.224083	2.4948113
8.569801976856192	6.161918	2.482321
8.587377951928834	6.186476	2.4872627
8.60495412940274	6.1858478	2.4871364
8.622530509698416	6.280746	2.5061417
8.6401070932364	6.417426	2.533264
8.657683880437283	6.549054	2.559112
8.675260871721695	6.7741404	2.6027179
8.692838067510303	6.9454675	2.6354256
8.710415468223834	7.07041	2.6590242
8.727993074283043	7.157481	2.6753469
8.745570886108737	7.066	2.6581948
8.763148904121765	7.0647573	2.6579611
8.78072712874302	7.0946527	2.663579
8.798305560393441	7.2992277	2.7017083
8.815884199494006	7.4911404	2.7369947
8.833463046465745	7.6249647	2.761334
8.851042101729728	7.7720113	2.7878327
8.86862136570707	8.063003	2.8395426
8.886200838818924	8.253218	2.8728414
8.903780521486505	8.325914	2.885466
8.921360414131055	8.428034	2.9031076
8.938940517173874	8.545009	2.9231846
8.956520831036297	8.706909	2.9507473
8.97410135613971	8.981136	2.9968543
8.99168209290554	9.150772	3.0250244
9.009263041755265	9.407792	3.0672123
9.026844203110405	9.709349	3.1159828
9.044425577392525	9.904511	3.1471434
9.062007165023239	9.975778	3.1584454
9.079588966424197	10.268058	3.204381
9.097170982017108	10.301866	3.209652
9.11475321222372	11.317382	3.3641317
9.132335657465825	12.156165	3.4865692
9.149918318165264	12.274753	3.5035343
9.167501194743924	12.91305	3.5934732
9.18508428762374	12.604755	3.5503178
9.202667597226693	12.581365	3.5470219
9.220251123974803	12.27963	3.5042303
9.237834868290143	11.929446	3.453903
9.255418830594836	11.808648	3.4363713
9.273003011311046	11.243106	3.353074
9.290587410860985	10.936801	3.3070834
9.308172029666911	10.269931	3.2046733
9.32575686815113	10.006587	3.1633189
9.343341926735997	8.836585	2.9726393
9.360927205843916	8.56634	2.9268312
9.378512705897327	8.355325	2.8905578
9.396098427318728	8.088897	2.8440986
9.413684370530664	8.004201	2.8291698
9.431270535955722	7.838	2.7996428
9.448856924016539	7.801228	2.793068
9.466443535135806	7.6803055	2.7713363
9.484030369736251	7.7219563	2.7788408
9.501617428240658	7.790087	2.7910728
9.519204711071852	7.80754	2.7941976
9.536792218652714	7.823541	2.7970593
9.55437995140617	7.8718276	2.8056777
9.571967909755191	7.8789463	2.806946
9.589556094122802	7.917629	2.8138282
9.60714450493207	7.956937	2.8208044
9.624733142606116	7.939634	2.8177357
9.642322007568108	7.9620767	2.821715
9.659911100241267	7.976114	2.8242013
9.677500421048851	8.016829	2.8314004
9.695089970414175	8.139875	2.8530467
9.712679748760609	8.170765	2.858455
9.730269756511557	8.135792	2.852331
9.747859994090492	8.126281	2.8506632
9.765450461920915	8.184131	2.860792
9.78304116042639	8.27857	2.8772504
9.800632090030527	8.231015	2.8689747
9.81822325115699	8.206607	2.8647175
9.835814644229481	8.157638	2.8561578
9.853406269671762	8.185822	2.8610876
9.870998127907646	8.233745	2.8694503
9.888590219360985	8.274715	2.8765805
9.906182544455698	8.280881	2.877652
9.923775103615734	8.256899	2.873482
9.941367897265108	8.222537	2.8674967
9.958960925827878	8.24922	2.8721454
9.97655418972816	8.185106	2.8609624
9.994147689390106	8.239671	2.8704827
10.011741425237934	8.271299	2.8759866
10.029335397695904	8.3231735	2.8849912
10.04692960718833	8.256202	2.8733606
10.06452405413958	8.14385	2.8537433
10.082118738974064	8.15968	2.8565154
10.099713662116246	8.290819	2.8793783
10.117308823990651	8.388581	2.8963048
10.134904225021844	8.361862	2.8916883
10.152499865634445	8.274393	2.8765244
10.170095746253125	8.186727	2.8612456
10.18769186730261	8.186812	2.8612607
10.205288229207675	8.193074	2.8623548
10.222884832393145	8.151024	2.8549998
10.2404816772839	8.054955	2.8381252
10.258078764304868	7.965768	2.822369
10.275676093881035	7.9577684	2.8209517
10.293273666437438	7.984417	2.825671
10.310871482399158	8.172863	2.8588219
10.32846954219134	8.187352	2.861355
10.346067846239173	8.196733	2.8629937
10.363666394967908	8.151561	2.8550937
10.38126518880283	8.151114	2.8550158
10.398864228169298	8.261785	2.874332
10.416463513492713	8.263562	2.8746412
10.434063045198531	8.198799	2.8633544
10.451662823712262	8.112561	2.8482559
10.469262849459467	8.089122	2.8441381
10.486863122865758	8.004972	2.829306
10.504463644356806	8.025473	2.8329265
10.522064414358338	7.9956	2.8276494
10.539665433296118	7.9618707	2.8216786
10.557266701595987	7.906259	2.8118072
10.574868219683818	7.866965	2.804811
10.592469987985552	7.7491245	2.783725
10.610072006927185	7.634543	2.7630677
10.627674276934751	7.486709	2.736185
10.64527679843435	7.3591604	2.7127771
10.662879571852143	7.2598977	2.6944196
10.680482597614331	7.1894255	2.6813104
10.698085876147173	7.1439104	2.6728094
10.715689407876988	7.0182414	2.6491964
10.733293193230146	6.8805995	2.6230898
10.750897232633072	6.7163153	2.5915854
10.76850152651225	6.5900226	2.5671039
10.786106075294207	6.5427017	2.5578706
10.803710879405534	6.4911013	2.547764
10.821315939272877	6.464993	2.542635
10.83892125532294	6.4646645	2.5425704
10.856526827982472	6.3736997	2.5246186
10.874132657678285	6.381655	2.5261939
10.891738744837243	6.2908416	2.508155
10.909345089886271	6.2193003	2.4938524
10.926951693252343	6.121918	2.474251
10.944558555362494	6.0636873	2.4624555
10.96216567664381	5.9167395	2.4324348
10.979773057523436	5.8240724	2.4133115
10.997380698428573	5.744619	2.3967934
11.014988599786477	5.7450347	2.3968801
11.032596762024461	5.705893	2.3887012
11.050205185569892	5.6394715	2.374757
11.067813870850198	5.5438714	2.3545427
11.085422818292859	5.4626803	2.3372378
11.10303202832541	5.4294825	2.330125
11.120641501375454	5.4003315	2.3238614
11.138251237870636	5.3611035	2.3154056
11.155861238238671	5.310195	2.3043861
11.173471502907317	5.2891345	2.2998118
11.191082032304402	5.268108	2.2952359
11.208692826857805	5.2330556	2.2875874
11.226303886995465	5.129616	2.2648654
11.243915213145371	5.0081	2.2378786
11.261526805735578	4.9177566	2.2176015
11.279138665194196	4.8787017	2.2087784
11.296750791949393	4.854841	2.2033703
11.314363186429393	4.755487	2.180708
11.331975849062479	4.673519	2.1618323
11.34958878027699	4.6237636	2.1502938
11.36720198050133	4.628066	2.151294
11.384815450163948	4.5941753	2.1434028
11.402429189693366	4.5623794	2.1359727
11.420043199518153	4.543804	2.1316202
11.437657480066942	63.484962	7.9677453
11.455272031768422	85.138725	9.227065
11.472886855051353	107.47011	10.366779
11.490501950344528	99.06838	9.95331
11.508117318076819	84.42863	9.188505
11.52573295867715	45.861042	6.772078
11.543348872574514	4.1478415	2.036625
11.560965060197946	4.0711694	2.0177138
11.57858152197655	4.01992	2.004974
11.59619825833949	3.99071	1.9976761
11.613815269715985	4.0002685	2.000067
11.631432556535323	38.530457	6.2072906
11.649050119226837	83.02277	9.111683
11.666667958219929	93.42305	9.66556
11.68428607394406	107.706825	10.37819
11.701904466828756	82.53443	9.0848465
11.719523137303586	65.38812	8.086292
11.737142085798196	4.6169586	2.148711
11.754761312742286	3.7316017	1.9317354
11.772380818565619	3.6785862	1.9179641
11.790000603698015	3.6382663	1.907424
11.80762066856935	3.548626	1.8837796
11.825241013609572	3.4872723	1.867424
11.842861639248683	3.463219	1.8609725
11.860482545916748	3.4641824	1.8612314
11.878103734043883	3.4702356	1.8628569
11.895725204060282	3.4596574	1.8600154
11.91334695639619	3.442433	1.8553795
11.930968991481919	3.394401	1.8423901
11.948591309747824	3.3231556	1.8229525
11.966213911624347	3.318158	1.8215811
11.98383679754198	3.260742	1.8057525
12.001459967931268	3.2531185	1.8036404
12.019083423222835	3.2594438	1.805393
12.036707163847352	3.2864194	1.8128484
12.05433119023556	3.2954624	1.8153409
12.071955502818259	3.2349737	1.7986033
12.089580102026313	3.1755047	1.7819946
12.107204988290643	3.1349783	1.770587
12.12483016204224	3.153136	1.7757072
12.142455623712152	3.1857574	1.784869
12.16008137373149	3.203067	1.7897115
12.177707412531431	3.1306438	1.7693626
12.19533374054321	3.0811	1.7553062
12.212960358198126	3.0512862	1.7467932
12.230587265927545	3.0253708	1.7393593
12.248214464162889	3.0002666	1.7321278
12.265841953335649	2.9943902	1.7304306
12.283469733877375	2.9950655	1.7306257
12.301097806219685	2.9947922	1.7305468
12.31872617079425	2.9652705	1.7219961
12.336354828032825	2.9262877	1.7106396
12.353983778367205	2.9485526	1.717135
12.371613022229262	2.9366603	1.7136687
12.389242560050928	2.9612117	1.7208172
12.406872392264201	2.9161487	1.7076734
12.424502519301143	2.9253685	1.7103709
12.442132941593874	2.9301195	1.7117592
12.459763659574586	2.8977458	1.7022767
12.477394673675532	2.8971639	1.7021058
12.49502598432903	2.86283	1.6919899
12.51265759196746	2.8909001	1.7002647
12.530289497023267	2.848425	1.6877277
12.547921699928967	2.8305755	1.6824315
12.565554201117134	2.8020918	1.673945
12.583187001020404	2.7758458	1.6660869
12.600820100071486	2.7794163	1.6671581
12.618453498703152	2.7903428	1.670432
12.636087197348235	2.795737	1.6720457
12.65372119643964	2.809377	1.6761196
12.671355496410326	2.8556902	1.6898788
12.68899009769333	2.889651	1.6998974
12.706625000721749	2.9219532	1.7093722
12.724260205928752	2.938885	1.7143177
12.741895713747551	2.9469347	1.7166638
12.759531524611454	2.9526033	1.718314
12.777167638953818	2.9364946	1.7136203
12.794804057208072	2.9538596	1.7186795
12.812440779807702	3.0331762	1.7416016
12.830077807186271	3.1858277	1.7848887
12.847715139777405	3.2045612	1.7901288
12.865352778014795	3.3962312	1.8428867
12.882990722332197	3.5514848	1.8845384
12.90062897316344	3.6599994	1.9131125
12.918267530942412	3.751325	1.9368337
12.935906396103071	3.6171653	1.9018847
12.953545569079449	3.7848094	1.9454587
12.971185050305628	3.5905492	1.8948745
12.988824840215775	3.5894547	1.8945856
13.006464939244115	3.6250427	1.9039545
13.024105347824943	3.47472	1.86406
13.041746066392617	3.5669563	1.8886387
13.05938709538157	3.3754845	1.8372492
13.077028435226296	3.4190311	1.8490622
13.094670086361363	3.2815804	1.8115133
13.112312049221401	3.1629965	1.7784815
13.129954324241112	3.0893714	1.7576607
13.147596911855258	2.8805232	1.6972104
13.165239812498685	2.854614	1.6895603
13.182883026606293	2.7771306	1.6664726
13.200526554613058	2.7329278	1.6531569
13.218170396954017	2.7205591	1.6494118
13.235814554064284	2.7243404	1.6505576
13.253459026379034	2.7400258	1.6553023
13.271103814333523	2.7055693	1.6448615
13.288748918363058	2.7245924	1.6506339
13.306394338903031	2.7015555	1.6436409
13.32404007638889	2.6661615	1.6328385
13.341686131256164	2.6565287	1.6298862
13.359332503940449	2.7017393	1.6436968
13.376979194877402	2.7216077	1.6497296
13.394626204502751	2.741821	1.6558446
13.412273533252307	2.6827877	1.6379217
13.429921181561937	2.6763427	1.6359532
13.447569149867581	2.6796174	1.6369537
13.465217438605247	2.7148001	1.647665
13.482866048211022	2.7054405	1.6448224
13.500514979121052	2.6915824	1.6406043
13.518164231771568	2.6579165	1.6303118
13.535813806598844	2.671527	1.6344806
13.553463704039254	2.6774495	1.6362914
13.571113924529229	2.6622543	1.6316416
13.588764468505275	2.669042	1.6337203
13.606415336403956	2.715657	1.647925
13.624066528661917	2.7544515	1.659654
13.641718045715882	2.8170424	1.6784047
13.659369888002635	2.834867	1.6837063
13.67702205595903	2.8715193	1.6945558
13.694674550021993	2.9509132	1.7178222
13.712327370628532	3.0413637	1.7439506
13.729980518215713	3.1421108	1.7726
13.747633993220681	3.2282715	1.7967391
13.765287796080647	3.2127254	1.7924078
13.7829419272329	3.2222328	1.7950579
13.800596387114801	3.2447155	1.8013093
13.818251176163775	3.3019104	1.8171159
13.835906294817324	3.3801513	1.8385187
13.853561743513023	3.4440458	1.8558141
13.871217522688525	3.5001702	1.8708742
13.888873632781538	3.5161643	1.8751438
13.906530074229858	3.509458	1.8733548
13.92418684747135	3.5201886	1.8762165
13.941843952943948	3.5265672	1.8779156
13.959501391085665	3.4890478	1.8678993
13.977159162334578	3.4161072	1.8482714
13.994817267128846	3.3892572	1.8409935
14.012475705906693	3.2977116	1.8159603
14.030134479106424	3.2360547	1.7989037
14.047793587166414	3.14436	1.7732344
14.065453030525108	3.0401592	1.7436053
14.083112809621026	2.9606657	1.7206585
14.100772924892766	2.8928716	1.7008444
14.118433376778997	2.8805425	1.6972162
14.136094165718458	2.8331065	1.6831834
14.153755292149969	2.7577734	1.6606545
14.171416756512416	2.7340775	1.6535046
14.189078559244768	2.6724188	1.6347535
14.20674070078606	2.642487	1.6255728
14.224403181575408	2.5440378	1.595004
14.242066002051999	2.4939601	1.5792277
14.259729162655093	2.4369698	1.5610796
14.277392663824022	2.4014242	1.5496529
14.295056505998208	2.3522992	1.5337207
14.312720689617128	2.3807788	1.5429772
14.330385215120348	2.4000878	1.5492216
14.348050082947497	2.4583485	1.5679121
14.3657152935383	2.4320838	1.5595139
14.383380847332528	2.4096937	1.5523188
14.401046744770051	2.3740318	1.5407894
14.418712986290798	2.3779445	1.5420585
14.436379572334793	2.3633873	1.5373312
14.454046503342123	2.411692	1.5529623
14.471713779752946	2.406837	1.5513984
14.489381402007504	2.4166675	1.5545634
14.507049370546113	2.4161665	1.5544024
14.524717685809168	2.4176307	1.5548732
14.542386348237134	2.422009	1.5562805
14.560055358270553	2.404428	1.5506219
14.577724716350051	2.4606874	1.5686579
14.595394422916325	2.481941	1.5754178
14.61306447841015	2.4782197	1.5742363
14.63073488327237	2.4510198	1.5655733
14.648405637943917	2.459466	1.5682684
14.6660767428658	2.495926	1.57985
14.683748198479094	2.5094724	1.5841315
14.701420005224954	2.5490441	1.5965726
14.719092163544628	2.6074417	1.6147574
14.73676467387942	2.6303408	1.6218325
14.754437536670727	2.6290705	1.6214409
14.772110752360014	2.6214378	1.6190854
14.78978432138882	2.618275	1.6181084
14.807458244198777	2.6771307	1.636194
14.82513252123159	2.6989026	1.6428337
14.842807152929028	2.7073975	1.6454171
14.860482139732962	2.6276467	1.6210017
14.87815748208531	2.6177285	1.6179396
14.8958331804281	2.6173043	1.6178085
14.91350923520342	2.639001	1.6245002
14.931185646853438	2.6731126	1.6349657
14.948862415820408	2.6551652	1.6294677
14.966539542546656	2.6742425	1.6353111
14.98421702747459	2.6461813	1.6267087
15.001894871046696	2.6726265	1.634817
15.019573073705542	2.6522992	1.6285881
15.037251635893766	2.6547353	1.6293359
15.054930558054092	2.6629968	1.6318691
15.072609840629323	2.7282548	1.6517429
15.090289484062351	2.8240998	1.6805058
15.107969488796124	3.0793917	1.7548195
15.125649855273691	3.4812644	1.8658147
15.14333058393817	3.9899828	1.9974941
15.161011675232768	4.98231	2.2321088
15.17869312960076	6.296757	2.509334
15.196374947485506	8.13246	2.8517468
15.214057129330447	11.153192	3.3396394
15.231739675579114	15.957193	3.9946456
15.249422586675102	21.172277	4.601334
15.267105863062092	24.433004	4.942975
15.284789505183847	24.869158	4.9868984
15.302473513484218	22.773323	4.7721405
15.320157888407127	19.22855	4.385037
15.337842630396578	14.99989	3.8729692
15.355527739896656	11.696251	3.4199781
15.37321321735153	9.105996	3.0176144
15.39089906320545	6.5683556	2.5628803
15.408585277902748	4.9061904	2.2149923
15.42627186188783	3.7711542	1.941946
15.443958815605198	3.1851816	1.7847077
15.461646139499424	2.8776307	1.6963581
15.479333834015168	2.7013502	1.6435785
15.497021899597165	2.6404684	1.6249518
15.514710336690234	2.6158166	1.6173487
15.53239914573928	2.5851471	1.6078392
15.550088327189297	2.5506132	1.5970639
15.567777881485336	2.503148	1.582134
15.58546780907256	2.4841635	1.576123
15.6031581103962	2.4562092	1.5672297
15.620848785901568	2.4287508	1.558445
15.638539836034063	2.421892	1.556243
15.656231261239173	2.3986158	1.5487466
15.673923061962451	2.3980722	1.548571
15.691615238649552	2.3953202	1.5476822
15.709307791746202	2.392713	1.5468397
15.727000721698221	2.3830154	1.5437019
15.744694028951498	2.3645635	1.5377138
15.76238771395202	2.353052	1.5339661
15.780081777145844	2.3676112	1.5387044
15.797776218979125	2.373387	1.5405802
15.815471039898094	2.3585117	1.5357447
15.833166240349064	2.3183272	1.5226054
15.850861820778437	2.2791743	1.5096935
15.868557781632699	2.3091118	1.5195762
15.886254123358412	2.341877	1.5303192
15.903950846402232	2.4088275	1.5520397
15.921647951210897	2.4275804	1.5580695
15.939345438231225	2.4061232	1.5511683
15.957043307910133	2.3681376	1.5388755
15.974741560694602	2.358845	1.5358531
15.992440197031714	2.3562417	1.5350055
16.01013921736862	2.3723314	1.5402374
16.02783862215259	2.375686	1.541326
16.045538411830933	2.381675	1.5432676
16.06323858685107	2.4080663	1.5517945
16.080939147660512	2.4155629	1.5542082
16.09864009470684	2.4217973	1.5562124
16.11634142843774	2.414049	1.553721
16.134043149300954	2.3842552	1.5441034
16.15174525774433	2.3685505	1.5390096
16.169447754215817	2.3844392	1.544163
16.18715063916342	2.4138389	1.5536534
16.204853913035244	2.445498	1.5638088
16.222557576279478	2.4444702	1.5634801
16.240261629344403	22.421133	4.735096
16.257966072678386	42.945232	6.5532613
16.275670906729868	38.08652	6.1714277
16.293376131947387	2.532655	1.5914317
16.31108174877957	2.544845	1.595257
16.328787757675133	2.5518477	1.5974504
16.34649415908287	2.541042	1.5940646
16.364200953451657	2.5878844	1.6086903
16.38190814123048	2.6231656	1.619619
16.39961572286839	2.639072	1.6245221
16.41732369881455	2.654765	1.6293449
16.43503206951817	2.7136931	1.6473291
16.45274083542859	2.7811854	1.6676886
16.47044999699522	2.810859	1.6765616
16.488159554667558	2.8118975	1.6768713
16.505869508895184	2.8530605	1.6891005
16.523579860127786	2.8798451	1.6970106
16.541290608815117	2.9273686	1.7109555
16.559001755407035	2.9416828	1.7151334
16.57671330035348	3.02838	1.7402241
16.59442524410448	3.1098702	1.7634825
16.61213758711015	3.1930652	1.786915
16.629850329820705	3.2524223	1.8034474
16.647563472686436	3.3136988	1.8203567
16.665277016157724	3.374648	1.8370215
16.682990960685053	3.4201636	1.8493685
16.70070530671898	3.450407	1.8575271
16.718420054710155	3.494079	1.8692456
16.736135205109335	3.4837482	1.8664801
16.753850758367335	3.5332384	1.879691
16.771566714935087	3.6089413	1.8997214
16.789283075263597	3.718535	1.9283503
16.80699983980398	3.8474743	1.961498
16.82471700900741	3.8709974	1.9674851
16.84243458332518	3.8831167	1.9705626
16.860152563208665	3.8911188	1.9725919
16.87787094910932	4.004273	2.0010679
16.89558974147871	4.064375	2.0160296
16.913308940768466	4.1228156	2.0304718
16.931028547430333	4.18434	2.0455658
16.94874856191613	4.280777	2.0690038
16.966468984677785	4.321815	2.0788975
16.98418981616729	4.3622336	2.088596
17.00191105683676	4.38977	2.095178
17.019632707138374	4.4820547	2.1170864
17.03735476752442	4.5656667	2.136742
17.05507723844728	4.602093	2.145249
17.072800120359403	4.615011	2.1482577
17.090523413713353	4.5703006	2.1378262
17.108247118961785	4.610521	2.1472123
17.125971236557437	4.657465	2.158116
17.143695766953133	4.633465	2.1525486
17.161420710601806	4.607535	2.146517
17.179146067956477	4.592034	2.142903
17.19687183947025	4.635638	2.1530533
17.21459802559634	4.6687183	2.1607218
17.232324626788028	4.7057753	2.1692798
17.25005164349871	4.666259	2.1601524
17.267779076181863	4.6595955	2.1586096
17.285506925291074	4.627833	2.1512399
17.30323519127999	4.589614	2.1423385
17.320963874602384	4.542602	2.1313381
17.33869297571211	4.5308843	2.1285875
17.356422495063114	4.5304737	2.128491
17.37415243310944	4.5052056	2.122547
17.391882790305218	4.4984527	2.1209557
17.40961356710468	4.4717865	2.1146598
17.42734476396215	4.473493	2.1150634
17.445076381332044	4.524792	2.1271558
17.462808419668868	4.5957804	2.1437771
17.48054087942723	4.7426596	2.177765
17.498273761061835	4.999819	2.2360275
17.51600706502747	5.481725	2.3413084
17.533740791779024	6.1783257	2.4856238
17.551474941771485	7.5581355	2.7492063
17.56920951545993	8.705261	2.950468
17.586944513299528	11.057446	3.3252738
17.60467993574556	12.788114	3.5760472
17.622415783253373	14.551514	3.8146446
17.64015205627843	16.042059	4.005254
17.657888755276293	17.189768	4.1460543
17.675625880702604	17.701334	4.2072954
17.69336343301311	17.490767	4.182196
17.71110141266366	16.57891	4.071721
17.728839820110178	15.463514	3.9323676
17.746578655808705	14.396212	3.794234
17.764317920215372	12.876596	3.5883975
17.7820576137864	11.336584	3.3669844
17.79979773697811	9.35582	3.0587285
17.81753829024692	7.4703984	2.733203
17.835279274049356	5.8576045	2.4202487
17.85302068884201	4.8814025	2.2093897
17.870762535081607	4.270953	2.0666285
17.888504813224934	3.9523506	1.988052
17.90624752372891	3.7512634	1.9368179
17.923990667050536	3.6217794	1.9030973
17.941734243646895	3.517522	1.8755058
17.959478253975185	3.4892843	1.8679626
17.9772226984927	3.504305	1.8719789
17.994967577656833	3.4393075	1.854537
18.01271289192506	3.3810616	1.8387663
18.030458641754965	3.360627	1.8332013
18.04820482760425	3.3755472	1.8372662
18.06595144993067	3.3530502	1.8311336
18.083698509192125	3.294206	1.8149947
18.101446005846576	3.2540562	1.8039002
18.119193940352105	3.2606385	1.8057238
18.136942313166887	3.2515235	1.8031981
18.1546911247492	3.1917024	1.7865336
18.1724403755574	3.1042144	1.7618781
18.19019006604997	3.0640662	1.7504474
18.207940196685467	3.053015	1.7472879
18.225690767922575	3.0658472	1.750956
18.243441780220046	3.0698068	1.7520864
18.261193234036764	3.036288	1.7424948
18.278945129831676	3.0262184	1.7396029
18.29669746806386	2.9844382	1.7275527
18.314450249192483	2.9604144	1.7205855
18.3322034736768	2.9742951	1.7246145
18.349957141976184	3.042473	1.7442687
18.3677112545501	3.0690923	1.7518826
18.385465811858108	3.0774114	1.7542552
18.403220814359884	3.0798113	1.7549391
18.420976262515172	3.124938	1.7677494
18.43873215678387	3.144802	1.773359
18.456488497625923	3.1756012	1.7820216
18.474245285501407	3.2242897	1.7956307
18.492002520870486	3.2805135	1.8112187
18.50976020419343	3.377766	1.8378699
18.527518335930615	3.7045755	1.9247274
18.545276916542516	4.296551	2.0728123
18.563035946489688	4.4583015	2.111469
18.580795426232832	4.9169307	2.2174153
18.598555356232698	4.7471523	2.178796
18.616315736950185	5.0404067	2.245085
18.63407656884626	4.681877	2.1637645
18.65183785238201	4.904843	2.214688
18.669599588018617	4.6785426	2.162994
18.68736177621737	4.649774	2.1563334
18.705124417439652	4.557736	2.1348855
18.72288751214696	4.3575063	2.087464
18.740651060800886	4.544269	2.1317291
18.758415063863115	4.317474	2.0778532
18.77617952179546	4.4549537	2.110676
18.793944435059814	4.1724277	2.0426521
18.811709804118184	4.222885	2.054966
18.829475629432675	4.2146764	2.0529678
18.8472419114655	3.9940946	1.9985231
18.86500865067897	4.006217	2.0015535
18.88277584753551	3.6805744	1.9184823
18.90054350249763	3.6884751	1.9205403
18.918311616027957	3.38111	1.8387794
18.936080188589226	3.3333719	1.8257524
18.953849220644265	3.125465	1.7678984
18.971618712656007	2.9481091	1.7170058
18.9893886650875	2.8636541	1.6922334
19.007159078401887	8.0122	2.830583
19.024929953062408	32.900333	5.7358813
19.042701289532435	32.815998	5.728525
19.060473088275405	25.364784	5.0363464
19.07824534975489	2.6413488	1.6252227
19.096018074434568	2.6390612	1.6245188
19.113791262778197	2.5952735	1.6109853
19.13156491524966	2.5753958	1.604804
19.149339032312945	2.5633245	1.6010386
19.167113614432136	2.5806496	1.6064401
19.184888662071433	2.532563	1.5914029
19.202664175695123	2.5276446	1.5898567
19.220440155767623	2.542574	1.594545
19.238216602753447	2.536725	1.59271
19.2559935171172	2.5296392	1.590484
19.27377089932361	2.519682	1.5873506
19.291548749837514	2.5223715	1.5881976
19.309327069123835	2.527434	1.5897906
19.32710585764763	2.5256908	1.5892422
19.344885115874032	2.5333698	1.5916563
19.362664844268313	2.5324333	1.5913621
19.380445043295822	2.5277584	1.5898925
19.39822571342203	2.4654331	1.5701698
19.41600685511252	2.4725473	1.5724336
19.43378846883297	2.540527	1.5939031
19.451570555049173	2.5831916	1.607231
19.469353114227037	2.5743134	1.6044667
19.48713614683254	2.5353072	1.5922648
19.50491965333182	2.5191793	1.5871923
19.52270363419109	2.4871383	1.5770663
19.540488089876686	2.4948134	1.5794978
19.55827302085503	2.523487	1.5885488
19.576058427592674	2.4883454	1.577449
19.593844310556282	2.465417	1.5701646
19.611630670212598	2.438674	1.5616255
19.629417507028506	2.46149	1.5689136
19.64720482147098	2.5290985	1.5903139
19.6649926140071	2.554523	1.5982875
19.682780885104084	2.5143354	1.5856656
19.70056963522921	2.4592721	1.5682067
19.718358864849908	2.473241	1.5726541
19.7361485744337	2.4728801	1.5725393
19.753938764448215	2.5180318	1.5868307
19.771729435361202	2.532016	1.591231
19.789520587640506	2.5543022	1.5982184
19.807312221754092	2.5326743	1.5914378
19.825104338170043	2.5139086	1.585531
19.842896937356517	2.5098372	1.5842465
19.860690019781824	2.5067682	1.5832777
19.87848358591436	2.5248477	1.588977
19.896277636222635	2.4960897	1.5799018
19.914072171175278	2.4908156	1.5782318
19.931867191241015	2.5023735	1.5818892
19.94966269688869	2.5019042	1.5817409
19.967458688587264	2.4732113	1.5726447
19.985255166805807	2.4694958	1.571463
20.00305213201348	2.4650815	1.5700577
20.020849584679578	2.4814522	1.5752625
20.038647525273507	2.4515052	1.5657283
20.05644595426477	2.4500952	1.5652779
20.07424487212299	2.4564888	1.567319
20.092044279317903	2.4541514	1.5665731
20.109844176319353	2.456711	1.5673898
20.127644563597304	2.4234009	1.5567276
20.145445441621817	2.3982754	1.5486367
20.16324681086307	2.3934107	1.5470651
20.181048671791373	2.3813746	1.5431703
20.198851024877122	2.338696	1.5292796
20.216653870590836	2.2891774	1.5130028
20.234457209403146	2.3006935	1.5168037
20.252261041784802	2.344771	1.5312644
20.270065368206662	2.3616526	1.5367669
20.287870189139685	2.3658433	1.5381298
20.305675505054968	2.3822525	1.5434548
20.323481316423702	2.3939836	1.5472504
20.341287623717207	2.3756142	1.5413028
20.359094427406884	2.3783166	1.5421792
20.376901727964288	2.3351567	1.528122
20.39470952586107	2.3018036	1.5171696
20.41251782156899	2.2860467	1.5119679
20.430326615559935	2.3014522	1.5170537
20.448135908305886	2.3310027	1.5267621
20.465945700278965	2.3484678	1.5324712
20.483755991951384	2.3481421	1.5323648
20.50156678379548	2.348501	1.5324819
20.519378076283708	2.320522	1.523326
20.537189869888635	2.2978194	1.515856
20.55500216508294	2.291475	1.5137619
20.572814962339415	2.3004725	1.5167309
20.59062826213098	2.3238633	1.5244223
20.60844206493066	2.321544	1.5236614
20.626256371211593	2.291816	1.5138745
20.644071181447032	2.3071291	1.5189236
20.66188649611036	2.34853	1.5324914
20.67970231567506	2.3809423	1.5430303
20.697518640614742	2.3672876	1.5385993
20.715335471403122	2.3454998	1.5315025
20.73315280851404	2.3366165	1.5285995
20.750970652421447	2.312587	1.5207193
20.768789003599412	2.2849262	1.5115973
20.786607862522136	2.2756646	1.5085306
20.8044272296639	2.2806737	1.51019
20.82224710549913	2.270745	1.5068991
20.84006749050237	2.2536075	1.501202
20.857888385148268	3.8029244	1.9501088
20.8757097899116	45.923206	6.776666
20.893531705267254	64.82648	8.051489
20.911354131690224	83.853165	9.157137
20.92917706965566	69.091194	8.312111
20.94700051963877	50.118584	7.0794477
20.96482448211493	29.388367	5.421104
20.982648957559622	4.1340117	2.033227
21.00047394644843	2.2217658	1.4905589
21.01829944925707	2.2229216	1.4909465
21.036125466461375	2.2632728	1.5044178
21.053951998537297	2.285333	1.5117317
21.071779045960906	2.2340157	1.4946624
21.089606609208378	2.2297804	1.4932449
21.10743468875603	2.2326803	1.4942156
21.12526328508028	2.2177112	1.4891982
21.143092398657675	2.2306128	1.4935236
21.16092202996488	2.253642	1.5012136
21.17875217947867	2.2500021	1.5000007
21.19658284767596	2.2132752	1.4877081
21.21441403503377	2.1888664	1.4794818
21.232245742029225	2.182792	1.4774275
21.2500779691396	2.1905375	1.4800464
21.26791071684227	2.1781049	1.4758404
21.28574398561475	2.1666055	1.4719393
21.30357777593465	2.1690342	1.4727641
21.321412088279704	2.143071	1.4639231
21.339246923127792	2.141518	1.4633926
21.357082280956888	2.1306787	1.4596845
21.3749181622451	2.1217375	1.4566185
21.392754567470647	2.0917652	1.4462936
21.41059149711187	2.0908866	1.4459898
21.42842895164726	2.0810301	1.4425776
21.446266931555378	2.0929217	1.4466934
21.464105437314945	2.0981667	1.448505
21.481944469404798	2.107613	1.4517621
21.49978402830388	2.0793395	1.4419914
21.51762411449127	2.066749	1.4376192
21.53546472844617	2.082097	1.4429474
21.553305870647876	2.1141067	1.4539968
21.571147541575865	2.1247795	1.4576623
21.58898974170967	2.1346455	1.4610426
21.60683247152899	2.1427703	1.4638205
21.62467573151363	2.128021	1.4587739
21.642519522143523	2.1159797	1.4546407
21.660363843898722	2.1081948	1.4519624
21.6782086972594	2.0862603	1.4443892
21.696054082705864	2.0371764	1.4272969
21.713900000718535	2.0300093	1.424784
21.73174645177795	2.024117	1.4227147
21.749593436364794	2.0384815	1.427754
21.767440954959845	2.034617	1.4264
21.785289008044032	2.055573	1.4337269
21.803137596098388	2.0398648	1.4282384
21.820986719604086	2.0472276	1.4308137
21.838836379042412	2.0481842	1.4311478
21.85668657489478	2.0452542	1.4301238
21.87453730764273	2.040712	1.428535
21.892388577767914	2.024221	1.4227512
21.91024038575213	1.9973905	1.4132906
21.928092732077285	1.9530033	1.397499
21.945945617225426	1.9510716	1.3968077
21.963799041678694	1.9521177	1.3971821
21.981653005919398	31.310228	5.5955544
21.999507510429943	78.10931	8.837947
22.01736255569286	73.07181	8.548205
22.035218142190818	4.1684184	2.0416706
22.05307427040661	2.0149956	1.4195054
22.07093094082315	1.9983528	1.4136311
22.088788153923474	1.9934483	1.4118953
22.106645910190746	1.9808433	1.4074243
22.12450421010827	2.0142043	1.4192266
22.142363054159464	2.0471575	1.4307891
22.16022244282787	2.0509984	1.4321307
22.178082376597164	2.0240126	1.422678
22.195942855951145	1.9724547	1.404441
22.213803881373742	1.9373187	1.391876
22.231665453349002	1.9288423	1.3888277
22.24952757236111	1.9453758	1.3947673
22.26739023889438	1.9659128	1.4021101
22.28525345343323	1.9767662	1.4059752
22.30311721646225	1.9686837	1.4030979
22.320981528466113	1.9586927	1.399533
22.33884638992964	1.9677372	1.4027605
22.356711801337788	1.9380003	1.3921208
22.37457776317561	1.9480386	1.3957216
22.392444275928337	1.9440571	1.3942945
22.410311340081282	1.9974926	1.4133267
22.428178956119904	1.9934206	1.4118855
22.446047124529805	1.9972417	1.413238
22.46391584579669	1.9680706	1.4028794
22.481785120406414	1.9541993	1.3979268
22.49965494884496	1.9730983	1.4046701
22.51752533159841	1.9415153	1.3933827
22.53539626915302	1.9359952	1.3914005
22.553267761995137	1.9441434	1.3943254
22.571139810611264	1.9765183	1.405887
22.589012415488025	1.9548483	1.3981589
22.60688557711216	1.9506217	1.3966466
22.624759295970566	1.9265159	1.3879899
22.642633572550263	1.9156193	1.384059
22.660508407338362	1.9048666	1.380169
22.67838380082217	1.9203792	1.3857775
22.696259753489077	1.903163	1.3795518
22.714136265826614	1.93657	1.391607
22.73201333832246	1.953522	1.3976845
22.74989097146439	1.9472828	1.3954507
22.76776916574035	1.9360816	1.3914315
22.785647921638393	1.9460646	1.3950142
22.803527239646712	1.9310956	1.3896387
22.82140712025363	1.9141934	1.3835437
22.839287563947593	1.9040493	1.3798729
22.85716857121719	1.9007595	1.3786803
22.875050142551135	1.8845869	1.3728026
22.892932278438277	1.9081261	1.3813493
22.910814979367604	1.9109924	1.3823864
22.928698245828222	1.9150666	1.3838593
22.946582078309387	1.8891503	1.3744637
22.96446647730047	1.8934823	1.3760387
22.98235144329098	1.9122543	1.3828429
23.000236976770562	1.9269869	1.3881595
23.018123078229	1.9110482	1.3824067
23.03600974815619	1.9290878	1.388916
23.053896987042194	1.927545	1.3883605
23.071784795377173	1.9162387	1.3842827
23.08967317365145	1.8651543	1.3657066
23.10756212235546	1.8542651	1.361714
23.125451641979787	1.8749082	1.3692728
23.143341733015134	1.913737	1.3833789
23.161232395952357	1.9220812	1.3863914
23.179123631282426	1.8904264	1.3749278
23.197015439496468	1.8796561	1.3710055
23.214907821085717	1.9111218	1.3824333
23.23280077654157	1.9594727	1.3998116
23.250694306355538	1.9779999	1.4064138
23.268588411019277	1.9355259	1.3912318
23.28648309102458	1.9092402	1.3817526
23.304378346863356	1.883692	1.3724766
23.322274179027676	1.9198214	1.3855762
23.340170588009723	1.9550822	1.3982425
23.358067574301852	1.9705	1.4037449
23.37596513839651	1.9969112	1.4131211
23.39386328078629	1.9985749	1.4137096
23.411762001963947	1.9771073	1.4060965
23.429661302422353	1.9680418	1.4028691
23.4475611826545	1.9247208	1.387343
23.46546164315356	1.887403	1.3738278
23.48336268441279	1.9058763	1.3805348
23.501264306925638	1.9430717	1.393941
23.51916651118564	1.9383875	1.3922598
23.537069297686497	1.9635202	1.4012567
23.554972666922037	1.9840924	1.4085782
23.57287661938623	2.0042307	1.4157085
23.59078115557318	1.9821603	1.4078921
23.608686275977128	1.9701092	1.4036058
23.62659198109246	1.9459052	1.3949571
23.6444982714137	1.9447347	1.3945374
23.66240514743549	1.9659429	1.4021208
23.68031260965263	1.957064	1.398951
23.698220658560068	1.9523374	1.3972607
23.716129294652845	1.9758061	1.4056337
23.7340385184262	1.9290195	1.3888915
23.75194833037546	1.8750125	1.369311
23.769858730996123	1.8676661	1.3666258
23.78776972078382	1.9279226	1.3884965
23.80568130023431	1.9115648	1.3825935
23.823593469843495	1.8630654	1.3649415
23.841506230107424	1.8621434	1.3646038
23.859419581522275	1.8961133	1.3769943
23.87733352458438	1.9174219	1.3847101
23.89524805979019	1.89884	1.377984
23.913163187636318	1.9058195	1.3805143
23.931078908619508	1.9162714	1.3842945
23.948995223236633	1.956355	1.3986976
23.966912131984735	1.9547304	1.3981167
23.98482963536096	1.9886346	1.4101895
24.002747733862616	1.9702284	1.4036483
24.020666427987155	2.0076096	1.4169015
24.038585718232156	2.0012186	1.4146444
24.056505605095353	2.0221832	1.4220349
24.074426089074617	2.0529785	1.4328219
24.092347170667946	2.0338147	1.4261187
24.110268850373515	2.0348537	1.426483
24.128191128689586	2.0138478	1.4191011
24.146114006114626	2.0166013	1.4200709
24.164037483147187	2.0190575	1.4209354
24.181961560286005	2.0047553	1.4158938
24.199886238029926	1.9706248	1.4037894
24.21781151687797	2.0079246	1.4170126
24.235737397329274	2.053221	1.4329065
24.253663879883135	2.0237577	1.4225883
24.271590965038975	1.97665	1.4059339
24.289518653296376	1.9960808	1.4128273
24.30744694515505	2.034323	1.426297
24.32537584111486	2.0375283	1.4274201
24.34330534167581	2.0586329	1.4347937
24.361235447338046	2.0802958	1.4423231
24.379166158601876	2.082853	1.4432093
24.39709747596772	2.0461452	1.4304353
24.41502939993615	2.006243	1.416419
24.432961931007917	1.9342744	1.390782
24.450895069683856	1.9531122	1.397538
24.468828816465	1.9946835	1.4123327
24.4867631718525	2.033802	1.4261143
24.504698136347656	2.0048754	1.4159362
24.52263371045192	2.009392	1.4175303
24.540569894666874	1.9782205	1.4064922
24.558506689494266	1.9310733	1.3896307
24.57644409543597	1.9016397	1.3789995
24.594382112994012	1.9172415	1.3846449
24.61232074267057	1.9347924	1.3909682
24.630259984967953	1.9463773	1.3951262
24.64819984038863	1.9161663	1.3842566
24.66614030943522	1.9235145	1.3869083
24.684081392610462	1.9689065	1.4031773
24.702023090417274	1.9896439	1.4105474
24.7199654033587	1.9722936	1.4043837
24.737908331937927	1.9577662	1.399202
24.755851876658305	1.9705706	1.4037701
24.773796038023324	2.0104134	1.4178904
24.79174081653661	2.027988	1.4240744
24.809686212701962	2.087164	1.444702
24.827632227023294	2.116325	1.4547594
24.8455788600047	2.1158943	1.4546114
24.8635261121504	2.0952687	1.4475043
24.88147398396475	2.0513272	1.4322455
24.899422475952303	2.0576608	1.4344549
24.917371588617698	2.0920231	1.4463828
24.935321322465768	2.205277	1.4850175
24.953271678001478	2.304749	1.51814
24.97122265572994	2.504982	1.5827135
24.989174256156414	2.8189244	1.6789653
25.00712647978632	3.320595	1.82225
25.02507932712521	3.8797936	1.9697192
25.043032798678798	4.3993406	2.0974605
25.060986894952933	5.0453033	2.2461753
25.078941616453637	5.772344	2.4025702
25.096896963687055	6.80184	2.6080337
25.114852937159508	7.9414897	2.818065
25.132809537377444	8.370195	2.893129
25.150766764847468	8.364017	2.892061
25.168724620076347	7.8488574	2.8015811
25.186683103570985	6.848454	2.616955
25.204642215838426	5.6147566	2.3695478
25.222601957385894	4.1534204	2.0379941
25.24056232872074	3.097061	1.7598468
25.25852333035048	2.5223382	1.5881871
25.276484962782778	2.2401526	1.4967139
25.294447226525435	2.080737	1.442476
25.312410122086423	2.0435848	1.42954
25.330373649973843	2.0158384	1.4198022
25.348337810695988	1.9758624	1.4056537
25.366302604761245	1.9496335	1.3962928
25.384268032678207	1.9258801	1.3877608
25.40223409495558	1.8937846	1.3761485
25.420200792102257	1.914261	1.3835682
25.438168124627246	1.9317628	1.3898787
25.45613609303974	1.9296128	1.389105
25.474104697849057	1.9042271	1.3799374
25.492073939564698	1.9117615	1.3826647
25.510043818696285	1.8879534	1.3740282
25.528014335753614	1.8625523	1.3647536
25.54598549124664	1.8739021	1.3689054
25.56395728568544	1.9151989	1.3839071
25.58192971958028	1.9126043	1.3829694
25.59990279344156	1.8882266	1.3741276
25.617876507779833	1.8553673	1.3621187
25.635850863105826	1.8285054	1.3522224
25.653825859930386	1.8200253	1.3490832
25.671801498764548	1.8314369	1.3533059
25.68977778011949	1.8585371	1.3632817
25.707754704506524	1.8700954	1.3675143
25.725732272437153	1.8852167	1.373032
25.743710484423012	1.9046452	1.3800888
25.761689340975888	1.9300605	1.3892661
25.77966884260774	1.9258925	1.3877653
25.797648989830662	1.9018273	1.3790675
25.815629783156922	1.8815292	1.3716885
25.83361122309895	1.8610945	1.3642193
25.85159331016929	1.8422768	1.3573049
25.869576044880695	1.8129233	1.3464484
25.887559427746034	1.8080044	1.3446206
25.90554345927836	1.8183296	1.3484545
25.92352813999086	1.841149	1.3568895
25.94151347039689	1.8349719	1.3546114
25.959499451009965	1.8332238	1.353966
25.97748608234374	1.8650029	1.3656511
25.995473364912062	1.8751132	1.3693477
26.013461299228904	1.8425846	1.3574184
26.03144988580839	1.8716528	1.3680836
26.04943912516483	1.8981296	1.3777262
26.067429017812675	1.904896	1.3801798
26.085419564266537	1.8727909	1.3684995
26.103410765041186	1.8506055	1.3603696
26.12140262065155	1.8753282	1.3694263
26.139395131612723	1.8508015	1.3604417
26.157388298439948	1.8073546	1.3443788
26.17538212164861	1.7901393	1.3379608
26.193376601754295	1.8226242	1.350046
26.211371739272714	1.8083848	1.344762
26.229367534719746	1.8058107	1.3438046
26.247363988611433	1.8353615	1.3547552
26.26536110146397	1.8387426	1.3560024
26.283358873793727	1.8300512	1.3527938
26.301357306117204	1.7933543	1.3391618
26.319356398951104	1.7904835	1.3380895
26.33735615281224	1.7841623	1.3357254
26.35535656821762	1.7707055	1.3306786
26.373357645684404	1.7672063	1.3293631
26.39135938572991	1.7808162	1.3344723
26.409361788871614	1.7838728	1.3356171
26.427364855627165	1.7859478	1.3363936
26.445368586514352	1.8044814	1.3433099
26.46337298205115	1.8152665	1.3473183
26.48137804275568	1.8208784	1.3493993
26.499383769146217	1.7989659	1.3412553
26.517390161741215	1.7826706	1.3351669
26.53539722105928	1.7710308	1.3308008
26.553404947619182	1.7760965	1.3327026
26.571413341939856	1.7777911	1.3333384
26.589422404540397	1.8225744	1.3500276
26.60743213594006	1.903194	1.379563
26.62544253665827	1.8278627	1.3519847
26.64345360721459	1.7489914	1.3224944
26.66146534812879	1.7356828	1.3174531
26.679477759920758	1.7580436	1.3259124
26.69749084311057	1.7915685	1.3384949
26.71550459821847	1.8279471	1.352016
26.733519025764842	1.8522611	1.360978
26.751534126270258	1.8866901	1.3735684
26.769549900255434	1.8375381	1.3555583
26.787566348241267	1.7946364	1.3396404
26.80558347074881	1.7953827	1.339919
26.823601268299267	1.8434811	1.3577485
26.841619741414036	1.8501904	1.3602171
26.85963889061465	1.8086289	1.3448528
26.877658716422832	1.8272138	1.3517447
26.89567921936045	1.839307	1.3562105
26.913700399949544	1.8077389	1.3445218
26.93172225871233	1.7606673	1.3269014
26.949744796171174	1.7728604	1.331488
26.967768012848605	1.7778763	1.3333702
26.98579190926733	1.8095852	1.3452083
27.003816485950225	1.7942938	1.3395125
27.021841743420318	1.8104733	1.3455383
27.039867682200814	1.8313054	1.3532573
27.057894302815072	1.8512974	1.3606238
27.07592160578664	1.8379358	1.3557049
27.0939495916392	1.8409333	1.35681
27.111978260896635	1.8185711	1.3485441
27.13000761408296	1.7749226	1.3322622
27.148037651722397	1.7371738	1.3180189
27.166068374339304	1.7484853	1.322303
27.184099782458215	1.8032103	1.3428366
27.20213187660384	1.856836	1.3626577
27.22016465730105	1.8283787	1.3521756
27.23819812507487	1.8074799	1.3444254
27.256232280450533	1.815267	1.3473184
27.274267123953383	1.8280696	1.3520613
27.292302656108987	1.8112959	1.3458439
27.31033887744306	1.7576109	1.3257492
27.32837578848146	1.7583822	1.32604
27.34641338975026	1.7848579	1.3359858
27.364451681775673	1.7845893	1.3358852
27.382490665084074	1.7707007	1.3306768
27.400530340202046	1.7951735	1.3398409
27.41857070765629	1.8260636	1.3513192
27.436611767973726	1.8351263	1.3546684
27.454653521681404	1.8620266	1.364561
27.472695969306564	1.8358773	1.3549455
27.490739111376627	1.8153703	1.3473568
27.508782948419153	1.7884399	1.3373257
27.526827480961902	1.8310587	1.3531662
27.54487270953279	1.8264128	1.3514484
27.562918634659898	1.8190062	1.3487054
27.580965256871508	1.8196964	1.3489612
27.599012576696026	1.8228747	1.3501388
27.617060594662068	1.8393995	1.3562446
27.63510931129842	1.8341218	1.3542975
27.65315872713401	1.8170041	1.347963
27.67120884269797	1.8283017	1.3521471
27.68925965851958	1.842521	1.3573949
27.707311175128307	1.8397268	1.3563653
27.725363393053787	1.8105481	1.345566
27.74341631282583	1.8081027	1.3446571
27.7614699349744	1.8583262	1.3632044
27.77952426002968	2.0292795	1.4245278
27.797579288521973	2.091133	1.4460751
27.815635020981784	2.470483	1.571777
27.83369145793979	2.5576706	1.5992719
27.85174859992682	2.4216597	1.5561683
27.869806447473923	2.2928119	1.5142034
27.887865001112267	1.9805372	1.4073156
27.905924261373233	1.9183131	1.3850318
27.92398422878836	1.9545778	1.3980621
27.94204490388936	1.9550382	1.3982269
27.96010628720813	1.9228997	1.3866866
27.978168379276728	1.8470032	1.3590449
27.9962311806274	1.831519	1.3533362
28.014294691792568	1.8094786	1.3451686
28.0323589133048	1.835647	1.3548605
28.050423845696887	1.7945533	1.3396094
28.068489489501758	1.8281527	1.3520919
28.086555845252523	1.8865204	1.3735065
28.104622913482487	1.9087965	1.381592
28.122690694725115	1.8341079	1.3542924
28.14075918951405	1.8382968	1.3558381
28.15882839838312	1.8853852	1.3730932
28.176898321866304	1.8857719	1.373234
28.1949689604978	1.8361597	1.3550497
28.213040314811945	1.801793	1.3423089
28.23111238534327	1.8266814	1.3515477
28.249185172626493	1.9295894	1.3890966
28.267258677196473	1.9408792	1.3931544
28.285332899588294	1.8896537	1.3746468
28.303407840337172	1.8909258	1.3751093
28.321483499978545	1.9688809	1.4031682
28.33955987904799	1.9985352	1.4136956
28.357636978081285	1.9677877	1.4027786
28.37571479761439	1.9457952	1.3949176
28.393793338183425	1.9606016	1.4002148
28.41187260032469	1.9411448	1.3932498
28.429952584574686	1.9310703	1.3896296
28.448033291470065	1.9623545	1.4008406
28.46611472154769	1.9829416	1.4081696
28.484196875344566	2.0490508	1.4314506
28.502279753397914	2.085488	1.444122
28.52036335624511	2.0435224	1.4295182
28.538447684423716	1.9435743	1.3941213
28.556532738471482	1.9734222	1.4047854
28.574618518926325	1.9667689	1.4024154
28.59270502632635	1.9666088	1.4023583
28.61079226120985	1.9624571	1.4008772
28.628880224115274	1.9822898	1.4079381
28.646968915581287	2.0153365	1.4196255
28.66505833614671	2.059335	1.4350383
28.68314848635055	2.0517175	1.4323817
28.701239366732004	2.0272558	1.4238173
28.71933097783044	2.0336785	1.426071
28.737423320185403	2.045948	1.4303664
28.75551639433665	2.071851	1.4393926
28.773610200824074	2.080214	1.4422947
28.791704740187793	2.0832152	1.4433348
28.80980001296809	2.1423016	1.4636604
28.827896019705413	2.1842344	1.4779155
28.845992760940433	2.178208	1.4758754
28.86409023721397	2.1638038	1.4709873
28.88218844906704	2.1774986	1.4756349
28.900287397040845	2.1729727	1.4741006
28.918387081676755	2.2058995	1.4852271
28.936487503516343	2.1942136	1.4812878
28.954588663101365	2.2258165	1.491917
28.97269056097374	2.2465646	1.4988544
28.990793197675597	2.2862725	1.5120425
29.00889657374923	2.2791886	1.5096982
29.027000689737125	2.3031037	1.517598
29.04510554618196	2.3500872	1.5329994
29.06321114362659	2.3939638	1.547244
29.08131748261405	2.4701464	1.5716699
29.099424563687567	2.5015652	1.5816337
29.11753238739057	2.524381	1.58883
29.13564095426663	2.587476	1.6085633
29.15375026485954	2.6158385	1.6173555
29.171860319713275	2.5735576	1.6042311
29.18997111937199	2.5979118	1.6118039
29.20808266438002	2.682586	1.6378602
29.226194955281898	2.7317195	1.6527914
29.244307992622335	2.7910368	1.6706396
29.26242177694624	2.844196	1.6864744
29.2805363087987	2.837293	1.6844265
29.29865158872498	2.8304095	1.6823821
29.316767617270557	2.8289719	1.6819547
29.334884394981064	2.895615	1.7016507
29.353001922402367	2.9624484	1.7211765
29.37112020008047	3.0398638	1.7435205
29.389239228561596	3.1938531	1.7871355
29.407359008392152	3.4514601	1.8578106
29.42547954011872	3.8320246	1.9575558
29.44360082428809	4.400031	2.097625
29.46172286144722	5.3667164	2.3166175
29.479845652143283	6.997816	2.6453385
29.497969196923606	9.122478	3.020344
29.516093496335728	11.797822	3.4347959
29.5342185509274	14.650795	3.8276358
29.55234436124651	17.04504	4.128564
29.570470927841175	18.63617	4.316963
29.588598251259686	18.44646	4.2949343
29.60672633205055	16.902939	4.1113186
29.624855170762405	14.518208	3.8102765
29.642984767944146	11.669679	3.4160912
29.66111512414481	8.934581	2.9890769
29.67924623991366	6.6271095	2.5743172
29.697378115800138	5.0205693	2.2406628
29.71551075235387	4.178313	2.0440922
29.733644150124675	3.7557874	1.9379854
29.751778309662576	3.50551	1.8723007
29.769913231517766	3.3671665	1.8349841
29.78804891624066	3.3571763	1.8322599
29.806185364381818	3.319417	1.8219267
29.82432257649206	3.3203487	1.8221824
29.842460553122333	3.2498276	1.8027278
29.86059929482382	3.230658	1.7974031
29.878738802147872	3.250325	1.8028657
29.896879075646048	3.2873306	1.8130997
29.915020115870114	3.304207	1.8177478
29.933161923371976	3.3443966	1.8287691
29.951304498703777	3.2827878	1.8118465
29.969447842417857	3.2166085	1.7934906
29.987591955066733	3.196866	1.7879782
30.005736837203123	3.2586734	1.8051796
30.023882489379943	3.2526178	1.8035016
30.04202891215028	3.192916	1.7868732
30.060176106067455	3.2260065	1.7961087
30.078324071684946	3.2222104	1.7950517
30.09647280955646	3.1716251	1.7809057
30.114622320235863	3.1286159	1.7687894
30.132772604277257	3.0790799	1.7547307
30.1509236622349	3.0385396	1.7431407
30.16907549466328	3.0095572	1.7348076
30.18722810211705	3.0116994	1.7354249
30.205381485151097	2.98067	1.7264616
30.22353564432045	2.9728162	1.7241857
30.241690580180403	2.975679	1.7250156
30.25984629328638	3.0161276	1.7367002
30.278002784194037	3.0213754	1.7382104
30.296160053459246	2.9780097	1.7256911
30.314318101638033	2.9234436	1.709808
30.332476929286646	2.8628283	1.6919894
30.35063653696153	2.8825426	1.6978053
30.368796925219307	2.8966198	1.7019459
30.386958094616844	2.8709295	1.6943817
30.40512004571115	2.8656688	1.6928287
30.423282779059463	2.8126976	1.67711
30.441446295219233	2.7900605	1.6703475
30.459610594748067	2.7915368	1.6707892
30.47777567820382	2.7811658	1.6676828
30.495941546144504	2.7852356	1.6689025
30.51410819912835	2.7777848	1.6666688
30.532275637713795	2.7004154	1.6432941
30.55044386245946	2.712158	1.6468631
30.56861287392416	2.7721443	1.6649758
30.586782672666956	2.7545505	1.6596838
30.604953259247047	2.7705677	1.6645023
30.623124634223885	2.7904952	1.6704775
30.641296798157075	2.7998118	1.6732638
30.659469751606462	2.7731333	1.6652727
30.677643495132074	2.724623	1.6506432
30.695818029294152	2.7126431	1.6470103
30.713993354653116	2.727312	1.6514575
30.73216947176962	2.6689687	1.6336979
30.75034638120448	2.6525424	1.6286627
30.768524083518756	2.639825	1.6247538
30.786702579273673	2.7630348	1.6622379
30.80488186903069	2.9093747	1.705689
30.82306195335144	3.0214286	1.7382257
30.841242832797782	3.2050312	1.7902601
30.85942450793176	3.5268862	1.8780006
30.877606979315637	3.8484445	1.9617453
30.895790247511883	4.165117	2.0408618
30.913974313083134	4.5637846	2.1363015
30.932159176592283	4.8648686	2.2056446
30.95034483860237	4.9160147	2.2172089
30.968531299676698	4.7224183	2.1731126
30.98671856037873	4.395359	2.0965111
31.00490662127215	3.9463117	1.9865326
31.023095482920848	3.404579	1.8451501
31.04128514588892	2.9690516	1.7230936
31.059475610740662	2.7370493	1.654403
31.07766687804056	2.6402285	1.624878
31.09585894835335	2.5822368	1.606934
31.11405182224393	2.476897	1.5738161
31.132245500277417	2.4228876	1.5565628
31.15043998301914	2.458197	1.5678638
31.168635271034628	2.5060065	1.5830371
31.18683136488964	2.4898849	1.5779369
31.20502826515008	2.4453943	1.5637757
31.223225972382135	2.4194508	1.5554584
31.241424487152155	2.4184384	1.555133
31.259623810026692	2.403008	1.5501639
31.27782394157253	2.370678	1.5397006
31.296024882356644	2.337683	1.5289483
31.314226632946237	2.3844395	1.544163
31.332429193908684	2.4529045	1.5661751
31.350632565811598	2.4792347	1.5745586
31.368836749222787	2.536276	1.592569
31.387041744710295	2.5091677	1.5840353
31.40524755284232	2.5311546	1.5909603
31.423454174187317	2.552768	1.5977384
31.441661609313922	2.498259	1.5805882
31.459869858791002	2.4370754	1.5611135
31.478078923187628	2.4785442	1.5743393
31.496288803073064	2.4505563	1.5654253
31.514499499016807	2.3970084	1.5482275
31.532711011588546	2.3811448	1.5430958
31.550923341358178	2.3771694	1.5418072
31.56913648889584	2.4078507	1.551725
31.587350454771844	2.4095523	1.5522733
31.605565239556732	2.3555324	1.5347744
31.62378084382127	2.2667418	1.5055703
31.641997268136382	2.3247492	1.5247128
31.660214513073274	2.2983747	1.5160391
31.67843257920331	2.2734473	1.5077955
31.6966514670981	2.315031	1.5215226
31.71487117732944	2.3684711	1.5389838
31.733091710469346	2.3339374	1.527723
31.751313067090052	2.2843812	1.5114169
31.769535247764008	2.2895758	1.5131345
31.787758253063878	2.3098366	1.5198146
31.805982083562526	2.294727	1.5148357
31.824206739833024	2.2823555	1.5107467
31.84243222244869	2.1961687	1.4819475
31.860658531983013	2.180766	1.4767417
31.878885669009737	2.1721191	1.4738111
31.897113634102784	2.1630363	1.4707265
31.91534242783632	2.1895924	1.4797271
31.933572050784694	2.2484772	1.4994923
31.951802503522508	2.2417004	1.4972309
31.970033786624548	2.1952326	1.4816318
31.988265900665834	2.2106032	1.4868097
32.006498846221575	2.2880068	1.5126159
32.02473262386724	2.3225377	1.5239874
32.04296723417845	2.2343323	1.4947683
32.0612026777311	2.1255767	1.4579358
32.07943895510129	2.1100316	1.4525948
32.097676066865304	2.1738367	1.4743937
32.115914013599685	2.194063	1.4812369
32.13415279588115	2.1313615	1.4599183
32.152392414286666	2.0610075	1.4356209
32.1706328693934	2.0634367	1.4364668
32.18887416177875	2.0677805	1.4379779
32.20711629202032	2.1588118	1.4692895
32.225359260695924	2.1775587	1.4756553
32.243603068383614	2.1212413	1.4564482
32.26184771566166	2.0493298	1.431548
32.28009320310852	2.0987535	1.4487075
32.2983395313029	2.1281002	1.4588009
32.31658670082372	2.1822	1.4772271
32.33483471225012	2.1563356	1.4684466
32.35308356616143	2.1304336	1.4596004
32.371333263137245	2.1641762	1.4711139
32.38958380375734	2.1264453	1.4582336
32.407835188601744	2.0877419	1.4449021
32.42608741825067	2.0633194	1.4364259
32.444340493284585	2.0829165	1.4432312
32.46259441428416	2.072323	1.4395566
32.48084918183028	2.056972	1.4342148
32.49910479650405	2.0884745	1.4451555
32.51736125888683	2.0827587	1.4431766
32.53561856956014	2.115584	1.4545047
32.5538767291058	2.114765	1.4542232
32.572135738105764	2.139553	1.4627211
32.59039559714228	2.0781248	1.4415703
32.608656306797776	2.1107635	1.4528466
32.62691786765491	2.078384	1.4416602
32.645180280296586	2.0127811	1.4187251
32.663443545305896	2.0139205	1.4191266
32.68170766326619	2.044361	1.4298116
32.69997263476099	2.0565515	1.4340682
32.7182384603741	2.0770524	1.4411982
32.7365051406895	2.0349545	1.4265183
32.75477267629144	1.9173484	1.3846835
32.77304106776434	1.9210947	1.3860356
32.79131031569289	1.9665024	1.4023204
32.809580420661966	1.9720756	1.404306
32.827851383256714	2.0107834	1.418021
32.84612320406245	2.0702457	1.4388349
32.86439588366476	1.9761689	1.4057628
32.88266942264945	1.9042948	1.3799618
32.9009438216025	1.9979107	1.4134747
32.9192190811102	2.0054166	1.4161273
32.937495201758985	1.9284029	1.3886695
32.95577218413556	1.878145	1.3704543
32.974050028826866	1.9119995	1.3827506
32.992328736420035	1.9742918	1.405095
33.010608307502444	2.0266166	1.4235928
33.02888874266169	2.0181844	1.4206282
33.047170042485604	2.0561335	1.4339224
33.06545220756225	2.0439005	1.4296504
33.083735238479896	2.0131643	1.4188602
33.10201913582707	1.9536523	1.3977311
33.12030390019248	1.8608904	1.3641446
33.138589532165135	1.8818191	1.3717941
33.15687603233419	1.9593463	1.3997666
33.17516340128909	1.9568079	1.3988595
33.19345163961947	1.9090934	1.3816994
33.211740747915215	1.8617082	1.3644443
33.23003072676643	1.911361	1.3825198
33.248321576763466	1.9748664	1.4052994
33.266613298496885	2.0056891	1.4162235
33.28490589255747	1.911096	1.382424
33.30319935953626	1.8595558	1.3636553
33.32149370002451	1.887067	1.3737055
33.339788914613706	1.8580167	1.3630909
33.358085003895575	1.8293388	1.3525305
33.376381968462034	1.8354646	1.3547932
33.39467980890529	1.8817645	1.3717742
33.41297852581774	1.9902735	1.4107705
33.43127811979204	2.0853906	1.4440881
33.44957859142105	2.1139598	1.4539462
33.467879941297866	2.0628984	1.4362794
33.486182170015844	2.0171344	1.4202585
33.50448527816853	1.9365989	1.3916174
33.522789266349754	1.948969	1.3960547
33.541094135153514	1.9735848	1.4048433
33.55939988517411	1.9898984	1.4106376
33.57770651700602	1.9670018	1.4024984
33.59601403124398	2.022866	1.422275
33.61432242848296	2.0402946	1.4283888
33.632631709318154	1.9635124	1.4012538
33.650941874344994	1.8643954	1.3654287
33.66925292415916	1.8995527	1.3782426
33.68756485935654	1.9526467	1.3973714
33.70587768053328	1.8026617	1.3426324
33.724191388285746	1.6877254	1.2991248
33.74250598321054	1.7576295	1.3257562
33.760821465904506	1.9546368	1.3980832
33.77913783696474	2.0408297	1.4285761
33.79745509698852	1.9630406	1.4010855
33.815773246573414	1.8993378	1.3781646
33.8340922863172	1.8869888	1.3736771
33.852412216817896	1.8896159	1.374633
33.87073303867377	2.012849	1.4187491
33.889054752483304	2.0467856	1.4306592
33.907377358845245	1.8842131	1.3726664
33.92570085835853	1.9121401	1.3828015
33.94402525162239	2.119051	1.4556961
33.96235053923627	2.0904512	1.4458393
33.980676721799824	1.8898492	1.3747178
33.999003799912984	1.9714309	1.4040766
34.01733177417592	1.9726217	1.4045005
34.03566064518901	1.9853773	1.4090341
34.0539904135529	2.0523899	1.4326165
34.07232107986846	2.0397456	1.4281967
34.090652644736785	1.9574412	1.3990859
34.108985108759235	1.9298886	1.3892043
34.12731847253742	1.8653592	1.3657815
34.14565273667313	1.7538693	1.3243374
34.16398790176847	1.7837874	1.335585
34.18232396842574	2.0251048	1.4230617
34.20066093724749	2.1205754	1.4562196
34.21899880883651	2.0022986	1.415026
34.23733758379583	1.8989099	1.3780094
34.25567726272874	1.9024204	1.3792826
34.27401784623872	2.039411	1.4280795
34.29235933492957	2.101651	1.4497072
34.31070172940526	2.0209782	1.4216112
34.32904503027003	1.919523	1.3854685
34.347389238128386	1.8638737	1.3652376
34.36573435358502	1.8279381	1.3520126
34.38408037724492	1.8971587	1.3773738
34.402427309713296	1.9562366	1.3986553
34.42077515159559	1.9106646	1.382268
34.43912390349752	1.924239	1.3871695
34.45747356602499	1.8776915	1.3702888
34.47582413978423	1.9810766	1.4075072
34.49417562538163	2.0528867	1.4327898
34.51252802342388	1.9713513	1.4040482
34.53088133451789	1.9593663	1.3997737
34.54923555927084	2.0216684	1.4218539
34.567590698290104	2.135659	1.4613894
34.58594675218336	1.9900163	1.4106793
34.6043037215585	1.8274627	1.3518368
34.62266160702365	1.864185	1.3653516
34.641020409187234	1.9245886	1.3872954
34.65938012865785	2.019772	1.4211868
34.677740766044394	2.2119613	1.4872664
34.69610232195598	2.161424	1.4701782
34.714464797002016	1.8726182	1.3684365
34.73282819179208	1.8543506	1.3617454
34.751192506936064	1.8608475	1.3641288
34.76955774304408	1.9808836	1.4074386
34.7879239007265	2.0677998	1.4379846
34.80629098059391	2.0009296	1.4145422
34.824658983257194	1.8841213	1.372633
34.843027909327446	1.8738526	1.3688873
34.86139775941603	1.9571062	1.3989661
34.879768534134534	1.9481517	1.3957621
34.89814023409483	2.0244696	1.4228386
34.91651285990901	2.0383408	1.4277047
34.93488641218944	2.019327	1.4210303
34.95326089154871	1.9662594	1.4022337
34.97163629859967	1.9678016	1.4027835
34.99001263395542	2.205495	1.485091
35.00838989822934	2.1060987	1.4512404
35.02676809203499	1.8531525	1.3613055
35.04514721598624	1.6455381	1.2827853
35.063527270697215	1.6544052	1.2862369
35.081908256782256	1.7586069	1.3261248
35.10029017485597	1.8742305	1.3690253
35.11867302553321	1.9860369	1.4092683
35.137056809429104	1.9475014	1.395529
35.155441527159006	1.9604626	1.4001652
35.173827179338524	2.010817	1.4180328
35.19221376658354	1.9061018	1.3806164
35.21060128951017	1.9217409	1.3862687
35.2289897487348	1.9783176	1.4065268
35.24737914487405	2.0253437	1.4231457
35.26576947854479	2.0927284	1.4466265
35.28416075036418	2.1186395	1.4555547
35.30255296094958	2.1688092	1.4726877
35.32094611091867	2.325262	1.524881
35.33934020088932	2.1851141	1.4782132
35.35773523147969	2.1278977	1.4587315
35.3761312033082	2.3210285	1.5234922
35.394528116993506	2.169431	1.4728988
35.41292597315452	2.0151384	1.4195557
35.431324772410434	2.1438072	1.4641746
35.449724515380666	2.278028	1.5093137
35.46812520268491	2.028916	1.4244002
35.486526834943106	1.9993536	1.413985
35.504929412775454	2.390388	1.546088
35.52333293680242	2.57041	1.6032498
35.54173740764471	2.4615242	1.5689245
35.560142825923286	2.3835194	1.5438651
35.5785491922594	2.0359108	1.4268534
35.59695650727454	1.495771	1.2230172
35.61536477159042	1.5913184	1.2614747
