0.008763373481513119	0.051685803	0.22734512
0.026290120649546365	0.18429624	0.4292974
0.043816868432600686	0.15917647	0.39896926
0.06134361724069026	0.23165545	0.481306
0.07887036748382949	0.22757529	0.47704852
0.0963971195720331	0.1716348	0.4142883
0.11392387391531617	0.11820984	0.34381658
0.1314506309236943	0.05092263	0.22566043
0.1489773910071836	0.06083242	0.24664229
0.16650415457580078	0.0781338	0.27952424
0.18403092203956356	0.08538031	0.2921991
0.20155769380849	0.12111277	0.3480126
0.2190844702925996	0.15639661	0.3954701
0.2366112519019124	0.14560674	0.38158453
0.2541380390464497	0.17380232	0.41689605
0.27166483213623416	0.11637151	0.3411327
0.28919163158128947	0.15685008	0.39604303
0.3067184377916406	0.1240024	0.35213974
0.324245251177314	0.17831461	0.42227316
0.34177207214833777	0.15716812	0.39644435
0.3592989011147415	0.16425583	0.40528488
0.37682573848655654	0.13598692	0.36876404
0.39435258467381573	0.1327643	0.36436835
0.41187944008655414	0.13582069	0.3685386
0.42940630513480854	0.15488523	0.3935546
0.446933180228618	0.18738101	0.43287528
0.4644600657780234	0.18515961	0.43030176
0.48198696219306775	0.18359813	0.42848352
0.49951386988379676	0.17157288	0.41421357
0.5170407892602581	0.1616881	0.4021046
0.5345677207325025	0.13235755	0.36380976
0.5520946647105822	0.13426693	0.36642453
0.5696216216045534	0.1498936	0.38716096
0.5871485918244737	0.15732032	0.39663625
0.6046755757804043	0.13364866	0.3655799
0.6222025738824094	0.13350421	0.36538228
0.6397295865405557	0.17286716	0.41577297
0.6572566141649129	0.17202717	0.41476157
0.6747836571655547	0.17460635	0.41785926
0.6923107159525568	0.1566496	0.39578986
0.7098377909359992	0.16399163	0.4049588
0.7273648825259653	0.15338549	0.3916446
0.7448919911325411	0.16010216	0.40012768
0.762419117165817	0.182193	0.42684072
0.7799462610358868	0.19281016	0.43910155
0.7974734231528482	0.21447931	0.46311912
0.8150006039268024	0.17164646	0.41430238
0.8325278037678551	0.14756194	0.38413793
0.8500550230861152	0.12877344	0.35885015
0.8675822622916969	0.12928748	0.35956568
0.8851095217947171	0.16826555	0.41020185
0.9026368020052984	0.18588303	0.43114156
0.9201641033335665	0.18095154	0.42538399
0.9376914261896523	0.1982258	0.44522557
0.9552187709836915	0.17371003	0.41678536
0.9727461381258234	0.19765101	0.4445796
0.990273528026193	0.19795094	0.44491678
1.0078009410949496	0.19294028	0.43924966
1.0253283777422473	0.2245934	0.47391286
1.0428558383782454	0.22552517	0.4748949
1.0603833234131086	0.25539497	0.50536615
1.0779108332570058	0.28634414	0.5351113
1.0954383683201119	0.30518764	0.5524379
1.112965929012607	0.34103966	0.583986
1.1304935157446763	0.4750886	0.6892667
1.1480211289265108	0.5144123	0.71722543
1.1655487689683062	1.3248687	1.1510293
1.1830764362802655	1.6117505	1.2695473
1.200604131272596	2.0895262	1.4455193
1.2181318543555117	2.4335263	1.5599763
1.235659605939232	2.427865	1.5581608
1.253187386433982	3.9973822	1.9993454
1.270715196249994	6.3915253	2.5281465
1.2882430357975057	12.092412	3.4774146
1.3057709054867608	16.909071	4.112064
1.3232988057280106	22.762703	4.7710276
1.3408267369315112	27.460295	5.2402573
1.358354699507526	31.028107	5.5702877
1.3758826938663256	35.24202	5.936499
1.3934107204181858	37.355633	6.1119256
1.410938779573391	37.75135	6.1442127
1.4284668717422309	38.31934	6.190262
1.4459949973350033	37.774944	6.1461325
1.4635231567620117	37.601334	6.131993
1.4810513504335687	36.88045	6.072928
1.4985795787599925	36.35099	6.029178
1.5161078421516088	36.374897	6.0311604
1.5336361410187505	35.882347	5.9901876
1.5511644757717598	35.721447	5.9767423
1.5686928468209842	35.81432	5.9845066
1.58622125457678	36.32647	6.0271444
1.6037496994495108	37.87527	6.154289
1.621278181849548	37.716557	6.141381
1.6388067021872719	38.252037	6.184823
1.6563352608730693	37.169453	6.0966754
1.673863858317336	36.368454	6.0306263
1.6913924949304753	35.731262	5.9775634
1.7089211711228998	35.066757	5.921719
1.7264498873050296	34.089672	5.838636
1.7439786438872935	32.9652	5.741533
1.7615074412801288	32.094994	5.6652446
1.779036279893981	31.490185	5.6116114
1.796565160139305	30.523262	5.524786
1.814094082426564	29.804972	5.459393
1.8316230471662298	29.014643	5.386524
1.849152054768784	28.20482	5.310821
1.8666811056447168	27.6317	5.2565866
1.8842102002045273	26.803303	5.177191
1.901739338858724	26.28221	5.126618
1.9192685220178245	25.488945	5.048658
1.9367977500923557	24.86145	4.986126
1.9543270234928547	24.558334	4.9556365
1.971856342629867	24.120186	4.9112306
1.9893857079139496	23.734468	4.8718033
2.006915119755667	23.169338	4.8134537
2.0244445785655945	22.42305	4.735298
2.0419740847543175	22.08212	4.6991615
2.0595036387324317	21.67359	4.6554904
2.0770332409105414	21.207779	4.6051903
2.094562891699263	20.983635	4.5807896
2.1120925915092217	20.505028	4.528248
2.129622340751053	20.227385	4.4974866
2.1471521398354043	188.102	13.715029
2.1646819891729323	444.22534	21.076654
2.182211889174303	440.4577	20.987083
2.1997418402501974	452.8225	21.279627
2.2172718428113023	432.92706	20.8069
2.234801897268317	320.83728	17.911932
2.2523320040319548	17.314785	4.1611037
2.269862163512935	16.906244	4.1117206
2.287392376121992	16.520287	4.0645156
2.304922642269869	16.032537	4.004065
2.322452962367322	15.504232	3.9375415
2.3399833368251164	15.205525	3.8994262
2.357513766054032	14.903425	3.8604956
2.3750442504648586	14.817531	3.8493545
2.3925747904683963	14.532941	3.8122094
2.410105386475459	14.579281	3.8182824
2.4276360388968707	14.231079	3.7724102
2.445166748143469	14.216867	3.7705262
2.4626975146261025	13.97162	3.737863
2.4802283387556323	13.725239	3.704759
2.4977592209429305	13.397456	3.6602535
2.5152901615988825	13.031654	3.6099384
2.5328211611343865	12.932349	3.5961576
2.5503522199603523	12.647659	3.5563548
2.5678833384877024	12.402375	3.5217006
2.5854145171273712	12.131853	3.4830809
2.6029457562903064	11.960077	3.4583344
2.620477056387469	11.865233	3.4445949
2.6380084178298326	11.681918	3.4178822
2.655539841028383	11.53319	3.396055
2.673071326394119	11.316384	3.3639834
2.6906028743380523	11.049327	3.3240528
2.708134485271211	10.818493	3.2891479
2.7256661596046325	10.630724	3.2604792
2.743197897749369	10.49922	3.2402499
2.760729700116486	10.505863	3.2412748
2.778261567117063	10.457497	3.2338052
2.795793499162193	10.404276	3.225566
2.8133254966629817	10.196868	3.1932535
2.830857560030551	9.911154	3.1481986
2.8483896896760337	9.790937	3.1290474
2.865921886010578	9.539022	3.0885308
2.883454149445347	9.358493	3.0591655
2.9009864803915177	9.215051	3.0356302
2.91851887926028	9.137851	3.0228877
2.9360513464628384	9.126733	3.0210483
2.953583882410413	9.052974	3.008816
2.9711164875142373	8.952141	2.9920127
2.9886491621855606	8.855989	2.9759014
3.0061819068356455	8.663845	2.943441
3.023714721875769	8.562126	2.926111
3.041247607717225	8.47207	2.910682
3.0587805647713213	8.343791	2.8885622
3.0763135934493806	8.177847	2.8596935
3.0938466941627407	8.067268	2.8402936
3.1113798673227544	7.939993	2.8177993
3.1289131133407904	7.9868474	2.826101
3.1464464326282315	8.072563	2.8412256
3.1639798255964786	8.000272	2.8284752
3.1815132926569443	7.847102	2.8012679
3.1990468342210603	7.7853694	2.7902274
3.216580450700272	7.7220964	2.778866
3.2341141425060416	7.671058	2.7696676
3.251647910049847	7.468425	2.732842
3.2691817537431813	7.2671967	2.6957738
3.286715673997555	7.0716085	2.6592495
3.3042496712244938	6.9807725	2.642115
3.32178374583554	6.9020653	2.6271782
3.339317898242251	6.91542	2.6297185
3.3568521288562034	6.9264193	2.6318092
3.3743864380889876	6.9168653	2.6299934
3.3919208263522127	6.8681517	2.6207159
3.4094552940575023	6.705052	2.5894115
3.4269898416164972	6.6530504	2.5793507
3.444524469440858	6.609016	2.5708005
3.4620591779422587	6.5496693	2.5592322
3.479593967532391	6.467248	2.5430784
3.4971288386229658	6.315959	2.5131571
3.5146637916257086	6.341615	2.5182564
3.5321988269523628	6.387171	2.5272853
3.5497339450146903	6.4245405	2.5346677
3.5672691462244708	6.3746133	2.5247996
3.5848044309934988	6.3398523	2.5179064
3.60233979973359	6.2798343	2.5059597
3.619875252856575	6.3305707	2.5160625
3.6374107907743034	6.332762	2.5164979
3.6549464138986427	6.3308997	2.5161278
3.6724821226414788	6.3319683	2.5163403
3.690017917414714	6.341985	2.5183299
3.7075537986302702	6.466333	2.5428984
3.7250897667000857	6.530677	2.5555189
3.7426258220361235	6.7300687	2.5942376
3.7601619650503553	7.001423	2.6460202
3.777698196154779	7.497416	2.738141
3.7952345157614067	8.482222	2.9124253
3.8127709242822716	9.233348	3.0386424
3.830307422129425	11.413726	3.3784206
3.847844009714936	30.147406	5.4906654
3.8653806874508954	97.6643	9.8825245
3.882917455749409	96.99069	9.848385
3.900454315022606	96.71478	9.834368
3.917991265682631	41.31827	6.427929
3.9355283081416506	10.958484	3.31036
3.9530654428118495	8.871032	2.9784276
3.970602670105433	7.6837883	2.7719648
3.9881399904346244	6.749764	2.5980308
4.005677404211669	6.5791993	2.564995
4.023214911848827	6.4234533	2.5344532
4.0407525137583855	6.357179	2.5213447
4.058290210352644	6.371376	2.5241585
4.075828002043927	6.3394856	2.5178335
4.0933658892445814	6.288801	2.5077481
4.110903872366966	6.278777	2.5057487
4.128441951823468	6.2642884	2.502856
4.145980128026488	6.2344303	2.496884
4.163518401388452	6.257454	2.5014904
4.181056772321807	6.2465024	2.4993005
4.1985952412390155	6.24164	2.4983275
4.216133808552567	6.275011	2.5049973
4.233672474674966	6.284381	2.5068667
4.251211240018741	6.568559	2.56292
4.268750104996445	6.8105183	2.6096969
4.286289070020643	7.8275905	2.7977831
4.303828135503928	9.457795	3.075353
4.3213673018589125	29.707	5.4504128
4.3389065694982305	90.89755	9.53402
4.356445938834537	166.08469	12.887384
4.3739854102805085	172.05411	13.11694
4.391524984248844	172.91429	13.149688
4.409064661152262	137.12216	11.709917
4.426604441403504	97.28345	9.863237
4.444144325415337	76.12678	8.725066
4.461684313600543	22.153416	4.7067413
4.47922440637193	22.621847	4.7562428
4.496764604142329	20.845404	4.5656767
4.5143049073245916	18.961313	4.354459
4.531845316331589	16.773788	4.0955815
4.5493858315762195	13.883642	3.726076
4.566926453471405	11.627557	3.4099205
4.584467182430081	9.595297	3.0976276
4.602008018865218	8.438892	2.904977
4.619548963189798	7.5662413	2.7506802
4.637090015816834	7.1183114	2.6680164
4.654631177159353	6.8216906	2.6118367
4.672172447630417	6.5428886	2.557907
4.689713827643102	6.3684816	2.523585
4.7072553176105085	6.0811954	2.466008
4.724796917945764	5.9787216	2.4451425
4.742338629062015	5.929075	2.4349692
4.759880451372434	5.8047013	2.4092948
4.777422385290215	5.6825075	2.383801
4.794964431228581	5.637987	2.3744445
4.812506589600768	5.68198	2.3836904
4.830048860820047	5.6569986	2.3784447
4.847591245299709	5.5747952	2.3611004
4.8651337434530655	5.6763253	2.382504
4.882676355693457	5.730674	2.3938825
4.900219082434242	5.725709	2.3928454
4.917761924088813	5.669789	2.381132
4.935304881070575	5.632234	2.3732328
4.952847953792969	5.587794	2.3638515
4.970391142669449	5.5289154	2.3513646
4.9879344481135055	5.4297805	2.330189
5.005477870538642	5.4188704	2.3278468
5.023021410358394	5.357227	2.3145683
5.040565067986324	5.3476143	2.312491
5.05810884383601	5.3916764	2.3219984
5.075652738321066	5.424505	2.3290567
5.09319675185512	5.4711704	2.3390534
5.110740884851836	5.470292	2.3388655
5.128285137724894	5.481461	2.341252
5.145829510888007	5.431745	2.3306105
5.163374004754908	5.363387	2.3158987
5.1809186197393595	5.3252583	2.307652
5.198463356255145	5.3507886	2.313177
5.216008214716077	5.371474	2.3176441
5.233553195535998	5.335481	2.309866
5.251098299128764	5.2425365	2.2896585
5.268643525908272	5.2196045	2.2846453
5.286188876288432	5.1639366	2.2724297
5.3037343506831895	5.1731706	2.2744606
5.32127994950651	5.1784935	2.2756302
5.3388256731723915	5.23429	2.287857
5.356371522094851	5.2854877	2.2990189
5.373917496687938	5.2367086	2.2883856
5.391463597365729	5.1131454	2.2612264
5.40900982454232	5.127315	2.2643576
5.426556178631843	5.114497	2.2615254
5.444102660048449	5.200582	2.2804785
5.4616492692063225	5.1910663	2.2783911
5.479196006519669	5.198059	2.2799253
5.496742872402727	5.2055087	2.2815585
5.514289867269756	5.240388	2.2891893
5.531836991535049	5.2899275	2.2999842
5.549384245612924	5.290375	2.3000815
5.566931629917724	5.2190766	2.28453
5.584479144863822	5.126846	2.2642539
5.6020267908656205	5.1049047	2.2594037
5.619574568337545	5.084707	2.2549295
5.637122477694054	5.113602	2.2613275
5.654670519349629	5.1734014	2.2745113
5.672218693718784	5.226037	2.2860527
5.689767001216059	5.2165394	2.2839744
5.707315442256021	5.1726995	2.2743568
5.724864017253266	5.155875	2.2706552
5.7424127266224225	5.217932	2.2842793
5.75996157077814	5.17344	2.2745197
5.777510550135105	5.1854253	2.2771528
5.795059665108022	5.177873	2.275494
5.812608916111639	5.194174	2.279073
5.830158303560715	5.293994	2.300868
5.847707827870055	5.29364	2.3007913
5.86525748945448	5.3609796	2.315379
5.8828072887288485	5.4874797	2.342537
5.900357226108044	5.618372	2.3703105
5.917907302006979	5.725031	2.3927038
5.9354575168406	6.264055	2.5028093
5.9530078710238765	6.817815	2.6110945
5.970558364971812	7.345613	2.7102792
5.988108999099438	7.6700635	2.7694879
6.005659773821818	8.144058	2.8537796
6.023210689554039	7.8745723	2.806167
6.040761746711227	8.229579	2.8687243
6.058312945708531	7.6519885	2.7662227
6.075864286961132	7.259578	2.6943605
6.093415770884244	6.6575623	2.5802252
6.1109673978931065	6.1627207	2.4824827
6.128519168402993	5.583936	2.3630354
6.146071082829204	5.4475327	2.333995
6.163623141587075	5.318237	2.3061302
6.181175345091969	5.2448344	2.2901604
6.198727693759281	5.199127	2.2801595
6.216280188004435	5.1315517	2.265293
6.233832828242885	5.1083837	2.2601733
6.251385614890126	5.1097198	2.260469
6.268938548361669	5.079049	2.2536745
6.286491629073067	5.0503273	2.2472932
6.304044857439898	4.9958797	2.2351465
6.321598233877777	4.9737487	2.2301903
6.339151758802344	4.9500294	2.2248662
6.356705432629277	4.9613566	2.2274103
6.37425925577428	4.986092	2.232956
6.391813228653095	4.947046	2.2241955
6.409367351681486	4.9696136	2.229263
6.426921625275259	4.962027	2.2275608
6.44447604985025	5.045674	2.2462578
6.46203062582232	5.0311203	2.243016
6.47958535360737	5.0807414	2.25405
6.497140233621328	5.0266833	2.2420266
6.514695266280161	5.0107718	2.2384753
6.532250451999859	4.998547	2.235743
6.549805791196454	4.9546885	2.225913
6.567361284286002	5.011004	2.2385273
6.584916931684597	5.019943	2.240523
6.602472733808367	5.057969	2.248993
6.6200286910734665	5.0618377	2.249853
6.637584803896092	5.0442286	2.245936
6.655141072692462	5.0020165	2.2365189
6.672697497878842	5.0039577	2.2369528
6.690254079871514	4.9558597	2.226176
6.707810819086808	5.020386	2.2406218
6.725367715941078	5.0463505	2.2464085
6.742924770850719	5.0884395	2.2557569
6.760481984232151	5.0981903	2.2579172
6.778039356501836	5.060928	2.2496507
6.795596888076266	5.029043	2.2425528
6.813154579371963	5.024052	2.2414398
6.830712430805492	5.027693	2.2422516
6.84827044279344	5.0102963	2.2383692
6.865828615752445	5.0039606	2.2369535
6.883386950099159	5.0131297	2.239002
6.900945446250287	5.037402	2.2444158
6.918504104622553	5.0316644	2.2431371
6.936062925632727	5.029983	2.2427623
6.953621909697607	5.024766	2.241599
6.971181057234028	5.08006	2.2538989
6.988740368658859	5.152021	2.2698064
7.006299844389007	5.280098	2.2978463
7.023859484841407	5.357847	2.3147025
7.041419290433036	5.41456	2.3269207
7.058979261580902	5.547553	2.3553245
7.0765393987020495	5.7198753	2.3916261
7.094099702213559	6.1048956	2.4708087
7.111660172532549	6.4100337	2.5318043
7.129220810076164	6.7603016	2.600058
7.146781615261595	7.3868713	2.71788
7.16434258850606	7.604692	2.7576606
7.181903730226821	8.108287	2.8475053
7.1994650408411704	8.178697	2.859842
7.217026520766437	8.358067	2.891032
7.234588170419983	8.5766325	2.9285889
7.252149990219215	8.5152855	2.9180963
7.269711980581568	8.373545	2.8937078
7.2872741419245175	8.145658	2.85406
7.304836474665574	7.7863503	2.7904031
7.322398979222286	7.5193458	2.7421424
7.339961656012233	7.2825108	2.6986127
7.357524505453039	6.920596	2.6307025
7.375087527962357	6.6715884	2.5829418
7.392650723957886	6.361602	2.5222216
7.410214093857353	5.946311	2.438506
7.427777638078528	5.725318	2.3927636
7.445341357039213	5.531206	2.3518517
7.4629052511572525	5.4017844	2.324174
7.480469320850524	5.3485923	2.3127024
7.498033566536948	5.3249145	2.3075776
7.5155979886344735	5.3156314	2.3055654
7.5331625875610975	5.2742405	2.2965715
7.550727363734844	5.252077	2.2917411
7.568292317573788	5.2081623	2.2821398
7.585857449496025	5.1869817	2.2774947
7.603422759919705	5.166831	2.2730665
7.620988249263007	5.219914	2.284713
7.638553917944147	5.249962	2.2912796
7.656119766381391	5.2166576	2.2840004
7.673685794993023	5.1612267	2.2718334
7.691252004197388	5.1363506	2.266352
7.70881839441285	5.1694446	2.2736413
7.726384966057826	5.189917	2.2781389
7.743951719550762	5.2076283	2.282023
7.761518655310149	5.2446694	2.2901244
7.779085773754511	5.244079	2.2899954
7.796653075302419	5.2602053	2.2935138
7.814220560372475	5.2692485	2.2954843
7.831788229383323	5.289287	2.299845
7.8493560827536495	5.3187327	2.3062377
7.866924120902174	5.3425193	2.311389
7.884492344247663	5.342756	2.3114402
7.9020607532089135	5.3408923	2.311037
7.919629348204771	5.3773475	2.3189108
7.937198129654115	5.404021	2.324655
7.954767097975865	5.446175	2.3337042
7.972336253588986	5.4066114	2.3252122
7.989905596912472	5.368226	2.3169432
8.007475128365371	5.4112644	2.3262124
8.025044848366756	5.4334097	2.3309674
8.042614757335754	5.6317153	2.3731236
8.060184855691523	5.602676	2.3669972
8.07775514385327	5.751321	2.3981912
8.095325622240228	5.826532	2.413821
8.112896291271687	5.9502854	2.4393208
8.130467151366968	6.031992	2.4560113
8.148038202945436	6.0614486	2.4620008
8.165609446426497	5.992957	2.4480517
8.183180882229594	6.056316	2.4609582
8.200752510774217	6.039277	2.457494
8.218324332479893	6.038093	2.4572532
8.235896347766193	6.0153737	2.452626
8.253468557052724	6.026408	2.4548743
8.27104096075914	6.0175023	2.4530597
8.288613559305137	6.0787015	2.4655023
8.306186353110448	6.152532	2.48043
8.32375934259485	6.2667484	2.5033474
8.341332528178162	6.2960114	2.5091853
8.358905910280246	6.2567816	2.501356
8.376479489321003	6.1957607	2.4891286
8.394053265720377	6.2371187	2.4974225
8.411627239898356	6.3163786	2.5132406
8.42920141227497	6.350477	2.5200152
8.44677578327029	6.3879385	2.5274372
8.464350353304427	6.2674026	2.503478
8.48192512279754	6.210337	2.4920547
8.499500092169827	6.098841	2.4695833
8.51707526184153	6.1174736	2.4733527
8.534650632232934	6.135334	2.4769607
8.552226203764365	6.23352	2.4967017
8.569801976856192	6.2734785	2.5046914
8.587377951928834	6.3080792	2.511589
8.60495412940274	6.295601	2.5091035
8.622530509698416	6.270697	2.504136
8.6401070932364	6.3995843	2.5297399
8.657683880437283	6.526296	2.5546618
8.675260871721695	6.7161922	2.5915618
8.692838067510303	6.8795905	2.6228974
8.710415468223834	6.9626155	2.638677
8.727993074283043	7.117011	2.6677728
8.745570886108737	7.1697426	2.6776376
8.763148904121765	7.2885904	2.699739
8.78072712874302	7.3388047	2.7090228
8.798305560393441	7.478931	2.7347634
8.815884199494006	7.6083364	2.7583213
8.833463046465745	7.7371345	2.7815704
8.851042101729728	7.8693166	2.8052301
8.86862136570707	8.13708	2.8525567
8.886200838818924	8.322977	2.884957
8.903780521486505	8.455723	2.9078724
8.921360414131055	8.525715	2.9198828
8.938940517173874	8.663005	2.9432983
8.956520831036297	8.715619	2.9522228
8.97410135613971	8.990659	2.9984426
8.99168209290554	9.117212	3.0194721
9.009263041755265	9.48097	3.0791185
9.026844203110405	9.753414	3.1230457
9.044425577392525	9.94233	3.153146
9.062007165023239	9.95758	3.1555634
9.079588966424197	10.224904	3.1976404
9.097170982017108	10.296572	3.2088273
9.11475321222372	11.171155	3.3423278
9.132335657465825	11.978029	3.460929
9.149918318165264	12.0957365	3.4778926
9.167501194743924	12.5602865	3.5440495
9.18508428762374	12.234724	3.497817
9.202667597226693	12.195432	3.4921958
9.220251123974803	11.893438	3.4486864
9.237834868290143	11.656086	3.4141011
9.255418830594836	11.544525	3.3977234
9.273003011311046	11.113703	3.333722
9.290587410860985	10.959012	3.3104398
9.308172029666911	10.34271	3.2160084
9.32575686815113	10.053682	3.1707542
9.343341926735997	8.799229	2.9663494
9.360927205843916	8.569964	2.9274502
9.378512705897327	8.407043	2.89949
9.396098427318728	8.229254	2.8686676
9.413684370530664	8.244945	2.871401
9.431270535955722	8.12958	2.8512418
9.448856924016539	7.973957	2.8238196
9.466443535135806	7.8189125	2.7962317
9.484030369736251	7.775189	2.7884026
9.501617428240658	7.732424	2.7807236
9.519204711071852	7.800896	2.7930083
9.536792218652714	7.802264	2.7932534
9.55437995140617	7.8571534	2.8030615
9.571967909755191	7.841648	2.8002944
9.589556094122802	7.8137846	2.7953148
9.60714450493207	7.843298	2.8005888
9.624733142606116	7.8773327	2.8066587
9.642322007568108	7.9594307	2.8212464
9.659911100241267	8.023216	2.8325284
9.677500421048851	8.056971	2.8384802
9.695089970414175	8.0700865	2.8407898
9.712679748760609	8.100773	2.8461857
9.730269756511557	8.181066	2.8602562
9.747859994090492	8.237934	2.8701801
9.765450461920915	8.2665	2.8751523
9.78304116042639	8.219015	2.8668826
9.800632090030527	8.244401	2.8713064
9.81822325115699	8.277205	2.8770132
9.835814644229481	8.401983	2.8986175
9.853406269671762	8.444739	2.9059834
9.870998127907646	8.4223	2.9021199
9.888590219360985	8.364272	2.892105
9.906182544455698	8.369742	2.8930507
9.923775103615734	8.281748	2.8778026
9.941367897265108	8.225332	2.867984
9.958960925827878	8.178576	2.859821
9.97655418972816	8.249206	2.872143
9.994147689390106	8.31989	2.884422
10.011741425237934	8.292217	2.879621
10.029335397695904	8.246227	2.8716245
10.04692960718833	8.23792	2.8701777
10.06452405413958	8.257709	2.873623
10.082118738974064	8.205241	2.8644793
10.099713662116246	8.177354	2.8596072
10.117308823990651	8.213592	2.8659365
10.134904225021844	8.2549	2.8731341
10.152499865634445	8.25533	2.873209
10.170095746253125	8.213063	2.8658442
10.18769186730261	8.190792	2.861956
10.205288229207675	8.225394	2.8679948
10.222884832393145	8.275939	2.8767931
10.2404816772839	8.298063	2.880636
10.258078764304868	8.318172	2.8841243
10.275676093881035	8.257281	2.8735485
10.293273666437438	8.149724	2.854772
10.310871482399158	8.163966	2.8572655
10.32846954219134	8.101424	2.8463001
10.346067846239173	8.109113	2.8476503
10.363666394967908	8.07971	2.842483
10.38126518880283	8.100438	2.8461268
10.398864228169298	8.178849	2.8598688
10.416463513492713	8.23823	2.8702316
10.434063045198531	8.214177	2.8660386
10.451662823712262	8.23569	2.8697891
10.469262849459467	8.253215	2.872841
10.486863122865758	8.170249	2.8583648
10.504463644356806	8.089623	2.8442264
10.522064414358338	8.011426	2.8304462
10.539665433296118	7.962517	2.821793
10.557266701595987	7.9224544	2.8146856
10.574868219683818	7.856623	2.8029668
10.592469987985552	7.7554326	2.7848577
10.610072006927185	7.5861816	2.7543025
10.627674276934751	7.51725	2.7417605
10.64527679843435	7.3429847	2.7097943
10.662879571852143	7.225881	2.6880999
10.680482597614331	7.098856	2.664368
10.698085876147173	7.0197377	2.6494787
10.715689407876988	6.9504604	2.6363726
10.733293193230146	6.8721356	2.621476
10.750897232633072	6.768255	2.601587
10.76850152651225	6.679241	2.5844228
10.786106075294207	6.631449	2.57516
10.803710879405534	6.5064235	2.550769
10.821315939272877	6.4692297	2.543468
10.83892125532294	6.393558	2.5285487
10.856526827982472	6.2983212	2.5096457
10.874132657678285	6.230191	2.496035
10.891738744837243	6.200681	2.4901166
10.909345089886271	6.210906	2.492169
10.926951693252343	6.195612	2.4890985
10.944558555362494	6.0627565	2.4622664
10.96216567664381	5.950034	2.439269
10.979773057523436	5.8384223	2.4162827
10.997380698428573	5.7651834	2.4010797
11.014988599786477	5.710963	2.3897622
11.032596762024461	5.567247	2.3595014
11.050205185569892	5.563115	2.3586257
11.067813870850198	5.4584246	2.336327
11.085422818292859	5.4262667	2.3294349
11.10303202832541	5.339594	2.3107562
11.120641501375454	5.3310237	2.308901
11.138251237870636	5.2882757	2.2996252
11.155861238238671	5.2622004	2.2939487
11.173471502907317	5.1488204	2.2691011
11.191082032304402	5.076909	2.2531998
11.208692826857805	4.994992	2.234948
11.226303886995465	4.9727974	2.229977
11.243915213145371	4.991417	2.234148
11.261526805735578	4.948602	2.2245455
11.279138665194196	4.8290133	2.1975017
11.296750791949393	4.760223	2.1817935
11.314363186429393	4.7368813	2.1764379
11.331975849062479	4.727508	2.1742833
11.34958878027699	4.673832	2.1619048
11.36720198050133	4.5805044	2.1402113
11.384815450163948	4.488859	2.1186929
11.402429189693366	4.441548	2.107498
11.420043199518153	4.4075875	2.0994256
11.437657480066942	63.418503	7.9635735
11.455272031768422	85.103745	9.225169
11.472886855051353	107.50189	10.368312
11.490501950344528	99.15732	9.957777
11.508117318076819	84.52851	9.193939
11.52573295867715	45.908955	6.7756147
11.543348872574514	4.1631823	2.0403879
11.560965060197946	4.0928307	2.0230746
11.57858152197655	4.063787	2.0158837
11.59619825833949	4.0345297	2.0086138
11.613815269715985	4.0066953	2.0016732
11.631432556535323	38.513893	6.2059565
11.649050119226837	83.064125	9.113953
11.666667958219929	93.44813	9.666857
11.68428607394406	107.64709	10.375312
11.701904466828756	82.47034	9.081318
11.719523137303586	65.348854	8.083864
11.737142085798196	4.63429	2.1527402
11.754761312742286	3.781009	1.9444816
11.772380818565619	3.7199543	1.9287183
11.790000603698015	3.6945257	1.9221148
11.80762066856935	3.6624973	1.9137652
11.825241013609572	3.6573524	1.9124206
11.842861639248683	3.5496314	1.8840466
11.860482545916748	3.474859	1.8640974
11.878103734043883	3.439179	1.8545023
11.895725204060282	3.450574	1.8575721
11.91334695639619	3.453041	1.858236
11.930968991481919	3.429581	1.8519127
11.948591309747824	3.4250827	1.8506979
11.966213911624347	3.3987045	1.8435576
11.98383679754198	3.3562622	1.8320104
12.001459967931268	3.2989707	1.8163068
12.019083423222835	3.2521071	1.80336
12.036707163847352	3.2429519	1.8008198
12.05433119023556	3.2476213	1.8021158
12.071955502818259	3.2221746	1.7950417
12.089580102026313	3.174721	1.7817746
12.107204988290643	3.1309597	1.7694519
12.12483016204224	3.1252668	1.7678424
12.142455623712152	3.123733	1.7674086
12.16008137373149	3.1148496	1.7648937
12.177707412531431	3.0875244	1.7571353
12.19533374054321	3.0721157	1.7527452
12.212960358198126	3.0113864	1.7353346
12.230587265927545	3.0091457	1.734689
12.248214464162889	3.0315351	1.7411305
12.265841953335649	3.0293722	1.7405092
12.283469733877375	3.0025258	1.7327797
12.301097806219685	2.9682908	1.7228729
12.31872617079425	3.0038283	1.7331556
12.336354828032825	3.011786	1.7354498
12.353983778367205	3.008038	1.7343696
12.371613022229262	2.9799027	1.7262394
12.389242560050928	2.9563901	1.7194157
12.406872392264201	2.9100916	1.7058991
12.424502519301143	2.8739882	1.6952841
12.442132941593874	2.8522916	1.6888729
12.459763659574586	2.8751383	1.6956233
12.477394673675532	2.8843832	1.6983472
12.49502598432903	2.883229	1.6980073
12.51265759196746	2.8254797	1.6809163
12.530289497023267	2.794169	1.6715767
12.547921699928967	2.8002007	1.67338
12.565554201117134	2.8415344	1.6856852
12.583187001020404	2.8402514	1.6853045
12.600820100071486	2.8334186	1.6832762
12.618453498703152	2.817968	1.6786804
12.636087197348235	2.799548	1.673185
12.65372119643964	2.7750273	1.6658413
12.671355496410326	2.7484317	1.6578394
12.68899009769333	2.7866914	1.6693386
12.706625000721749	2.8252037	1.6808342
12.724260205928752	2.9090354	1.7055894
12.741895713747551	2.9655952	1.7220904
12.759531524611454	3.018387	1.7373506
12.777167638953818	3.0196686	1.7377194
12.794804057208072	2.9882498	1.7286555
12.812440779807702	3.0291734	1.740452
12.830077807186271	3.1718228	1.7809612
12.847715139777405	3.229895	1.7971909
12.865352778014795	3.4502506	1.857485
12.882990722332197	3.612404	1.9006325
12.90062897316344	3.7271454	1.9305817
12.918267530942412	3.7929852	1.9475588
12.935906396103071	3.658811	1.9128019
12.953545569079449	3.776142	1.9432298
12.971185050305628	3.6090798	1.8997579
12.988824840215775	3.6221368	1.9031912
13.006464939244115	3.6006057	1.8975263
13.024105347824943	3.46534	1.8615423
13.041746066392617	3.548622	1.8837786
13.05938709538157	3.3583183	1.8325715
13.077028435226296	3.3478894	1.8297238
13.094670086361363	3.2561362	1.8044767
13.112312049221401	3.2224984	1.7951319
13.129954324241112	3.1298637	1.769142
13.147596911855258	2.9481182	1.7170085
13.165239812498685	2.8859146	1.698798
13.182883026606293	2.8649487	1.692616
13.200526554613058	2.8195467	1.6791506
13.218170396954017	2.7542195	1.6595842
13.235814554064284	2.708646	1.6457965
13.253459026379034	2.7181456	1.64868
13.271103814333523	2.6808803	1.6373394
13.288748918363058	2.679154	1.6368121
13.306394338903031	2.6690319	1.6337172
13.32404007638889	2.6791348	1.6368062
13.341686131256164	2.7063096	1.6450865
13.359332503940449	2.6795986	1.636948
13.376979194877402	2.6589277	1.6306219
13.394626204502751	2.6979983	1.6425585
13.412273533252307	2.7209299	1.6495241
13.429921181561937	2.7048132	1.6446316
13.447569149867581	2.6597528	1.6308749
13.465217438605247	2.67384	1.6351881
13.482866048211022	2.6572645	1.6301118
13.500514979121052	2.7268274	1.6513108
13.518164231771568	2.7199192	1.6492177
13.535813806598844	2.7370603	1.6544063
13.553463704039254	2.683706	1.6382021
13.571113924529229	2.6745627	1.635409
13.588764468505275	2.6957967	1.6418881
13.606415336403956	2.7341774	1.6535348
13.624066528661917	2.7377138	1.6546038
13.641718045715882	2.815544	1.6779583
13.659369888002635	2.865234	1.6927001
13.67702205595903	2.9203486	1.7089027
13.694674550021993	3.0142577	1.7361617
13.712327370628532	3.0691097	1.7518874
13.729980518215713	3.174155	1.7816159
13.747633993220681	3.2259042	1.7960802
13.765287796080647	3.2536218	1.8037798
13.7829419272329	3.2751462	1.8097365
13.800596387114801	3.2736022	1.8093098
13.818251176163775	3.318182	1.8215878
13.835906294817324	3.3798285	1.838431
13.853561743513023	3.4498806	1.8573854
13.871217522688525	3.5508523	1.8843706
13.888873632781538	3.5375905	1.8808483
13.906530074229858	3.562814	1.8875418
13.92418684747135	3.528744	1.8784951
13.941843952943948	3.5382607	1.8810265
13.959501391085665	3.4857645	1.8670202
13.977159162334578	3.419691	1.8492407
13.994817267128846	3.3654337	1.8345119
14.012475705906693	3.2553332	1.8042542
14.030134479106424	3.1625476	1.7783554
14.047793587166414	3.079446	1.754835
14.065453030525108	3.0555284	1.7480069
14.083112809621026	3.0328496	1.7415079
14.100772924892766	3.0055866	1.7336627
14.118433376778997	2.9623709	1.721154
14.136094165718458	2.8870187	1.6991229
14.153755292149969	2.8065953	1.6752896
14.171416756512416	2.7494009	1.6581317
14.189078559244768	2.693276	1.6411203
14.20674070078606	2.633182	1.6227082
14.224403181575408	2.5954788	1.6110489
14.242066002051999	2.5538034	1.5980624
14.259729162655093	2.5200408	1.5874636
14.277392663824022	2.4645422	1.5698861
14.295056505998208	2.4328449	1.559758
14.312720689617128	2.413467	1.5535337
14.330385215120348	2.4256446	1.5574481
14.348050082947497	2.3979142	1.54852
14.3657152935383	2.3733037	1.5405531
14.383380847332528	2.3827152	1.5436046
14.401046744770051	2.4009442	1.5494981
14.418712986290798	2.4281566	1.5582544
14.436379572334793	2.375211	1.5411719
14.454046503342123	2.340648	1.5299176
14.471713779752946	2.356374	1.5350485
14.489381402007504	2.3851314	1.5443871
14.507049370546113	2.4025528	1.550017
14.524717685809168	2.376914	1.5417243
14.542386348237134	2.361655	1.5367677
14.560055358270553	2.3632424	1.5372841
14.577724716350051	2.3702054	1.5395471
14.595394422916325	2.4115772	1.5529253
14.61306447841015	2.4184945	1.555151
14.63073488327237	2.4732375	1.572653
14.648405637943917	2.5095937	1.5841697
14.6660767428658	2.561008	1.600315
14.683748198479094	2.535266	1.5922519
14.701420005224954	2.554233	1.5981969
14.719092163544628	2.5857103	1.6080143
14.73676467387942	2.6460629	1.6266723
14.754437536670727	2.6554167	1.629545
14.772110752360014	2.6546361	1.6293054
14.78978432138882	2.6260295	1.6205028
14.807458244198777	2.6419473	1.6254067
14.82513252123159	2.6409616	1.6251036
14.842807152929028	2.708573	1.6457744
14.860482139732962	2.7260911	1.6510879
14.87815748208531	2.722402	1.6499703
14.8958331804281	2.6935813	1.6412134
14.91350923520342	2.648361	1.6273786
14.931185646853438	2.648851	1.627529
14.948862415820408	2.6347084	1.6231785
14.966539542546656	2.6542501	1.629187
14.98421702747459	2.6383452	1.6242983
15.001894871046696	2.635054	1.6232849
15.019573073705542	2.6730382	1.6349429
15.037251635893766	2.6540997	1.6291407
15.054930558054092	2.6941051	1.6413729
15.072609840629323	2.730525	1.65243
15.090289484062351	2.899041	1.702657
15.107969488796124	3.203621	1.7898662
15.125649855273691	3.6045902	1.8985758
15.14333058393817	4.1349173	2.0334496
15.161011675232768	5.15576	2.27063
15.17869312960076	6.55847	2.560951
15.196374947485506	8.367255	2.8926208
15.214057129330447	11.337289	3.367089
15.231739675579114	15.859868	3.982445
15.249422586675102	20.670616	4.546495
15.267105863062092	23.692902	4.8675356
15.284789505183847	23.877932	4.886505
15.302473513484218	21.66761	4.654848
15.320157888407127	18.110151	4.2556024
15.337842630396578	14.052948	3.7487261
15.355527739896656	10.97167	3.3123512
15.37321321735153	8.592628	2.9313183
15.39089906320545	6.337222	2.517384
15.408585277902748	4.7922363	2.1891177
15.42627186188783	3.7280853	1.930825
15.443958815605198	3.2091658	1.7914145
15.461646139499424	2.9253957	1.7103788
15.479333834015168	2.7816207	1.6678191
15.497021899597165	2.712662	1.647016
15.514710336690234	2.6933722	1.6411496
15.53239914573928	2.6552005	1.6294786
15.550088327189297	2.5699995	1.6031218
15.567777881485336	2.5287247	1.5901964
15.58546780907256	2.4769225	1.5738242
15.6031581103962	2.4653986	1.5701587
15.620848785901568	2.464729	1.5699456
15.638539836034063	2.4668329	1.5706154
15.656231261239173	2.439568	1.5619117
15.673923061962451	2.3805428	1.5429008
15.691615238649552	2.348339	1.5324291
15.709307791746202	2.3791215	1.5424402
15.727000721698221	2.4450324	1.5636599
15.744694028951498	2.4657803	1.5702803
15.76238771395202	2.451247	1.5656458
15.780081777145844	2.416724	1.5545816
15.797776218979125	2.3765109	1.5415936
15.815471039898094	2.3733966	1.5405833
15.833166240349064	2.3885818	1.5455037
15.850861820778437	2.4052339	1.5508816
15.868557781632699	2.4032571	1.5502442
15.886254123358412	2.369236	1.5392323
15.903950846402232	2.345027	1.5313481
15.921647951210897	2.334568	1.5279293
15.939345438231225	2.3664296	1.5383204
15.957043307910133	2.4016967	1.5497408
15.974741560694602	2.4690635	1.5713254
15.992440197031714	2.4866204	1.5769022
16.01013921736862	2.4350152	1.5604535
16.02783862215259	2.3751347	1.5411472
16.045538411830933	2.355981	1.5349206
16.06323858685107	2.3715785	1.539993
16.080939147660512	2.3918748	1.5465688
16.09864009470684	2.3875282	1.5451628
16.11634142843774	2.3861864	1.5447285
16.134043149300954	2.3649216	1.5378301
16.15174525774433	2.3626819	1.5371017
16.169447754215817	2.3599215	1.5362036
16.18715063916342	2.3641791	1.5375887
16.204853913035244	2.3809676	1.5430385
16.222557576279478	2.4002078	1.5492604
16.240261629344403	22.37317	4.7300286
16.257966072678386	42.93549	6.552518
16.275670906729868	38.071815	6.170236
16.293376131947387	2.5422318	1.5944377
16.31108174877957	2.551624	1.5973804
16.328787757675133	2.5474284	1.5960665
16.34649415908287	2.518498	1.5869776
16.364200953451657	2.5575054	1.5992203
16.38190814123048	2.5823238	1.606961
16.39961572286839	2.6053684	1.6141154
16.41732369881455	2.6178434	1.6179751
16.43503206951817	2.6294386	1.6215544
16.45274083542859	2.6684194	1.6335298
16.47044999699522	2.7367296	1.6543064
16.488159554667558	2.7908719	1.6705903
16.505869508895184	2.85983	1.6911032
16.523579860127786	2.884575	1.6984036
16.541290608815117	2.9507103	1.7177632
16.559001755407035	2.9693573	1.7231823
16.57671330035348	3.0288892	1.7403704
16.59442524410448	3.0653687	1.7508194
16.61213758711015	3.12099	1.7666324
16.629850329820705	3.1602407	1.7777066
16.647563472686436	3.2620282	1.8061086
16.665277016157724	3.326591	1.8238945
16.682990960685053	3.3758469	1.8373477
16.70070530671898	3.4224658	1.8499907
16.718420054710155	3.4786446	1.8651125
16.736135205109335	3.583743	1.8930777
16.753850758367335	3.6163344	1.9016663
16.771566714935087	3.6685827	1.9153545
16.789283075263597	3.6704128	1.9158322
16.80699983980398	3.7524936	1.9371355
16.82471700900741	3.8028255	1.9500835
16.84243458332518	3.9107354	1.9775579
16.860152563208665	3.9442198	1.986006
16.87787094910932	3.9713225	1.9928178
16.89558974147871	4.022143	2.005528
16.913308940768466	4.1216702	2.0301898
16.931028547430333	4.1959906	2.0484116
16.94874856191613	4.195584	2.0483124
16.966468984677785	4.2548213	2.0627217
16.98418981616729	4.3082447	2.0756311
17.00191105683676	4.384089	2.0938215
17.019632707138374	4.4406476	2.1072843
17.03735476752442	4.519248	2.1258523
17.05507723844728	4.5315194	2.1287365
17.072800120359403	4.5708623	2.1379576
17.090523413713353	4.583178	2.1408358
17.108247118961785	4.6206083	2.14956
17.125971236557437	4.6072497	2.1464505
17.143695766953133	4.6339006	2.1526496
17.161420710601806	4.6522517	2.1569078
17.179146067956477	4.7000246	2.167954
17.19687183947025	4.6967635	2.1672018
17.21459802559634	4.708546	2.1699185
17.232324626788028	4.712583	2.1708484
17.25005164349871	4.7059464	2.1693194
17.267779076181863	4.631435	2.152077
17.285506925291074	4.610292	2.147159
17.30323519127999	4.624981	2.1505768
17.320963874602384	4.637252	2.1534278
17.33869297571211	4.5982103	2.1443439
17.356422495063114	4.6030855	2.1454802
17.37415243310944	4.5479646	2.1325958
17.391882790305218	4.512643	2.124298
17.40961356710468	4.4609995	2.1121078
17.42734476396215	4.4584455	2.1115031
17.445076381332044	4.4634967	2.1126988
17.462808419668868	4.522215	2.12655
17.48054087942723	4.6307516	2.1519182
17.498273761061835	4.9709163	2.2295551
17.51600706502747	5.505793	2.3464427
17.533740791779024	6.232129	2.4964232
17.551474941771485	7.582465	2.7536275
17.56920951545993	8.686286	2.9472506
17.586944513299528	10.839248	3.2923012
17.60467993574556	12.398605	3.5211654
17.622415783253373	13.956908	3.7358947
17.64015205627843	15.190601	3.8975122
17.657888755276293	16.207214	4.0258183
17.675625880702604	16.61511	4.076164
17.69336343301311	16.40106	4.0498223
17.71110141266366	15.659354	3.9571903
17.728839820110178	14.809538	3.8483162
17.746578655808705	14.120353	3.7577057
17.764317920215372	12.859362	3.5859952
17.7820576137864	11.524102	3.3947167
17.79979773697811	9.569688	3.0934913
17.81753829024692	7.6772947	2.7707932
17.835279274049356	5.9389815	2.4370027
17.85302068884201	4.8325863	2.1983144
17.870762535081607	4.1454177	2.0360298
17.888504813224934	3.866984	1.9664649
17.90624752372891	3.7245576	1.9299113
17.923990667050536	3.6703715	1.9158213
17.941734243646895	3.5643592	1.887951
17.959478253975185	3.4966073	1.8699217
17.9772226984927	3.461293	1.860455
17.994967577656833	3.4324229	1.85268
18.01271289192506	3.402388	1.8445563
18.030458641754965	3.3792458	1.8382725
18.04820482760425	3.3571377	1.8322494
18.06595144993067	3.304684	1.817879
18.083698509192125	3.2915802	1.8142712
18.101446005846576	3.2994199	1.8164306
18.119193940352105	3.25542	1.8042783
18.136942313166887	3.1857734	1.7848735
18.1546911247492	3.1466799	1.7738883
18.1724403755574	3.1130588	1.7643863
18.19019006604997	3.0961795	1.7595963
18.207940196685467	3.0773263	1.754231
18.225690767922575	3.072772	1.7529324
18.243441780220046	3.098714	1.7603165
18.261193234036764	3.1110234	1.7638093
18.278945129831676	3.0592563	1.749073
18.29669746806386	3.0042615	1.7332805
18.314450249192483	2.9902165	1.7292242
18.3322034736768	2.9725018	1.7240945
18.349957141976184	3.0027514	1.7328448
18.3677112545501	2.9989576	1.7317499
18.385465811858108	3.0426357	1.7443153
18.403220814359884	3.0574179	1.7485473
18.420976262515172	3.1032004	1.7615904
18.43873215678387	3.1437364	1.7730585
18.456488497625923	3.1571162	1.7768276
18.474245285501407	3.1962175	1.7877969
18.492002520870486	3.2623057	1.8061854
18.50976020419343	3.331307	1.8251868
18.527518335930615	3.6381667	1.9073979
18.545276916542516	4.1884055	2.0465593
18.563035946489688	4.373618	2.0913198
18.580795426232832	4.824531	2.1964815
18.598555356232698	4.7419596	2.1776042
18.616315736950185	5.0516157	2.24758
18.63407656884626	4.6324997	2.1523242
18.65183785238201	4.8270483	2.1970544
18.669599588018617	4.660917	2.1589158
18.68736177621737	4.6683335	2.1606326
18.705124417439652	4.636436	2.1532385
18.72288751214696	4.4384146	2.1067545
18.740651060800886	4.639522	2.153955
18.758415063863115	4.3885145	2.0948782
18.77617952179546	4.560623	2.1355615
18.793944435059814	4.2733216	2.0672014
18.811709804118184	4.250858	2.061761
18.829475629432675	4.2359633	2.0581455
18.8472419114655	4.010935	2.0027318
18.86500865067897	4.103275	2.025654
18.88277584753551	3.7749302	1.942918
18.90054350249763	3.8153675	1.9532965
18.918311616027957	3.4917357	1.8686186
18.936080188589226	3.3812406	1.838815
18.953849220644265	3.0643172	1.7505192
18.971618712656007	2.8846865	1.6984365
18.9893886650875	2.8154929	1.677943
19.007159078401887	8.005791	2.8294506
19.024929953062408	32.88162	5.7342496
19.042701289532435	32.84944	5.7314434
19.060473088275405	25.42339	5.042161
19.07824534975489	2.6941707	1.641393
19.096018074434568	2.6458647	1.6266115
19.113791262778197	2.5767417	1.6052233
19.13156491524966	2.5531635	1.5978621
19.149339032312945	2.536848	1.5927486
19.167113614432136	2.499615	1.581017
19.184888662071433	2.5085893	1.5838526
19.202664175695123	2.5180316	1.5868307
19.220440155767623	2.52021	1.5875169
19.238216602753447	2.5281847	1.5900266
19.2559935171172	2.5340362	1.5918657
19.27377089932361	2.550616	1.5970649
19.291548749837514	2.543992	1.5949897
19.309327069123835	2.543359	1.5947912
19.32710585764763	2.5142226	1.58563
19.344885115874032	2.5116692	1.5848247
19.362664844268313	2.475926	1.5735075
19.380445043295822	2.459137	1.5681635
19.39822571342203	2.4862654	1.5767896
19.41600685511252	2.5148854	1.585839
19.43378846883297	2.536147	1.5925286
19.451570555049173	2.5271208	1.589692
19.469353114227037	2.5209136	1.5877385
19.48713614683254	2.5237942	1.5886453
19.50491965333182	2.480464	1.5749489
19.52270363419109	2.4417605	1.5626134
19.540488089876686	2.4457684	1.5638952
19.55827302085503	2.4654667	1.5701805
19.576058427592674	2.477563	1.5740277
19.593844310556282	2.4710445	1.5719557
19.611630670212598	2.4708366	1.5718895
19.629417507028506	2.473378	1.5726976
19.64720482147098	2.4929702	1.5789143
19.6649926140071	2.51294	1.5852255
19.682780885104084	2.5030298	1.5820967
19.70056963522921	2.4804568	1.5749466
19.718358864849908	2.4645696	1.5698948
19.7361485744337	2.4678636	1.5709435
19.753938764448215	2.4854028	1.576516
19.771729435361202	2.5001867	1.5811979
19.789520587640506	2.5489385	1.5965395
19.807312221754092	2.5621428	1.6006695
19.825104338170043	2.533009	1.591543
19.842896937356517	2.517034	1.5865164
19.860690019781824	2.5310938	1.5909412
19.87848358591436	2.5200531	1.5874676
19.896277636222635	2.4902203	1.5780432
19.914072171175278	2.484249	1.5761501
19.931867191241015	2.4942665	1.5793247
19.94966269688869	2.5020497	1.5817869
19.967458688587264	2.5354168	1.5922992
19.985255166805807	2.5194764	1.5872859
20.00305213201348	2.4724734	1.5724101
20.020849584679578	2.432995	1.5598061
20.038647525273507	2.4568255	1.5674264
20.05644595426477	2.4662411	1.5704271
20.07424487212299	2.4091368	1.5521394
20.092044279317903	2.383559	1.543878
20.109844176319353	2.3848314	1.54429
20.127644563597304	2.4085476	1.5519496
20.145445441621817	2.3883817	1.545439
20.16324681086307	2.356079	1.5349525
20.181048671791373	2.3793204	1.5425045
20.198851024877122	2.4123383	1.5531704
20.216653870590836	2.4026244	1.5500401
20.234457209403146	2.3877785	1.5452439
20.252261041784802	2.3706648	1.5396963
20.270065368206662	2.3873315	1.5450991
20.287870189139685	2.387981	1.5453093
20.305675505054968	2.4008079	1.5494541
20.323481316423702	2.3970342	1.5482358
20.341287623717207	2.3777106	1.5419827
20.359094427406884	2.3584905	1.5357378
20.376901727964288	2.3225627	1.5239956
20.39470952586107	2.3324685	1.5272422
20.41251782156899	2.314111	1.5212202
20.430326615559935	2.2871263	1.5123248
20.448135908305886	2.2770352	1.5089848
20.465945700278965	2.3101842	1.519929
20.483755991951384	2.3211641	1.5235367
20.50156678379548	2.2980363	1.5159276
20.519378076283708	2.2833729	1.5110834
20.537189869888635	2.2889154	1.5129162
20.55500216508294	2.3202057	1.5232221
20.572814962339415	2.3268888	1.5254143
20.59062826213098	2.323653	1.5243533
20.60844206493066	2.3156812	1.5217363
20.626256371211593	2.3225696	1.5239979
20.644071181447032	2.2976556	1.5158019
20.66188649611036	2.3175142	1.5223384
20.67970231567506	2.317706	1.5224015
20.697518640614742	2.3159559	1.5218265
20.715335471403122	2.2972462	1.515667
20.73315280851404	2.3072124	1.518951
20.750970652421447	2.3029532	1.5175484
20.768789003599412	2.2756748	1.508534
20.786607862522136	2.252889	1.5009626
20.8044272296639	2.2582922	1.5027615
20.82224710549913	2.263737	1.504572
20.84006749050237	2.2622101	1.5040646
20.857888385148268	3.8153229	1.9532851
20.8757097899116	45.911556	6.775807
20.893531705267254	64.78873	8.049145
20.911354131690224	83.80912	9.154732
20.92917706965566	69.03745	8.308878
20.94700051963877	50.065598	7.0757046
20.96482448211493	29.301376	5.4130745
20.982648957559622	4.0718827	2.0178907
21.00047394644843	2.2300923	1.4933493
21.01829944925707	2.2523968	1.5007987
21.036125466461375	2.2295995	1.4931843
21.053951998537297	2.2217283	1.4905463
21.071779045960906	2.235233	1.4950696
21.089606609208378	2.252029	1.5006762
21.10743468875603	2.2312331	1.4937313
21.12526328508028	2.2205925	1.4901652
21.143092398657675	2.1978354	1.4825099
21.16092202996488	2.1756349	1.4750034
21.17875217947867	2.1675813	1.4722708
21.19658284767596	2.194343	1.4813315
21.21441403503377	2.2198887	1.4899291
21.232245742029225	2.2012746	1.4836693
21.2500779691396	2.1633673	1.470839
21.26791071684227	2.1385438	1.4623761
21.28574398561475	2.1468902	1.465227
21.30357777593465	2.1560514	1.4683499
21.321412088279704	2.1749814	1.4747818
21.339246923127792	2.1714075	1.4735696
21.357082280956888	2.137578	1.4620458
21.3749181622451	2.1107264	1.4528339
21.392754567470647	2.102512	1.4500041
21.41059149711187	2.1247382	1.4576482
21.42842895164726	2.1388855	1.462493
21.446266931555378	2.1584704	1.4691733
21.464105437314945	2.1319697	1.4601266
21.481944469404798	2.1167872	1.4549183
21.49978402830388	2.1074266	1.4516978
21.51762411449127	2.1049018	1.450828
21.53546472844617	2.100858	1.4494337
21.553305870647876	2.122302	1.4568123
21.571147541575865	2.1442785	1.4643356
21.58898974170967	2.1176257	1.4552064
21.60683247152899	2.0800474	1.4422369
21.62467573151363	2.057308	1.4343319
21.642519522143523	2.0745106	1.4403161
21.660363843898722	2.0597546	1.4351845
21.6782086972594	2.0677722	1.437975
21.696054082705864	2.0255933	1.4232334
21.713900000718535	2.0091305	1.417438
21.73174645177795	1.9878607	1.4099151
21.749593436364794	2.0187228	1.4208176
21.767440954959845	2.037059	1.4272557
21.785289008044032	2.0255961	1.4232343
21.803137596098388	2.0056038	1.4161934
21.820986719604086	2.0297387	1.4246889
21.838836379042412	2.0257285	1.4232808
21.85668657489478	2.0084054	1.4171822
21.87453730764273	1.9747577	1.4052607
21.892388577767914	1.985644	1.4091288
21.91024038575213	1.9935676	1.4119375
21.928092732077285	2.0306075	1.4249939
21.945945617225426	2.0574305	1.4343746
21.963799041678694	2.078088	1.4415575
21.981653005919398	31.369148	5.6008167
21.999507510429943	78.15813	8.840709
22.01736255569286	73.10554	8.550178
22.035218142190818	4.235198	2.0579596
22.05307427040661	2.058225	1.4346515
22.07093094082315	2.0220675	1.4219942
22.088788153923474	2.0072415	1.4167715
22.106645910190746	2.0045078	1.4158064
22.12450421010827	2.0212324	1.4217005
22.142363054159464	1.9959309	1.4127742
22.16022244282787	1.9580668	1.3993094
22.178082376597164	1.9417385	1.3934628
22.195942855951145	1.9363302	1.3915209
22.213803881373742	1.9830524	1.408209
22.231665453349002	2.0022545	1.4150105
22.24952757236111	2.0111787	1.4181603
22.26739023889438	2.0047061	1.4158765
22.28525345343323	1.9954308	1.4125972
22.30311721646225	1.9761215	1.4057459
22.320981528466113	1.9826788	1.4080763
22.33884638992964	2.0025716	1.4151225
22.356711801337788	2.021621	1.4218372
22.37457776317561	2.0058594	1.4162836
22.392444275928337	1.9677931	1.4027805
22.410311340081282	1.9609556	1.4003413
22.428178956119904	1.9541109	1.3978951
22.446047124529805	1.9474223	1.3955008
22.46391584579669	1.936673	1.391644
22.481785120406414	1.9290749	1.3889114
22.49965494884496	1.9295305	1.3890754
22.51752533159841	1.9902526	1.4107631
22.53539626915302	2.0117638	1.4183666
22.553267761995137	2.016986	1.4202063
22.571139810611264	1.9964114	1.4129442
22.589012415488025	2.0001795	1.4142771
22.60688557711216	1.9594538	1.399805
22.624759295970566	1.9727899	1.4045604
22.642633572550263	1.9693769	1.4033449
22.660508407338362	1.9748008	1.4052761
22.67838380082217	1.9807854	1.4074038
22.696259753489077	1.9664807	1.4023126
22.714136265826614	1.9444065	1.3944198
22.73201333832246	1.9357564	1.3913146
22.74989097146439	1.9039096	1.3798223
22.76776916574035	1.8981435	1.3777313
22.785647921638393	1.8983788	1.3778167
22.803527239646712	1.9223745	1.3864973
22.82140712025363	1.9373647	1.3918924
22.839287563947593	1.9395077	1.392662
22.85716857121719	1.9237775	1.3870031
22.875050142551135	1.908479	1.3814771
22.892932278438277	1.9056498	1.3804528
22.910814979367604	1.8964324	1.3771101
22.928698245828222	1.9058026	1.3805081
22.946582078309387	1.8989608	1.3780279
22.96446647730047	1.8872254	1.3737632
22.98235144329098	1.8786826	1.3706504
23.000236976770562	1.8500185	1.3601538
23.018123078229	1.8307153	1.3530393
23.03600974815619	1.8705233	1.3676708
23.053896987042194	1.9101682	1.3820883
23.071784795377173	1.9416946	1.393447
23.08967317365145	1.9440529	1.394293
23.10756212235546	1.9081217	1.3813478
23.125451641979787	1.9053707	1.3803517
23.143341733015134	1.947204	1.3954225
23.161232395952357	1.962537	1.4009058
23.179123631282426	1.9517584	1.3970535
23.197015439496468	1.9540672	1.3978796
23.214907821085717	1.944026	1.3942833
23.23280077654157	1.9331887	1.3903916
23.250694306355538	1.9115683	1.3825948
23.268588411019277	1.8930914	1.3758966
23.28648309102458	1.8989694	1.378031
23.304378346863356	1.9084127	1.3814532
23.322274179027676	1.9445484	1.3944707
23.340170588009723	1.940001	1.3928392
23.358067574301852	1.9259018	1.3877686
23.37596513839651	1.8847982	1.3728795
23.39386328078629	1.916851	1.3845038
23.411762001963947	1.8729042	1.3685409
23.429661302422353	1.8921567	1.3755568
23.4475611826545	1.900156	1.3784615
23.46546164315356	1.9238691	1.3870361
23.48336268441279	1.9079549	1.3812875
23.501264306925638	1.8971714	1.3773785
23.51916651118564	1.8974371	1.3774749
23.537069297686497	1.9070174	1.380948
23.554972666922037	1.9232221	1.3868028
23.57287661938623	1.9511441	1.3968335
23.59078115557318	1.9411886	1.3932655
23.608686275977128	1.9884259	1.4101156
23.62659198109246	1.9966873	1.4130418
23.6444982714137	1.9513923	1.3969225
23.66240514743549	1.8954618	1.3767577
23.68031260965263	1.8925593	1.3757032
23.698220658560068	1.9154466	1.3839966
23.716129294652845	1.8762093	1.3697479
23.7340385184262	1.8454529	1.3584745
23.75194833037546	1.834716	1.3545169
23.769858730996123	1.8398947	1.3564272
23.78776972078382	1.8506159	1.3603734
23.80568130023431	1.8763205	1.3697885
23.823593469843495	1.9038731	1.379809
23.841506230107424	1.9328038	1.3902531
23.859419581522275	1.9186193	1.3851423
23.87733352458438	1.9160883	1.3842285
23.89524805979019	1.8851448	1.3730057
23.913163187636318	1.8990197	1.3780493
23.931078908619508	1.9156933	1.3840858
23.948995223236633	1.9735409	1.4048277
23.966912131984735	1.9992969	1.413965
23.98482963536096	2.0298336	1.4247223
24.002747733862616	2.036686	1.4271251
24.020666427987155	2.027703	1.4239744
24.038585718232156	2.0760627	1.4408548
24.056505605095353	2.0482879	1.431184
24.074426089074617	2.0250404	1.4230391
24.092347170667946	2.0007486	1.4144782
24.110268850373515	2.031906	1.4254494
24.128191128689586	2.074189	1.4402045
24.146114006114626	2.080061	1.4422417
24.164037483147187	2.0217295	1.4218754
24.181961560286005	2.0244427	1.4228292
24.199886238029926	2.0170956	1.4202449
24.21781151687797	2.0157695	1.419778
24.235737397329274	2.0786586	1.4417554
24.253663879883135	2.0755396	1.4406734
24.271590965038975	2.0352273	1.4266139
24.289518653296376	2.0261505	1.4234291
24.30744694515505	2.0451505	1.4300876
24.32537584111486	2.0725563	1.4396375
24.34330534167581	2.0493913	1.4315695
24.361235447338046	2.0408514	1.4285837
24.379166158601876	2.0275278	1.4239129
24.39709747596772	2.0139318	1.4191307
24.41502939993615	2.0196908	1.4211582
24.432961931007917	1.998357	1.4136326
24.450895069683856	1.9666734	1.4023813
24.468828816465	1.956802	1.3988574
24.4867631718525	1.982806	1.4081215
24.504698136347656	1.9894819	1.4104899
24.52263371045192	1.9274395	1.3883225
24.540569894666874	1.9210038	1.3860028
24.558506689494266	1.9327182	1.3902223
24.57644409543597	1.9407412	1.3931049
24.594382112994012	1.9159778	1.3841885
24.61232074267057	1.8923465	1.3756258
24.630259984967953	1.9086683	1.3815457
24.64819984038863	1.9068266	1.3808789
24.66614030943522	1.9627553	1.4009837
24.684081392610462	1.9696642	1.4034473
24.702023090417274	1.9999709	1.4142033
24.7199654033587	2.023583	1.422527
24.737908331937927	2.0101388	1.4177936
24.755851876658305	2.0149255	1.4194807
24.773796038023324	2.065408	1.4371527
24.79174081653661	2.1408138	1.463152
24.809686212701962	2.1657877	1.4716616
24.827632227023294	2.1629531	1.4706982
24.8455788600047	2.0972254	1.4481801
24.8635261121504	2.0620186	1.435973
24.88147398396475	2.0764053	1.4409738
24.899422475952303	2.1049979	1.4508611
24.917371588617698	2.1480503	1.4656228
24.935321322465768	2.2113461	1.4870596
24.953271678001478	2.2917118	1.5138401
24.97122265572994	2.4640088	1.5697161
24.989174256156414	2.7789283	1.6670117
25.00712647978632	3.2124448	1.7923294
25.02507932712521	3.7367876	1.9330772
25.043032798678798	4.2699313	2.0663812
25.060986894952933	4.8909926	2.2115588
25.078941616453637	5.572123	2.3605344
25.096896963687055	6.3665915	2.5232105
25.114852937159508	7.5248303	2.7431424
25.132809537377444	7.9842587	2.825643
25.150766764847468	8.115895	2.848841
25.168724620076347	7.5333433	2.7446938
25.186683103570985	6.640696	2.5769548
25.204642215838426	5.52655	2.3508615
25.222601957385894	4.2123737	2.0524068
25.24056232872074	3.1901119	1.7860885
25.25852333035048	2.5968723	1.6114814
25.276484962782778	2.2656493	1.5052074
25.294447226525435	2.1137278	1.4538665
25.312410122086423	2.0366614	1.4271165
25.330373649973843	1.9363813	1.3915392
25.348337810695988	1.8598068	1.3637474
25.366302604761245	1.8610688	1.36421
25.384268032678207	1.912669	1.3829927
25.40223409495558	1.9266227	1.3880284
25.420200792102257	1.9461346	1.3950393
25.438168124627246	1.933274	1.3904222
25.45613609303974	1.924742	1.3873507
25.474104697849057	1.8953323	1.3767107
25.492073939564698	1.9046965	1.3801074
25.510043818696285	1.8822744	1.37196
25.528014335753614	1.8860309	1.3733284
25.54598549124664	1.861668	1.3644296
25.56395728568544	1.8659382	1.3659935
25.58192971958028	1.8538526	1.3615626
25.59990279344156	1.8462669	1.3587741
25.617876507779833	1.8199388	1.3490511
25.635850863105826	1.7876506	1.3370305
25.653825859930386	1.8268958	1.3516271
25.671801498764548	1.8226076	1.3500398
25.68977778011949	1.8574883	1.362897
25.707754704506524	1.8490783	1.3598082
25.725732272437153	1.8650787	1.3656788
25.743710484423012	1.9028312	1.3794315
25.761689340975888	1.9317406	1.3898708
25.77966884260774	1.9340119	1.3906876
25.797648989830662	1.8421538	1.3572596
25.815629783156922	1.8159461	1.3475704
25.83361122309895	1.8131173	1.3465204
25.85159331016929	1.8385719	1.3559395
25.869576044880695	1.8801553	1.3711876
25.887559427746034	1.8841729	1.3726518
25.90554345927836	1.890787	1.3750589
25.92352813999086	1.8735566	1.3687793
25.94151347039689	1.8501699	1.3602095
25.959499451009965	1.8546381	1.361851
25.97748608234374	1.8764286	1.369828
25.995473364912062	1.8789228	1.370738
26.013461299228904	1.8544241	1.3617724
26.03144988580839	1.8750907	1.3693395
26.04943912516483	1.8776628	1.3702784
26.067429017812675	1.8557973	1.3622766
26.085419564266537	1.8221097	1.3498554
26.103410765041186	1.7924639	1.3388293
26.12140262065155	1.7818996	1.3348781
26.139395131612723	1.7731866	1.3316106
26.157388298439948	1.8254827	1.3511043
26.17538212164861	1.8698967	1.3674417
26.193376601754295	1.8677723	1.3666646
26.211371739272714	1.8134426	1.3466412
26.229367534719746	1.8207927	1.3493675
26.247363988611433	1.8538442	1.3615595
26.26536110146397	1.8659215	1.3659874
26.283358873793727	1.8291507	1.352461
26.301357306117204	1.8322141	1.353593
26.319356398951104	1.8241	1.3505925
26.33735615281224	1.7867352	1.3366882
26.35535656821762	1.7463244	1.3214856
26.373357645684404	1.7676622	1.3295345
26.39135938572991	1.8313667	1.35328
26.409361788871614	1.8581276	1.3631315
26.427364855627165	1.8228787	1.3501402
26.445368586514352	1.8202634	1.3491714
26.46337298205115	1.8484439	1.3595749
26.48137804275568	1.8509492	1.3604959
26.499383769146217	1.8456179	1.3585352
26.517390161741215	1.8247747	1.3508422
26.53539722105928	1.7747165	1.3321849
26.553404947619182	1.7681227	1.3297077
26.571413341939856	1.786405	1.3365647
26.589422404540397	1.7811991	1.3346157
26.60743213594006	1.7739302	1.3318897
26.62544253665827	1.7986522	1.3411384
26.64345360721459	1.8049946	1.3435009
26.66146534812879	1.7826091	1.3351438
26.679477759920758	1.7955358	1.3399761
26.69749084311057	1.8077486	1.3445255
26.71550459821847	1.7866085	1.3366407
26.733519025764842	1.7323561	1.31619
26.751534126270258	1.7451209	1.3210303
26.769549900255434	1.7962439	1.3402402
26.787566348241267	1.8363888	1.3551342
26.80558347074881	1.8400745	1.3564935
26.823601268299267	1.8152968	1.3473295
26.841619741414036	1.8316461	1.3533832
26.85963889061465	1.8252047	1.3510014
26.877658716422832	1.7512642	1.3233534
26.89567921936045	1.7532247	1.3240939
26.913700399949544	1.7860494	1.3364316
26.93172225871233	1.8190372	1.3487169
26.949744796171174	1.7685785	1.3298792
26.967768012848605	1.7479043	1.3220834
26.98579190926733	1.7268862	1.3141104
27.003816485950225	1.7551385	1.3248165
27.021841743420318	1.8000927	1.3416753
27.039867682200814	1.8225352	1.350013
27.057894302815072	1.8187534	1.3486116
27.07592160578664	1.8430327	1.3575834
27.0939495916392	1.8518738	1.3608357
27.111978260896635	1.8293267	1.3525261
27.13000761408296	1.7950896	1.3398095
27.148037651722397	1.7882719	1.3372629
27.166068374339304	1.8300451	1.3527915
27.184099782458215	1.8428128	1.3575025
27.20213187660384	1.7911367	1.3383336
27.22016465730105	1.7395436	1.3189175
27.23819812507487	1.7394598	1.3188858
27.256232280450533	1.7871931	1.3368593
27.274267123953383	1.7732074	1.3316183
27.292302656108987	1.7984618	1.3410674
27.31033887744306	1.8712348	1.3679309
27.32837578848146	1.87281	1.3685064
27.34641338975026	1.8226696	1.3500628
27.364451681775673	1.8041654	1.3431922
27.382490665084074	1.7676383	1.3295256
27.400530340202046	1.7507855	1.3231725
27.41857070765629	1.7243356	1.3131396
27.436611767973726	1.7624209	1.327562
27.454653521681404	1.7811975	1.3346151
27.472695969306564	1.7795869	1.3340116
27.490739111376627	1.7502433	1.3229676
27.508782948419153	1.7670267	1.3292955
27.526827480961902	1.8032227	1.3428413
27.54487270953279	1.7837132	1.3355572
27.562918634659898	1.7738299	1.3318521
27.580965256871508	1.8011729	1.3420779
27.599012576696026	1.7806025	1.3343922
27.617060594662068	1.7355506	1.317403
27.63510931129842	1.7284956	1.3147227
27.65315872713401	1.7728715	1.3314922
27.67120884269797	1.8437142	1.3578343
27.68925965851958	1.8452165	1.3583875
27.707311175128307	1.815175	1.3472843
27.725363393053787	1.7997742	1.3415567
27.74341631282583	1.8006936	1.3418993
27.7614699349744	1.8454492	1.3584731
27.77952426002968	2.0262966	1.4234805
27.797579288521973	2.0640736	1.4366884
27.815635020981784	2.5478284	1.5961919
27.83369145793979	2.6500099	1.6278851
27.85174859992682	2.4991307	1.580864
27.869806447473923	2.2870994	1.5123159
27.887865001112267	1.980877	1.4074364
27.905924261373233	1.9280655	1.388548
27.92398422878836	1.9450749	1.3946594
27.94204490388936	1.9019387	1.379108
27.96010628720813	1.8485351	1.3596084
27.978168379276728	1.7994304	1.3414285
27.9962311806274	1.841371	1.3569713
28.014294691792568	1.8587252	1.3633507
28.0323589133048	1.8718848	1.3681685
28.050423845696887	1.8879095	1.3740122
28.068489489501758	1.9235586	1.3869241
28.086555845252523	1.89915	1.3780965
28.104622913482487	1.8624249	1.3647069
28.122690694725115	1.8169447	1.3479409
28.14075918951405	1.819387	1.3488466
28.15882839838312	1.8766239	1.3698993
28.176898321866304	1.9371477	1.3918146
28.1949689604978	1.9792731	1.4068664
28.213040314811945	1.9696631	1.4034469
28.23111238534327	1.9892656	1.4104133
28.249185172626493	1.9711597	1.4039799
28.267258677196473	1.9402038	1.392912
28.285332899588294	1.8774256	1.3701918
28.303407840337172	1.9159753	1.3841876
28.321483499978545	1.942251	1.3936466
28.33955987904799	1.9927096	1.4116337
28.357636978081285	1.9740697	1.405016
28.37571479761439	1.9431278	1.3939612
28.393793338183425	1.9232179	1.3868014
28.41187260032469	1.9328318	1.3902632
28.429952584574686	1.95952	1.3998286
28.448033291470065	1.9572527	1.3990185
28.46611472154769	1.909447	1.3818274
28.484196875344566	1.94219	1.3936248
28.502279753397914	1.9865463	1.409449
28.52036335624511	1.9882787	1.4100634
28.538447684423716	2.021465	1.4217824
28.556532738471482	2.011487	1.418269
28.574618518926325	1.9715086	1.4041042
28.59270502632635	1.9787811	1.4066916
28.61079226120985	2.0071557	1.4167413
28.628880224115274	2.0054722	1.416147
28.646968915581287	2.0149362	1.4194845
28.66505833614671	2.0178726	1.4205184
28.68314848635055	2.034643	1.4264091
28.701239366732004	2.0430493	1.4293528
28.71933097783044	2.0883923	1.4451271
28.737423320185403	2.1084673	1.4520563
28.75551639433665	2.114432	1.4541087
28.773610200824074	2.1273847	1.4585557
28.791704740187793	2.1012008	1.4495519
28.80980001296809	2.0735526	1.4399835
28.827896019705413	2.1192412	1.4557614
28.845992760940433	2.1654959	1.4715624
28.86409023721397	2.1196868	1.4559144
28.88218844906704	2.0880692	1.4450153
28.900287397040845	2.1348362	1.4611079
28.918387081676755	2.214556	1.4881384
28.936487503516343	2.253143	1.5010474
28.954588663101365	2.2580369	1.5026766
28.97269056097374	2.2400463	1.4966784
28.990793197675597	2.2520933	1.5006976
29.00889657374923	2.3811922	1.5431112
29.027000689737125	2.398953	1.5488554
29.04510554618196	2.3949575	1.547565
29.06321114362659	2.4239569	1.5569062
29.08131748261405	2.4458632	1.5639256
29.099424563687567	2.490644	1.5781775
29.11753238739057	2.538624	1.5933061
29.13564095426663	2.5775642	1.6054795
29.15375026485954	2.609854	1.6155043
29.171860319713275	2.6366231	1.6237682
29.18997111937199	2.6402378	1.6248809
29.20808266438002	2.6560614	1.6297427
29.226194955281898	2.7414896	1.6557444
29.244307992622335	2.8119433	1.676885
29.26242177694624	2.8202653	1.6793646
29.2805363087987	2.8109915	1.6766012
29.29865158872498	2.8943777	1.701287
29.316767617270557	2.9213386	1.7091924
29.334884394981064	2.9978619	1.7314335
29.353001922402367	3.0338452	1.7417936
29.37112020008047	3.0646462	1.7506131
29.389239228561596	3.1274974	1.7684731
29.407359008392152	3.3174727	1.821393
29.42547954011872	3.7374935	1.9332598
29.44360082428809	4.420208	2.1024292
29.46172286144722	5.424949	2.329152
29.479845652143283	6.839587	2.6152604
29.497969196923606	8.765763	2.9607031
29.516093496335728	11.105141	3.3324378
29.5342185509274	13.751233	3.7082655
29.55234436124651	15.97793	3.9972403
29.570470927841175	17.232151	4.1511626
29.588598251259686	17.005728	4.1238003
29.60672633205055	15.78982	3.9736407
29.624855170762405	13.773202	3.7112265
29.642984767944146	11.2229595	3.3500686
29.66111512414481	8.708187	2.9509637
29.67924623991366	6.6132603	2.571626
29.697378115800138	5.164573	2.2725697
29.71551075235387	4.1786175	2.0441668
29.733644150124675	3.6924155	1.9215659
29.751778309662576	3.4444633	1.8559265
29.769913231517766	3.4311645	1.8523402
29.78804891624066	3.4030554	1.8447372
29.806185364381818	3.3685966	1.8353736
29.82432257649206	3.3520706	1.8308661
29.842460553122333	3.3340023	1.825925
29.86059929482382	3.3267634	1.8239417
29.878738802147872	3.2578475	1.8049508
29.896879075646048	3.2287753	1.7968793
29.915020115870114	3.2421408	1.8005946
29.933161923371976	3.171963	1.7810006
29.951304498703777	3.1430144	1.7728549
29.969447842417857	3.19063	1.7862334
29.987591955066733	3.2556648	1.8043461
30.005736837203123	3.2378838	1.7994121
30.023882489379943	3.20515	1.7902932
30.04202891215028	3.2139978	1.7927626
30.060176106067455	3.2064335	1.7906517
30.078324071684946	3.2235491	1.7954245
30.09647280955646	3.1485832	1.7744248
30.114622320235863	3.068919	1.7518331
30.132772604277257	3.0193717	1.737634
30.1509236622349	2.975139	1.7248591
30.16907549466328	2.996198	1.7309529
30.18722810211705	2.9953237	1.7307004
30.205381485151097	3.009668	1.7348396
30.22353564432045	3.0353456	1.7422243
30.241690580180403	3.0387821	1.7432103
30.25984629328638	3.0005622	1.7322131
30.278002784194037	2.9714558	1.7237911
30.296160053459246	2.9945853	1.730487
30.314318101638033	2.9545367	1.7188766
30.332476929286646	2.8886964	1.6996166
30.35063653696153	2.880536	1.6972142
30.368796925219307	2.868752	1.693739
30.386958094616844	2.873667	1.6951894
30.40512004571115	2.9052534	1.7044804
30.423282779059463	2.9027963	1.7037594
30.441446295219233	2.832737	1.6830736
30.459610594748067	2.8844364	1.6983628
30.47777567820382	2.9067478	1.7049187
30.495941546144504	2.8981686	1.7024008
30.51410819912835	2.8506556	1.6883885
30.532275637713795	2.8399587	1.6852177
30.55044386245946	2.8120162	1.6769067
30.56861287392416	2.7828622	1.6681913
30.586782672666956	2.729302	1.6520599
30.604953259247047	2.7394562	1.6551303
30.623124634223885	2.7295856	1.6521457
30.641296798157075	2.661685	1.6314671
30.659469751606462	2.6639004	1.632146
30.677643495132074	2.6765964	1.6360307
30.695818029294152	2.7067566	1.6452223
30.713993354653116	2.6697578	1.6339394
30.73216947176962	2.6231203	1.619605
30.75034638120448	2.6390455	1.6245139
30.768524083518756	2.7211628	1.6495948
30.786702579273673	2.7655094	1.6629821
30.80488186903069	2.80993	1.6762846
30.82306195335144	2.9133995	1.7068683
30.841242832797782	3.1371944	1.7712127
30.85942450793176	3.4193945	1.8491604
30.877606979315637	3.7085881	1.9257694
30.895790247511883	4.0190682	2.0047615
30.913974313083134	4.4120126	2.1004791
30.932159176592283	4.6961565	2.1670618
30.95034483860237	4.7894683	2.1884854
30.968531299676698	4.5773373	2.1394713
30.98671856037873	4.2326646	2.057344
31.00490662127215	3.8153002	1.9532794
31.023095482920848	3.4301717	1.8520722
31.04128514588892	3.0452034	1.7450511
31.059475610740662	2.7570765	1.6604446
31.07766687804056	2.5237193	1.5886219
31.09585894835335	2.4840865	1.5760986
31.11405182224393	2.5049982	1.5827186
31.132245500277417	2.4857368	1.576622
31.15043998301914	2.498226	1.5805777
31.168635271034628	2.4354074	1.5605792
31.18683136488964	2.427941	1.5581852
31.20502826515008	2.4570215	1.5674889
31.223225972382135	2.4746585	1.5731047
31.241424487152155	2.4523714	1.5660049
31.259623810026692	2.4104693	1.5525686
31.27782394157253	2.4453156	1.5637505
31.296024882356644	2.4973829	1.5803111
31.314226632946237	2.477746	1.5740857
31.332429193908684	2.4392703	1.5618163
31.350632565811598	2.4132898	1.5534767
31.368836749222787	2.4357374	1.5606849
31.387041744710295	2.4787142	1.5743933
31.40524755284232	2.541808	1.5943048
31.423454174187317	2.6010897	1.6127894
31.441661609313922	2.5924072	1.6100954
31.459869858791002	2.5479305	1.5962238
31.478078923187628	2.4058757	1.5510886
31.496288803073064	2.2819483	1.5106119
31.514499499016807	2.236726	1.4955688
31.532711011588546	2.3154304	1.5216539
31.550923341358178	2.381373	1.5431697
31.56913648889584	2.3687673	1.53908
31.587350454771844	2.350003	1.532972
31.605565239556732	2.377713	1.5419835
31.62378084382127	2.399327	1.5489762
31.641997268136382	2.3949015	1.547547
31.660214513073274	2.3362448	1.5284779
31.67843257920331	2.3211718	1.5235392
31.6966514670981	2.2829502	1.5109434
31.71487117732944	2.2776144	1.5091767
31.733091710469346	2.2608664	1.5036178
31.751313067090052	2.2621417	1.5040418
31.769535247764008	2.1665	1.4719036
31.787758253063878	2.1115172	1.453106
31.805982083562526	2.1716876	1.4736646
31.824206739833024	2.2174585	1.4891133
31.84243222244869	2.203042	1.4842649
31.860658531983013	2.1876135	1.4790583
31.878885669009737	2.1980753	1.4825908
31.897113634102784	2.196803	1.4821616
31.91534242783632	2.2362173	1.4953986
31.933572050784694	2.204666	1.4848118
31.951802503522508	2.2335927	1.4945209
31.970033786624548	2.2421193	1.4973708
31.988265900665834	2.1475856	1.4654644
32.006498846221575	2.1359744	1.4614973
32.02473262386724	2.159661	1.4695785
32.04296723417845	2.2177808	1.4892216
32.0612026777311	2.188096	1.4792215
32.07943895510129	2.1811152	1.4768599
32.097676066865304	2.2141604	1.4880055
32.115914013599685	2.2178717	1.4892521
32.13415279588115	2.2397833	1.4965905
32.152392414286666	2.2998433	1.5165235
32.1706328693934	2.2705088	1.5068208
32.18887416177875	2.1892745	1.4796197
32.20711629202032	2.1381035	1.4622256
32.225359260695924	2.0660188	1.4373653
32.243603068383614	2.0649483	1.4369928
32.26184771566166	2.0966954	1.4479971
32.28009320310852	2.1129599	1.4536024
32.2983395313029	2.1265056	1.4582543
32.31658670082372	2.174336	1.474563
32.33483471225012	2.1718795	1.4737298
32.35308356616143	2.1039526	1.4505008
32.371333263137245	2.0858994	1.4442643
32.38958380375734	2.1086693	1.4521258
32.407835188601744	2.1910257	1.4802114
32.42608741825067	2.1745465	1.4746344
32.444340493284585	2.1071713	1.4516098
32.46259441428416	2.061032	1.4356295
32.48084918183028	2.0352085	1.4266074
32.49910479650405	1.9955305	1.4126325
32.51736125888683	1.9851367	1.4089488
32.53561856956014	1.951362	1.3969116
32.5538767291058	1.9732432	1.4047217
32.572135738105764	2.0863068	1.4444053
32.59039559714228	2.1395793	1.46273
32.608656306797776	2.0596666	1.4351538
32.62691786765491	1.9859719	1.4092451
32.645180280296586	1.9264	1.3879482
32.663443545305896	1.8953277	1.376709
32.68170766326619	1.8712639	1.3679415
32.69997263476099	1.9394258	1.3926327
32.7182384603741	1.9353771	1.3911784
32.7365051406895	1.9143344	1.3835948
32.75477267629144	1.9561179	1.3986129
32.77304106776434	2.0343208	1.4262962
32.79131031569289	2.0300858	1.4248108
32.809580420661966	2.0030313	1.4152849
32.827851383256714	1.988717	1.4102187
32.84612320406245	2.0308704	1.4250861
32.86439588366476	2.0595682	1.4351195
32.88266942264945	2.099681	1.4490275
32.9009438216025	2.0115798	1.4183017
32.9192190811102	1.9197388	1.3855463
32.937495201758985	1.957338	1.3990489
32.95577218413556	1.949244	1.3961533
32.974050028826866	1.978243	1.4065002
32.992328736420035	1.9478775	1.3956639
33.010608307502444	1.8884722	1.3742169
33.02888874266169	1.8575575	1.3629224
33.047170042485604	1.8412516	1.3569273
33.06545220756225	1.8187163	1.3485979
33.083735238479896	1.8040084	1.3431338
33.10201913582707	1.8418027	1.3571303
33.12030390019248	1.8087094	1.3448826
33.138589532165135	1.7414922	1.319656
33.15687603233419	1.8789667	1.370754
33.17516340128909	1.9610399	1.4003713
33.19345163961947	1.9980997	1.4135416
33.211740747915215	1.9670002	1.4024979
33.23003072676643	1.9473978	1.395492
33.248321576763466	1.9048642	1.3801682
33.266613298496885	1.8693622	1.3672463
33.28490589255747	1.7908721	1.3382347
33.30319935953626	1.8827778	1.3721435
33.32149370002451	2.031879	1.42544
33.339788914613706	2.0959442	1.4477376
33.358085003895575	1.9763788	1.4058374
33.376381968462034	1.906907	1.380908
33.39467980890529	1.9488994	1.3960298
33.41297852581774	1.9944028	1.4122332
33.43127811979204	1.9327213	1.3902235
33.44957859142105	1.9641407	1.401478
33.467879941297866	1.8774813	1.3702122
33.486182170015844	1.8633527	1.3650467
33.50448527816853	1.8522094	1.360959
33.522789266349754	1.8368351	1.3552989
33.541094135153514	1.8787072	1.3706594
33.55939988517411	1.8961688	1.3770145
33.57770651700602	1.7774705	1.3332181
33.59601403124398	1.8377401	1.3556327
33.61432242848296	2.0010734	1.414593
33.632631709318154	2.0664904	1.4375293
33.650941874344994	1.9557233	1.3984717
33.66925292415916	1.8524542	1.3610489
33.68756485935654	1.9901416	1.4107238
33.70587768053328	2.113569	1.4538119
33.724191388285746	2.0251913	1.4230921
33.74250598321054	1.9465848	1.3952006
33.760821465904506	1.9139214	1.3834455
33.77913783696474	1.9159323	1.3841721
33.79745509698852	1.8552631	1.3620805
33.815773246573414	1.8008004	1.3419391
33.8340922863172	1.8783659	1.3705349
33.852412216817896	1.8785877	1.3706158
33.87073303867377	1.8623612	1.3646835
33.889054752483304	1.8976856	1.3775651
33.907377358845245	1.9346029	1.3909
33.92570085835853	1.9182557	1.3850111
33.94402525162239	1.9701016	1.4036031
33.96235053923627	2.0715036	1.4392719
33.980676721799824	2.0137234	1.4190573
33.999003799912984	1.9604701	1.4001678
34.01733177417592	1.9291768	1.3889481
34.03566064518901	1.8341823	1.3543198
34.0539904135529	1.712903	1.3087792
34.07232107986846	1.7486725	1.3223737
34.090652644736785	1.8993323	1.3781626
34.108985108759235	1.9883705	1.4100959
34.12731847253742	1.9117807	1.3826716
34.14565273667313	1.8372402	1.3554484
34.16398790176847	1.8249236	1.3508973
34.18232396842574	1.9342723	1.3907812
34.20066093724749	2.1936715	1.4811049
34.21899880883651	2.1344569	1.460978
34.23733758379583	1.9136319	1.3833408
34.25567726272874	1.8269742	1.3516561
34.27401784623872	1.9363154	1.3915155
34.29235933492957	2.0717623	1.4393618
34.31070172940526	2.0785336	1.441712
34.32904503027003	1.9333378	1.3904452
34.347389238128386	1.7238567	1.3129573
34.36573435358502	1.7352424	1.317286
34.38408037724492	1.8712201	1.3679255
34.402427309713296	1.9083766	1.38144
34.42077515159559	1.8276284	1.3518981
34.43912390349752	1.9349147	1.3910121
34.45747356602499	2.073022	1.4397993
34.47582413978423	2.0703845	1.4388831
34.49417562538163	1.9301242	1.3892891
34.51252802342388	1.8059688	1.3438634
34.53088133451789	1.7502823	1.3229823
34.54923555927084	1.80124	1.3421028
34.567590698290104	1.855664	1.3622276
34.58594675218336	1.9221526	1.3864172
34.6043037215585	1.9817204	1.407736
34.62266160702365	1.9186065	1.3851377
34.641020409187234	1.8051002	1.3435402
34.65938012865785	1.9301717	1.3893062
34.677740766044394	2.0083556	1.4171647
34.69610232195598	1.8661247	1.3660618
34.714464797002016	1.750359	1.3230114
34.73282819179208	1.9217604	1.3862758
34.751192506936064	2.0797439	1.4421318
34.76955774304408	1.9915122	1.4112095
34.7879239007265	1.9090713	1.3816915
34.80629098059391	1.9035772	1.3797019
34.824658983257194	1.8616918	1.3644383
34.843027909327446	1.9017218	1.3790293
34.86139775941603	2.0801528	1.4422735
34.879768534134534	2.089657	1.4455646
34.89814023409483	2.0287285	1.4243344
34.91651285990901	1.9183601	1.3850487
34.93488641218944	1.9620707	1.4007393
34.95326089154871	1.9536498	1.3977302
34.97163629859967	2.0014277	1.4147183
34.99001263395542	2.0793476	1.4419943
35.00838989822934	2.0028925	1.4152359
35.02676809203499	2.0453231	1.4301479
35.04514721598624	2.0275054	1.423905
35.063527270697215	2.0394108	1.4280794
35.081908256782256	2.1182554	1.4554228
35.10029017485597	1.8482428	1.3595009
35.11867302553321	1.7585796	1.3261145
35.137056809429104	1.7978865	1.3408529
35.155441527159006	1.8525307	1.3610771
35.173827179338524	2.009921	1.4177169
35.19221376658354	2.1048853	1.4508224
35.21060128951017	2.0183947	1.4207022
35.2289897487348	2.0553706	1.4336563
35.24737914487405	2.0279117	1.4240476
35.26576947854479	2.111921	1.453245
35.28416075036418	2.0504029	1.4319228
35.30255296094958	2.0929527	1.4467041
35.32094611091867	2.003313	1.4153844
35.33934020088932	2.0579512	1.4345561
35.35773523147969	2.1797066	1.476383
35.3761312033082	2.2225184	1.4908113
35.394528116993506	2.175764	1.4750471
35.41292597315452	2.0549817	1.4335208
35.431324772410434	2.0174577	1.4203724
35.449724515380666	2.004046	1.4156433
35.46812520268491	2.0842206	1.443683
35.486526834943106	1.8778971	1.3703638
35.504929412775454	1.5532866	1.2463092
35.52333293680242	1.6424226	1.2815703
35.54173740764471	1.5663686	1.2515465
35.560142825923286	1.7073213	1.306645
35.5785491922594	2.1193683	1.4558051
35.59695650727454	1.9751906	1.4054147
35.61536477159042	0.7646945	0.87446815
