0.008763373481513119	0.0	0.0
0.026290120649546365	0.0	0.0
0.043816868432600686	0.0	0.0
0.06134361724069026	0.052548494	0.22923458
0.07887036748382949	0.07282483	0.26986074
0.0963971195720331	0.060210463	0.2453782
0.11392387391531617	0.107247524	0.32748666
0.1314506309236943	0.12521045	0.35385087
0.1489773910071836	0.11030396	0.3321204
0.16650415457580078	0.07206932	0.2684573
0.18403092203956356	0.0672693	0.25936326
0.20155769380849	0.14435375	0.37993914
0.2190844702925996	0.21192577	0.46035397
0.2366112519019124	0.26775777	0.51745313
0.2541380390464497	0.2525668	0.50256026
0.27166483213623416	0.23444265	0.4841928
0.28919163158128947	0.20976758	0.4580039
0.3067184377916406	0.18873008	0.43443075
0.324245251177314	0.19049145	0.43645325
0.34177207214833777	0.1676458	0.40944573
0.3592989011147415	0.16377367	0.4046896
0.37682573848655654	0.19015652	0.4360694
0.39435258467381573	0.22002728	0.46907067
0.41187944008655414	0.25025603	0.50025594
0.42940630513480854	0.22129409	0.47041905
0.446933180228618	0.21058097	0.45889103
0.4644600657780234	0.16814305	0.4100525
0.48198696219306775	0.15125905	0.38892037
0.49951386988379676	0.20695701	0.45492527
0.5170407892602581	0.19470711	0.44125628
0.5345677207325025	0.21075258	0.45907795
0.5520946647105822	0.1927402	0.43902186
0.5696216216045534	0.16851065	0.4105005
0.5871485918244737	0.13585955	0.3685913
0.6046755757804043	0.12987076	0.36037585
0.6222025738824094	0.14444298	0.38005653
0.6397295865405557	0.12169753	0.34885174
0.6572566141649129	0.09856965	0.31395802
0.6747836571655547	0.11532865	0.3396007
0.6923107159525568	0.12012883	0.34659606
0.7098377909359992	0.16623248	0.40771618
0.7273648825259653	0.18257785	0.4272913
0.7448919911325411	0.20274213	0.45026895
0.762419117165817	0.22997046	0.47955236
0.7799462610358868	0.23748887	0.4873283
0.7974734231528482	0.21548088	0.4641992
0.8150006039268024	0.26780176	0.5174957
0.8325278037678551	0.26257992	0.51242554
0.8500550230861152	0.28181824	0.53086555
0.8675822622916969	0.24519078	0.49516743
0.8851095217947171	0.22395939	0.47324347
0.9026368020052984	0.22704516	0.47649255
0.9201641033335665	0.24069913	0.490611
0.9376914261896523	0.252564	0.50255746
0.9552187709836915	0.25116014	0.5011588
0.9727461381258234	0.22562435	0.4749993
0.990273528026193	0.20688397	0.45484498
1.0078009410949496	0.24916361	0.4991629
1.0253283777422473	0.2596252	0.5095343
1.0428558383782454	0.32527247	0.5703266
1.0603833234131086	0.36423945	0.60352254
1.0779108332570058	0.3584808	0.59873265
1.0954383683201119	0.34035718	0.5834014
1.112965929012607	0.3305861	0.5749662
1.1304935157446763	0.4523531	0.672572
1.1480211289265108	0.52292174	0.72313327
1.1655487689683062	1.3521268	1.1628098
1.1830764362802655	1.6227506	1.2738723
1.200604131272596	1.9966731	1.4130368
1.2181318543555117	2.1724494	1.4739231
1.235659605939232	2.1482089	1.4656769
1.253187386433982	3.8245144	1.9556366
1.270715196249994	6.3284893	2.5156488
1.2882430357975057	11.959031	3.4581833
1.3057709054867608	16.714886	4.088384
1.3232988057280106	22.442879	4.7373915
1.3408267369315112	27.257772	5.2208977
1.358354699507526	30.624195	5.533913
1.3758826938663256	34.948853	5.9117556
1.3934107204181858	36.839836	6.069583
1.410938779573391	37.77074	6.1457906
1.4284668717422309	38.140095	6.175767
1.4459949973350033	37.5928	6.1312966
1.4635231567620117	37.579876	6.130243
1.4810513504335687	36.859196	6.0711775
1.4985795787599925	36.33812	6.028111
1.5161078421516088	35.84276	5.986882
1.5336361410187505	35.0868	5.9234114
1.5511644757717598	35.19471	5.9325128
1.5686928468209842	36.06669	6.0055547
1.58622125457678	36.839993	6.069596
1.6037496994495108	37.979336	6.162738
1.621278181849548	37.632217	6.1345105
1.6388067021872719	38.143124	6.176012
1.6563352608730693	37.684486	6.138769
1.673863858317336	36.909554	6.075323
1.6913924949304753	36.064396	6.005364
1.7089211711228998	34.97478	5.913948
1.7264498873050296	34.517117	5.875127
1.7439786438872935	33.623707	5.7985954
1.7615074412801288	32.429047	5.6946507
1.779036279893981	31.188747	5.5846887
1.796565160139305	30.120008	5.4881697
1.814094082426564	29.721828	5.451773
1.8316230471662298	29.152515	5.399307
1.849152054768784	28.364206	5.3258057
1.8666811056447168	27.804909	5.273036
1.8842102002045273	26.934067	5.189804
1.901739338858724	26.343319	5.132574
1.9192685220178245	25.577204	5.057391
1.9367977500923557	24.725298	4.972454
1.9543270234928547	24.11932	4.9111423
1.971856342629867	23.52944	4.8507156
1.9893857079139496	23.090477	4.805255
2.006915119755667	22.894981	4.78487
2.0244445785655945	22.312277	4.7235875
2.0419740847543175	22.11105	4.7022386
2.0595036387324317	21.695242	4.657815
2.0770332409105414	21.267467	4.6116667
2.094562891699263	20.873571	4.5687604
2.1120925915092217	20.02143	4.474531
2.129622340751053	19.596302	4.426771
2.1471521398354043	187.80391	13.704157
2.1646819891729323	444.16763	21.075285
2.182211889174303	440.4996	20.988083
2.1997418402501974	452.90738	21.28162
2.2172718428113023	432.9943	20.808516
2.234801897268317	320.9394	17.914782
2.2523320040319548	17.301252	4.159477
2.269862163512935	17.097788	4.1349473
2.287392376121992	16.405514	4.050372
2.304922642269869	16.00232	4.00029
2.322452962367322	15.719414	3.9647715
2.3399833368251164	15.454514	3.931223
2.357513766054032	15.208434	3.8997993
2.3750442504648586	14.93309	3.8643358
2.3925747904683963	14.83645	3.8518112
2.410105386475459	14.576704	3.817945
2.4276360388968707	14.186134	3.7664485
2.445166748143469	13.754636	3.7087243
2.4626975146261025	13.501689	3.6744645
2.4802283387556323	13.322588	3.650012
2.4977592209429305	13.322085	3.649943
2.5152901615988825	13.168398	3.6288288
2.5328211611343865	12.900604	3.591741
2.5503522199603523	12.632889	3.5542774
2.5678833384877024	12.438527	3.5268297
2.5854145171273712	12.333677	3.5119336
2.6029457562903064	12.061511	3.4729686
2.620477056387469	11.932116	3.4542894
2.6380084178298326	11.761389	3.4294882
2.655539841028383	11.695525	3.419872
2.673071326394119	11.425189	3.3801167
2.6906028743380523	11.215931	3.3490193
2.708134485271211	11.105659	3.3325152
2.7256661596046325	10.903409	3.302031
2.743197897749369	10.681833	3.2683074
2.760729700116486	10.275872	3.2056
2.778261567117063	10.059939	3.1717408
2.795793499162193	10.013285	3.1643775
2.8133254966629817	10.045101	3.1694007
2.830857560030551	9.933484	3.151743
2.8483896896760337	9.7332945	3.1198227
2.865921886010578	9.551108	3.0904868
2.883454149445347	9.420789	3.0693305
2.9009864803915177	9.304712	3.0503626
2.91851887926028	9.140942	3.023399
2.9360513464628384	8.982485	2.9970794
2.953583882410413	8.869849	2.9782293
2.9711164875142373	8.829279	2.9714103
2.9886491621855606	8.690867	2.9480276
3.0061819068356455	8.637357	2.9389381
3.023714721875769	8.497283	2.91501
3.041247607717225	8.324891	2.8852887
3.0587805647713213	8.226459	2.8681803
3.0763135934493806	8.202338	2.8639724
3.0938466941627407	8.1273575	2.850852
3.1113798673227544	7.9961624	2.8277485
3.1289131133407904	7.726954	2.7797399
3.1464464326282315	7.6385174	2.7637868
3.1639798255964786	7.6335735	2.7628922
3.1815132926569443	7.6286616	2.7620032
3.1990468342210603	7.5778003	2.7527804
3.216580450700272	7.350484	2.7111776
3.2341141425060416	7.2536993	2.6932693
3.251647910049847	7.2312036	2.6890898
3.2691817537431813	7.2894497	2.699898
3.286715673997555	7.2775736	2.6976979
3.3042496712244938	7.1523232	2.6743827
3.32178374583554	6.9515643	2.636582
3.339317898242251	6.901522	2.6270747
3.3568521288562034	6.8133173	2.6102333
3.3743864380889876	6.7145305	2.5912411
3.3919208263522127	6.657799	2.580271
3.4094552940575023	6.5017123	2.5498455
3.4269898416164972	6.5061803	2.5507214
3.444524469440858	6.4488564	2.53946
3.4620591779422587	6.2656493	2.5031278
3.479593967532391	6.237576	2.497514
3.4971288386229658	6.2350826	2.4970148
3.5146637916257086	6.3008194	2.5101433
3.5321988269523628	6.315641	2.513094
3.5497339450146903	6.2883363	2.5076556
3.5672691462244708	6.308936	2.5117595
3.5848044309934988	6.310327	2.5120363
3.60233979973359	6.283056	2.5066025
3.619875252856575	6.231786	2.4963546
3.6374107907743034	6.1286645	2.475614
3.6549464138986427	6.070878	2.463915
3.6724821226414788	6.0690293	2.46354
3.690017917414714	6.172641	2.48448
3.7075537986302702	6.331258	2.516199
3.7250897667000857	6.4686084	2.543346
3.7426258220361235	6.5617943	2.5616
3.7601619650503553	6.892731	2.6254013
3.777698196154779	7.321005	2.7057354
3.7952345157614067	8.350444	2.8897135
3.8127709242822716	9.026804	3.004464
3.830307422129425	11.358136	3.3701835
3.847844009714936	12.71579	3.5659206
3.8653806874508954	16.299397	4.037251
3.882917455749409	15.859678	3.9824212
3.900454315022606	15.994897	3.999362
3.917991265682631	12.908836	3.592887
3.9355283081416506	10.995685	3.3159742
3.9530654428118495	8.771331	2.9616432
3.970602670105433	7.501596	2.7389042
3.9881399904346244	6.534942	2.5563533
4.005677404211669	6.453873	2.5404475
4.023214911848827	6.426106	2.5349765
4.0407525137583855	6.518785	2.5531912
4.058290210352644	6.5813303	2.5654104
4.075828002043927	6.574696	2.564117
4.0933658892445814	6.5557613	2.5604222
4.110903872366966	6.386854	2.5272226
4.128441951823468	6.2638803	2.5027745
4.145980128026488	6.1853385	2.487034
4.163518401388452	6.2312007	2.4962373
4.181056772321807	6.2711797	2.5042324
4.1985952412390155	6.297644	2.5095108
4.216133808552567	6.2754135	2.5050776
4.233672474674966	6.3773394	2.5253394
4.251211240018741	6.5865455	2.5664265
4.268750104996445	6.80494	2.608628
4.286289070020643	7.669658	2.7694147
4.303828135503928	9.239514	3.0396569
4.3213673018589125	29.37836	5.420181
4.3389065694982305	90.59515	9.518148
4.356445938834537	165.73427	12.873782
4.3739854102805085	171.65414	13.101685
4.391524984248844	172.50493	13.134113
4.409064661152262	136.62769	11.688785
4.426604441403504	96.78279	9.837825
4.444144325415337	75.488815	8.68843
4.461684313600543	21.680807	4.6562653
4.47922440637193	22.065035	4.6973433
4.496764604142329	20.36412	4.5126624
4.5143049073245916	18.549692	4.3069353
4.531845316331589	16.395748	4.049166
4.5493858315762195	13.718796	3.7038894
4.566926453471405	11.407721	3.3775318
4.584467182430081	9.375549	3.0619519
4.602008018865218	8.057533	2.8385794
4.619548963189798	7.396285	2.7196112
4.637090015816834	6.923034	2.631166
4.654631177159353	6.754196	2.5988836
4.672172447630417	6.587621	2.566636
4.689713827643102	6.4492073	2.5395288
4.7072553176105085	6.148073	2.4795308
4.724796917945764	5.8876076	2.4264393
4.742338629062015	5.71736	2.3911002
4.759880451372434	5.7018814	2.3878613
4.777422385290215	5.723045	2.3922887
4.794964431228581	5.7160025	2.3908162
4.812506589600768	5.629068	2.3725657
4.830048860820047	5.55417	2.3567288
4.847591245299709	5.543549	2.3544743
4.8651337434530655	5.652887	2.37758
4.882676355693457	5.6934476	2.3860946
4.900219082434242	5.7039833	2.3883014
4.917761924088813	5.607015	2.3679137
4.935304881070575	5.5237494	2.3502657
4.952847953792969	5.5467753	2.3551593
4.970391142669449	5.557608	2.3574579
4.9879344481135055	5.556295	2.3571794
5.005477870538642	5.4376287	2.3318725
5.023021410358394	5.3773365	2.3189085
5.040565067986324	5.3190126	2.3062985
5.05810884383601	5.3148365	2.305393
5.075652738321066	5.3103814	2.3044264
5.09319675185512	5.305958	2.3034666
5.110740884851836	5.3624845	2.3157039
5.128285137724894	5.437293	2.3318005
5.145829510888007	5.4031835	2.3244748
5.163374004754908	5.383498	2.3202367
5.1809186197393595	5.319674	2.3064418
5.198463356255145	5.2697062	2.295584
5.216008214716077	5.272012	2.2960863
5.233553195535998	5.2301717	2.2869568
5.251098299128764	5.2952046	2.3011312
5.268643525908272	5.307279	2.3037534
5.286188876288432	5.284069	2.2987103
5.3037343506831895	5.2572885	2.2928777
5.32127994950651	5.241645	2.289464
5.3388256731723915	5.219732	2.2846732
5.356371522094851	5.2158747	2.283829
5.373917496687938	5.1824117	2.2764912
5.391463597365729	5.176895	2.275279
5.40900982454232	5.143927	2.2680228
5.426556178631843	5.147367	2.268781
5.444102660048449	5.1414747	2.267482
5.4616492692063225	5.146319	2.26855
5.479196006519669	5.2053347	2.2815204
5.496742872402727	5.2179666	2.284287
5.514289867269756	5.237119	2.2884753
5.531836991535049	5.2222486	2.285224
5.549384245612924	5.199336	2.2802052
5.566931629917724	5.150952	2.2695708
5.584479144863822	5.1303983	2.2650383
5.6020267908656205	5.163788	2.272397
5.619574568337545	5.138163	2.2667518
5.637122477694054	5.159937	2.2715495
5.654670519349629	5.0839868	2.2547698
5.672218693718784	5.020299	2.2406023
5.689767001216059	4.967096	2.2286983
5.707315442256021	4.9922986	2.2343452
5.724864017253266	5.0849743	2.2549887
5.7424127266224225	5.135118	2.26608
5.75996157077814	5.1162996	2.2619238
5.777510550135105	5.121295	2.263028
5.795059665108022	5.1710825	2.2740014
5.812608916111639	5.241149	2.2893555
5.830158303560715	5.3485656	2.3126967
5.847707827870055	5.38879	2.3213768
5.86525748945448	5.4191885	2.327915
5.8828072887288485	5.373645	2.3181124
5.900357226108044	5.420765	2.3282535
5.917907302006979	5.541454	2.3540292
5.9354575168406	6.194452	2.4888656
5.9530078710238765	6.789252	2.6056192
5.970558364971812	7.338537	2.7089734
5.988108999099438	7.5877166	2.754581
6.005659773821818	8.060022	2.8390179
6.023210689554039	7.798067	2.792502
6.040761746711227	8.145469	2.8540268
6.058312945708531	7.60022	2.7568498
6.075864286961132	7.2121086	2.6855369
6.093415770884244	6.6126175	2.571501
6.1109673978931065	6.1290426	2.4756904
6.128519168402993	5.5461354	2.3550234
6.146071082829204	5.341873	2.3112493
6.163623141587075	5.242836	2.289724
6.181175345091969	5.171651	2.2741263
6.198727693759281	5.231151	2.287171
6.216280188004435	5.2150474	2.2836478
6.233832828242885	5.161642	2.2719247
6.251385614890126	5.1195507	2.2626424
6.268938548361669	5.0957813	2.2573838
6.286491629073067	5.037798	2.244504
6.304044857439898	4.9291115	2.2201602
6.321598233877777	4.875193	2.207984
6.339151758802344	4.8997154	2.21353
6.356705432629277	4.9567833	2.2263834
6.37425925577428	4.9166408	2.21735
6.391813228653095	4.9390306	2.222393
6.409367351681486	4.9761024	2.230718
6.426921625275259	4.9920106	2.2342808
6.44447604985025	4.988559	2.233508
6.46203062582232	5.0409746	2.2452116
6.47958535360737	5.0542545	2.248167
6.497140233621328	5.0255623	2.2417767
6.514695266280161	5.002085	2.236534
6.532250451999859	5.019747	2.2404792
6.549805791196454	5.0483346	2.24685
6.567361284286002	5.06255	2.2500112
6.584916931684597	5.0849733	2.2549884
6.602472733808367	5.0412354	2.2452695
6.6200286910734665	5.000894	2.2362678
6.637584803896092	4.987503	2.2332718
6.655141072692462	5.012928	2.238957
6.672697497878842	4.9900775	2.233848
6.690254079871514	4.9368076	2.2218928
6.707810819086808	4.8974557	2.2130196
6.725367715941078	4.9282684	2.2199705
6.742924770850719	5.005129	2.2372146
6.760481984232151	5.0236497	2.24135
6.778039356501836	5.020908	2.2407382
6.795596888076266	5.034859	2.2438493
6.813154579371963	5.022092	2.2410023
6.830712430805492	5.051628	2.2475827
6.84827044279344	5.0293503	2.2426212
6.865828615752445	5.0239844	2.2414246
6.883386950099159	5.038475	2.2446547
6.900945446250287	5.0773406	2.2532954
6.918504104622553	5.106841	2.2598321
6.936062925632727	5.111839	2.2609377
6.953621909697607	5.1019273	2.2587447
6.971181057234028	5.0675626	2.2511246
6.988740368658859	5.083159	2.2545862
7.006299844389007	5.1148186	2.2615964
7.023859484841407	5.236994	2.2884479
7.041419290433036	5.3460712	2.3121572
7.058979261580902	5.5261273	2.3507717
7.0765393987020495	5.733787	2.3945327
7.094099702213559	6.0819683	2.4661646
7.111660172532549	6.3686185	2.5236123
7.129220810076164	6.702447	2.5889084
7.146781615261595	7.338918	2.7090437
7.16434258850606	7.6013002	2.7570455
7.181903730226821	8.08182	2.842854
7.1994650408411704	8.111025	2.8479862
7.217026520766437	8.242453	2.8709671
7.234588170419983	8.533185	2.9211617
7.252149990219215	8.561173	2.9259484
7.269711980581568	8.466744	2.9097672
7.2872741419245175	8.257647	2.8736122
7.304836474665574	7.878863	2.8069313
7.322398979222286	7.526514	2.7434492
7.339961656012233	7.155827	2.6750379
7.357524505453039	6.81631	2.6108065
7.375087527962357	6.555688	2.5604079
7.392650723957886	6.274912	2.5049775
7.410214093857353	6.038917	2.4574208
7.427777638078528	5.7540083	2.3987515
7.445341357039213	5.5968447	2.365765
7.4629052511572525	5.427998	2.3298063
7.480469320850524	5.284666	2.29884
7.498033566536948	5.2397933	2.2890594
7.5155979886344735	5.214837	2.2836018
7.5331625875610975	5.2215104	2.2850626
7.550727363734844	5.220793	2.2849054
7.568292317573788	5.1362534	2.2663305
7.585857449496025	5.071649	2.2520323
7.603422759919705	5.038286	2.2446127
7.620988249263007	5.012744	2.2389157
7.638553917944147	5.1291175	2.2647555
7.656119766381391	5.1824307	2.2764952
7.673685794993023	5.2252326	2.2858768
7.691252004197388	5.173919	2.274625
7.70881839441285	5.181712	2.2763374
7.726384966057826	5.260701	2.2936218
7.743951719550762	5.295744	2.3012483
7.761518655310149	5.352261	2.3134954
7.779085773754511	5.3735995	2.3181026
7.796653075302419	5.354386	2.3139546
7.814220560372475	5.382872	2.3201017
7.831788229383323	5.3964434	2.3230245
7.8493560827536495	5.4133453	2.3266597
7.866924120902174	5.3624687	2.3157005
7.884492344247663	5.325206	2.3076408
7.9020607532089135	5.373597	2.3181021
7.919629348204771	5.408068	2.3255253
7.937198129654115	5.366335	2.316535
7.954767097975865	5.391655	2.3219938
7.972336253588986	5.4459925	2.3336651
7.989905596912472	5.510662	2.34748
8.007475128365371	5.509334	2.347197
8.025044848366756	5.4934177	2.3438041
8.042614757335754	5.613456	2.3692732
8.060184855691523	5.618199	2.370274
8.07775514385327	5.780336	2.404233
8.095325622240228	5.7953434	2.407352
8.112896291271687	5.8551064	2.4197328
8.130467151366968	5.9320316	2.4355762
8.148038202945436	5.993356	2.4481332
8.165609446426497	5.9927263	2.4480045
8.183180882229594	5.9943285	2.4483318
8.200752510774217	5.9132476	2.431717
8.218324332479893	5.950439	2.4393523
8.235896347766193	5.9769044	2.4447708
8.253468557052724	6.079919	2.4657493
8.27104096075914	6.1049366	2.470817
8.288613559305137	6.1644416	2.4828293
8.306186353110448	6.1621876	2.4823754
8.32375934259485	6.216669	2.493325
8.341332528178162	6.221995	2.4943926
8.358905910280246	6.2393956	2.4978783
8.376479489321003	6.199563	2.4898922
8.394053265720377	6.234237	2.4968455
8.411627239898356	6.1974363	2.489465
8.42920141227497	6.1954284	2.4890618
8.44677578327029	6.2562265	2.501245
8.464350353304427	6.2456994	2.4991398
8.48192512279754	6.2758374	2.5051622
8.499500092169827	6.135799	2.4770546
8.51707526184153	6.1553655	2.481001
8.534650632232934	6.1450176	2.4789145
8.552226203764365	6.185822	2.4871314
8.569801976856192	6.1563096	2.4811912
8.587377951928834	6.1283126	2.4755428
8.60495412940274	6.1790156	2.4857626
8.622530509698416	6.2217817	2.49435
8.6401070932364	6.409482	2.5316954
8.657683880437283	6.540544	2.5574486
8.675260871721695	6.768574	2.6016483
8.692838067510303	6.9215384	2.6308818
8.710415468223834	7.118313	2.6680167
8.727993074283043	7.2298007	2.688829
8.745570886108737	7.2143326	2.685951
8.763148904121765	7.22542	2.688014
8.78072712874302	7.205305	2.68427
8.798305560393441	7.4309626	2.725979
8.815884199494006	7.5914207	2.7552533
8.833463046465745	7.7389083	2.7818894
8.851042101729728	7.8683786	2.805063
8.86862136570707	8.160336	2.85663
8.886200838818924	8.28323	2.87806
8.903780521486505	8.297219	2.8804893
8.921360414131055	8.313523	2.8833182
8.938940517173874	8.482414	2.9124584
8.956520831036297	8.754509	2.958802
8.97410135613971	9.102042	3.0169592
8.99168209290554	9.2645855	3.0437782
9.009263041755265	9.4942465	3.0812736
9.026844203110405	9.694382	3.1135802
9.044425577392525	9.883858	3.1438603
9.062007165023239	9.977303	3.1586869
9.079588966424197	10.259402	3.20303
9.097170982017108	10.337175	3.2151477
9.11475321222372	11.240239	3.3526466
9.132335657465825	12.0544195	3.4719474
9.149918318165264	12.139688	3.4842055
9.167501194743924	12.701445	3.5639086
9.18508428762374	12.387416	3.519576
9.202667597226693	12.33651	3.5123367
9.220251123974803	11.956061	3.457754
9.237834868290143	11.70879	3.4218109
9.255418830594836	11.483047	3.3886645
9.273003011311046	11.007627	3.3177743
9.290587410860985	10.840981	3.2925644
9.308172029666911	10.236833	3.199505
9.32575686815113	10.005416	3.1631339
9.343341926735997	8.681224	2.9463916
9.360927205843916	8.49662	2.9148962
9.378512705897327	8.318599	2.8841982
9.396098427318728	8.111604	2.8480878
9.413684370530664	8.005888	2.8294678
9.431270535955722	7.881985	2.8074872
9.448856924016539	7.824632	2.7972543
9.466443535135806	7.667944	2.7691052
9.484030369736251	7.641222	2.764276
9.501617428240658	7.6234765	2.7610643
9.519204711071852	7.6602945	2.7677238
9.536792218652714	7.6888494	2.7728775
9.55437995140617	7.7189856	2.7783062
9.571967909755191	7.781568	2.7895463
9.589556094122802	7.805281	2.7937934
9.60714450493207	7.8991017	2.810534
9.624733142606116	7.8856225	2.808135
9.642322007568108	7.9193983	2.8141425
9.659911100241267	7.9846163	2.8257062
9.677500421048851	8.047749	2.8368554
9.695089970414175	8.07075	2.8409066
9.712679748760609	8.034471	2.8345141
9.730269756511557	8.057093	2.838502
9.747859994090492	8.051327	2.837486
9.765450461920915	8.053294	2.8378327
9.78304116042639	8.128503	2.851053
9.800632090030527	8.199204	2.8634253
9.81822325115699	8.332428	2.8865945
9.835814644229481	8.304039	2.8816729
9.853406269671762	8.377619	2.8944116
9.870998127907646	8.3467455	2.8890734
9.888590219360985	8.308811	2.882501
9.906182544455698	8.246501	2.8716722
9.923775103615734	8.195871	2.8628433
9.941367897265108	8.253077	2.8728168
9.958960925827878	8.263967	2.8747115
9.97655418972816	8.211569	2.8655834
9.994147689390106	8.23937	2.8704302
10.011741425237934	8.307721	2.8823118
10.029335397695904	8.334373	2.8869314
10.04692960718833	8.292503	2.8796706
10.06452405413958	8.251252	2.8724992
10.082118738974064	8.256842	2.873472
10.099713662116246	8.227258	2.8683197
10.117308823990651	8.192375	2.8622324
10.134904225021844	8.232197	2.8691804
10.152499865634445	8.2429285	2.8710501
10.170095746253125	8.244203	2.8712718
10.18769186730261	8.104618	2.8468611
10.205288229207675	8.056428	2.8383846
10.222884832393145	8.043404	2.8360896
10.2404816772839	8.064381	2.8397853
10.258078764304868	8.001674	2.828723
10.275676093881035	8.008673	2.8299599
10.293273666437438	7.990508	2.8267486
10.310871482399158	8.036185	2.8348167
10.32846954219134	8.025035	2.8328493
10.346067846239173	8.064096	2.8397353
10.363666394967908	8.076733	2.8419592
10.38126518880283	8.068255	2.8404675
10.398864228169298	8.066619	2.8401794
10.416463513492713	8.166556	2.8577187
10.434063045198531	8.156608	2.8559775
10.451662823712262	8.157508	2.8561351
10.469262849459467	8.125007	2.8504398
10.486863122865758	8.0732975	2.8413548
10.504463644356806	8.106731	2.8472323
10.522064414358338	7.9967866	2.827859
10.539665433296118	8.021553	2.8322346
10.557266701595987	7.9930344	2.8271954
10.574868219683818	7.931803	2.8163457
10.592469987985552	7.8153167	2.7955887
10.610072006927185	7.6861925	2.7723982
10.627674276934751	7.5263367	2.743417
10.64527679843435	7.3314915	2.7076726
10.662879571852143	7.2204227	2.6870844
10.680482597614331	7.175194	2.6786551
10.698085876147173	7.116215	2.6676235
10.715689407876988	7.02221	2.6499453
10.733293193230146	6.880892	2.6231453
10.750897232633072	6.7699223	2.6019075
10.76850152651225	6.6250744	2.573922
10.786106075294207	6.5401487	2.5573714
10.803710879405534	6.4376316	2.5372488
10.821315939272877	6.3537836	2.5206714
10.83892125532294	6.279081	2.5058093
10.856526827982472	6.2388387	2.4977667
10.874132657678285	6.2249484	2.4949846
10.891738744837243	6.2007623	2.490133
10.909345089886271	6.2012115	2.4902232
10.926951693252343	6.172715	2.484495
10.944558555362494	6.1553707	2.4810019
10.96216567664381	6.0458994	2.458841
10.979773057523436	5.9380255	2.4368064
10.997380698428573	5.8414	2.416899
11.014988599786477	5.766922	2.4014416
11.032596762024461	5.6921535	2.3858235
11.050205185569892	5.6294312	2.3726423
11.067813870850198	5.524464	2.3504179
11.085422818292859	5.4460235	2.3336716
11.10303202832541	5.3896027	2.3215518
11.120641501375454	5.3742642	2.318246
11.138251237870636	5.2784886	2.297496
11.155861238238671	5.2262435	2.2860978
11.173471502907317	5.172324	2.2742743
11.191082032304402	5.172009	2.2742052
11.208692826857805	5.1038027	2.2591598
11.226303886995465	4.985937	2.2329211
11.243915213145371	4.982744	2.232206
11.261526805735578	5.004059	2.2369754
11.279138665194196	4.988728	2.233546
11.296750791949393	4.9357347	2.2216513
11.314363186429393	4.8604765	2.2046487
11.331975849062479	4.8240385	2.1963694
11.34958878027699	4.741051	2.1773956
11.36720198050133	4.623546	2.1502433
11.384815450163948	4.565213	2.136636
11.402429189693366	4.5243034	2.127041
11.420043199518153	4.5043945	2.122356
11.437657480066942	63.449394	7.9655128
11.455272031768422	85.15359	9.22787
11.472886855051353	107.56398	10.371305
11.490501950344528	99.178535	9.958842
11.508117318076819	84.51066	9.192967
11.52573295867715	45.86973	6.77272
11.543348872574514	4.1579638	2.0391085
11.560965060197946	4.0939593	2.0233536
11.57858152197655	4.1003675	2.0249364
11.59619825833949	4.081111	2.020176
11.613815269715985	4.061472	2.0153093
11.631432556535323	38.571358	6.210584
11.649050119226837	83.07821	9.114725
11.666667958219929	93.512	9.67016
11.68428607394406	107.72842	10.3792305
11.701904466828756	82.55407	9.085927
11.719523137303586	65.35679	8.084354
11.737142085798196	4.5762	2.1392055
11.754761312742286	3.667947	1.9151886
11.772380818565619	3.628069	1.904749
11.790000603698015	3.660073	1.9131317
11.80762066856935	3.6425383	1.9085435
11.825241013609572	3.6178725	1.9020705
11.842861639248683	3.5253146	1.8775821
11.860482545916748	3.4968522	1.8699872
11.878103734043883	3.496047	1.869772
11.895725204060282	3.4948523	1.8694524
11.91334695639619	3.44919	1.8571994
11.930968991481919	3.3982852	1.8434439
11.948591309747824	3.387861	1.8406143
11.966213911624347	3.3535037	1.8312575
11.98383679754198	3.3072374	1.8185811
12.001459967931268	3.2512383	1.8031191
12.019083423222835	3.230343	1.7973155
12.036707163847352	3.2030685	1.7897118
12.05433119023556	3.2290788	1.7969638
12.071955502818259	3.2117612	1.7921387
12.089580102026313	3.1703968	1.7805609
12.107204988290643	3.1812537	1.7836069
12.12483016204224	3.1648624	1.779006
12.142455623712152	3.1543186	1.7760402
12.16008137373149	3.0953226	1.7593529
12.177707412531431	3.0703084	1.7522296
12.19533374054321	3.0858288	1.7566527
12.212960358198126	3.0307322	1.7408998
12.230587265927545	3.0062625	1.7338578
12.248214464162889	2.9950643	1.7306254
12.265841953335649	2.989963	1.729151
12.283469733877375	2.9875867	1.7284636
12.301097806219685	2.9563866	1.7194146
12.31872617079425	2.9713647	1.7237647
12.336354828032825	2.9537778	1.7186558
12.353983778367205	2.9480522	1.7169893
12.371613022229262	2.9419394	1.7152083
12.389242560050928	2.9488244	1.7172141
12.406872392264201	2.9357471	1.7134023
12.424502519301143	2.8987067	1.7025589
12.442132941593874	2.8598478	1.6911085
12.459763659574586	2.8641849	1.6923903
12.477394673675532	2.874533	1.6954447
12.49502598432903	2.8739316	1.6952674
12.51265759196746	2.8173769	1.6785043
12.530289497023267	2.7359772	1.654079
12.547921699928967	2.6966	1.6421328
12.565554201117134	2.7039704	1.6443754
12.583187001020404	2.7757788	1.6660669
12.600820100071486	2.8383012	1.6847259
12.618453498703152	2.8132088	1.6772623
12.636087197348235	2.7463496	1.6572114
12.65372119643964	2.691892	1.6406986
12.671355496410326	2.6628928	1.6318372
12.68899009769333	2.7174437	1.6484671
12.706625000721749	2.7615917	1.6618037
12.724260205928752	2.8518634	1.6887461
12.741895713747551	2.917032	1.7079321
12.759531524611454	2.9908328	1.7294024
12.777167638953818	2.998615	1.731651
12.794804057208072	3.0053663	1.7335992
12.812440779807702	3.0464802	1.7454169
12.830077807186271	3.1984086	1.7884095
12.847715139777405	3.2227194	1.7951934
12.865352778014795	3.4065945	1.8456962
12.882990722332197	3.511314	1.87385
12.90062897316344	3.5818546	1.8925788
12.918267530942412	3.679004	1.9180729
12.935906396103071	3.5971344	1.8966113
12.953545569079449	3.7745216	1.9428128
12.971185050305628	3.542133	1.8820555
12.988824840215775	3.543106	1.882314
13.006464939244115	3.5387213	1.8811489
13.024105347824943	3.4395664	1.8546067
13.041746066392617	3.5405447	1.8816335
13.05938709538157	3.355583	1.831825
13.077028435226296	3.367937	1.835194
13.094670086361363	3.287856	1.8132446
13.112312049221401	3.2006571	1.7890381
13.129954324241112	3.1284316	1.7687373
13.147596911855258	2.9259622	1.7105445
13.165239812498685	2.8561935	1.6900277
13.182883026606293	2.7809892	1.6676298
13.200526554613058	2.6937263	1.6412575
13.218170396954017	2.6532743	1.6288874
13.235814554064284	2.6627624	1.6317973
13.253459026379034	2.6611795	1.6313123
13.271103814333523	2.6535287	1.6289655
13.288748918363058	2.6559453	1.6297071
13.306394338903031	2.6669762	1.633088
13.32404007638889	2.6666896	1.6330001
13.341686131256164	2.6934521	1.641174
13.359332503940449	2.6508195	1.6281338
13.376979194877402	2.6599147	1.6309245
13.394626204502751	2.690612	1.6403085
13.412273533252307	2.711817	1.6467595
13.429921181561937	2.7011468	1.6435167
13.447569149867581	2.72457	1.6506271
13.465217438605247	2.753144	1.65926
13.482866048211022	2.739679	1.6551976
13.500514979121052	2.7479422	1.6576918
13.518164231771568	2.7190034	1.6489401
13.535813806598844	2.689835	1.6400716
13.553463704039254	2.6583042	1.6304307
13.571113924529229	2.635231	1.6233394
13.588764468505275	2.651404	1.6283132
13.606415336403956	2.6912856	1.6405138
13.624066528661917	2.7054968	1.6448394
13.641718045715882	2.7708094	1.6645749
13.659369888002635	2.8086367	1.6758988
13.67702205595903	2.9011118	1.7032651
13.694674550021993	2.9426641	1.7154195
13.712327370628532	2.9866195	1.7281839
13.729980518215713	3.061259	1.7496454
13.747633993220681	3.1564791	1.7766483
13.765287796080647	3.2564554	1.8045652
13.7829419272329	3.311853	1.8198497
13.800596387114801	3.3319778	1.8253706
13.818251176163775	3.3464327	1.8293258
13.835906294817324	3.35419	1.8314449
13.853561743513023	3.387804	1.8405988
13.871217522688525	3.4152608	1.8480424
13.888873632781538	3.450083	1.8574399
13.906530074229858	3.481467	1.8658689
13.92418684747135	3.4915931	1.8685805
13.941843952943948	3.4781528	1.8649806
13.959501391085665	3.4592366	1.8599023
13.977159162334578	3.402533	1.8445957
13.994817267128846	3.3741617	1.8368891
14.012475705906693	3.2890346	1.8135695
14.030134479106424	3.182333	1.7839094
14.047793587166414	3.12116	1.7666805
14.065453030525108	3.0918267	1.7583591
14.083112809621026	3.0834632	1.7559793
14.100772924892766	3.0115788	1.7353901
14.118433376778997	2.955485	1.7191525
14.136094165718458	2.8784144	1.696589
14.153755292149969	2.8398082	1.685173
14.171416756512416	2.7555523	1.6599857
14.189078559244768	2.6649044	1.6324534
14.20674070078606	2.5975688	1.6116974
14.224403181575408	2.5666177	1.6020668
14.242066002051999	2.5604572	1.6001428
14.259729162655093	2.5368543	1.5927505
14.277392663824022	2.5142312	1.5856328
14.295056505998208	2.468172	1.5710417
14.312720689617128	2.4304698	1.5589964
14.330385215120348	2.4198956	1.5556014
14.348050082947497	2.4134545	1.5535297
14.3657152935383	2.4111745	1.5527958
14.383380847332528	2.3954628	1.5477283
14.401046744770051	2.3895316	1.5458109
14.418712986290798	2.3910382	1.5462983
14.436379572334793	2.3854275	1.544483
14.454046503342123	2.3759615	1.5414155
14.471713779752946	2.3830447	1.5437113
14.489381402007504	2.3992648	1.548956
14.507049370546113	2.3976421	1.5484321
14.524717685809168	2.3903298	1.5460691
14.542386348237134	2.424908	1.5572116
14.560055358270553	2.4274824	1.558038
14.577724716350051	2.443404	1.5631391
14.595394422916325	2.4180756	1.5550163
14.61306447841015	2.4247706	1.5571675
14.63073488327237	2.4444242	1.5634655
14.648405637943917	2.4470882	1.5643172
14.6660767428658	2.4522908	1.5659791
14.683748198479094	2.497438	1.5803285
14.701420005224954	2.4967513	1.5801111
14.719092163544628	2.588307	1.6088216
14.73676467387942	2.6653883	1.6326017
14.754437536670727	2.70545	1.6448252
14.772110752360014	2.7062535	1.6450695
14.78978432138882	2.670226	1.6340827
14.807458244198777	2.6762202	1.6359158
14.82513252123159	2.6442642	1.6261194
14.842807152929028	2.6945004	1.6414933
14.860482139732962	2.7217338	1.6497678
14.87815748208531	2.7098556	1.646164
14.8958331804281	2.7076051	1.6454802
14.91350923520342	2.7024832	1.6439232
14.931185646853438	2.7372355	1.6544592
14.948862415820408	2.7138677	1.647382
14.966539542546656	2.706294	1.6450818
14.98421702747459	2.6593535	1.6307524
15.001894871046696	2.6400115	1.6248113
15.019573073705542	2.6032481	1.6134584
15.037251635893766	2.5885952	1.6089112
15.054930558054092	2.6434195	1.6258596
15.072609840629323	2.7525864	1.6590921
15.090289484062351	2.8970184	1.702063
15.107969488796124	3.2089427	1.7913522
15.125649855273691	3.6318026	1.9057289
15.14333058393817	4.1647882	2.0407813
15.161011675232768	5.142802	2.2677746
15.17869312960076	6.503585	2.5502126
15.196374947485506	8.375496	2.8940449
15.214057129330447	11.424327	3.3799891
15.231739675579114	15.949312	3.993659
15.249422586675102	20.83835	4.564904
15.267105863062092	23.812605	4.879816
15.284789505183847	24.079191	4.9070554
15.302473513484218	21.881763	4.677795
15.320157888407127	18.350887	4.2837934
15.337842630396578	14.257326	3.7758875
15.355527739896656	11.128432	3.3359306
15.37321321735153	8.652075	2.941441
15.39089906320545	6.387501	2.5273504
15.408585277902748	4.8506484	2.2024188
15.42627186188783	3.8038006	1.9503335
15.443958815605198	3.262833	1.8063314
15.461646139499424	2.9144933	1.7071887
15.479333834015168	2.7717452	1.664856
15.497021899597165	2.7083786	1.6457152
15.514710336690234	2.6688476	1.6336608
15.53239914573928	2.59579	1.6111455
15.550088327189297	2.5590453	1.5997016
15.567777881485336	2.510726	1.584527
15.58546780907256	2.4924462	1.5787483
15.6031581103962	2.4669292	1.5706462
15.620848785901568	2.4586642	1.5680128
15.638539836034063	2.424646	1.5571275
15.656231261239173	2.4007695	1.5494417
15.673923061962451	2.3715057	1.5399694
15.691615238649552	2.3779142	1.5420487
15.709307791746202	2.3951604	1.5476305
15.727000721698221	2.4207406	1.5558729
15.744694028951498	2.4021893	1.5498997
15.76238771395202	2.3753006	1.541201
15.780081777145844	2.3412995	1.5301305
15.797776218979125	2.3462062	1.531733
15.815471039898094	2.3610842	1.536582
15.833166240349064	2.3543499	1.5343891
15.850861820778437	2.3535397	1.5341251
15.868557781632699	2.3447766	1.5312663
15.886254123358412	2.3696017	1.5393511
15.903950846402232	2.3828874	1.5436604
15.921647951210897	2.381817	1.5433136
15.939345438231225	2.4042208	1.550555
15.957043307910133	2.4047449	1.550724
15.974741560694602	2.396801	1.5481606
15.992440197031714	2.3879263	1.5452917
16.01013921736862	2.3803437	1.5428362
16.02783862215259	2.3835032	1.5438598
16.045538411830933	2.4049375	1.5507861
16.06323858685107	2.3692842	1.5392479
16.080939147660512	2.3344646	1.5278955
16.09864009470684	2.3388078	1.5293162
16.11634142843774	2.3754625	1.5412536
16.134043149300954	2.3711925	1.5398676
16.15174525774433	2.3359764	1.5283902
16.169447754215817	2.3367097	1.52863
16.18715063916342	2.3661969	1.5382447
16.204853913035244	2.4299457	1.5588284
16.222557576279478	2.4853754	1.5765073
16.240261629344403	22.459711	4.7391677
16.257966072678386	42.97084	6.555215
16.275670906729868	38.048466	6.168344
16.293376131947387	2.4928288	1.5788695
16.31108174877957	2.5451334	1.5953474
16.328787757675133	2.5879726	1.6087177
16.34649415908287	2.6316946	1.6222498
16.364200953451657	2.59112	1.6096957
16.38190814123048	2.583105	1.6072041
16.39961572286839	2.5827065	1.6070801
16.41732369881455	2.6263075	1.6205887
16.43503206951817	2.6749055	1.6355139
16.45274083542859	2.690608	1.6403073
16.47044999699522	2.754623	1.6597056
16.488159554667558	2.82704	1.6813804
16.505869508895184	2.8787956	1.6967014
16.523579860127786	2.9327903	1.7125391
16.541290608815117	2.9431322	1.7155559
16.559001755407035	2.9824843	1.7269871
16.57671330035348	3.0463727	1.7453861
16.59442524410448	3.1403468	1.7721024
16.61213758711015	3.205138	1.7902899
16.629850329820705	3.249915	1.802752
16.647563472686436	3.278055	1.81054
16.665277016157724	3.3429818	1.8283823
16.682990960685053	3.4293654	1.8518546
16.70070530671898	3.4703019	1.8628746
16.718420054710155	3.4902475	1.8682204
16.736135205109335	3.5280235	1.8783034
16.753850758367335	3.6093287	1.8998233
16.771566714935087	3.7008073	1.9237483
16.789283075263597	3.7455504	1.9353424
16.80699983980398	3.7744732	1.9428004
16.82471700900741	3.7890837	1.9465569
16.84243458332518	3.8163075	1.9535372
16.860152563208665	3.8834746	1.9706533
16.87787094910932	4.0010886	2.000272
16.89558974147871	4.097853	2.0243156
16.913308940768466	4.1898665	2.0469162
16.931028547430333	4.223999	2.055237
16.94874856191613	4.3027573	2.0743089
16.966468984677785	4.3524632	2.0862558
16.98418981616729	4.361655	2.0884576
17.00191105683676	4.347749	2.0851257
17.019632707138374	4.3638735	2.0889885
17.03735476752442	4.408758	2.0997043
17.05507723844728	4.4863224	2.118094
17.072800120359403	4.524221	2.1270216
17.090523413713353	4.6250105	2.1505837
17.108247118961785	4.6621857	2.1592095
17.125971236557437	4.6504173	2.1564827
17.143695766953133	4.661951	2.1591551
17.161420710601806	4.643777	2.1549425
17.179146067956477	4.6745057	2.1620605
17.19687183947025	4.660366	2.1587882
17.21459802559634	4.664522	2.1597505
17.232324626788028	4.658652	2.158391
17.25005164349871	4.6204095	2.1495137
17.267779076181863	4.6243386	2.1504276
17.285506925291074	4.642091	2.1545513
17.30323519127999	4.6378574	2.1535685
17.320963874602384	4.574662	2.138846
17.33869297571211	4.5783353	2.1397045
17.356422495063114	4.534418	2.1294174
17.37415243310944	4.4473486	2.1088738
17.391882790305218	4.4014306	2.0979586
17.40961356710468	4.3601146	2.0880888
17.42734476396215	4.4122562	2.100537
17.445076381332044	4.478027	2.116135
17.462808419668868	4.5611787	2.1356916
17.48054087942723	4.710883	2.170457
17.498273761061835	4.986965	2.2331514
17.51600706502747	5.478598	2.3406405
17.533740791779024	6.1953273	2.4890413
17.551474941771485	7.6649914	2.768572
17.56920951545993	8.747825	2.957672
17.586944513299528	10.780967	3.2834382
17.60467993574556	12.29407	3.5062902
17.622415783253373	13.87828	3.7253563
17.64015205627843	15.128528	3.889541
17.657888755276293	16.148724	4.0185475
17.675625880702604	16.690159	4.085359
17.69336343301311	16.51809	4.064245
17.71110141266366	15.728586	3.965928
17.728839820110178	14.871594	3.8563707
17.746578655808705	14.084929	3.7529893
17.764317920215372	12.83891	3.5831425
17.7820576137864	11.460828	3.3853846
17.79979773697811	9.468637	3.077115
17.81753829024692	7.604964	2.75771
17.835279274049356	5.960755	2.4414656
17.85302068884201	4.921278	2.2183955
17.870762535081607	4.2385473	2.0587733
17.888504813224934	3.916831	1.9790986
17.90624752372891	3.7051845	1.9248855
17.923990667050536	3.5940983	1.8958107
17.941734243646895	3.5170846	1.8753892
17.959478253975185	3.487848	1.8675781
17.9772226984927	3.4494643	1.8572733
17.994967577656833	3.4063063	1.8456181
18.01271289192506	3.371244	1.8360947
18.030458641754965	3.2614222	1.8059407
18.04820482760425	3.2455487	1.8015406
18.06595144993067	3.2799025	1.81105
18.083698509192125	3.3279116	1.8242564
18.101446005846576	3.2997355	1.8165175
18.119193940352105	3.2160764	1.7933422
18.136942313166887	3.2010734	1.7891544
18.1546911247492	3.158395	1.7771873
18.1724403755574	3.166573	1.7794868
18.19019006604997	3.1054962	1.7622418
18.207940196685467	3.0509286	1.7466908
18.225690767922575	2.9941201	1.7303526
18.243441780220046	3.0167942	1.7368921
18.261193234036764	3.084041	1.7561438
18.278945129831676	3.0781214	1.7544576
18.29669746806386	3.0668662	1.751247
18.314450249192483	3.0081308	1.7343963
18.3322034736768	2.9905224	1.7293127
18.349957141976184	2.986815	1.7282404
18.3677112545501	3.0329576	1.7415389
18.385465811858108	3.064099	1.7504568
18.403220814359884	3.0559263	1.7481208
18.420976262515172	3.052936	1.7472653
18.43873215678387	3.0676436	1.751469
18.456488497625923	3.1225922	1.7670858
18.474245285501407	3.2505996	1.8029419
18.492002520870486	3.2788868	1.8107697
18.50976020419343	3.3448737	1.8288996
18.527518335930615	3.6481218	1.9100057
18.545276916542516	4.252518	2.0621634
18.563035946489688	4.391941	2.0956957
18.580795426232832	4.912416	2.216397
18.598555356232698	4.8106403	2.1933172
18.616315736950185	5.077948	2.2534304
18.63407656884626	4.64953	2.156277
18.65183785238201	4.8824716	2.2096314
18.669599588018617	4.728456	2.1745014
18.68736177621737	4.734274	2.1758387
18.705124417439652	4.68714	2.1649804
18.72288751214696	4.484791	2.1177325
18.740651060800886	4.6427774	2.1547105
18.758415063863115	4.324741	2.079601
18.77617952179546	4.4693203	2.1140766
18.793944435059814	4.174644	2.0431945
18.811709804118184	4.2215996	2.0546532
18.829475629432675	4.235657	2.0580711
18.8472419114655	4.057942	2.0144334
18.86500865067897	4.137218	2.0340152
18.88277584753551	3.796628	1.9484937
18.90054350249763	3.84432	1.9606937
18.918311616027957	3.4961703	1.8698049
18.936080188589226	3.413833	1.847656
18.953849220644265	3.090058	1.7578561
18.971618712656007	2.8773017	1.696261
18.9893886650875	2.7902853	1.6704147
19.007159078401887	7.979514	2.8248034
19.024929953062408	32.89132	5.7350955
19.042701289532435	32.87506	5.733678
19.060473088275405	25.372906	5.037153
19.07824534975489	2.605599	1.6141868
19.096018074434568	2.5991156	1.6121773
19.113791262778197	2.580004	1.6062391
19.13156491524966	2.5820467	1.6068748
19.149339032312945	2.5919204	1.6099442
19.167113614432136	2.6131427	1.6165218
19.184888662071433	2.5846956	1.6076988
19.202664175695123	2.5350614	1.5921876
19.220440155767623	2.5401192	1.5937752
19.238216602753447	2.5685272	1.6026626
19.2559935171172	2.5648212	1.6015059
19.27377089932361	2.5224695	1.5882285
19.291548749837514	2.5314224	1.5910444
19.309327069123835	2.535484	1.5923203
19.32710585764763	2.516288	1.5862812
19.344885115874032	2.4844277	1.5762067
19.362664844268313	2.4762392	1.5736071
19.380445043295822	2.4787865	1.5744163
19.39822571342203	2.4786932	1.5743866
19.41600685511252	2.4719958	1.5722582
19.43378846883297	2.4476328	1.5644913
19.451570555049173	2.4074152	1.5515847
19.469353114227037	2.3740995	1.5408113
19.48713614683254	2.4085524	1.5519512
19.50491965333182	2.4267669	1.5578084
19.52270363419109	2.4584558	1.5679463
19.540488089876686	2.4513996	1.5656946
19.55827302085503	2.4441614	1.5633814
19.576058427592674	2.400099	1.5492253
19.593844310556282	2.432233	1.5595618
19.611630670212598	2.4464428	1.5641109
19.629417507028506	2.4257314	1.5574759
19.64720482147098	2.4222732	1.5563654
19.6649926140071	2.4695733	1.5714875
19.682780885104084	2.517592	1.5866921
19.70056963522921	2.489755	1.5778958
19.718358864849908	2.4394977	1.5618892
19.7361485744337	2.43669	1.5609901
19.753938764448215	2.4655864	1.5702186
19.771729435361202	2.488498	1.5774974
19.789520587640506	2.5048687	1.5826777
19.807312221754092	2.5220962	1.5881109
19.825104338170043	2.5280058	1.5899704
19.842896937356517	2.501409	1.5815843
19.860690019781824	2.4975538	1.5803651
19.87848358591436	2.4760916	1.5735601
19.896277636222635	2.4432065	1.563076
19.914072171175278	2.445682	1.5638677
19.931867191241015	2.4983926	1.5806304
19.94966269688869	2.5213704	1.5878824
19.967458688587264	2.5185878	1.587006
19.985255166805807	2.4824479	1.5755786
20.00305213201348	2.450262	1.5653313
20.020849584679578	2.408853	1.552048
20.038647525273507	2.4218473	1.5562285
20.05644595426477	2.4186726	1.5552082
20.07424487212299	2.4086065	1.5519686
20.092044279317903	2.3880494	1.5453315
20.109844176319353	2.3926191	1.5468093
20.127644563597304	2.3999026	1.5491619
20.145445441621817	2.4449415	1.5636308
20.16324681086307	2.4431827	1.5630684
20.181048671791373	2.4493544	1.5650413
20.198851024877122	2.4008217	1.5494585
20.216653870590836	2.3653276	1.5379622
20.234457209403146	2.3643737	1.537652
20.252261041784802	2.4062316	1.5512033
20.270065368206662	2.3832564	1.54378
20.287870189139685	2.371198	1.5398694
20.305675505054968	2.3330777	1.5274415
20.323481316423702	2.3483167	1.5324218
20.341287623717207	2.340063	1.5297265
20.359094427406884	2.3347492	1.5279887
20.376901727964288	2.2960813	1.5152826
20.39470952586107	2.294905	1.5148944
20.41251782156899	2.320698	1.5233837
20.430326615559935	2.331606	1.5269597
20.448135908305886	2.3199453	1.5231367
20.465945700278965	2.322994	1.5241371
20.483755991951384	2.3265226	1.5252943
20.50156678379548	2.320843	1.5234313
20.519378076283708	2.3470626	1.5320126
20.537189869888635	2.3496683	1.5328628
20.55500216508294	2.352324	1.5337288
20.572814962339415	2.3822963	1.543469
20.59062826213098	2.4428134	1.5629503
20.60844206493066	2.45303	1.5662153
20.626256371211593	2.3791506	1.5424496
20.644071181447032	2.3514602	1.5334471
20.66188649611036	2.3216934	1.5237104
20.67970231567506	2.287274	1.5123736
20.697518640614742	2.2683084	1.5060904
20.715335471403122	2.2709446	1.5069654
20.73315280851404	2.2837102	1.511195
20.750970652421447	2.24972	1.4999067
20.768789003599412	2.2814708	1.5104538
20.786607862522136	2.2949786	1.5149187
20.8044272296639	2.322226	1.5238851
20.82224710549913	2.3018649	1.5171897
20.84006749050237	2.310999	1.520197
20.857888385148268	3.845651	1.9610331
20.8757097899116	45.929157	6.7771053
20.893531705267254	64.75681	8.047162
20.911354131690224	83.79356	9.153882
20.92917706965566	69.067024	8.3106575
20.94700051963877	50.136497	7.0807133
20.96482448211493	29.423449	5.4243383
20.982648957559622	4.1536784	2.0380576
21.00047394644843	2.2432823	1.4977591
21.01829944925707	2.2208693	1.4902581
21.036125466461375	2.2420685	1.4973538
21.053951998537297	2.2412498	1.4970804
21.071779045960906	2.2156851	1.4885178
21.089606609208378	2.187767	1.4791102
21.10743468875603	2.1874344	1.4789978
21.12526328508028	2.2207	1.4902014
21.143092398657675	2.2687042	1.5062218
21.16092202996488	2.26448	1.5048189
21.17875217947867	2.2617738	1.5039195
21.19658284767596	2.2242758	1.4914006
21.21441403503377	2.210863	1.4868971
21.232245742029225	2.1884043	1.4793257
21.2500779691396	2.1854053	1.4783117
21.26791071684227	2.1831443	1.4775467
21.28574398561475	2.1662521	1.4718193
21.30357777593465	2.191843	1.4804875
21.321412088279704	2.1819901	1.477156
21.339246923127792	2.1317132	1.4600388
21.357082280956888	2.0658858	1.4373189
21.3749181622451	2.0804224	1.442367
21.392754567470647	2.0941231	1.4471085
21.41059149711187	2.1115167	1.4531059
21.42842895164726	2.116959	1.4549774
21.446266931555378	2.117713	1.4552364
21.464105437314945	2.1203833	1.4561536
21.481944469404798	2.1190975	1.455712
21.49978402830388	2.1262295	1.4581597
21.51762411449127	2.1435218	1.4640771
21.53546472844617	2.1283703	1.4588935
21.553305870647876	2.1298723	1.4594082
21.571147541575865	2.1017613	1.4497453
21.58898974170967	2.0734339	1.4399424
21.60683247152899	2.0312285	1.4252118
21.62467573151363	2.049425	1.4315813
21.642519522143523	2.0942292	1.4471452
21.660363843898722	2.0934937	1.4468911
21.6782086972594	2.0776172	1.4413942
21.696054082705864	2.0550842	1.4335564
21.713900000718535	2.046738	1.4306425
21.73174645177795	2.044157	1.4297402
21.749593436364794	2.0424118	1.4291297
21.767440954959845	2.019406	1.421058
21.785289008044032	2.026769	1.4236463
21.803137596098388	2.0047417	1.415889
21.820986719604086	1.9733413	1.4047567
21.838836379042412	1.9816245	1.4077018
21.85668657489478	2.0200481	1.421284
21.87453730764273	2.0233748	1.4224538
21.892388577767914	2.0099082	1.4177123
21.91024038575213	2.0042655	1.4157208
21.928092732077285	2.0078003	1.4169687
21.945945617225426	2.0005264	1.4143996
21.963799041678694	2.014972	1.4194971
21.981653005919398	31.333769	5.5976577
21.999507510429943	78.112976	8.838155
22.01736255569286	73.044716	8.54662
22.035218142190818	4.124619	2.0309157
22.05307427040661	1.9415345	1.3933896
22.07093094082315	1.9570713	1.3989537
22.088788153923474	1.9711919	1.4039915
22.106645910190746	1.9753056	1.4054556
22.12450421010827	1.9510349	1.3967946
22.142363054159464	1.9479191	1.3956788
22.16022244282787	1.9315088	1.3897873
22.178082376597164	1.9251369	1.387493
22.195942855951145	1.9723969	1.4044205
22.213803881373742	1.9828774	1.4081467
22.231665453349002	1.9710464	1.4039396
22.24952757236111	1.9721465	1.4043313
22.26739023889438	1.9864767	1.4094242
22.28525345343323	1.9794077	1.4069142
22.30311721646225	1.9529119	1.3974662
22.320981528466113	1.9646374	1.4016552
22.33884638992964	1.967579	1.4027041
22.356711801337788	1.9649614	1.4017708
22.37457776317561	1.9626672	1.4009522
22.392444275928337	1.959425	1.3997946
22.410311340081282	1.9895577	1.4105169
22.428178956119904	1.9454113	1.39478
22.446047124529805	1.9270754	1.3881915
22.46391584579669	1.9238664	1.3870351
22.481785120406414	1.9597415	1.3999077
22.49965494884496	1.9632995	1.4011779
22.51752533159841	1.9171466	1.3846107
22.53539626915302	1.8762519	1.3697635
22.553267761995137	1.9018778	1.3790859
22.571139810611264	1.9146494	1.3837086
22.589012415488025	1.8979331	1.3776549
22.60688557711216	1.8702403	1.3675673
22.624759295970566	1.8665369	1.3662126
22.642633572550263	1.8912804	1.3752383
22.660508407338362	1.8892875	1.3745135
22.67838380082217	1.8885311	1.3742384
22.696259753489077	1.9260348	1.3878165
22.714136265826614	1.9381758	1.3921838
22.73201333832246	1.9274789	1.3883368
22.74989097146439	1.8759589	1.3696564
22.76776916574035	1.8867418	1.3735871
22.785647921638393	1.8884753	1.3742181
22.803527239646712	1.8827696	1.3721405
22.82140712025363	1.9167984	1.3844849
22.839287563947593	1.9685979	1.4030674
22.85716857121719	2.0091615	1.4174489
22.875050142551135	1.9608145	1.4002908
22.892932278438277	1.9400649	1.3928621
22.910814979367604	1.9353601	1.3911722
22.928698245828222	1.9368683	1.3917142
22.946582078309387	1.9291245	1.3889292
22.96446647730047	1.9277153	1.3884219
22.98235144329098	1.8784529	1.3705666
23.000236976770562	1.8739585	1.368926
23.018123078229	1.9052973	1.3803251
23.03600974815619	1.9065052	1.3807626
23.053896987042194	1.8477103	1.359305
23.071784795377173	1.846246	1.3587663
23.08967317365145	1.8882551	1.374138
23.10756212235546	1.8995569	1.3782442
23.125451641979787	1.8774333	1.3701947
23.143341733015134	1.8854141	1.3731039
23.161232395952357	1.9220331	1.3863741
23.179123631282426	1.940385	1.392977
23.197015439496468	1.9420897	1.3935888
23.214907821085717	1.9348283	1.3909811
23.23280077654157	1.9249332	1.3874196
23.250694306355538	1.9113119	1.3825021
23.268588411019277	1.9348018	1.3909715
23.28648309102458	1.9673538	1.4026239
23.304378346863356	1.9602575	1.400092
23.322274179027676	1.9496219	1.3962886
23.340170588009723	1.919576	1.3854877
23.358067574301852	1.8958396	1.376895
23.37596513839651	1.8770247	1.3700455
23.39386328078629	1.8891743	1.3744724
23.411762001963947	1.896788	1.3772392
23.429661302422353	1.9108925	1.3823503
23.4475611826545	1.9356064	1.3912607
23.46546164315356	1.9249436	1.3874234
23.48336268441279	1.9447776	1.3945528
23.501264306925638	1.9289572	1.388869
23.51916651118564	1.9741505	1.4050447
23.537069297686497	1.9134555	1.383277
23.554972666922037	1.9059464	1.3805602
23.57287661938623	1.8808334	1.3714348
23.59078115557318	1.9209117	1.3859695
23.608686275977128	1.9284	1.3886684
23.62659198109246	1.9451382	1.3946822
23.6444982714137	1.9074234	1.3810949
23.66240514743549	1.9343138	1.3907961
23.68031260965263	1.889357	1.3745388
23.698220658560068	1.8541799	1.3616828
23.716129294652845	1.8657576	1.3659273
23.7340385184262	1.8807914	1.3714195
23.75194833037546	1.8879905	1.3740417
23.769858730996123	1.8627663	1.3648319
23.78776972078382	1.8421263	1.3572495
23.80568130023431	1.8636351	1.3651502
23.823593469843495	1.8694625	1.3672829
23.841506230107424	1.883397	1.3723692
23.859419581522275	1.8730592	1.3685975
23.87733352458438	1.9055204	1.3804059
23.89524805979019	1.943814	1.3942074
23.913163187636318	1.9747823	1.4052695
23.931078908619508	1.9850069	1.4089028
23.948995223236633	1.9739076	1.4049582
23.966912131984735	1.9668547	1.4024459
23.98482963536096	1.9698912	1.4035281
24.002747733862616	2.003198	1.4153438
24.020666427987155	2.069756	1.4386647
24.038585718232156	2.0731242	1.4398347
24.056505605095353	2.0442626	1.4297771
24.074426089074617	2.052284	1.4325795
24.092347170667946	2.02815	1.4241314
24.110268850373515	2.0253932	1.423163
24.128191128689586	2.0409212	1.4286082
24.146114006114626	2.0659535	1.4373425
24.164037483147187	2.072739	1.439701
24.181961560286005	2.0795004	1.4420474
24.199886238029926	2.067876	1.4380112
24.21781151687797	2.0979638	1.448435
24.235737397329274	2.0814652	1.4427284
24.253663879883135	2.0415971	1.4288447
24.271590965038975	2.0089715	1.4173819
24.289518653296376	2.0259166	1.423347
24.30744694515505	2.0320337	1.4254942
24.32537584111486	2.0540729	1.4332037
24.34330534167581	2.0346825	1.426423
24.361235447338046	2.065562	1.4372063
24.379166158601876	2.0779867	1.4415224
24.39709747596772	2.0819316	1.44289
24.41502939993615	2.0202644	1.42136
24.432961931007917	1.9898431	1.410618
24.450895069683856	1.9567552	1.3988407
24.468828816465	1.9379712	1.3921103
24.4867631718525	1.9132655	1.3832084
24.504698136347656	1.9848783	1.4088571
24.52263371045192	1.996237	1.4128826
24.540569894666874	1.9451492	1.3946861
24.558506689494266	1.9103143	1.3821412
24.57644409543597	1.9102972	1.382135
24.594382112994012	1.8987412	1.3779482
24.61232074267057	1.9276412	1.3883952
24.630259984967953	1.9573545	1.3990549
24.64819984038863	1.9469935	1.3953471
24.66614030943522	1.9052366	1.380303
24.684081392610462	1.8861619	1.3733761
24.702023090417274	1.943229	1.3939974
24.7199654033587	1.9613163	1.40047
24.737908331937927	1.9798794	1.4070818
24.755851876658305	1.9296745	1.3891273
24.773796038023324	1.9482231	1.3957876
24.79174081653661	2.025046	1.4230411
24.809686212701962	2.102506	1.4500021
24.827632227023294	2.0697088	1.4386482
24.8455788600047	2.0699754	1.4387408
24.8635261121504	2.0494914	1.4316045
24.88147398396475	2.059915	1.4352404
24.899422475952303	2.0714805	1.4392638
24.917371588617698	2.0714853	1.4392655
24.935321322465768	2.0983171	1.4485569
24.953271678001478	2.253305	1.5011013
24.97122265572994	2.4617414	1.5689938
24.989174256156414	2.7703102	1.6644249
25.00712647978632	3.1908374	1.7862915
25.02507932712521	3.716272	1.9277635
25.043032798678798	4.2080984	2.051365
25.060986894952933	4.817305	2.194836
25.078941616453637	5.524969	2.3505254
25.096896963687055	6.4184055	2.5334573
25.114852937159508	7.4902463	2.7368314
25.132809537377444	8.0224085	2.8323855
25.150766764847468	8.115779	2.8488207
25.168724620076347	7.574279	2.7521408
25.186683103570985	6.581751	2.5654924
25.204642215838426	5.5015006	2.345528
25.222601957385894	4.2228293	2.0549524
25.24056232872074	3.2233672	1.7953738
25.25852333035048	2.687044	1.6392205
25.276484962782778	2.3305857	1.5266256
25.294447226525435	2.1262784	1.4581764
25.312410122086423	2.0134265	1.4189526
25.330373649973843	1.9293814	1.3890218
25.348337810695988	1.9050033	1.3802186
25.366302604761245	1.9116127	1.3826108
25.384268032678207	1.9254266	1.3875974
25.40223409495558	1.9180135	1.3849236
25.420200792102257	1.8676748	1.366629
25.438168124627246	1.8317626	1.3534262
25.45613609303974	1.8197548	1.3489829
25.474104697849057	1.8291532	1.3524619
25.492073939564698	1.8588421	1.3633937
25.510043818696285	1.8993297	1.3781617
25.528014335753614	1.9039205	1.3798263
25.54598549124664	1.8749968	1.3693053
25.56395728568544	1.8427444	1.3574772
25.58192971958028	1.8562984	1.3624605
25.59990279344156	1.8236917	1.3504413
25.617876507779833	1.8129119	1.3464441
25.635850863105826	1.7760857	1.3326987
25.653825859930386	1.8024627	1.3425583
25.671801498764548	1.8333594	1.3540161
25.68977778011949	1.858788	1.3633738
25.707754704506524	1.8728623	1.3685256
25.725732272437153	1.8684556	1.3669146
25.743710484423012	1.8361727	1.3550545
25.761689340975888	1.810008	1.3453654
25.77966884260774	1.8724922	1.3683903
25.797648989830662	1.947957	1.3956923
25.815629783156922	1.9123611	1.3828815
25.83361122309895	1.8655583	1.3658544
25.85159331016929	1.820373	1.349212
25.869576044880695	1.8321819	1.3535812
25.887559427746034	1.8335539	1.3540878
25.90554345927836	1.8699149	1.3674483
25.92352813999086	1.8551618	1.3620433
25.94151347039689	1.8436501	1.3578107
25.959499451009965	1.8506655	1.3603916
25.97748608234374	1.8952487	1.3766803
25.995473364912062	1.8604833	1.3639953
26.013461299228904	1.8170888	1.3479943
26.03144988580839	1.7621497	1.3274598
26.04943912516483	1.7909698	1.3382713
26.067429017812675	1.8036541	1.3430018
26.085419564266537	1.7697897	1.3303344
26.103410765041186	1.7720793	1.3311948
26.12140262065155	1.8248866	1.3508836
26.139395131612723	1.8632338	1.3650032
26.157388298439948	1.8715603	1.3680499
26.17538212164861	1.8729342	1.3685519
26.193376601754295	1.8654133	1.3658013
26.211371739272714	1.822214	1.349894
26.229367534719746	1.8004397	1.3418046
26.247363988611433	1.766913	1.3292528
26.26536110146397	1.787531	1.3369858
26.283358873793727	1.8216469	1.349684
26.301357306117204	1.8186816	1.348585
26.319356398951104	1.8100381	1.3453766
26.33735615281224	1.7835331	1.3354899
26.35535656821762	1.7713295	1.3309131
26.373357645684404	1.816097	1.3476264
26.39135938572991	1.8105501	1.3455669
26.409361788871614	1.8076519	1.3444895
26.427364855627165	1.7777296	1.3333153
26.445368586514352	1.7538707	1.3243378
26.46337298205115	1.769906	1.3303782
26.48137804275568	1.7832545	1.3353856
26.499383769146217	1.7782793	1.3335214
26.517390161741215	1.7978938	1.3408556
26.53539722105928	1.867677	1.3666298
26.553404947619182	1.8718826	1.3681676
26.571413341939856	1.8308694	1.3530962
26.589422404540397	1.8161702	1.3476536
26.60743213594006	1.8093865	1.3451344
26.62544253665827	1.787035	1.3368003
26.64345360721459	1.7506781	1.3231319
26.66146534812879	1.7487706	1.322411
26.679477759920758	1.7438368	1.3205441
26.69749084311057	1.8099104	1.3453292
26.71550459821847	1.7945274	1.3395997
26.733519025764842	1.769369	1.3301764
26.751534126270258	1.7456813	1.3212423
26.769549900255434	1.802876	1.3427122
26.787566348241267	1.7727492	1.3314463
26.80558347074881	1.7421634	1.3199104
26.823601268299267	1.7432961	1.3203394
26.841619741414036	1.7448002	1.3209089
26.85963889061465	1.7563716	1.3252817
26.877658716422832	1.7814775	1.33472
26.89567921936045	1.8082249	1.3447025
26.913700399949544	1.792268	1.3387562
26.93172225871233	1.8140544	1.3468684
26.949744796171174	1.8264438	1.3514599
26.967768012848605	1.7811449	1.3345954
26.98579190926733	1.776458	1.3328383
27.003816485950225	1.7745742	1.3321314
27.021841743420318	1.759117	1.3263171
27.039867682200814	1.7132834	1.3089246
27.057894302815072	1.6909192	1.3003535
27.07592160578664	1.7679108	1.3296281
27.0939495916392	1.8556494	1.3622222
27.111978260896635	1.8510342	1.3605272
27.13000761408296	1.8273196	1.3517839
27.148037651722397	1.8112196	1.3458155
27.166068374339304	1.7699045	1.3303776
27.184099782458215	1.7580374	1.3259101
27.20213187660384	1.8006732	1.3418916
27.22016465730105	1.8306723	1.3530234
27.23819812507487	1.7960972	1.3401855
27.256232280450533	1.8081369	1.3446698
27.274267123953383	1.8031725	1.3428226
27.292302656108987	1.7467668	1.321653
27.31033887744306	1.7446457	1.3208504
27.32837578848146	1.767937	1.3296379
27.34641338975026	1.7340506	1.3168336
27.364451681775673	1.756693	1.325403
27.382490665084074	1.7417006	1.319735
27.400530340202046	1.7614185	1.3271844
27.41857070765629	1.74501	1.3209883
27.436611767973726	1.7648293	1.3284688
27.454653521681404	1.8100142	1.3453677
27.472695969306564	1.8106635	1.345609
27.490739111376627	1.8083888	1.3447635
27.508782948419153	1.8192632	1.3488007
27.526827480961902	1.8205327	1.3492712
27.54487270953279	1.8099475	1.3453429
27.562918634659898	1.8037654	1.3430433
27.580965256871508	1.854944	1.3619633
27.599012576696026	1.8741127	1.3689823
27.617060594662068	1.8394443	1.3562611
27.63510931129842	1.7721821	1.3312333
27.65315872713401	1.7614832	1.3272088
27.67120884269797	1.7980901	1.3409288
27.68925965851958	1.8090799	1.3450204
27.707311175128307	1.8428069	1.3575002
27.725363393053787	1.8670045	1.3663838
27.74341631282583	1.8945607	1.3764304
27.7614699349744	1.9127195	1.383011
27.77952426002968	2.095649	1.4476357
27.797579288521973	2.162215	1.4704472
27.815635020981784	2.646814	1.6269032
27.83369145793979	2.6575418	1.6301968
27.85174859992682	2.3958373	1.5478493
27.869806447473923	2.2641366	1.5047048
27.887865001112267	2.0406842	1.4285252
27.905924261373233	1.9210719	1.3860273
27.92398422878836	1.8443688	1.3580754
27.94204490388936	1.8229444	1.3501645
27.96010628720813	1.835057	1.3546427
27.978168379276728	1.8774463	1.3701993
27.9962311806274	1.9112784	1.3824899
28.014294691792568	1.9000088	1.3784081
28.0323589133048	1.8292195	1.3524864
28.050423845696887	1.7923336	1.3387806
28.068489489501758	1.8132275	1.3465614
28.086555845252523	1.8389891	1.3560933
28.104622913482487	1.8831418	1.3722761
28.122690694725115	1.8843563	1.3727186
28.14075918951405	1.8364851	1.3551698
28.15882839838312	1.9100128	1.3820322
28.176898321866304	2.0115495	1.4182911
28.1949689604978	1.9907619	1.4109436
28.213040314811945	1.9104774	1.3822002
28.23111238534327	1.8874233	1.3738352
28.249185172626493	1.8754497	1.3694706
28.267258677196473	1.8894289	1.374565
28.285332899588294	1.9198465	1.3855853
28.303407840337172	1.9125427	1.3829471
28.321483499978545	1.8955677	1.3767961
28.33955987904799	1.8504739	1.3603213
28.357636978081285	1.8595287	1.3636453
28.37571479761439	1.9303712	1.389378
28.393793338183425	1.9541456	1.3979076
28.41187260032469	1.9328699	1.3902769
28.429952584574686	1.9394194	1.3926303
28.448033291470065	1.9701258	1.4036117
28.46611472154769	1.9810729	1.4075059
28.484196875344566	2.0034606	1.4154365
28.502279753397914	2.022911	1.4222908
28.52036335624511	1.9751059	1.4053847
28.538447684423716	1.929271	1.3889819
28.556532738471482	1.9181076	1.3849577
28.574618518926325	1.9315424	1.3897994
28.59270502632635	1.940724	1.3930987
28.61079226120985	1.9486122	1.395927
28.628880224115274	1.9954743	1.4126126
28.646968915581287	2.0072284	1.4167669
28.66505833614671	2.0116935	1.4183418
28.68314848635055	2.0523796	1.4326129
28.701239366732004	2.0958195	1.4476945
28.71933097783044	2.0493107	1.4315413
28.737423320185403	1.9905294	1.4108613
28.75551639433665	2.005137	1.4160286
28.773610200824074	2.0434895	1.4295067
28.791704740187793	2.0749712	1.4404761
28.80980001296809	2.1665325	1.4719145
28.827896019705413	2.2008567	1.4835285
28.845992760940433	2.1615407	1.470218
28.86409023721397	2.1337788	1.4607459
28.88218844906704	2.179908	1.4764512
28.900287397040845	2.2494764	1.4998255
28.918387081676755	2.2929265	1.5142412
28.936487503516343	2.239291	1.4964261
28.954588663101365	2.2381809	1.4960551
28.97269056097374	2.2241282	1.4913511
28.990793197675597	2.2388763	1.4962875
29.00889657374923	2.30618	1.5186112
29.027000689737125	2.3010654	1.5169263
29.04510554618196	2.3156335	1.5217205
29.06321114362659	2.2913864	1.5137326
29.08131748261405	2.32385	1.5244179
29.099424563687567	2.3941512	1.5473045
29.11753238739057	2.4610298	1.568767
29.13564095426663	2.5073116	1.5834492
29.15375026485954	2.5477157	1.5961565
29.171860319713275	2.6222086	1.6193235
29.18997111937199	2.6319401	1.6223255
29.20808266438002	2.6545105	1.6292669
29.226194955281898	2.7121117	1.646849
29.244307992622335	2.8050637	1.6748325
29.26242177694624	2.8600924	1.6911808
29.2805363087987	2.8376834	1.6845425
29.29865158872498	2.828679	1.6818677
29.316767617270557	2.8631778	1.6920928
29.334884394981064	2.877755	1.6963947
29.353001922402367	2.9345078	1.7130405
29.37112020008047	2.9793901	1.726091
29.389239228561596	3.0674956	1.7514267
29.407359008392152	3.2615037	1.8059634
29.42547954011872	3.5743468	1.8905942
29.44360082428809	4.2215447	2.0546398
29.46172286144722	5.2710366	2.2958739
29.479845652143283	6.6947713	2.5874257
29.497969196923606	8.578674	2.9289374
29.516093496335728	11.026522	3.3206208
29.5342185509274	13.79163	3.7137084
29.55234436124651	16.114183	4.0142474
29.570470927841175	17.48005	4.180915
29.588598251259686	17.380314	4.1689706
29.60672633205055	16.205675	4.025627
29.624855170762405	13.984678	3.7396095
29.642984767944146	11.294395	3.3607135
29.66111512414481	8.852881	2.9753792
29.67924623991366	6.7333684	2.5948734
29.697378115800138	5.162234	2.272055
29.71551075235387	4.1778283	2.0439737
29.733644150124675	3.7706053	1.9418046
29.751778309662576	3.54727	1.8834198
29.769913231517766	3.4740274	1.8638743
29.78804891624066	3.4049804	1.845259
29.806185364381818	3.3266122	1.8239002
29.82432257649206	3.2103288	1.7917391
29.842460553122333	3.1838253	1.7843276
29.86059929482382	3.2498226	1.8027264
29.878738802147872	3.2940283	1.8149458
29.896879075646048	3.2698736	1.8082792
29.915020115870114	3.2562897	1.8045193
29.933161923371976	3.250089	1.8028003
29.951304498703777	3.2188113	1.7941046
29.969447842417857	3.2203693	1.7945387
29.987591955066733	3.2548914	1.8041317
30.005736837203123	3.236299	1.7989717
30.023882489379943	3.2010798	1.7891562
30.04202891215028	3.2151072	1.793072
30.060176106067455	3.2155044	1.7931827
30.078324071684946	3.1858876	1.7849054
30.09647280955646	3.1836202	1.7842702
30.114622320235863	3.1068425	1.7626238
30.132772604277257	3.0822845	1.7556436
30.1509236622349	3.0944588	1.7591074
30.16907549466328	3.1073952	1.7627805
30.18722810211705	3.0736413	1.7531804
30.205381485151097	3.024328	1.7390596
30.22353564432045	3.0206113	1.7379906
30.241690580180403	3.0829465	1.7558322
30.25984629328638	3.097138	1.7598687
30.278002784194037	3.0746944	1.7534807
30.296160053459246	3.040073	1.7435805
30.314318101638033	3.0055373	1.7336485
30.332476929286646	3.024006	1.738967
30.35063653696153	3.0104797	1.7350734
30.368796925219307	2.9522736	1.7182182
30.386958094616844	2.9387195	1.7142694
30.40512004571115	2.9136927	1.7069542
30.423282779059463	2.9237788	1.7099061
30.441446295219233	2.9171968	1.7079803
30.459610594748067	2.865446	1.6927629
30.47777567820382	2.8093605	1.6761147
30.495941546144504	2.7623067	1.6620189
30.51410819912835	2.7586	1.6609033
30.532275637713795	2.8060975	1.6751411
30.55044386245946	2.8162122	1.6781573
30.56861287392416	2.8161652	1.6781434
30.586782672666956	2.7625353	1.6620877
30.604953259247047	2.7324972	1.6530267
30.623124634223885	2.7919905	1.670925
30.641296798157075	2.864897	1.6926006
30.659469751606462	2.8850954	1.6985569
30.677643495132074	2.7495222	1.6581683
30.695818029294152	2.6798718	1.6370314
30.713993354653116	2.7637873	1.6624643
30.73216947176962	2.78516	1.6688799
30.75034638120448	2.749449	1.6581463
30.768524083518756	2.6473193	1.6270585
30.786702579273673	2.7168715	1.6482935
30.80488186903069	2.7993948	1.6731392
30.82306195335144	2.898846	1.7025998
30.841242832797782	3.0775502	1.7542948
30.85942450793176	3.3198638	1.8220494
30.877606979315637	3.6133523	1.900882
30.895790247511883	3.9958756	1.9989686
30.913974313083134	4.439956	2.1071203
30.932159176592283	4.8384094	2.1996384
30.95034483860237	4.838992	2.199771
30.968531299676698	4.6340337	2.1526806
30.98671856037873	4.3590364	2.0878305
31.00490662127215	4.0118876	2.0029697
31.023095482920848	3.5369837	1.880687
31.04128514588892	3.0829446	1.7558316
31.059475610740662	2.7055383	1.644852
31.07766687804056	2.5052764	1.5828065
31.09585894835335	2.5414572	1.5941949
31.11405182224393	2.602729	1.6132976
31.132245500277417	2.5794141	1.6060555
31.15043998301914	2.4806345	1.575003
31.168635271034628	2.431362	1.5592825
31.18683136488964	2.4218936	1.5562434
31.20502826515008	2.4184911	1.5551499
31.223225972382135	2.3849096	1.5443152
31.241424487152155	2.4325702	1.5596699
31.259623810026692	2.4579751	1.5677931
31.27782394157253	2.4590757	1.5681441
31.296024882356644	2.4600565	1.5684568
31.314226632946237	2.4206135	1.5558321
31.332429193908684	2.4079566	1.5517592
31.350632565811598	2.378006	1.5420785
31.368836749222787	2.3826716	1.5435905
31.387041744710295	2.405162	1.5508585
31.40524755284232	2.4676692	1.5708817
31.423454174187317	2.503905	1.5823733
31.441661609313922	2.5409226	1.5940272
31.459869858791002	2.510142	1.5843428
31.478078923187628	2.3820443	1.5433873
31.496288803073064	2.2877805	1.512541
31.514499499016807	2.2325654	1.4941772
31.532711011588546	2.3110414	1.520211
31.550923341358178	2.3747783	1.5410316
31.56913648889584	2.3947506	1.5474982
31.587350454771844	2.3130257	1.5208635
31.605565239556732	2.3231194	1.5241783
31.62378084382127	2.34296	1.530673
31.641997268136382	2.2912843	1.5136989
31.660214513073274	2.229794	1.4932495
31.67843257920331	2.2819014	1.5105964
31.6966514670981	2.3526783	1.5338442
31.71487117732944	2.3153443	1.5216255
31.733091710469346	2.2960527	1.5152731
31.751313067090052	2.2651184	1.505031
31.769535247764008	2.2560496	1.5020152
31.787758253063878	2.297778	1.5158423
31.805982083562526	2.2478766	1.499292
31.824206739833024	2.1543107	1.467757
31.84243222244869	2.2303708	1.4934425
31.860658531983013	2.311044	1.5202118
31.878885669009737	2.2872708	1.5123726
31.897113634102784	2.2600873	1.5033586
31.91534242783632	2.2769825	1.5089674
31.933572050784694	2.2879467	1.512596
31.951802503522508	2.2695746	1.5065107
31.970033786624548	2.212879	1.4875748
31.988265900665834	2.2428372	1.4976104
32.006498846221575	2.3012938	1.5170016
32.02473262386724	2.278733	1.5095472
32.04296723417845	2.1189284	1.4556539
32.0612026777311	2.084712	1.4438531
32.07943895510129	2.2210526	1.4903196
32.097676066865304	2.203302	1.4843524
32.115914013599685	2.138981	1.4625256
32.13415279588115	2.1080759	1.4519215
32.152392414286666	2.1014874	1.4496508
32.1706328693934	2.0686953	1.438296
32.18887416177875	2.125395	1.4578735
32.20711629202032	2.1758716	1.4750836
32.225359260695924	2.1020155	1.4498329
32.243603068383614	2.0579174	1.4345443
32.26184771566166	2.1334088	1.4606193
32.28009320310852	2.139659	1.4627573
32.2983395313029	2.0727713	1.4397123
32.31658670082372	2.0393214	1.4280481
32.33483471225012	2.0535498	1.4330212
32.35308356616143	2.1169736	1.4549824
32.371333263137245	2.101543	1.44967
32.38958380375734	2.1041014	1.4505521
32.407835188601744	2.1682074	1.4724834
32.42608741825067	2.1958303	1.4818335
32.444340493284585	2.1048315	1.4508038
32.46259441428416	2.048389	1.4312193
32.48084918183028	2.023605	1.4225347
32.49910479650405	2.0719995	1.4394442
32.51736125888683	2.085721	1.4442025
32.53561856956014	2.1289628	1.4590966
32.5538767291058	2.0668914	1.4376688
32.572135738105764	2.0353353	1.4266518
32.59039559714228	1.9981606	1.4135631
32.608656306797776	1.9962536	1.4128884
32.62691786765491	2.0762758	1.4409288
32.645180280296586	2.111778	1.4531958
32.663443545305896	2.0633297	1.4364295
32.68170766326619	2.0597093	1.4351687
32.69997263476099	2.0832133	1.4433341
32.7182384603741	2.0460765	1.4304113
32.7365051406895	1.9839108	1.4085137
32.75477267629144	2.0137632	1.4190712
32.77304106776434	1.9710313	1.4039342
32.79131031569289	1.9437208	1.3941739
32.809580420661966	1.8500273	1.3601571
32.827851383256714	1.8562734	1.3624512
32.84612320406245	1.933204	1.3903971
32.86439588366476	1.9806393	1.4073519
32.88266942264945	2.0100389	1.4177583
32.9009438216025	1.9211577	1.3860583
32.9192190811102	1.9461449	1.395043
32.937495201758985	2.017382	1.4203457
32.95577218413556	2.050924	1.4321048
32.974050028826866	2.0005069	1.4143927
32.992328736420035	1.9212717	1.3860995
33.010608307502444	1.9093739	1.381801
33.02888874266169	1.9171005	1.384594
33.047170042485604	1.9153541	1.3839632
33.06545220756225	1.9262997	1.387912
33.083735238479896	1.99149	1.4112016
33.10201913582707	2.059314	1.435031
33.12030390019248	1.9902879	1.4107757
33.138589532165135	1.9203616	1.3857712
33.15687603233419	1.9391948	1.3925498
33.17516340128909	2.0026348	1.4151448
33.19345163961947	2.0534744	1.432995
33.211740747915215	2.011401	1.4182386
33.23003072676643	2.02409	1.4227052
33.248321576763466	2.0550823	1.4335558
33.266613298496885	1.9257276	1.3877059
33.28490589255747	1.871588	1.36806
33.30319935953626	1.9352878	1.3911462
33.32149370002451	1.9142506	1.3835645
33.339788914613706	1.9149307	1.3838102
33.358085003895575	1.9176192	1.3847812
33.376381968462034	1.9369946	1.3917595
33.39467980890529	1.9430993	1.3939509
33.41297852581774	1.9385959	1.3923347
33.43127811979204	1.9436281	1.3941406
33.44957859142105	1.9123656	1.3828831
33.467879941297866	1.8877643	1.3739594
33.486182170015844	1.9086578	1.3815418
33.50448527816853	1.918311	1.3850311
33.522789266349754	2.0161045	1.4198959
33.541094135153514	2.016764	1.4201281
33.55939988517411	1.9611032	1.400394
33.57770651700602	1.9284133	1.3886732
33.59601403124398	1.9070947	1.380976
33.61432242848296	1.9303241	1.389361
33.632631709318154	2.0383282	1.4277003
33.650941874344994	2.0575695	1.4344231
33.66925292415916	2.0452282	1.4301147
33.68756485935654	2.0156882	1.4197494
33.70587768053328	1.9725885	1.4044887
33.724191388285746	1.91508	1.3838642
33.74250598321054	1.75388	1.3243413
33.760821465904506	1.7363274	1.3176978
33.77913783696474	1.7550335	1.3247768
33.79745509698852	1.7583458	1.3260263
33.815773246573414	1.8222644	1.3499128
33.8340922863172	1.8888938	1.3743703
33.852412216817896	2.019683	1.4211555
33.87073303867377	2.086915	1.4446158
33.889054752483304	1.9674236	1.4026488
33.907377358845245	1.8847432	1.3728595
33.92570085835853	1.833967	1.3542404
33.94402525162239	1.859475	1.3636256
33.96235053923627	1.7915425	1.3384851
33.980676721799824	1.8848625	1.372903
33.999003799912984	1.974945	1.4053273
34.01733177417592	1.9916146	1.4112457
34.03566064518901	1.9623883	1.4008527
34.0539904135529	1.9444388	1.3944314
34.07232107986846	1.7846448	1.335906
34.090652644736785	1.9520345	1.3971523
34.108985108759235	2.1984117	1.4827042
34.12731847253742	2.268104	1.5060226
34.14565273667313	2.2229214	1.4909464
34.16398790176847	2.0551896	1.4335933
34.18232396842574	1.9089702	1.3816549
34.20066093724749	1.9142941	1.3835802
34.21899880883651	1.9180691	1.3849437
34.23733758379583	1.8171933	1.3480331
34.25567726272874	1.8098634	1.3453116
34.27401784623872	1.904877	1.3801728
34.29235933492957	1.9766375	1.4059294
34.31070172940526	1.998981	1.4138533
34.32904503027003	1.9438486	1.3942198
34.347389238128386	1.9431603	1.3939729
34.36573435358502	1.9933927	1.4118756
34.38408037724492	1.9536297	1.3977231
34.402427309713296	1.9954967	1.4126205
34.42077515159559	1.9475971	1.3955634
34.43912390349752	1.9006177	1.378629
34.45747356602499	1.8959321	1.3769284
34.47582413978423	1.9930304	1.4117473
34.49417562538163	2.04645	1.4305419
34.51252802342388	1.9025375	1.379325
34.53088133451789	1.8700118	1.3674837
34.54923555927084	1.854837	1.3619239
34.567590698290104	1.8941805	1.3762923
34.58594675218336	1.9057167	1.380477
34.6043037215585	1.9775096	1.4062395
34.62266160702365	1.9140753	1.383501
34.641020409187234	1.7422868	1.3199571
34.65938012865785	1.9234862	1.386898
34.677740766044394	2.0688748	1.4383584
34.69610232195598	1.9623332	1.400833
34.714464797002016	1.8412933	1.3569427
34.73282819179208	1.8484124	1.3595634
34.751192506936064	1.8996476	1.3782771
34.76955774304408	1.9596225	1.3998652
34.7879239007265	2.0700016	1.43875
34.80629098059391	2.0288906	1.4243913
34.824658983257194	1.8999751	1.3783958
34.843027909327446	2.0628457	1.436261
34.86139775941603	2.0750935	1.4405185
34.879768534134534	1.9860255	1.4092642
34.89814023409483	1.9566771	1.3988128
34.91651285990901	1.8028439	1.3427002
34.93488641218944	1.7382319	1.3184202
34.95326089154871	1.9213203	1.386117
34.97163629859967	2.0304375	1.4249341
34.99001263395542	1.8901243	1.374818
35.00838989822934	1.9078579	1.3812523
35.02676809203499	1.7994442	1.3414336
35.04514721598624	1.7464684	1.3215401
35.063527270697215	1.7831346	1.3353406
35.081908256782256	1.8534214	1.3614042
35.10029017485597	2.0806704	1.4424529
35.11867302553321	2.2525954	1.5008649
35.137056809429104	2.1311123	1.459833
35.155441527159006	2.026797	1.4236562
35.173827179338524	1.9253994	1.3875877
35.19221376658354	1.8480777	1.3594402
35.21060128951017	1.9077412	1.3812101
35.2289897487348	2.089858	1.4456341
35.24737914487405	2.125407	1.4578775
35.26576947854479	2.2631686	1.5043831
35.28416075036418	2.3456335	1.5315461
35.30255296094958	2.1414464	1.4633682
35.32094611091867	2.3152044	1.5215796
35.33934020088932	2.2686782	1.5062132
35.35773523147969	2.009932	1.4177207
35.3761312033082	2.0124338	1.4186027
35.394528116993506	1.8849041	1.3729181
35.41292597315452	2.0380478	1.427602
35.431324772410434	2.5977452	1.6117522
35.449724515380666	2.6950824	1.6416706
35.46812520268491	2.0935206	1.4469004
35.486526834943106	1.5793121	1.2567068
35.504929412775454	2.0825205	1.443094
35.52333293680242	2.3934555	1.5470797
35.54173740764471	1.9944797	1.4122605
35.560142825923286	1.3556049	1.1643045
35.5785491922594	1.152262	1.0734347
35.59695650727454	1.4469385	1.2028875
35.61536477159042	1.9727423	1.4045434
