0.008763373481513119	0.3822274	0.6182454
0.026290120649546365	0.19633481	0.44309685
0.043816868432600686	0.3235951	0.5688542
0.06134361724069026	0.1974291	0.44432995
0.07887036748382949	0.1428925	0.37801123
0.0963971195720331	0.112873025	0.3359658
0.11392387391531617	0.048101448	0.21932042
0.1314506309236943	0.045322858	0.21289165
0.1489773910071836	0.053317823	0.23090652
0.16650415457580078	0.034042086	0.18450497
0.18403092203956356	0.05609107	0.23683554
0.20155769380849	0.09238304	0.30394578
0.2190844702925996	0.12536924	0.3540752
0.2366112519019124	0.14004093	0.37422043
0.2541380390464497	0.14258575	0.3776053
0.27166483213623416	0.11860108	0.34438506
0.28919163158128947	0.13687995	0.3699729
0.3067184377916406	0.15414065	0.3926075
0.324245251177314	0.18398991	0.42894045
0.34177207214833777	0.19143696	0.4375351
0.3592989011147415	0.15917021	0.39896142
0.37682573848655654	0.11740886	0.34264976
0.39435258467381573	0.106806956	0.32681334
0.41187944008655414	0.12472586	0.35316548
0.42940630513480854	0.14925426	0.3863344
0.446933180228618	0.14678937	0.383131
0.4644600657780234	0.16494456	0.40613368
0.48198696219306775	0.18927898	0.43506205
0.49951386988379676	0.19918779	0.4463046
0.5170407892602581	0.19721754	0.44409183
0.5345677207325025	0.15804014	0.39754263
0.5520946647105822	0.1525844	0.39062053
0.5696216216045534	0.17634712	0.41993704
0.5871485918244737	0.16884816	0.41091138
0.6046755757804043	0.14179735	0.37655988
0.6222025738824094	0.12340784	0.35129452
0.6397295865405557	0.14416064	0.37968493
0.6572566141649129	0.14526927	0.38114208
0.6747836571655547	0.12940177	0.35972458
0.6923107159525568	0.11488024	0.33893988
0.7098377909359992	0.12542807	0.35415825
0.7273648825259653	0.15657085	0.39569035
0.7448919911325411	0.21554214	0.46426517
0.762419117165817	0.24101463	0.4909324
0.7799462610358868	0.27822223	0.5274677
0.7974734231528482	0.2686245	0.51829
0.8150006039268024	0.23357026	0.48329106
0.8325278037678551	0.23520453	0.48497888
0.8500550230861152	0.22395036	0.47323394
0.8675822622916969	0.21793096	0.46683076
0.8851095217947171	0.22134247	0.4704705
0.9026368020052984	0.20376852	0.45140725
0.9201641033335665	0.20816796	0.45625427
0.9376914261896523	0.22234163	0.47153115
0.9552187709836915	0.21343143	0.4619864
0.9727461381258234	0.22534682	0.4747071
0.990273528026193	0.21511465	0.46380454
1.0078009410949496	0.19669606	0.4435043
1.0253283777422473	0.20162812	0.4490302
1.0428558383782454	0.2157931	0.46453536
1.0603833234131086	0.2855586	0.53437686
1.0779108332570058	0.34193662	0.58475345
1.0954383683201119	0.36356017	0.6029595
1.112965929012607	0.40013722	0.632564
1.1304935157446763	0.48022446	0.6929823
1.1480211289265108	0.506414	0.7116277
1.1655487689683062	1.3778644	1.1738247
1.1830764362802655	1.6874027	1.2990006
1.200604131272596	2.1390958	1.4625648
1.2181318543555117	2.5145528	1.5857341
1.235659605939232	2.5279796	1.5899621
1.253187386433982	3.830474	1.9571596
1.270715196249994	6.143632	2.478635
1.2882430357975057	11.427065	3.3803942
1.3057709054867608	16.21177	4.0263844
1.3232988057280106	21.88938	4.678609
1.3408267369315112	26.608189	5.158313
1.358354699507526	30.162785	5.4920654
1.3758826938663256	34.050507	5.8352814
1.3934107204181858	36.268814	6.0223594
1.410938779573391	36.546787	6.045394
1.4284668717422309	37.162895	6.0961375
1.4459949973350033	36.94414	6.0781693
1.4635231567620117	37.11128	6.0919027
1.4810513504335687	36.296448	6.0246534
1.4985795787599925	35.458843	5.954733
1.5161078421516088	34.744164	5.894418
1.5336361410187505	33.964466	5.827904
1.5511644757717598	33.94722	5.826424
1.5686928468209842	34.490513	5.8728623
1.58622125457678	34.977215	5.9141536
1.6037496994495108	36.133713	6.0111322
1.621278181849548	36.053574	6.0044627
1.6388067021872719	36.732872	6.060765
1.6563352608730693	36.20132	6.016753
1.673863858317336	35.370014	5.9472694
1.6913924949304753	34.75548	5.895378
1.7089211711228998	33.97092	5.828458
1.7264498873050296	33.243164	5.7656884
1.7439786438872935	32.505814	5.701387
1.7615074412801288	31.467037	5.6095486
1.779036279893981	30.844406	5.553774
1.796565160139305	29.954426	5.4730635
1.814094082426564	29.275414	5.410676
1.8316230471662298	28.419403	5.330985
1.849152054768784	27.575266	5.2512155
1.8666811056447168	26.691093	5.1663423
1.8842102002045273	25.741728	5.073631
1.901739338858724	25.498808	5.0496345
1.9192685220178245	25.103853	5.0103745
1.9367977500923557	24.486353	4.9483685
1.9543270234928547	23.662819	4.8644443
1.971856342629867	22.864548	4.7816887
1.9893857079139496	22.476484	4.740937
2.006915119755667	22.128574	4.704102
2.0244445785655945	21.852875	4.674706
2.0419740847543175	21.406454	4.626711
2.0595036387324317	20.970201	4.5793233
2.0770332409105414	20.552687	4.533507
2.094562891699263	20.239742	4.49886
2.1120925915092217	19.919489	4.463125
2.129622340751053	19.43414	4.4084167
2.1471521398354043	187.55103	13.694927
2.1646819891729323	443.88644	21.068613
2.182211889174303	440.24588	20.982037
2.1997418402501974	452.40637	21.269846
2.2172718428113023	432.2808	20.791363
2.234801897268317	320.22458	17.89482
2.2523320040319548	16.73469	4.0908055
2.269862163512935	16.505024	4.0626373
2.287392376121992	16.360947	4.0448666
2.304922642269869	16.107178	4.013375
2.322452962367322	15.691118	3.9612017
2.3399833368251164	15.265698	3.9071343
2.357513766054032	15.086431	3.8841255
2.3750442504648586	15.069892	3.881996
2.3925747904683963	14.719886	3.8366504
2.410105386475459	14.361529	3.789661
2.4276360388968707	13.815879	3.7169716
2.445166748143469	13.48707	3.6724746
2.4626975146261025	13.202756	3.6335597
2.4802283387556323	13.024954	3.60901
2.4977592209429305	12.985432	3.6035304
2.5152901615988825	12.8407345	3.5833972
2.5328211611343865	12.742369	3.5696454
2.5503522199603523	12.282607	3.5046551
2.5678833384877024	12.0848875	3.4763324
2.5854145171273712	11.979416	3.4611292
2.6029457562903064	11.855104	3.4431243
2.620477056387469	11.821422	3.4382293
2.6380084178298326	11.690673	3.4191625
2.655539841028383	11.684026	3.4181905
2.673071326394119	11.458548	3.3850477
2.6906028743380523	11.139229	3.3375483
2.708134485271211	10.718659	3.2739363
2.7256661596046325	10.510626	3.2420096
2.743197897749369	10.461148	3.2343698
2.760729700116486	10.406378	3.2258918
2.778261567117063	10.417057	3.2275467
2.795793499162193	10.241119	3.2001748
2.8133254966629817	10.186625	3.1916492
2.830857560030551	9.922522	3.1500034
2.8483896896760337	9.743323	3.1214297
2.865921886010578	9.490628	3.0806863
2.883454149445347	9.427522	3.070427
2.9009864803915177	9.269005	3.044504
2.91851887926028	9.096127	3.0159786
2.9360513464628384	8.885072	2.9807837
2.953583882410413	8.708731	2.9510558
2.9711164875142373	8.512879	2.9176838
2.9886491621855606	8.179292	2.859946
3.0061819068356455	8.116577	2.8489606
3.023714721875769	8.111198	2.8480165
3.041247607717225	8.176877	2.859524
3.0587805647713213	8.124624	2.8503726
3.0763135934493806	8.048184	2.8369322
3.0938466941627407	7.989932	2.8266468
3.1113798673227544	8.023521	2.832582
3.1289131133407904	7.866765	2.8047755
3.1464464326282315	7.5928736	2.755517
3.1639798255964786	7.487525	2.7363343
3.1815132926569443	7.51081	2.7405858
3.1990468342210603	7.62593	2.7615087
3.216580450700272	7.5158515	2.7415054
3.2341141425060416	7.350284	2.7111406
3.251647910049847	7.251181	2.6928017
3.2691817537431813	7.2258263	2.6880896
3.286715673997555	7.1050034	2.6655211
3.3042496712244938	6.768404	2.6016157
3.32178374583554	6.628364	2.5745609
3.339317898242251	6.7245708	2.5931778
3.3568521288562034	6.7651644	2.600993
3.3743864380889876	6.7879786	2.605375
3.3919208263522127	6.6806602	2.5846972
3.4094552940575023	6.520141	2.5534568
3.4269898416164972	6.4754333	2.5446873
3.444524469440858	6.360688	2.5220404
3.4620591779422587	6.290912	2.5081692
3.479593967532391	6.203215	2.4906254
3.4971288386229658	6.211957	2.4923797
3.5146637916257086	6.2027206	2.4905262
3.5321988269523628	6.2362204	2.4972425
3.5497339450146903	6.192098	2.4883926
3.5672691462244708	6.110669	2.4719768
3.5848044309934988	6.00638	2.4507918
3.60233979973359	5.9379153	2.4367838
3.619875252856575	5.9807186	2.4455507
3.6374107907743034	6.016057	2.4527652
3.6549464138986427	5.9864492	2.446722
3.6724821226414788	5.9779024	2.444975
3.690017917414714	6.0119057	2.4519188
3.7075537986302702	6.104777	2.4707847
3.7250897667000857	6.2523866	2.5004773
3.7426258220361235	6.3895583	2.5277576
3.7601619650503553	6.7642612	2.6008193
3.777698196154779	7.341106	2.7094476
3.7952345157614067	8.489551	2.9136834
3.8127709242822716	9.2879095	3.0476072
3.830307422129425	11.516945	3.3936625
3.847844009714936	30.275078	5.5022793
3.8653806874508954	97.6775	9.883193
3.882917455749409	96.91423	9.844502
3.900454315022606	96.57826	9.827424
3.917991265682631	41.105545	6.4113607
3.9355283081416506	10.763228	3.280736
3.9530654428118495	8.526825	2.9200728
3.970602670105433	7.3074846	2.7032359
3.9881399904346244	6.393946	2.5286252
4.005677404211669	6.260765	2.5021522
4.023214911848827	6.1736126	2.4846756
4.0407525137583855	6.153661	2.4806573
4.058290210352644	6.235981	2.4971945
4.075828002043927	6.1559114	2.4811108
4.0933658892445814	6.108496	2.471537
4.110903872366966	5.9658866	2.4425166
4.128441951823468	5.9531975	2.4399176
4.145980128026488	6.0054026	2.4505923
4.163518401388452	6.03614	2.4568558
4.181056772321807	6.050513	2.459779
4.1985952412390155	5.9955416	2.4485795
4.216133808552567	5.9799976	2.4454033
4.233672474674966	5.992479	2.447954
4.251211240018741	6.202547	2.4904914
4.268750104996445	6.3500266	2.5199258
4.286289070020643	7.168558	2.6774163
4.303828135503928	8.7670555	2.9609213
4.3213673018589125	29.192993	5.403054
4.3389065694982305	90.51399	9.513885
4.356445938834537	165.81917	12.877079
4.3739854102805085	170.8074	13.06933
4.391524984248844	171.52986	13.096941
4.409064661152262	135.37852	11.635228
4.426604441403504	95.70326	9.7828045
4.444144325415337	75.09411	8.665686
4.461684313600543	21.326078	4.6180167
4.47922440637193	21.73198	4.661757
4.496764604142329	20.086178	4.4817605
4.5143049073245916	18.27744	4.2752123
4.531845316331589	16.372854	4.0463386
4.5493858315762195	13.444857	3.6667228
4.566926453471405	11.140798	3.3377833
4.584467182430081	8.979749	2.9966228
4.602008018865218	7.8664374	2.804717
4.619548963189798	7.2374077	2.690243
4.637090015816834	6.675565	2.5837114
4.654631177159353	6.469198	2.5434618
4.672172447630417	6.289636	2.5079148
4.689713827643102	6.1494293	2.4798043
4.7072553176105085	5.92136	2.4333844
4.724796917945764	5.7654796	2.4011414
4.742338629062015	5.693944	2.3861988
4.759880451372434	5.6440706	2.3757253
4.777422385290215	5.6173315	2.370091
4.794964431228581	5.607491	2.368014
4.812506589600768	5.577395	2.361651
4.830048860820047	5.4892583	2.3429167
4.847591245299709	5.4217925	2.3284743
4.8651337434530655	5.4379444	2.33194
4.882676355693457	5.485405	2.3420942
4.900219082434242	5.5070424	2.3467088
4.917761924088813	5.4345245	2.3312066
4.935304881070575	5.410627	2.3260753
4.952847953792969	5.3529086	2.3136353
4.970391142669449	5.3273544	2.3081062
4.9879344481135055	5.325702	2.3077483
5.005477870538642	5.2716556	2.2960086
5.023021410358394	5.3166485	2.305786
5.040565067986324	5.326709	2.3079665
5.05810884383601	5.326272	2.3078718
5.075652738321066	5.324339	2.307453
5.09319675185512	5.226697	2.286197
5.110740884851836	5.192999	2.2788153
5.128285137724894	5.2212677	2.2850094
5.145829510888007	5.233853	2.2877614
5.163374004754908	5.2312093	2.2871838
5.1809186197393595	5.2047153	2.2813845
5.198463356255145	5.1925745	2.278722
5.216008214716077	5.2367926	2.288404
5.233553195535998	5.220566	2.2848558
5.251098299128764	5.212228	2.2830305
5.268643525908272	5.184694	2.2769923
5.286188876288432	5.1021194	2.2587872
5.3037343506831895	5.063726	2.2502725
5.32127994950651	5.035883	2.2440772
5.3388256731723915	5.0521064	2.247689
5.356371522094851	5.072739	2.2522743
5.373917496687938	5.006994	2.2376313
5.391463597365729	4.9756036	2.230606
5.40900982454232	4.9616394	2.2274737
5.426556178631843	4.9604664	2.2272105
5.444102660048449	5.0040574	2.236975
5.4616492692063225	4.991094	2.2340758
5.479196006519669	5.0236382	2.2413473
5.496742872402727	5.044758	2.246054
5.514289867269756	5.0583363	2.2490745
5.531836991535049	5.0655737	2.2506828
5.549384245612924	5.029744	2.2427092
5.566931629917724	5.012807	2.2389297
5.584479144863822	4.9644055	2.2280946
5.6020267908656205	4.966192	2.2284954
5.619574568337545	4.9453497	2.2238142
5.637122477694054	4.9571376	2.226463
5.654670519349629	4.98845	2.2334838
5.672218693718784	5.0421352	2.24547
5.689767001216059	5.031214	2.2430367
5.707315442256021	5.025251	2.241707
5.724864017253266	4.9974513	2.235498
5.7424127266224225	4.9908085	2.2340117
5.75996157077814	4.98327	2.232324
5.777510550135105	5.0059566	2.2373996
5.795059665108022	4.976759	2.230865
5.812608916111639	4.9576983	2.226589
5.830158303560715	5.079951	2.2538745
5.847707827870055	5.149628	2.2692792
5.86525748945448	5.2480135	2.2908542
5.8828072887288485	5.298594	2.3018675
5.900357226108044	5.3913302	2.3219237
5.917907302006979	5.599221	2.3662674
5.9354575168406	6.2712026	2.504237
5.9530078710238765	6.8895807	2.6248012
5.970558364971812	7.45723	2.730793
5.988108999099438	7.7989054	2.7926521
6.005659773821818	8.393393	2.8971353
6.023210689554039	8.108642	2.8475676
6.040761746711227	8.557206	2.9252703
6.058312945708531	7.904545	2.8115022
6.075864286961132	7.4131603	2.722712
6.093415770884244	6.6494503	2.5786529
6.1109673978931065	6.017229	2.4530041
6.128519168402993	5.3273134	2.3080974
6.146071082829204	5.249583	2.2911968
6.163623141587075	5.1377907	2.2666695
6.181175345091969	5.0564966	2.2486656
6.198727693759281	4.956816	2.2263908
6.216280188004435	4.9358177	2.22167
6.233832828242885	4.9225297	2.2186775
6.251385614890126	4.97837	2.2312262
6.268938548361669	4.9910526	2.2340665
6.286491629073067	4.949157	2.2246702
6.304044857439898	4.927595	2.2198188
6.321598233877777	4.8253093	2.1966586
6.339151758802344	4.789506	2.188494
6.356705432629277	4.811693	2.1935573
6.37425925577428	4.855843	2.2035978
6.391813228653095	4.9071746	2.2152143
6.409367351681486	4.891634	2.2117038
6.426921625275259	4.8417306	2.2003932
6.44447604985025	4.841083	2.200246
6.46203062582232	4.832421	2.1982768
6.47958535360737	4.8707585	2.2069795
6.497140233621328	4.895974	2.2126849
6.514695266280161	4.921519	2.2184496
6.532250451999859	4.8845305	2.2100973
6.549805791196454	4.8532577	2.203011
6.567361284286002	4.8973403	2.2129936
6.584916931684597	5.017288	2.2399304
6.602472733808367	5.008109	2.2378805
6.6200286910734665	4.9829865	2.2322605
6.637584803896092	4.9388976	2.222363
6.655141072692462	4.9065795	2.21508
6.672697497878842	4.9485254	2.224528
6.690254079871514	4.9157963	2.2171595
6.707810819086808	4.8807797	2.2092488
6.725367715941078	4.8444285	2.2010062
6.742924770850719	4.91249	2.2164137
6.760481984232151	4.983037	2.2322717
6.778039356501836	4.9602904	2.227171
6.795596888076266	4.913962	2.2167459
6.813154579371963	4.8680544	2.2063668
6.830712430805492	4.915402	2.2170706
6.84827044279344	4.905563	2.2148504
6.865828615752445	4.910227	2.215903
6.883386950099159	4.950719	2.2250211
6.900945446250287	4.946566	2.2240877
6.918504104622553	4.9273148	2.2197556
6.936062925632727	4.89237	2.2118702
6.953621909697607	4.8541923	2.2032232
6.971181057234028	4.8780146	2.2086227
6.988740368658859	4.937743	2.2221034
7.006299844389007	5.04877	2.2469468
7.023859484841407	5.1463485	2.2685564
7.041419290433036	5.194249	2.2790895
7.058979261580902	5.2389026	2.2888649
7.0765393987020495	5.424083	2.3289661
7.094099702213559	5.778413	2.403833
7.111660172532549	6.1612444	2.4821854
7.129220810076164	6.4972615	2.5489726
7.146781615261595	6.9392123	2.6342385
7.16434258850606	7.1749964	2.6786184
7.181903730226821	7.5390954	2.7457414
7.1994650408411704	7.7079635	2.776322
7.217026520766437	7.812654	2.7951126
7.234588170419983	8.090057	2.8443027
7.252149990219215	8.150889	2.8549762
7.269711980581568	8.115663	2.8488002
7.2872741419245175	7.9921246	2.8270345
7.304836474665574	7.689112	2.772925
7.322398979222286	7.3683643	2.714473
7.339961656012233	7.0946813	2.6635842
7.357524505453039	6.7538614	2.5988193
7.375087527962357	6.444787	2.5386586
7.392650723957886	6.2081437	2.4916146
7.410214093857353	5.8517656	2.4190423
7.427777638078528	5.637374	2.3743155
7.445341357039213	5.435318	2.3313768
7.4629052511572525	5.2431984	2.289803
7.480469320850524	5.132142	2.265423
7.498033566536948	5.084846	2.2549603
7.5155979886344735	5.041682	2.245369
7.5331625875610975	5.0036197	2.2368772
7.550727363734844	5.0525284	2.247783
7.568292317573788	5.0543027	2.2481775
7.585857449496025	5.0827093	2.2544866
7.603422759919705	5.0621424	2.2499206
7.620988249263007	5.0789638	2.2536557
7.638553917944147	5.115284	2.2616994
7.656119766381391	5.1029916	2.2589803
7.673685794993023	5.0703845	2.2517514
7.691252004197388	5.0248904	2.2416267
7.70881839441285	5.090236	2.2561553
7.726384966057826	5.1606817	2.2717135
7.743951719550762	5.1841726	2.2768779
7.761518655310149	5.1938677	2.2790058
7.779085773754511	5.147477	2.2688053
7.796653075302419	5.15266	2.269947
7.814220560372475	5.182394	2.276487
7.831788229383323	5.224342	2.285682
7.8493560827536495	5.2100716	2.2825582
7.866924120902174	5.2284746	2.2865858
7.884492344247663	5.232845	2.2875412
7.9020607532089135	5.249737	2.2912304
7.919629348204771	5.2736044	2.296433
7.937198129654115	5.2403636	2.289184
7.954767097975865	5.250799	2.2914622
7.972336253588986	5.2792926	2.297671
7.989905596912472	5.340661	2.310987
8.007475128365371	5.3875318	2.3211057
8.025044848366756	5.4433312	2.3330948
8.042614757335754	5.503815	2.3460212
8.060184855691523	5.5084863	2.3470166
8.07775514385327	5.5405855	2.353845
8.095325622240228	5.626578	2.3720407
8.112896291271687	5.7261877	2.3929453
8.130467151366968	5.77085	2.4022593
8.148038202945436	5.796485	2.407589
8.165609446426497	5.8139977	2.4112232
8.183180882229594	5.8818974	2.4252625
8.200752510774217	5.852946	2.4192863
8.218324332479893	5.804696	2.4092937
8.235896347766193	5.744547	2.3967783
8.253468557052724	5.7416286	2.3961697
8.27104096075914	5.802389	2.408815
8.288613559305137	5.872696	2.4233646
8.306186353110448	5.9750943	2.4444005
8.32375934259485	6.039652	2.4575703
8.341332528178162	6.0673594	2.463201
8.358905910280246	6.044656	2.4585881
8.376479489321003	6.0273833	2.4550729
8.394053265720377	6.0357656	2.4567795
8.411627239898356	6.0999303	2.4698038
8.42920141227497	6.0891438	2.467619
8.44677578327029	6.1197433	2.4738114
8.464350353304427	6.1077027	2.4713767
8.48192512279754	6.0959654	2.4690008
8.499500092169827	6.04662	2.4589875
8.51707526184153	6.01957	2.4534812
8.534650632232934	6.021411	2.4538562
8.552226203764365	6.0027237	2.4500456
8.569801976856192	5.9853754	2.4465027
8.587377951928834	6.025116	2.454611
8.60495412940274	6.0051765	2.4505463
8.622530509698416	6.0974984	2.4693112
8.6401070932364	6.238726	2.4977443
8.657683880437283	6.45643	2.5409505
8.675260871721695	6.602738	2.5695794
8.692838067510303	6.7194934	2.5921986
8.710415468223834	6.815934	2.6107345
8.727993074283043	6.8688354	2.6208463
8.745570886108737	6.9333773	2.6331308
8.763148904121765	7.001765	2.6460848
8.78072712874302	7.0591974	2.656915
8.798305560393441	7.280666	2.6982708
8.815884199494006	7.3965836	2.719666
8.833463046465745	7.524755	2.7431288
8.851042101729728	7.5894704	2.7548993
8.86862136570707	7.8679395	2.8049848
8.886200838818924	8.03123	2.8339424
8.903780521486505	8.122673	2.8500304
8.921360414131055	8.160163	2.8565998
8.938940517173874	8.28812	2.8789096
8.956520831036297	8.4647	2.9094157
8.97410135613971	8.756426	2.9591258
8.99168209290554	8.890067	2.9816215
9.009263041755265	9.1832485	3.0303874
9.026844203110405	9.444126	3.0731297
9.044425577392525	9.680033	3.1112752
9.062007165023239	9.77019	3.1257303
9.079588966424197	10.159074	3.1873302
9.097170982017108	10.361989	3.2190044
9.11475321222372	11.488113	3.389412
9.132335657465825	12.299006	3.506994
9.149918318165264	12.315701	3.5093732
9.167501194743924	12.8368435	3.582854
9.18508428762374	12.50679	3.536494
9.202667597226693	12.540138	3.5412056
9.220251123974803	12.23804	3.498291
9.237834868290143	11.940996	3.4555748
9.255418830594836	11.856668	3.4433513
9.273003011311046	11.238412	3.352374
9.290587410860985	10.91414	3.3036556
9.308172029666911	10.167185	3.1886024
9.32575686815113	9.859671	3.1400113
9.343341926735997	8.539893	2.9223096
9.360927205843916	8.34218	2.8882833
9.378512705897327	8.161117	2.8567667
9.396098427318728	7.9535346	2.8202012
9.413684370530664	7.9435077	2.8184228
9.431270535955722	7.877313	2.8066552
9.448856924016539	7.8257127	2.7974474
9.466443535135806	7.6085186	2.7583544
9.484030369736251	7.5782995	2.752871
9.501617428240658	7.5455785	2.7469215
9.519204711071852	7.6046004	2.757644
9.536792218652714	7.6336946	2.7629142
9.55437995140617	7.6281595	2.7619123
9.571967909755191	7.660237	2.7677133
9.589556094122802	7.642917	2.7645826
9.60714450493207	7.655181	2.7667997
9.624733142606116	7.693254	2.7736716
9.642322007568108	7.7542624	2.7846477
9.659911100241267	7.8321047	2.7985897
9.677500421048851	7.8619003	2.803908
9.695089970414175	7.875806	2.8063867
9.712679748760609	7.847404	2.8013217
9.730269756511557	7.8180647	2.7960804
9.747859994090492	7.899551	2.8106139
9.765450461920915	7.9378996	2.8174279
9.78304116042639	7.9962373	2.827762
9.800632090030527	8.037355	2.835023
9.81822325115699	8.068145	2.840448
9.835814644229481	8.062867	2.8395188
9.853406269671762	8.053104	2.8377993
9.870998127907646	8.052984	2.837778
9.888590219360985	7.997491	2.8279836
9.906182544455698	8.014618	2.83101
9.923775103615734	8.045791	2.8365102
9.941367897265108	8.150922	2.854982
9.958960925827878	8.220097	2.8670712
9.97655418972816	8.272387	2.8761756
9.994147689390106	8.222195	2.867437
10.011741425237934	8.12442	2.8503368
10.029335397695904	8.056351	2.838371
10.04692960718833	8.058524	2.838754
10.06452405413958	8.080708	2.8426585
10.082118738974064	8.06405	2.8397272
10.099713662116246	8.068052	2.8404317
10.117308823990651	8.129193	2.851174
10.134904225021844	8.211333	2.8655424
10.152499865634445	8.167644	2.857909
10.170095746253125	8.124974	2.850434
10.18769186730261	7.9646854	2.8221774
10.205288229207675	7.9400263	2.8178053
10.222884832393145	7.898329	2.8103967
10.2404816772839	7.863984	2.8042796
10.258078764304868	7.806407	2.793995
10.275676093881035	7.734249	2.7810519
10.293273666437438	7.7935057	2.791685
10.310871482399158	7.874794	2.8062062
10.32846954219134	7.9083133	2.8121724
10.346067846239173	7.963237	2.8219209
10.363666394967908	7.9317727	2.8163402
10.38126518880283	7.967937	2.8227534
10.398864228169298	8.06292	2.839528
10.416463513492713	8.06524	2.8399365
10.434063045198531	8.087576	2.8438663
10.451662823712262	7.9959216	2.827706
10.469262849459467	7.9991713	2.8282807
10.486863122865758	7.950398	2.819645
10.504463644356806	7.910947	2.8126404
10.522064414358338	7.8638873	2.8042624
10.539665433296118	7.740758	2.7822218
10.557266701595987	7.649622	2.765795
10.574868219683818	7.5843062	2.7539618
10.592469987985552	7.5382476	2.7455869
10.610072006927185	7.5002017	2.7386496
10.627674276934751	7.466602	2.7325084
10.64527679843435	7.354567	2.7119305
10.662879571852143	7.285757	2.6992142
10.680482597614331	7.0150766	2.648599
10.698085876147173	6.84402	2.6161077
10.715689407876988	6.733426	2.5948846
10.733293193230146	6.6904993	2.5866
10.750897232633072	6.5726333	2.5637147
10.76850152651225	6.4816856	2.5459154
10.786106075294207	6.416541	2.5330892
10.803710879405534	6.428649	2.535478
10.821315939272877	6.2862678	2.5072432
10.83892125532294	6.207866	2.491559
10.856526827982472	6.105946	2.4710212
10.874132657678285	6.144609	2.4788322
10.891738744837243	6.1063733	2.4711077
10.909345089886271	6.0243835	2.454462
10.926951693252343	5.9181104	2.4327166
10.944558555362494	5.948431	2.4389405
10.96216567664381	5.892424	2.4274316
10.979773057523436	5.806962	2.4097638
10.997380698428573	5.6905384	2.385485
11.014988599786477	5.62283	2.3712506
11.032596762024461	5.5396523	2.3536465
11.050205185569892	5.4907217	2.3432288
11.067813870850198	5.4769764	2.3402941
11.085422818292859	5.4823675	2.3414457
11.10303202832541	5.4465036	2.3337746
11.120641501375454	5.3955293	2.3228278
11.138251237870636	5.296674	2.3014503
11.155861238238671	5.206581	2.2817934
11.173471502907317	5.050356	2.2472997
11.191082032304402	4.999822	2.2360282
11.208692826857805	4.9058948	2.2149255
11.226303886995465	4.8761897	2.2082095
11.243915213145371	4.851001	2.2024987
11.261526805735578	4.820893	2.1956532
11.279138665194196	4.7978053	2.1903894
11.296750791949393	4.7511077	2.1797035
11.314363186429393	4.7189264	2.172309
11.331975849062479	4.660727	2.1588717
11.34958878027699	4.641331	2.1543748
11.36720198050133	4.6009126	2.1449738
11.384815450163948	4.541407	2.1310577
11.402429189693366	4.450056	2.1095157
11.420043199518153	4.3605742	2.088199
11.437657480066942	63.27052	7.9542766
11.455272031768422	84.99707	9.219385
11.472886855051353	107.456795	10.366137
11.490501950344528	99.076515	9.953718
11.508117318076819	84.41958	9.188013
11.52573295867715	45.749332	6.7638254
11.543348872574514	4.0173726	2.0043385
11.560965060197946	4.0282354	2.0070465
11.57858152197655	4.035463	2.008846
11.59619825833949	3.9868515	1.9967102
11.613815269715985	3.8895535	1.9721951
11.631432556535323	38.345478	6.192373
11.649050119226837	82.89888	9.104882
11.666667958219929	93.302	9.659296
11.68428607394406	107.615944	10.373811
11.701904466828756	82.39791	9.07733
11.719523137303586	65.26728	8.078816
11.737142085798196	4.5085745	2.1233404
11.754761312742286	3.622124	1.9031879
11.772380818565619	3.616241	1.9016416
11.790000603698015	3.5970974	1.8966016
11.80762066856935	3.5617251	1.8872533
11.825241013609572	3.5352526	1.8802267
11.842861639248683	3.471059	1.8630779
11.860482545916748	3.4401214	1.8547565
11.878103734043883	3.3863006	1.8401904
11.895725204060282	3.4114013	1.8469979
11.91334695639619	3.398626	1.8435363
11.930968991481919	3.3778389	1.8378898
11.948591309747824	3.3191636	1.8218572
11.966213911624347	3.274374	1.8095231
11.98383679754198	3.2288816	1.7969089
12.001459967931268	3.2188878	1.7941259
12.019083423222835	3.1832893	1.7841775
12.036707163847352	3.1885622	1.7856545
12.05433119023556	3.1719384	1.7809937
12.071955502818259	3.1244059	1.7675989
12.089580102026313	3.0606189	1.7494625
12.107204988290643	3.05502	1.7478616
12.12483016204224	3.0845585	1.7562912
12.142455623712152	3.1053061	1.7621878
12.16008137373149	3.071492	1.7525673
12.177707412531431	2.9821262	1.7268834
12.19533374054321	2.9565449	1.7194606
12.212960358198126	2.9492307	1.7173325
12.230587265927545	3.01198	1.7355057
12.248214464162889	3.001405	1.7324563
12.265841953335649	2.9544985	1.7188655
12.283469733877375	2.933415	1.7127215
12.301097806219685	2.9616692	1.7209501
12.31872617079425	2.9458961	1.7163613
12.336354828032825	2.8850994	1.6985581
12.353983778367205	2.8559582	1.6899581
12.371613022229262	2.8587244	1.6907762
12.389242560050928	2.8846748	1.698433
12.406872392264201	2.86723	1.6932896
12.424502519301143	2.8195107	1.6791399
12.442132941593874	2.7676427	1.6636233
12.459763659574586	2.7459903	1.657103
12.477394673675532	2.7363167	1.6541816
12.49502598432903	2.7241416	1.6504974
12.51265759196746	2.7225475	1.6500144
12.530289497023267	2.71934	1.6490421
12.547921699928967	2.7207391	1.6494663
12.565554201117134	2.6894639	1.6399585
12.583187001020404	2.6622243	1.6316324
12.600820100071486	2.6673167	1.6331922
12.618453498703152	2.6962698	1.6420321
12.636087197348235	2.7217917	1.6497854
12.65372119643964	2.7153742	1.6478393
12.671355496410326	2.7362173	1.6541516
12.68899009769333	2.7626634	1.6621262
12.706625000721749	2.8014517	1.6737537
12.724260205928752	2.823312	1.6802714
12.741895713747551	2.8477428	1.6875256
12.759531524611454	2.904486	1.7042552
12.777167638953818	2.897137	1.7020978
12.794804057208072	2.921112	1.7091261
12.812440779807702	2.9970675	1.731204
12.830077807186271	3.1737845	1.7815119
12.847715139777405	3.2078054	1.7910347
12.865352778014795	3.4185016	1.848919
12.882990722332197	3.496415	1.8698703
12.90062897316344	3.5623388	1.8874159
12.918267530942412	3.7100756	1.9261557
12.935906396103071	3.6364005	1.9069349
12.953545569079449	3.8148346	1.9531602
12.971185050305628	3.5639832	1.8878515
12.988824840215775	3.5388432	1.8811814
13.006464939244115	3.5591683	1.8865758
13.024105347824943	3.403366	1.8448215
13.041746066392617	3.5042155	1.871955
13.05938709538157	3.3103774	1.8194443
13.077028435226296	3.328186	1.8243316
13.094670086361363	3.2131758	1.7925334
13.112312049221401	3.1424553	1.7726972
13.129954324241112	3.0631807	1.7501944
13.147596911855258	2.8910637	1.7003129
13.165239812498685	2.8415513	1.6856902
13.182883026606293	2.75314	1.6592588
13.200526554613058	2.7072682	1.6453779
13.218170396954017	2.6741173	1.6352729
13.235814554064284	2.652167	1.6285475
13.253459026379034	2.6205082	1.6187984
13.271103814333523	2.5945015	1.6107457
13.288748918363058	2.582895	1.6071388
13.306394338903031	2.592585	1.6101507
13.32404007638889	2.5819783	1.6068536
13.341686131256164	2.607156	1.614669
13.359332503940449	2.5959716	1.6112019
13.376979194877402	2.5788918	1.6058928
13.394626204502751	2.600653	1.612654
13.412273533252307	2.6034482	1.6135204
13.429921181561937	2.6235175	1.6197276
13.447569149867581	2.6662743	1.632873
13.465217438605247	2.6964004	1.642072
13.482866048211022	2.6756663	1.6357464
13.500514979121052	2.6462646	1.6267344
13.518164231771568	2.6199207	1.6186169
13.535813806598844	2.6056247	1.6141948
13.553463704039254	2.6150634	1.6171157
13.571113924529229	2.627829	1.621058
13.588764468505275	2.6213243	1.6190504
13.606415336403956	2.6419852	1.6254184
13.624066528661917	2.6858194	1.638847
13.641718045715882	2.736886	1.6543536
13.659369888002635	2.7744365	1.665664
13.67702205595903	2.8000007	1.6733203
13.694674550021993	2.893423	1.7010065
13.712327370628532	2.9464126	1.7165117
13.729980518215713	3.02573	1.7394625
13.747633993220681	3.0960786	1.7595677
13.765287796080647	3.1700513	1.7804638
13.7829419272329	3.2284322	1.7967838
13.800596387114801	3.2193341	1.7942502
13.818251176163775	3.245934	1.8016475
13.835906294817324	3.3025517	1.8172925
13.853561743513023	3.3947396	1.842482
13.871217522688525	3.4001021	1.8439366
13.888873632781538	3.3953223	1.84264
13.906530074229858	3.4142387	1.8477659
13.92418684747135	3.4156446	1.8481463
13.941843952943948	3.4140558	1.8477163
13.959501391085665	3.4104538	1.8467414
13.977159162334578	3.3497033	1.8302195
13.994817267128846	3.2807918	1.8112956
14.012475705906693	3.1757154	1.7820537
14.030134479106424	3.0724535	1.7528416
14.047793587166414	3.066865	1.7512467
14.065453030525108	3.0127943	1.7357403
14.083112809621026	2.992618	1.7299185
14.100772924892766	2.9176123	1.708102
14.118433376778997	2.8753102	1.695674
14.136094165718458	2.8185308	1.678848
14.153755292149969	2.7518334	1.6588651
14.171416756512416	2.669748	1.6339364
14.189078559244768	2.5876029	1.6086028
14.20674070078606	2.5366547	1.5926878
14.224403181575408	2.5030415	1.5821004
14.242066002051999	2.4721138	1.5722957
14.259729162655093	2.418162	1.555044
14.277392663824022	2.3718657	1.5400863
14.295056505998208	2.3735533	1.540634
14.312720689617128	2.3851876	1.5444052
14.330385215120348	2.3807945	1.5429823
14.348050082947497	2.3643415	1.5376415
14.3657152935383	2.3651013	1.5378886
14.383380847332528	2.3630328	1.537216
14.401046744770051	2.3954706	1.5477308
14.418712986290798	2.3579938	1.5355761
14.436379572334793	2.337647	1.5289365
14.454046503342123	2.3142726	1.5212734
14.471713779752946	2.3260348	1.5251343
14.489381402007504	2.3405802	1.5298955
14.507049370546113	2.353948	1.5342581
14.524717685809168	2.3475728	1.5321791
14.542386348237134	2.319503	1.5229915
14.560055358270553	2.3112533	1.5202807
14.577724716350051	2.3472092	1.5320605
14.595394422916325	2.3914073	1.5464176
14.61306447841015	2.4526956	1.5661085
14.63073488327237	2.4443257	1.5634339
14.648405637943917	2.4172025	1.5547355
14.6660767428658	2.4245617	1.5571004
14.683748198479094	2.4603844	1.5685612
14.701420005224954	2.4717736	1.5721875
14.719092163544628	2.5082333	1.5837402
14.73676467387942	2.5377586	1.5930344
14.754437536670727	2.587217	1.6084828
14.772110752360014	2.6282575	1.6211902
14.78978432138882	2.6589234	1.6306206
14.807458244198777	2.6946645	1.6415433
14.82513252123159	2.6388493	1.6244535
14.842807152929028	2.6504667	1.6280254
14.860482139732962	2.6378438	1.6241441
14.87815748208531	2.623025	1.6195755
14.8958331804281	2.5809653	1.6065383
14.91350923520342	2.5154374	1.5860131
14.931185646853438	2.5609832	1.6003072
14.948862415820408	2.5630856	1.600964
14.966539542546656	2.6093845	1.615359
14.98421702747459	2.5870452	1.6084294
15.001894871046696	2.5950904	1.6109284
15.019573073705542	2.594011	1.6105934
15.037251635893766	2.5882065	1.6087904
15.054930558054092	2.6215715	1.6191268
15.072609840629323	2.6807408	1.6372968
15.090289484062351	2.8222177	1.6799457
15.107969488796124	3.1155515	1.7650925
15.125649855273691	3.5138636	1.8745302
15.14333058393817	3.9678206	1.991939
15.161011675232768	4.8601813	2.204582
15.17869312960076	6.117376	2.473333
15.196374947485506	7.912343	2.8128886
15.214057129330447	10.959972	3.3105848
15.231739675579114	15.806559	3.9757464
15.249422586675102	21.102785	4.5937767
15.267105863062092	24.409948	4.9406424
15.284789505183847	24.931019	4.9930973
15.302473513484218	23.118134	4.808132
15.320157888407127	19.647894	4.4325943
15.337842630396578	15.29969	3.9114819
15.355527739896656	11.802828	3.4355245
15.37321321735153	9.044164	3.0073516
15.39089906320545	6.4349513	2.5367205
15.408585277902748	4.7133236	2.171019
15.42627186188783	3.6165042	1.9017109
15.443958815605198	3.122653	1.767103
15.461646139499424	2.8421872	1.6858788
15.479333834015168	2.6690278	1.633716
15.497021899597165	2.6212375	1.6190237
15.514710336690234	2.552238	1.5975726
15.53239914573928	2.5332708	1.5916252
15.550088327189297	2.48756	1.5772
15.567777881485336	2.4304106	1.5589775
15.58546780907256	2.3781753	1.5421333
15.6031581103962	2.3613393	1.536665
15.620848785901568	2.3661942	1.5382439
15.638539836034063	2.4032583	1.5502446
15.656231261239173	2.4011855	1.5495759
15.673923061962451	2.3973248	1.5483297
15.691615238649552	2.3662941	1.5382763
15.709307791746202	2.3382196	1.5291238
15.727000721698221	2.3540578	1.5342939
15.744694028951498	2.36078	1.536483
15.76238771395202	2.3646774	1.5377507
15.780081777145844	2.3370128	1.5287291
15.797776218979125	2.3441331	1.5310562
15.815471039898094	2.3162286	1.5219162
15.833166240349064	2.3208847	1.523445
15.850861820778437	2.3440914	1.5310426
15.868557781632699	2.3521345	1.533667
15.886254123358412	2.3462477	1.5317466
15.903950846402232	2.3377535	1.5289714
15.921647951210897	2.317776	1.5224243
15.939345438231225	2.3240871	1.5244957
15.957043307910133	2.3064637	1.5187047
15.974741560694602	2.3487806	1.5325732
15.992440197031714	2.339897	1.5296721
16.01013921736862	2.3332918	1.5275116
16.02783862215259	2.3387039	1.5292821
16.045538411830933	2.360443	1.5363734
16.06323858685107	2.3899078	1.5459327
16.080939147660512	2.3730779	1.5404798
16.09864009470684	2.3700686	1.5395027
16.11634142843774	2.354801	1.5345361
16.134043149300954	2.3688865	1.5391188
16.15174525774433	2.389023	1.5456464
16.169447754215817	2.4100175	1.5524231
16.18715063916342	2.3671887	1.5385671
16.204853913035244	2.341186	1.5300934
16.222557576279478	2.34608	1.5316919
16.240261629344403	22.3246	4.7248917
16.257966072678386	42.885124	6.5486736
16.275670906729868	37.99955	6.1643777
16.293376131947387	2.4831913	1.5758145
16.31108174877957	2.5042078	1.5824689
16.328787757675133	2.482477	1.5755879
16.34649415908287	2.4856071	1.5765809
16.364200953451657	2.5293963	1.5904076
16.38190814123048	2.595922	1.6111865
16.39961572286839	2.6224942	1.6194117
16.41732369881455	2.6561015	1.629755
16.43503206951817	2.713074	1.6471411
16.45274083542859	2.7725537	1.6650987
16.47044999699522	2.7995431	1.6731836
16.488159554667558	2.8098707	1.6762669
16.505869508895184	2.856482	1.6901131
16.523579860127786	2.9140682	1.7070643
16.541290608815117	2.9389882	1.7143477
16.559001755407035	2.961045	1.7207687
16.57671330035348	2.9596925	1.7203757
16.59442524410448	3.0177944	1.73718
16.61213758711015	3.0389771	1.7432662
16.629850329820705	3.105011	1.7621042
16.647563472686436	3.186807	1.785163
16.665277016157724	3.306552	1.8183926
16.682990960685053	3.3932528	1.8420784
16.70070530671898	3.4637868	1.8611251
16.718420054710155	3.4493103	1.8572319
16.736135205109335	3.4765623	1.8645542
16.753850758367335	3.5594416	1.8866482
16.771566714935087	3.628927	1.9049742
16.789283075263597	3.687668	1.9203302
16.80699983980398	3.6891758	1.9207227
16.82471700900741	3.700762	1.9237365
16.84243458332518	3.7470863	1.9357392
16.860152563208665	3.8491945	1.9619365
16.87787094910932	3.9449797	1.9861972
16.89558974147871	3.997762	1.9994404
16.913308940768466	4.019442	2.0048547
16.931028547430333	4.115487	2.0286663
16.94874856191613	4.1764	2.0436242
16.966468984677785	4.273184	2.067168
16.98418981616729	4.322531	2.0790699
17.00191105683676	4.4135857	2.1008534
17.019632707138374	4.4831495	2.1173449
17.03735476752442	4.5321255	2.1288788
17.05507723844728	4.4924283	2.119535
17.072800120359403	4.5247307	2.1271415
17.090523413713353	4.526672	2.1275976
17.108247118961785	4.5377555	2.1302009
17.125971236557437	4.5584908	2.1350622
17.143695766953133	4.590142	2.1424615
17.161420710601806	4.62332	2.1501908
17.179146067956477	4.584207	2.141076
17.19687183947025	4.593302	2.143199
17.21459802559634	4.6193027	2.1492562
17.232324626788028	4.6284065	2.1513731
17.25005164349871	4.575972	2.1391523
17.267779076181863	4.548206	2.1326523
17.285506925291074	4.5349174	2.1295345
17.30323519127999	4.5226173	2.1266446
17.320963874602384	4.5030985	2.1220505
17.33869297571211	4.4295144	2.1046412
17.356422495063114	4.409883	2.0999722
17.37415243310944	4.35484	2.0868254
17.391882790305218	4.385098	2.0940626
17.40961356710468	4.4511743	2.1097806
17.42734476396215	4.4573655	2.1112473
17.445076381332044	4.4281816	2.1043246
17.462808419668868	4.4163294	2.1015065
17.48054087942723	4.556782	2.134662
17.498273761061835	4.8394613	2.1998775
17.51600706502747	5.270449	2.2957458
17.533740791779024	5.8946157	2.427883
17.551474941771485	7.241713	2.6910431
17.56920951545993	8.403962	2.8989587
17.586944513299528	10.834994	3.2916553
17.60467993574556	12.687801	3.561994
17.622415783253373	14.636645	3.8257868
17.64015205627843	16.24623	4.030661
17.657888755276293	17.541521	4.18826
17.675625880702604	18.099228	4.2543187
17.69336343301311	17.8381	4.2235174
17.71110141266366	16.819448	4.101152
17.728839820110178	15.662745	3.9576187
17.746578655808705	14.505576	3.8086188
17.764317920215372	12.81229	3.579426
17.7820576137864	11.187712	3.3448036
17.79979773697811	9.206459	3.0342147
17.81753829024692	7.325022	2.7064779
17.835279274049356	5.6979423	2.3870363
17.85302068884201	4.660323	2.1587782
17.870762535081607	4.044594	2.0111175
17.888504813224934	3.784475	1.9453727
17.90624752372891	3.6330547	1.9060574
17.923990667050536	3.5325282	1.879502
17.941734243646895	3.4244523	1.8505275
17.959478253975185	3.3818543	1.8389819
17.9772226984927	3.3712957	1.8361088
17.994967577656833	3.3535411	1.8312676
18.01271289192506	3.324789	1.8234004
18.030458641754965	3.2632346	1.8064425
18.04820482760425	3.2559972	1.8044382
18.06595144993067	3.245272	1.8014638
18.083698509192125	3.2204812	1.7945698
18.101446005846576	3.231995	1.797775
18.119193940352105	3.2280345	1.7966732
18.136942313166887	3.1963534	1.7878349
18.1546911247492	3.0743763	1.75339
18.1724403755574	3.0481253	1.7458881
18.19019006604997	3.063625	1.7503214
18.207940196685467	3.1128697	1.7643327
18.225690767922575	3.0908647	1.7580855
18.243441780220046	3.031152	1.7410204
18.261193234036764	2.9862652	1.7280813
18.278945129831676	3.0188243	1.7374765
18.29669746806386	3.0321171	1.7412975
18.314450249192483	3.0087209	1.7345665
18.3322034736768	2.9935696	1.7301935
18.349957141976184	2.9987228	1.7316821
18.3677112545501	3.0317109	1.7411809
18.385465811858108	3.0192976	1.7376126
18.403220814359884	2.9896877	1.7290714
18.420976262515172	3.0053694	1.7336001
18.43873215678387	3.009859	1.7348945
18.456488497625923	3.0239024	1.7389371
18.474245285501407	3.053745	1.7474968
18.492002520870486	3.113431	1.7644917
18.50976020419343	3.2509174	1.80303
18.527518335930615	3.595884	1.8962816
18.545276916542516	4.174587	2.0431805
18.563035946489688	4.3253517	2.079748
18.580795426232832	4.7091537	2.1700585
18.598555356232698	4.629606	2.1516519
18.616315736950185	4.8996506	2.2135155
18.63407656884626	4.548934	2.132823
18.65183785238201	4.6776795	2.1627944
18.669599588018617	4.512632	2.1242957
18.68736177621737	4.5088577	2.1234071
18.705124417439652	4.450221	2.1095548
18.72288751214696	4.235868	2.0581224
18.740651060800886	4.3950644	2.0964408
18.758415063863115	4.1466746	2.0363386
18.77617952179546	4.3099785	2.0760489
18.793944435059814	4.0325785	2.0081282
18.811709804118184	4.0447736	2.0111623
18.829475629432675	3.9684217	1.9920897
18.8472419114655	3.8191147	1.9542556
18.86500865067897	3.919652	1.9798111
18.88277584753551	3.6572247	1.9123871
18.90054350249763	3.6823192	1.918937
18.918311616027957	3.360029	1.8330382
18.936080188589226	3.2871313	1.8130448
18.953849220644265	2.9859164	1.7279804
18.971618712656007	2.8411274	1.6855644
18.9893886650875	2.7994516	1.6731561
19.007159078401887	7.998356	2.8281364
19.024929953062408	32.868702	5.7331233
19.042701289532435	32.803635	5.7274456
19.060473088275405	25.32467	5.0323625
19.07824534975489	2.582202	1.6069231
19.096018074434568	2.5673156	1.6022844
19.113791262778197	2.5800018	1.6062384
19.13156491524966	2.5686154	1.6026901
19.149339032312945	2.5585515	1.5995473
19.167113614432136	2.5415525	1.5942247
19.184888662071433	2.5259378	1.58932
19.202664175695123	2.5057006	1.5829405
19.220440155767623	2.4616477	1.5689639
19.238216602753447	2.4671447	1.5707147
19.2559935171172	2.4700038	1.5716246
19.27377089932361	2.4555283	1.5670125
19.291548749837514	2.4387753	1.5616579
19.309327069123835	2.442351	1.5628023
19.32710585764763	2.4275906	1.5580727
19.344885115874032	2.396316	1.5480039
19.362664844268313	2.391211	1.546354
19.380445043295822	2.42374	1.5568365
19.39822571342203	2.4442225	1.563401
19.41600685511252	2.462474	1.5692272
19.43378846883297	2.4894161	1.5777884
19.451570555049173	2.5110927	1.5846428
19.469353114227037	2.503052	1.5821036
19.48713614683254	2.508287	1.5837573
19.50491965333182	2.4384878	1.5615658
19.52270363419109	2.4002497	1.549274
19.540488089876686	2.4032083	1.5502285
19.55827302085503	2.4349587	1.5604354
19.576058427592674	2.4547608	1.5667676
19.593844310556282	2.4854498	1.5765309
19.611630670212598	2.4661958	1.5704126
19.629417507028506	2.4522612	1.5659697
19.64720482147098	2.443465	1.5631586
19.6649926140071	2.4574883	1.5676378
19.682780885104084	2.4782293	1.5742393
19.70056963522921	2.4825304	1.5756048
19.718358864849908	2.462824	1.5693388
19.7361485744337	2.4493234	1.5650314
19.753938764448215	2.443834	1.5632768
19.771729435361202	2.4457734	1.5638969
19.789520587640506	2.455938	1.5671433
19.807312221754092	2.4493878	1.565052
19.825104338170043	2.4485786	1.5647935
19.842896937356517	2.444157	1.56338
19.860690019781824	2.4305418	1.5590194
19.87848358591436	2.4154286	1.5541649
19.896277636222635	2.3882222	1.5453874
19.914072171175278	2.3662772	1.5382708
19.931867191241015	2.3848398	1.5442927
19.94966269688869	2.3860447	1.5446827
19.967458688587264	2.401371	1.5496358
19.985255166805807	2.3998015	1.5491292
20.00305213201348	2.4099514	1.5524018
20.020849584679578	2.407077	1.5514758
20.038647525273507	2.391332	1.5463932
20.05644595426477	2.3822327	1.5434483
20.07424487212299	2.408619	1.5519726
20.092044279317903	2.4105825	1.552605
20.109844176319353	2.3864193	1.544804
20.127644563597304	2.375847	1.5413783
20.145445441621817	2.3717372	1.5400445
20.16324681086307	2.3745675	1.5409632
20.181048671791373	2.3434184	1.5308228
20.198851024877122	2.3403668	1.5298258
20.216653870590836	2.3274577	1.5256008
20.234457209403146	2.2868056	1.5122188
20.252261041784802	2.307255	1.5189651
20.270065368206662	2.33116	1.5268137
20.287870189139685	2.3419373	1.530339
20.305675505054968	2.3406184	1.529908
20.323481316423702	2.3238833	1.5244288
20.341287623717207	2.3022237	1.517308
20.359094427406884	2.3071218	1.5189213
20.376901727964288	2.2927163	1.5141718
20.39470952586107	2.3180528	1.5225153
20.41251782156899	2.29339	1.5143943
20.430326615559935	2.3014824	1.5170637
20.448135908305886	2.3057637	1.5184741
20.465945700278965	2.2979472	1.5158981
20.483755991951384	2.2574327	1.5024755
20.50156678379548	2.2629933	1.5043249
20.519378076283708	2.271405	1.5071181
20.537189869888635	2.3051803	1.518282
20.55500216508294	2.2738981	1.507945
20.572814962339415	2.2713811	1.5071102
20.59062826213098	2.289212	1.5130142
20.60844206493066	2.2929695	1.5142554
20.626256371211593	2.289456	1.5130948
20.644071181447032	2.3148131	1.521451
20.66188649611036	2.3023565	1.5173517
20.67970231567506	2.2983978	1.5160468
20.697518640614742	2.311417	1.5203345
20.715335471403122	2.3322206	1.527161
20.73315280851404	2.3182316	1.522574
20.750970652421447	2.2875419	1.5124621
20.768789003599412	2.2639585	1.5046456
20.786607862522136	2.2649	1.5049585
20.8044272296639	2.251028	1.5003426
20.82224710549913	2.2536986	1.5012324
20.84006749050237	2.2594235	1.5031378
20.857888385148268	3.7805047	1.944352
20.8757097899116	45.86194	6.7721443
20.893531705267254	64.70691	8.044061
20.911354131690224	83.747475	9.151364
20.92917706965566	69.04162	8.309129
20.94700051963877	50.090916	7.0774937
20.96482448211493	29.381279	5.42045
20.982648957559622	4.1194286	2.0296376
21.00047394644843	2.2317884	1.4939171
21.01829944925707	2.1678457	1.4723606
21.036125466461375	2.1339843	1.4608163
21.053951998537297	2.1309628	1.4597818
21.071779045960906	2.1329405	1.460459
21.089606609208378	2.1415126	1.4633908
21.10743468875603	2.156844	1.4686197
21.12526328508028	2.16688	1.4720325
21.143092398657675	2.1741185	1.4744892
21.16092202996488	2.1578531	1.4689633
21.17875217947867	2.1679544	1.4723976
21.19658284767596	2.1386611	1.4624162
21.21441403503377	2.1168725	1.4549476
21.232245742029225	2.1295414	1.4592948
21.2500779691396	2.1845844	1.4780339
21.26791071684227	2.1948495	1.4815024
21.28574398561475	2.147021	1.4652717
21.30357777593465	2.1098633	1.4525368
21.321412088279704	2.1105714	1.4527806
21.339246923127792	2.1094337	1.452389
21.357082280956888	2.129816	1.459389
21.3749181622451	2.1224165	1.4568516
21.392754567470647	2.1109958	1.4529266
21.41059149711187	2.110056	1.4526031
21.42842895164726	2.1126285	1.4534883
21.446266931555378	2.1027827	1.4500974
21.464105437314945	2.105414	1.4510045
21.481944469404798	2.126378	1.4582106
21.49978402830388	2.139727	1.4627806
21.51762411449127	2.1360066	1.4615083
21.53546472844617	2.1149802	1.4542972
21.553305870647876	2.0924222	1.4465207
21.571147541575865	2.0540044	1.4331799
21.58898974170967	2.0439038	1.4296516
21.60683247152899	1.9956073	1.4126596
21.62467573151363	1.9909445	1.4110084
21.642519522143523	2.0239327	1.4226499
21.660363843898722	2.0777507	1.4414405
21.6782086972594	2.0600681	1.4352938
21.696054082705864	2.0032763	1.4153714
21.713900000718535	1.9771272	1.4061035
21.73174645177795	1.9672693	1.4025937
21.749593436364794	1.9816011	1.4076935
21.767440954959845	1.9789767	1.406761
21.785289008044032	2.0015914	1.4147761
21.803137596098388	1.9812082	1.407554
21.820986719604086	1.9686201	1.4030752
21.838836379042412	1.9599329	1.399976
21.85668657489478	1.964668	1.4016662
21.87453730764273	1.9639684	1.4014165
21.892388577767914	1.9934229	1.4118863
21.91024038575213	2.0166054	1.4200723
21.928092732077285	2.0370476	1.4272518
21.945945617225426	2.030428	1.4249308
21.963799041678694	2.017362	1.4203387
21.981653005919398	31.331383	5.5974445
21.999507510429943	78.11854	8.8384695
22.01736255569286	73.05219	8.547057
22.035218142190818	4.1267147	2.0314317
22.05307427040661	1.947055	1.3953692
22.07093094082315	1.9653592	1.4019127
22.088788153923474	1.9565847	1.3987797
22.106645910190746	1.9725854	1.4044876
22.12450421010827	1.9628443	1.4010154
22.142363054159464	1.9723946	1.4044197
22.16022244282787	1.9428145	1.3938488
22.178082376597164	1.9421842	1.3936226
22.195942855951145	1.914344	1.3835982
22.213803881373742	1.9394081	1.3926263
22.231665453349002	1.9442167	1.3943517
22.24952757236111	1.9531026	1.3975345
22.26739023889438	1.951605	1.3969985
22.28525345343323	1.9430143	1.3939204
22.30311721646225	1.9187738	1.3851981
22.320981528466113	1.8856676	1.3731961
22.33884638992964	1.87206	1.3682324
22.356711801337788	1.8973705	1.3774507
22.37457776317561	1.9152808	1.3839368
22.392444275928337	1.9515481	1.3969783
22.410311340081282	1.9617164	1.4006128
22.428178956119904	1.924001	1.3870836
22.446047124529805	1.8705107	1.3676661
22.46391584579669	1.8508775	1.3604696
22.481785120406414	1.8776284	1.3702658
22.49965494884496	1.8946186	1.3764515
22.51752533159841	1.9073737	1.381077
22.53539626915302	1.8851708	1.3730153
22.553267761995137	1.8633894	1.3650602
22.571139810611264	1.8312174	1.3532249
22.589012415488025	1.8301811	1.3528419
22.60688557711216	1.8594701	1.3636239
22.624759295970566	1.9033842	1.3796319
22.642633572550263	1.9094195	1.3818175
22.660508407338362	1.8993981	1.3781865
22.67838380082217	1.8966799	1.3772
22.696259753489077	1.9119616	1.3827369
22.714136265826614	1.899209	1.3781179
22.73201333832246	1.8560209	1.3623586
22.74989097146439	1.8658735	1.3659698
22.76776916574035	1.9200215	1.3856484
22.785647921638393	1.9525459	1.3973353
22.803527239646712	1.9252378	1.3875294
22.82140712025363	1.8912579	1.3752301
22.839287563947593	1.861455	1.3643515
22.85716857121719	1.8856019	1.3731722
22.875050142551135	1.9019533	1.3791132
22.892932278438277	1.8809204	1.3714665
22.910814979367604	1.8528868	1.3612078
22.928698245828222	1.8581672	1.3631461
22.946582078309387	1.834014	1.3542577
22.96446647730047	1.8285465	1.3522376
22.98235144329098	1.8435104	1.3577594
23.000236976770562	1.8213519	1.3495747
23.018123078229	1.8397084	1.3563585
23.03600974815619	1.8522283	1.360966
23.053896987042194	1.8426485	1.3574419
23.071784795377173	1.8207179	1.3493398
23.08967317365145	1.8393465	1.3562251
23.10756212235546	1.9127046	1.3830056
23.125451641979787	1.9336817	1.3905689
23.143341733015134	1.9217435	1.3862697
23.161232395952357	1.917456	1.3847224
23.179123631282426	1.9091398	1.3817163
23.197015439496468	1.8946179	1.3764513
23.214907821085717	1.8739842	1.3689355
23.23280077654157	1.893812	1.3761584
23.250694306355538	1.9219089	1.3863293
23.268588411019277	1.9494686	1.3962337
23.28648309102458	1.9441857	1.3943406
23.304378346863356	1.9003923	1.3785472
23.322274179027676	1.8540013	1.3616172
23.340170588009723	1.844482	1.3581171
23.358067574301852	1.8410108	1.3568386
23.37596513839651	1.8783883	1.370543
23.39386328078629	1.8693782	1.3672521
23.411762001963947	1.8953762	1.3767266
23.429661302422353	1.8919885	1.3754958
23.4475611826545	1.8809515	1.3714778
23.46546164315356	1.9028255	1.3794295
23.48336268441279	1.9265227	1.3879924
23.501264306925638	1.9222912	1.3864671
23.51916651118564	1.9207366	1.3859065
23.537069297686497	1.8898622	1.3747226
23.554972666922037	1.8714768	1.3680193
23.57287661938623	1.8684809	1.3669239
23.59078115557318	1.8769248	1.3700091
23.608686275977128	1.8789624	1.3707525
23.62659198109246	1.8563416	1.3624762
23.6444982714137	1.8830752	1.3722519
23.66240514743549	1.8979305	1.377654
23.68031260965263	1.8740617	1.3689637
23.698220658560068	1.8818272	1.3717971
23.716129294652845	1.8715069	1.3680303
23.7340385184262	1.8735675	1.3687832
23.75194833037546	1.8674291	1.3665391
23.769858730996123	1.8724899	1.3683895
23.78776972078382	1.8404917	1.3566473
23.80568130023431	1.8544283	1.361774
23.823593469843495	1.8648157	1.3655826
23.841506230107424	1.8503783	1.3602861
23.859419581522275	1.836721	1.3552568
23.87733352458438	1.8106476	1.3456031
23.89524805979019	1.7793081	1.3339071
23.913163187636318	1.8570771	1.3627461
23.931078908619508	1.9414645	1.3933644
23.948995223236633	1.9985545	1.4137024
23.966912131984735	2.0064087	1.4164776
23.98482963536096	2.005737	1.4162405
24.002747733862616	1.9914994	1.4112049
24.020666427987155	2.0259209	1.4233484
24.038585718232156	2.0061631	1.4163909
24.056505605095353	2.0094109	1.4175369
24.074426089074617	2.0315669	1.4253304
24.092347170667946	2.0420384	1.4289991
24.110268850373515	2.019465	1.4210788
24.128191128689586	1.9699434	1.4035467
24.146114006114626	1.9287714	1.3888022
24.164037483147187	1.9396148	1.3927006
24.181961560286005	1.9583836	1.3994225
24.199886238029926	1.9633859	1.4012088
24.21781151687797	1.9413465	1.3933221
24.235737397329274	1.9763689	1.4058338
24.253663879883135	1.958095	1.3993194
24.271590965038975	1.9744718	1.405159
24.289518653296376	1.9423798	1.3936929
24.30744694515505	1.9481047	1.3957453
24.32537584111486	1.9730034	1.4046364
24.34330534167581	2.021642	1.4218446
24.361235447338046	2.0099616	1.4177312
24.379166158601876	1.9971944	1.4132212
24.39709747596772	1.9738668	1.4049437
24.41502939993615	1.9514129	1.3969299
24.432961931007917	1.9054769	1.3803902
24.450895069683856	1.9219803	1.386355
24.468828816465	1.9159	1.3841604
24.4867631718525	1.8896803	1.3746564
24.504698136347656	1.8869026	1.3736457
24.52263371045192	1.906856	1.3808895
24.540569894666874	1.9162793	1.3842974
24.558506689494266	1.8892015	1.3744823
24.57644409543597	1.8800408	1.3711458
24.594382112994012	1.8229008	1.3501484
24.61232074267057	1.8797485	1.3710392
24.630259984967953	1.9319178	1.3899344
24.64819984038863	1.9598505	1.3999466
24.66614030943522	1.9550052	1.3982149
24.684081392610462	1.9995369	1.4140499
24.702023090417274	1.984439	1.4087012
24.7199654033587	1.9682773	1.402953
24.737908331937927	1.9438547	1.3942219
24.755851876658305	1.9722337	1.4043623
24.773796038023324	1.9992698	1.4139553
24.79174081653661	1.9986237	1.4137269
24.809686212701962	2.0064192	1.4164813
24.827632227023294	2.0134518	1.4189615
24.8455788600047	2.0670831	1.4377354
24.8635261121504	2.0617075	1.4358647
24.88147398396475	2.072924	1.4397652
24.899422475952303	2.085473	1.4441167
24.917371588617698	2.1633308	1.4708266
24.935321322465768	2.2016737	1.4838039
24.953271678001478	2.259754	1.5032479
24.97122265572994	2.4594128	1.5682515
24.989174256156414	2.8111742	1.6766557
25.00712647978632	3.2663517	1.8073051
25.02507932712521	3.8186586	1.9541389
25.043032798678798	4.4089427	2.0997481
25.060986894952933	5.179405	2.2758307
25.078941616453637	5.9585	2.4410038
25.096896963687055	6.957452	2.6376982
25.114852937159508	8.14877	2.8546052
25.132809537377444	8.705306	2.9504755
25.150766764847468	8.6343775	2.938431
25.168724620076347	7.882951	2.8076594
25.186683103570985	6.7312655	2.5944684
25.204642215838426	5.47093	2.339002
25.222601957385894	4.1271577	2.0315406
25.24056232872074	3.079056	1.7547239
25.25852333035048	2.4975536	1.5803651
25.276484962782778	2.1680613	1.4724338
25.294447226525435	2.0332792	1.425931
25.312410122086423	1.9857297	1.4091592
25.330373649973843	1.915047	1.3838522
25.348337810695988	1.8561311	1.362399
25.366302604761245	1.8286508	1.3522762
25.384268032678207	1.8150073	1.3472221
25.40223409495558	1.8214427	1.3496083
25.420200792102257	1.838009	1.355732
25.438168124627246	1.8316588	1.353388
25.45613609303974	1.8290776	1.3524339
25.474104697849057	1.8445112	1.3581278
25.492073939564698	1.8618886	1.3645104
25.510043818696285	1.8155448	1.3474215
25.528014335753614	1.8305142	1.352965
25.54598549124664	1.8609567	1.3641689
25.56395728568544	1.8711313	1.367893
25.58192971958028	1.8237915	1.3504783
25.59990279344156	1.7774773	1.3332206
25.617876507779833	1.8164696	1.3477646
25.635850863105826	1.8969307	1.3772911
25.653825859930386	1.9000078	1.3784077
25.671801498764548	1.8550717	1.3620101
25.68977778011949	1.8416799	1.3570851
25.707754704506524	1.8496733	1.360027
25.725732272437153	1.8518318	1.3608203
25.743710484423012	1.8188244	1.3486379
25.761689340975888	1.8242959	1.350665
25.77966884260774	1.8220733	1.349842
25.797648989830662	1.7986115	1.3411232
25.815629783156922	1.828336	1.3521597
25.83361122309895	1.8367049	1.3552508
25.85159331016929	1.8720963	1.3682457
25.869576044880695	1.8170681	1.3479867
25.887559427746034	1.8349211	1.3545926
25.90554345927836	1.8668141	1.366314
25.92352813999086	1.8579166	1.3630542
25.94151347039689	1.8751994	1.3693792
25.959499451009965	1.8425615	1.3574098
25.97748608234374	1.826508	1.3514837
25.995473364912062	1.8322726	1.3536147
26.013461299228904	1.8833897	1.3723664
26.03144988580839	1.8918151	1.3754327
26.04943912516483	1.8735722	1.3687849
26.067429017812675	1.8102841	1.345468
26.085419564266537	1.8012593	1.34211
26.103410765041186	1.7754089	1.3324447
26.12140262065155	1.7888142	1.3374655
26.139395131612723	1.7575843	1.3257391
26.157388298439948	1.7489954	1.3224959
26.17538212164861	1.7905775	1.3381246
26.193376601754295	1.8198885	1.3490324
26.211371739272714	1.7660253	1.3289188
26.229367534719746	1.7258006	1.3136973
26.247363988611433	1.7303796	1.315439
26.26536110146397	1.787847	1.337104
26.283358873793727	1.8330597	1.3539053
26.301357306117204	1.8719324	1.3681858
26.319356398951104	1.8137474	1.3467544
26.33735615281224	1.7627268	1.3276772
26.35535656821762	1.7697405	1.330316
26.373357645684404	1.8045565	1.3433378
26.39135938572991	1.7743025	1.3320295
26.409361788871614	1.7656376	1.328773
26.427364855627165	1.7777973	1.3333406
26.445368586514352	1.7943943	1.33955
26.46337298205115	1.759215	1.326354
26.48137804275568	1.7722895	1.3312737
26.499383769146217	1.7657713	1.3288232
26.517390161741215	1.7694823	1.3302189
26.53539722105928	1.7825055	1.3351051
26.553404947619182	1.7683215	1.3297825
26.571413341939856	1.7567923	1.3254404
26.589422404540397	1.7698512	1.3303576
26.60743213594006	1.744484	1.3207891
26.62544253665827	1.7466257	1.3215996
26.64345360721459	1.7230402	1.3126463
26.66146534812879	1.7274857	1.3143384
26.679477759920758	1.8006611	1.3418871
26.69749084311057	1.8468286	1.3589807
26.71550459821847	1.8269355	1.3516418
26.733519025764842	1.7750548	1.3323119
26.751534126270258	1.7745684	1.3321292
26.769549900255434	1.7669201	1.3292555
26.787566348241267	1.7747492	1.3321971
26.80558347074881	1.7556508	1.3250097
26.823601268299267	1.7649775	1.3285246
26.841619741414036	1.7717665	1.3310772
26.85963889061465	1.7569379	1.3254954
26.877658716422832	1.7136905	1.30908
26.89567921936045	1.7364938	1.317761
26.913700399949544	1.7867812	1.3367053
26.93172225871233	1.7813017	1.3346542
26.949744796171174	1.7661648	1.3289713
26.967768012848605	1.7954853	1.3399572
26.98579190926733	1.7703505	1.3305452
27.003816485950225	1.7722762	1.3312687
27.021841743420318	1.765588	1.3287543
27.039867682200814	1.7700336	1.3304261
27.057894302815072	1.7298851	1.315251
27.07592160578664	1.7619262	1.3273757
27.0939495916392	1.812992	1.3464739
27.111978260896635	1.7897531	1.3378165
27.13000761408296	1.757457	1.3256911
27.148037651722397	1.7734232	1.3316994
27.166068374339304	1.8021843	1.3424546
27.184099782458215	1.7877122	1.3370535
27.20213187660384	1.7783211	1.3335371
27.22016465730105	1.772419	1.3313223
27.23819812507487	1.8192722	1.348804
27.256232280450533	1.7812535	1.3346361
27.274267123953383	1.7532045	1.3240863
27.292302656108987	1.7668729	1.3292377
27.31033887744306	1.7790915	1.3338258
27.32837578848146	1.713965	1.3091849
27.34641338975026	1.6892934	1.2997282
27.364451681775673	1.7406104	1.319322
27.382490665084074	1.7899075	1.3378742
27.400530340202046	1.8180833	1.3483632
27.41857070765629	1.8170302	1.3479726
27.436611767973726	1.7570834	1.3255502
27.454653521681404	1.7311966	1.3157494
27.472695969306564	1.7824695	1.3350916
27.490739111376627	1.8245643	1.3507644
27.508782948419153	1.8099023	1.3453261
27.526827480961902	1.7845982	1.3358885
27.54487270953279	1.7660419	1.3289251
27.562918634659898	1.7211133	1.3119121
27.580965256871508	1.736696	1.3178376
27.599012576696026	1.807169	1.3443098
27.617060594662068	1.8407735	1.3567511
27.63510931129842	1.8119855	1.3461001
27.65315872713401	1.7688545	1.3299829
27.67120884269797	1.7746536	1.3321612
27.68925965851958	1.798673	1.3411461
27.707311175128307	1.7835746	1.3355054
27.725363393053787	1.7838532	1.3356097
27.74341631282583	1.8106273	1.3455955
27.7614699349744	1.8710926	1.3678788
27.77952426002968	1.9898794	1.4106308
27.797579288521973	2.0779583	1.4415125
27.815635020981784	2.4130306	1.5533932
27.83369145793979	2.4946337	1.579441
27.85174859992682	2.3634827	1.5373622
27.869806447473923	2.1960397	1.481904
27.887865001112267	1.9360795	1.3914307
27.905924261373233	1.8537318	1.3615181
27.92398422878836	1.8826561	1.3720992
27.94204490388936	1.8811476	1.3715494
27.96010628720813	1.842968	1.3575596
27.978168379276728	1.8538681	1.3615682
27.9962311806274	1.8740864	1.3689728
28.014294691792568	1.8666458	1.3662524
28.0323589133048	1.8417931	1.3571267
28.050423845696887	1.854477	1.3617918
28.068489489501758	1.8274072	1.3518163
28.086555845252523	1.8573513	1.3628467
28.104622913482487	1.9011177	1.3788103
28.122690694725115	1.9450271	1.3946422
28.14075918951405	1.8864509	1.3734813
28.15882839838312	1.8701428	1.3675317
28.176898321866304	1.8632082	1.3649938
28.1949689604978	1.8738102	1.3688718
28.213040314811945	1.8564515	1.3625166
28.23111238534327	1.8742709	1.3690401
28.249185172626493	1.9449686	1.3946213
28.267258677196473	1.948828	1.3960043
28.285332899588294	1.9170111	1.3845617
28.303407840337172	1.8942106	1.3763032
28.321483499978545	1.8624642	1.3647213
28.33955987904799	1.873737	1.3688451
28.357636978081285	1.9000752	1.3784322
28.37571479761439	1.873081	1.3686055
28.393793338183425	1.933881	1.3906405
28.41187260032469	1.9686441	1.4030838
28.429952584574686	1.938013	1.3921254
28.448033291470065	1.9263326	1.3879238
28.46611472154769	1.9428003	1.3938437
28.484196875344566	1.9231652	1.3867823
28.502279753397914	1.9133025	1.3832217
28.52036335624511	1.9240323	1.387095
28.538447684423716	1.930721	1.3895038
28.556532738471482	1.9349914	1.3910396
28.574618518926325	1.94426	1.3943672
28.59270502632635	1.9244041	1.387229
28.61079226120985	1.9314069	1.3897506
28.628880224115274	1.9308938	1.3895661
28.646968915581287	2.0321677	1.4255412
28.66505833614671	2.126514	1.4582572
28.68314848635055	2.1214073	1.4565052
28.701239366732004	2.0744371	1.4402907
28.71933097783044	2.012278	1.4185479
28.737423320185403	1.9515171	1.396967
28.75551639433665	1.9628948	1.4010335
28.773610200824074	2.000067	1.4142373
28.791704740187793	2.064683	1.4369005
28.80980001296809	2.075871	1.4407883
28.827896019705413	2.0558383	1.4338195
28.845992760940433	2.1403275	1.4629858
28.86409023721397	2.200232	1.483318
28.88218844906704	2.2051914	1.4849887
28.900287397040845	2.1435692	1.4640933
28.918387081676755	2.1610923	1.4700654
28.936487503516343	2.2215288	1.4904794
28.954588663101365	2.2584467	1.502813
28.97269056097374	2.2968438	1.5155342
28.990793197675597	2.339596	1.5295738
29.00889657374923	2.3091388	1.519585
29.027000689737125	2.3263881	1.5252502
29.04510554618196	2.368114	1.5388677
29.06321114362659	2.3577697	1.535503
29.08131748261405	2.3174932	1.5223315
29.099424563687567	2.4083395	1.5518826
29.11753238739057	2.4720206	1.5722661
29.13564095426663	2.4700983	1.5716547
29.15375026485954	2.460372	1.5685573
29.171860319713275	2.5057383	1.5829524
29.18997111937199	2.5782466	1.6056919
29.20808266438002	2.6832647	1.6380674
29.226194955281898	2.7517493	1.6588397
29.244307992622335	2.780705	1.6675446
29.26242177694624	2.8162334	1.6781636
29.2805363087987	2.9338975	1.7128624
29.29865158872498	2.9724889	1.7240907
29.316767617270557	2.9400623	1.714661
29.334884394981064	2.8723526	1.6948017
29.353001922402367	2.9455879	1.7162715
29.37112020008047	3.0378938	1.7429554
29.389239228561596	3.1502447	1.7748929
29.407359008392152	3.309919	1.8193183
29.42547954011872	3.6542284	1.9116037
29.44360082428809	4.2503138	2.0616288
29.46172286144722	5.3564453	2.3143995
29.479845652143283	7.032886	2.651959
29.497969196923606	9.345878	3.057103
29.516093496335728	12.098443	3.4782817
29.5342185509274	15.096358	3.8854032
29.55234436124651	17.72487	4.2100916
29.570470927841175	19.335115	4.3971715
29.588598251259686	19.048132	4.3644166
29.60672633205055	17.555649	4.189946
29.624855170762405	15.156148	3.8930898
29.642984767944146	12.155421	3.4864626
29.66111512414481	9.10452	3.0173697
29.67924623991366	6.6098924	2.570971
29.697378115800138	5.011492	2.2386363
29.71551075235387	4.0635896	2.0158348
29.733644150124675	3.6292298	1.9050537
29.751778309662576	3.4476388	1.8567818
29.769913231517766	3.3608007	1.8332487
29.78804891624066	3.290355	1.8139336
29.806185364381818	3.2914968	1.8142482
29.82432257649206	3.2573354	1.804809
29.842460553122333	3.2545896	1.8040481
29.86059929482382	3.3153155	1.8208008
29.878738802147872	3.3165023	1.8211267
29.896879075646048	3.2188194	1.7941068
29.915020115870114	3.1646209	1.7789382
29.933161923371976	3.2059834	1.790526
29.951304498703777	3.219524	1.7943032
29.969447842417857	3.18854	1.7856483
29.987591955066733	3.1943097	1.7872632
30.005736837203123	3.187239	1.785284
30.023882489379943	3.1911366	1.7863753
30.04202891215028	3.2073057	1.7908952
30.060176106067455	3.2310698	1.7975177
30.078324071684946	3.2114735	1.7920585
30.09647280955646	3.1774304	1.7825348
30.114622320235863	3.1381204	1.7714741
30.132772604277257	3.0985584	1.7602723
30.1509236622349	3.0210314	1.7381115
30.16907549466328	2.970924	1.7236369
30.18722810211705	2.983136	1.7271757
30.205381485151097	2.9967184	1.7311032
30.22353564432045	2.9661593	1.7222542
30.241690580180403	2.9443674	1.7159159
30.25984629328638	2.8918853	1.7005544
30.278002784194037	2.9567878	1.7195313
30.296160053459246	2.9736605	1.7244304
30.314318101638033	2.914963	1.7073263
30.332476929286646	2.8774874	1.6963159
30.35063653696153	2.831838	1.6828066
30.368796925219307	2.8243756	1.6805879
30.386958094616844	2.8211563	1.6796298
30.40512004571115	2.841705	1.6857358
30.423282779059463	2.8028615	1.6741749
30.441446295219233	2.831362	1.6826651
30.459610594748067	2.8048677	1.6747739
30.47777567820382	2.777632	1.6666229
30.495941546144504	2.75711	1.6604548
30.51410819912835	2.7273614	1.6514724
30.532275637713795	2.7389843	1.6549877
30.55044386245946	2.676054	1.6358649
30.56861287392416	2.6389859	1.6244956
30.586782672666956	2.6615238	1.6314178
30.604953259247047	2.6817172	1.6375949
30.623124634223885	2.728911	1.6519415
30.641296798157075	2.7868896	1.669398
30.659469751606462	2.7717707	1.6648636
30.677643495132074	2.6715589	1.6344904
30.695818029294152	2.6626804	1.6317722
30.713993354653116	2.6775622	1.6363258
30.73216947176962	2.669915	1.6339874
30.75034638120448	2.715391	1.6478443
30.768524083518756	2.74751	1.6575614
30.786702579273673	2.766989	1.6634269
30.80488186903069	2.7878084	1.6696732
30.82306195335144	2.8430219	1.6861262
30.841242832797782	3.0175369	1.7371058
30.85942450793176	3.3960023	1.8428246
30.877606979315637	3.777266	1.943519
30.895790247511883	4.0160007	2.0039961
30.913974313083134	4.5135136	2.1245031
30.932159176592283	4.9474382	2.2242837
30.95034483860237	4.9832506	2.2323196
30.968531299676698	4.731137	2.1751177
30.98671856037873	4.414802	2.1011431
31.00490662127215	3.995735	1.9989334
31.023095482920848	3.4562542	1.8591003
31.04128514588892	2.956802	1.7195354
31.059475610740662	2.6580362	1.6303484
31.07766687804056	2.4854252	1.5765232
31.09585894835335	2.3434083	1.5308195
31.11405182224393	2.3569858	1.5352478
31.132245500277417	2.355197	1.5346651
31.15043998301914	2.3845787	1.5442082
31.168635271034628	2.4045703	1.5506678
31.18683136488964	2.3827622	1.5436199
31.20502826515008	2.3542295	1.5343498
31.223225972382135	2.3780625	1.5420967
31.241424487152155	2.3763328	1.5415359
31.259623810026692	2.379581	1.5425891
31.27782394157253	2.4256723	1.557457
31.296024882356644	2.4095628	1.5522766
31.314226632946237	2.3657098	1.5380864
31.332429193908684	2.3865123	1.544834
31.350632565811598	2.4169922	1.5546678
31.368836749222787	2.386246	1.5447478
31.387041744710295	2.4071991	1.5515151
31.40524755284232	2.4216175	1.5561547
31.423454174187317	2.3839576	1.544007
31.441661609313922	2.388468	1.5454669
31.459869858791002	2.415894	1.5543146
31.478078923187628	2.3982644	1.5486331
31.496288803073064	2.3063526	1.518668
31.514499499016807	2.2101095	1.4866437
31.532711011588546	2.1624281	1.4705197
31.550923341358178	2.2217057	1.4905387
31.56913648889584	2.2981613	1.5159688
31.587350454771844	2.2751029	1.5083444
31.605565239556732	2.205226	1.4850004
31.62378084382127	2.2150943	1.4883193
31.641997268136382	2.234891	1.4949552
31.660214513073274	2.2721856	1.507377
31.67843257920331	2.27267	1.5075377
31.6966514670981	2.292288	1.5140305
31.71487117732944	2.3064144	1.5186883
31.733091710469346	2.3279645	1.5257668
31.751313067090052	2.2669816	1.5056499
31.769535247764008	2.2522979	1.5007658
31.787758253063878	2.226488	1.4921421
31.805982083562526	2.3055053	1.518389
31.824206739833024	2.3662188	1.5382519
31.84243222244869	2.3135355	1.521031
31.860658531983013	2.2548232	1.5016068
31.878885669009737	2.245456	1.4984846
31.897113634102784	2.272574	1.5075059
31.91534242783632	2.2496405	1.4998802
31.933572050784694	2.2103932	1.4867392
31.951802503522508	2.1929839	1.4808726
31.970033786624548	2.2049682	1.4849136
31.988265900665834	2.2500281	1.5000094
32.006498846221575	2.209292	1.4863687
32.02473262386724	2.1657696	1.4716554
32.04296723417845	2.1819184	1.4771318
32.0612026777311	2.2365704	1.4955168
32.07943895510129	2.2296667	1.4932069
32.097676066865304	2.1726665	1.4739968
32.115914013599685	2.0087519	1.4173044
32.13415279588115	1.9099011	1.3819917
32.152392414286666	1.9757172	1.4056021
32.1706328693934	2.0912623	1.4461198
32.18887416177875	2.1614995	1.4702039
32.20711629202032	2.1918511	1.4804902
32.225359260695924	2.195434	1.4816997
32.243603068383614	2.1508057	1.4665625
32.26184771566166	2.0495925	1.4316398
32.28009320310852	2.0281713	1.4241388
32.2983395313029	1.9943229	1.412205
32.31658670082372	1.9780935	1.4064472
32.33483471225012	2.017761	1.4204792
32.35308356616143	2.0523572	1.432605
32.371333263137245	2.0831506	1.4433124
32.38958380375734	2.131644	1.460015
32.407835188601744	2.1026416	1.4500488
32.42608741825067	2.0876977	1.4448868
32.444340493284585	2.0507352	1.4320388
32.46259441428416	2.0728579	1.4397423
32.48084918183028	2.0779204	1.4414994
32.49910479650405	2.0214283	1.4217695
32.51736125888683	2.0436742	1.4295714
32.53561856956014	2.103663	1.450401
32.5538767291058	2.18331	1.4776028
32.572135738105764	2.1865952	1.478714
32.59039559714228	2.1590111	1.4693574
32.608656306797776	2.1278908	1.4587291
32.62691786765491	2.09466	1.447294
32.645180280296586	2.1289303	1.4590855
32.663443545305896	2.0903165	1.4457927
32.68170766326619	2.0088615	1.4173431
32.69997263476099	1.9569749	1.3989192
32.7182384603741	2.0233178	1.4224337
32.7365051406895	2.0140107	1.4191585
32.75477267629144	1.963163	1.4011292
32.77304106776434	1.9676551	1.4027313
32.79131031569289	1.9969099	1.4131206
32.809580420661966	1.9916087	1.4112437
32.827851383256714	1.9427329	1.3938196
32.84612320406245	1.941687	1.3934443
32.86439588366476	1.9145821	1.3836843
32.88266942264945	1.9317213	1.3898637
32.9009438216025	1.951466	1.3969488
32.9192190811102	1.9448357	1.3945737
32.937495201758985	1.9096885	1.3819147
32.95577218413556	2.0000372	1.4142268
32.974050028826866	2.0540376	1.4331914
32.992328736420035	2.0674565	1.4378653
33.010608307502444	2.0564768	1.4340421
33.02888874266169	2.0472178	1.4308102
33.047170042485604	1.9631213	1.4011143
33.06545220756225	1.8339435	1.3542317
33.083735238479896	1.8171169	1.3480048
33.10201913582707	1.8992039	1.378116
33.12030390019248	1.9423468	1.393681
33.138589532165135	1.9336326	1.3905512
33.15687603233419	1.9243217	1.3871992
33.17516340128909	1.8922753	1.3756
33.19345163961947	1.8394634	1.3562682
33.211740747915215	1.9094388	1.3818245
33.23003072676643	1.9367718	1.3916795
33.248321576763466	1.870233	1.3675647
33.266613298496885	1.8746663	1.3691845
33.28490589255747	1.955385	1.3983508
33.30319935953626	1.9711479	1.4039757
33.32149370002451	1.9835687	1.4083922
33.339788914613706	1.9956644	1.4126798
33.358085003895575	1.9839405	1.4085243
33.376381968462034	1.9091879	1.3817337
33.39467980890529	1.8987701	1.3779587
33.41297852581774	1.915596	1.3840506
33.43127811979204	1.9383135	1.3922333
33.44957859142105	2.008804	1.4173229
33.467879941297866	1.9175967	1.3847731
33.486182170015844	1.8200568	1.3490947
33.50448527816853	1.8200636	1.3490974
33.522789266349754	1.8357139	1.3548852
33.541094135153514	1.8099643	1.3453492
33.55939988517411	1.8075855	1.3444648
33.57770651700602	1.8660756	1.3660438
33.59601403124398	2.0275805	1.4239314
33.61432242848296	2.172946	1.4740915
33.632631709318154	2.034181	1.4262472
33.650941874344994	1.9207501	1.3859113
33.66925292415916	1.845953	1.3586586
33.68756485935654	1.7608075	1.3269542
33.70587768053328	1.7702764	1.3305174
33.724191388285746	1.9103043	1.3821375
33.74250598321054	1.9730192	1.404642
33.760821465904506	1.9602098	1.400075
33.77913783696474	1.8591859	1.3635197
33.79745509698852	1.9217452	1.3862703
33.815773246573414	1.979116	1.4068105
33.8340922863172	1.9833117	1.408301
33.852412216817896	1.9273635	1.3882952
33.87073303867377	1.8754373	1.3694661
33.889054752483304	1.9010098	1.3787711
33.907377358845245	1.9982455	1.413593
33.92570085835853	1.9109728	1.3823794
33.94402525162239	1.7490814	1.3225284
33.96235053923627	1.8827515	1.3721339
33.980676721799824	2.0434847	1.429505
33.999003799912984	2.0392756	1.428032
34.01733177417592	1.9718243	1.4042166
34.03566064518901	1.8756366	1.3695388
34.0539904135529	1.958093	1.3993188
34.07232107986846	2.040447	1.4284421
34.090652644736785	2.022054	1.4219894
34.108985108759235	1.9294086	1.3890315
34.12731847253742	1.9235498	1.3869209
34.14565273667313	1.9406859	1.393085
34.16398790176847	1.9029112	1.3794605
34.18232396842574	1.8585876	1.3633003
34.20066093724749	1.737903	1.3182955
34.21899880883651	1.7141452	1.3092537
34.23733758379583	1.7272708	1.3142568
34.25567726272874	1.9046427	1.380088
34.27401784623872	2.060616	1.4354846
34.29235933492957	2.1548834	1.4679521
34.31070172940526	2.0401552	1.42834
34.32904503027003	1.950057	1.3964444
34.347389238128386	1.9057935	1.3805048
34.36573435358502	1.9049997	1.3802173
34.38408037724492	2.0134273	1.4189528
34.402427309713296	2.130495	1.4596215
34.42077515159559	2.0437465	1.4295967
34.43912390349752	1.8859442	1.3732969
34.45747356602499	1.8220801	1.3498445
34.47582413978423	1.8974127	1.3774661
34.49417562538163	1.9486561	1.3959427
34.51252802342388	1.9644758	1.4015976
34.53088133451789	1.8823078	1.3719722
34.54923555927084	1.7999846	1.341635
34.567590698290104	1.898313	1.3777928
34.58594675218336	1.9511001	1.3968178
34.6043037215585	2.020212	1.4213415
34.62266160702365	1.9689989	1.4032102
34.641020409187234	1.8885462	1.3742439
34.65938012865785	1.9469436	1.3953292
34.677740766044394	2.020281	1.421366
34.69610232195598	2.1393054	1.4626365
34.714464797002016	2.1652246	1.4714702
34.73282819179208	2.089474	1.4455013
34.751192506936064	1.9571918	1.3989967
34.76955774304408	1.951141	1.3968325
34.7879239007265	1.980388	1.4072626
34.80629098059391	1.9056728	1.3804611
34.824658983257194	1.7479788	1.3221115
34.843027909327446	1.7307945	1.3155967
34.86139775941603	1.8347862	1.3545429
34.879768534134534	1.9959826	1.4127924
34.89814023409483	2.0291848	1.4244946
34.91651285990901	1.9172121	1.3846343
34.93488641218944	1.8457029	1.3585665
34.95326089154871	1.9323444	1.390088
34.97163629859967	2.2090676	1.4862932
34.99001263395542	2.319088	1.5228552
35.00838989822934	2.1041803	1.4505793
35.02676809203499	1.9308401	1.3895468
35.04514721598624	1.9824805	1.4080058
35.063527270697215	1.8958187	1.3768873
35.081908256782256	1.7589384	1.3262497
35.10029017485597	1.8110745	1.3457617
35.11867302553321	2.164087	1.4710836
35.137056809429104	2.1931195	1.4809185
35.155441527159006	2.2236943	1.4912057
35.173827179338524	2.1660318	1.4717445
35.19221376658354	2.0109599	1.4180832
35.21060128951017	1.9198116	1.3855727
35.2289897487348	1.7799248	1.3341382
35.24737914487405	1.8204213	1.3492299
35.26576947854479	1.9394633	1.3926462
35.28416075036418	2.0578372	1.4345164
35.30255296094958	1.9112208	1.382469
35.32094611091867	1.7907382	1.3381847
35.33934020088932	2.1163206	1.4547579
35.35773523147969	2.2252488	1.4917268
35.3761312033082	2.1805062	1.4766537
35.394528116993506	2.1391585	1.4625863
35.41292597315452	2.168669	1.4726402
35.431324772410434	1.9203142	1.385754
35.449724515380666	1.9140835	1.383504
35.46812520268491	2.0495458	1.4316235
35.486526834943106	1.5194379	1.2326548
35.504929412775454	1.649722	1.284415
35.52333293680242	1.8411196	1.3568786
35.54173740764471	1.9433749	1.3940498
35.560142825923286	1.7816706	1.3347924
35.5785491922594	1.5651562	1.251062
35.59695650727454	1.0408181	1.0202049
35.61536477159042	0.0	0.0
