0.008763373481513119	0.3822274	0.6182454
0.026290120649546365	0.3681276	0.6067352
0.043816868432600686	0.31194657	0.55852175
0.06134361724069026	0.22585529	0.47524235
0.07887036748382949	0.17334418	0.41634622
0.0963971195720331	0.111295916	0.33361042
0.11392387391531617	0.09413135	0.30680832
0.1314506309236943	0.112650245	0.33563408
0.1489773910071836	0.14133817	0.37594968
0.16650415457580078	0.12029718	0.34683883
0.18403092203956356	0.08717723	0.2952579
0.20155769380849	0.1126408	0.33562002
0.2190844702925996	0.15571664	0.39460948
0.2366112519019124	0.1798993	0.42414537
0.2541380390464497	0.19749188	0.44440058
0.27166483213623416	0.17440969	0.41762385
0.28919163158128947	0.19598624	0.44270334
0.3067184377916406	0.17792788	0.42181498
0.324245251177314	0.17664029	0.42028597
0.34177207214833777	0.17108265	0.41362137
0.3592989011147415	0.1636433	0.4045285
0.37682573848655654	0.13197276	0.36328056
0.39435258467381573	0.090887554	0.3014756
0.41187944008655414	0.096989274	0.31143102
0.42940630513480854	0.100599654	0.3171745
0.446933180228618	0.13129558	0.3623473
0.4644600657780234	0.16786496	0.40971327
0.48198696219306775	0.17132416	0.41391322
0.49951386988379676	0.16063851	0.40079734
0.5170407892602581	0.11925123	0.3453277
0.5345677207325025	0.08272421	0.28761816
0.5520946647105822	0.105302125	0.3245029
0.5696216216045534	0.12616993	0.35520408
0.5871485918244737	0.14208327	0.37693936
0.6046755757804043	0.15183042	0.38965422
0.6222025738824094	0.20202	0.44946635
0.6397295865405557	0.22337356	0.47262412
0.6572566141649129	0.21291862	0.46143106
0.6747836571655547	0.2173765	0.46623653
0.6923107159525568	0.16682404	0.40844098
0.7098377909359992	0.1748433	0.41814268
0.7273648825259653	0.1696118	0.41183951
0.7448919911325411	0.19566008	0.4423348
0.762419117165817	0.17305551	0.4159994
0.7799462610358868	0.16176589	0.4022013
0.7974734231528482	0.1778738	0.42175087
0.8150006039268024	0.22685619	0.47629422
0.8325278037678551	0.23818898	0.48804608
0.8500550230861152	0.23688579	0.48670915
0.8675822622916969	0.22157769	0.47072038
0.8851095217947171	0.21634716	0.46513134
0.9026368020052984	0.24306642	0.49301767
0.9201641033335665	0.2517059	0.501703
0.9376914261896523	0.2501195	0.5001195
0.9552187709836915	0.20764527	0.45568112
0.9727461381258234	0.1942642	0.44075412
0.990273528026193	0.23191793	0.4815786
1.0078009410949496	0.26294512	0.51278174
1.0253283777422473	0.27716187	0.52646166
1.0428558383782454	0.27098906	0.5205661
1.0603833234131086	0.26563078	0.5153938
1.0779108332570058	0.29402426	0.54224
1.0954383683201119	0.30536246	0.5525961
1.112965929012607	0.35951123	0.59959257
1.1304935157446763	0.47975656	0.6926446
1.1480211289265108	0.47754815	0.69104856
1.1655487689683062	1.488979	1.2202373
1.1830764362802655	1.7909931	1.3382798
1.200604131272596	2.2192385	1.4897109
1.2181318543555117	2.442399	1.5628177
1.235659605939232	2.502182	1.5818287
1.253187386433982	4.02721	2.006791
1.270715196249994	6.428556	2.5354598
1.2882430357975057	12.105569	3.4793057
1.3057709054867608	16.9826	4.120995
1.3232988057280106	22.828646	4.777933
1.3408267369315112	27.568735	5.2505937
1.358354699507526	31.186647	5.584501
1.3758826938663256	35.41014	5.950642
1.3934107204181858	37.196346	6.098881
1.410938779573391	37.772877	6.145964
1.4284668717422309	38.32376	6.190619
1.4459949973350033	37.822624	6.15001
1.4635231567620117	37.702213	6.140213
1.4810513504335687	36.61594	6.0511107
1.4985795787599925	35.878563	5.9898715
1.5161078421516088	35.493286	5.9576244
1.5336361410187505	34.89176	5.9069247
1.5511644757717598	35.445717	5.9536304
1.5686928468209842	36.332664	6.0276585
1.58622125457678	37.1382	6.094112
1.6037496994495108	38.32089	6.190387
1.621278181849548	38.046726	6.168203
1.6388067021872719	38.667236	6.2182984
1.6563352608730693	37.68783	6.1390414
1.673863858317336	36.684677	6.0567875
1.6913924949304753	35.90082	5.9917293
1.7089211711228998	35.07883	5.9227386
1.7264498873050296	34.32208	5.858505
1.7439786438872935	33.322517	5.772566
1.7615074412801288	32.29272	5.6826687
1.779036279893981	31.475307	5.6102858
1.796565160139305	30.365032	5.5104475
1.814094082426564	29.772287	5.456399
1.8316230471662298	29.373446	5.4197273
1.849152054768784	28.6121	5.349028
1.8666811056447168	28.25168	5.315231
1.8842102002045273	27.154974	5.2110434
1.901739338858724	26.549835	5.152653
1.9192685220178245	26.14564	5.113281
1.9367977500923557	25.388042	5.038655
1.9543270234928547	24.86256	4.986237
1.971856342629867	23.882298	4.886952
1.9893857079139496	23.300526	4.8270617
2.006915119755667	23.10413	4.8066754
2.0244445785655945	22.577387	4.751567
2.0419740847543175	22.094612	4.7004905
2.0595036387324317	21.641523	4.6520452
2.0770332409105414	21.038706	4.5867968
2.094562891699263	20.874138	4.5688224
2.1120925915092217	20.34618	4.510674
2.129622340751053	19.898113	4.46073
2.1471521398354043	187.82436	13.704903
2.1646819891729323	444.15244	21.074924
2.182211889174303	440.5824	20.990055
2.1997418402501974	453.0915	21.285946
2.2172718428113023	433.1541	20.812355
2.234801897268317	321.0868	17.918896
2.2523320040319548	17.399698	4.1712947
2.269862163512935	16.89995	4.1109548
2.287392376121992	16.665707	4.0823655
2.304922642269869	16.303991	4.0378203
2.322452962367322	16.04579	4.0057197
2.3399833368251164	15.673626	3.958993
2.357513766054032	15.551622	3.9435546
2.3750442504648586	15.413784	3.9260392
2.3925747904683963	15.12938	3.8896503
2.410105386475459	14.901894	3.8602972
2.4276360388968707	14.347545	3.7878153
2.445166748143469	14.0669985	3.7505999
2.4626975146261025	13.744658	3.7073789
2.4802283387556323	13.491537	3.6730828
2.4977592209429305	13.277392	3.6438155
2.5152901615988825	13.020514	3.6083949
2.5328211611343865	12.963972	3.6005516
2.5503522199603523	12.777394	3.574548
2.5678833384877024	12.608267	3.5508122
2.5854145171273712	12.3968725	3.5209193
2.6029457562903064	12.2628355	3.5018332
2.620477056387469	11.993149	3.4631126
2.6380084178298326	11.668675	3.4159443
2.655539841028383	11.470812	3.3868587
2.673071326394119	11.263713	3.3561456
2.6906028743380523	11.241399	3.3528194
2.708134485271211	11.118088	3.3343797
2.7256661596046325	11.062111	3.3259752
2.743197897749369	10.816261	3.2888086
2.760729700116486	10.598228	3.255492
2.778261567117063	10.342216	3.2159314
2.795793499162193	10.082878	3.1753547
2.8133254966629817	10.050676	3.1702802
2.830857560030551	9.9758835	3.1584623
2.8483896896760337	10.001543	3.1625216
2.865921886010578	9.908338	3.147751
2.883454149445347	9.681681	3.1115398
2.9009864803915177	9.629012	3.103065
2.91851887926028	9.389862	3.0642881
2.9360513464628384	9.306738	3.0506947
2.953583882410413	9.194173	3.0321894
2.9711164875142373	8.97922	2.9965348
2.9886491621855606	8.87466	2.9790366
3.0061819068356455	8.763292	2.960286
3.023714721875769	8.683666	2.9468062
3.041247607717225	8.5584955	2.9254906
3.0587805647713213	8.537425	2.9218872
3.0763135934493806	8.497405	2.915031
3.0938466941627407	8.376765	2.8942642
3.1113798673227544	8.213352	2.8658946
3.1289131133407904	8.083701	2.843185
3.1464464326282315	7.89712	2.8101814
3.1639798255964786	7.7168612	2.7779238
3.1815132926569443	7.5865927	2.754377
3.1990468342210603	7.4236746	2.724642
3.216580450700272	7.490309	2.7368429
3.2341141425060416	7.445344	2.7286158
3.251647910049847	7.3870687	2.7179163
3.2691817537431813	7.367545	2.7143223
3.286715673997555	7.270745	2.6964319
3.3042496712244938	7.2676744	2.6958625
3.32178374583554	7.1809964	2.679738
3.339317898242251	7.1281285	2.6698556
3.3568521288562034	7.0412216	2.6535301
3.3743864380889876	6.9545994	2.6371574
3.3919208263522127	6.91336	2.6293268
3.4094552940575023	6.825044	2.6124785
3.4269898416164972	6.626687	2.5742352
3.444524469440858	6.549312	2.5591624
3.4620591779422587	6.372817	2.5244439
3.479593967532391	6.434666	2.5366645
3.4971288386229658	6.3881826	2.5274854
3.5146637916257086	6.2573547	2.5014706
3.5321988269523628	6.1340046	2.4766922
3.5497339450146903	6.184043	2.4867735
3.5672691462244708	6.283127	2.5066166
3.5848044309934988	6.421413	2.5340507
3.60233979973359	6.4111547	2.5320258
3.619875252856575	6.4408307	2.5378792
3.6374107907743034	6.4009132	2.5300026
3.6549464138986427	6.3546853	2.5208502
3.6724821226414788	6.335987	2.5171387
3.690017917414714	6.3567004	2.5212498
3.7075537986302702	6.281395	2.5062711
3.7250897667000857	6.364006	2.5226982
3.7426258220361235	6.3942113	2.5286777
3.7601619650503553	6.6988306	2.5882099
3.777698196154779	7.2348795	2.689773
3.7952345157614067	8.278487	2.8772361
3.8127709242822716	9.186211	3.0308762
3.830307422129425	11.433352	3.381324
3.847844009714936	30.303453	5.504857
3.8653806874508954	97.888626	9.893868
3.882917455749409	97.05052	9.851422
3.900454315022606	96.81506	9.839464
3.917991265682631	41.276386	6.42467
3.9355283081416506	10.872481	3.2973447
3.9530654428118495	8.757067	2.9592342
3.970602670105433	7.6115956	2.758912
3.9881399904346244	6.7501855	2.5981119
4.005677404211669	6.6419063	2.5771897
4.023214911848827	6.5293965	2.5552683
4.0407525137583855	6.559827	2.5612159
4.058290210352644	6.5277195	2.5549402
4.075828002043927	6.4724255	2.5440962
4.0933658892445814	6.3477483	2.5194738
4.110903872366966	6.215366	2.4930634
4.128441951823468	6.1866784	2.4873035
4.145980128026488	6.161498	2.4822366
4.163518401388452	6.224266	2.494848
4.181056772321807	6.2304616	2.4960892
4.1985952412390155	6.227426	2.495481
4.216133808552567	6.300247	2.5100293
4.233672474674966	6.4533777	2.54035
4.251211240018741	6.6876526	2.5860496
4.268750104996445	6.8194394	2.6114056
4.286289070020643	7.6642327	2.768435
4.303828135503928	9.253898	3.042022
4.3213673018589125	29.520369	5.433265
4.3389065694982305	90.733665	9.525422
4.356445938834537	165.91437	12.880775
4.3739854102805085	171.6234	13.100512
4.391524984248844	172.42078	13.130909
4.409064661152262	136.56282	11.686009
4.426604441403504	96.86302	9.841902
4.444144325415337	75.883354	8.711105
4.461684313600543	21.961557	4.686316
4.47922440637193	22.255945	4.717621
4.496764604142329	20.458853	4.523146
4.5143049073245916	18.434809	4.2935777
4.531845316331589	16.296925	4.036945
4.5493858315762195	13.598355	3.687595
4.566926453471405	11.401236	3.3765717
4.584467182430081	9.542909	3.08916
4.602008018865218	8.300289	2.8810222
4.619548963189798	7.6096735	2.7585638
4.637090015816834	6.975852	2.6411839
4.654631177159353	6.7331743	2.594836
4.672172447630417	6.455452	2.5407581
4.689713827643102	6.285298	2.5070496
4.7072553176105085	6.13583	2.4770608
4.724796917945764	6.0143266	2.4524124
4.742338629062015	5.8688674	2.4225745
4.759880451372434	5.799886	2.4082954
4.777422385290215	5.733599	2.3944936
4.794964431228581	5.722984	2.3922758
4.812506589600768	5.6680746	2.3807719
4.830048860820047	5.6203494	2.3707275
4.847591245299709	5.6461473	2.3761623
4.8651337434530655	5.578834	2.3619556
4.882676355693457	5.619118	2.370468
4.900219082434242	5.639166	2.3746927
4.917761924088813	5.6539164	2.3777966
4.935304881070575	5.649423	2.3768516
4.952847953792969	5.505636	2.3464093
4.970391142669449	5.5785456	2.3618944
4.9879344481135055	5.5852747	2.3633187
5.005477870538642	5.6222577	2.37113
5.023021410358394	5.535294	2.3527205
5.040565067986324	5.4652333	2.3377838
5.05810884383601	5.4194565	2.3279727
5.075652738321066	5.436872	2.33171
5.09319675185512	5.4846053	2.3419235
5.110740884851836	5.445234	2.3335025
5.128285137724894	5.4423356	2.3328815
5.145829510888007	5.4497576	2.3344717
5.163374004754908	5.4494095	2.334397
5.1809186197393595	5.3297825	2.3086321
5.198463356255145	5.21388	2.2833922
5.216008214716077	5.1944075	2.2791243
5.233553195535998	5.2651787	2.2945976
5.251098299128764	5.287811	2.299524
5.268643525908272	5.3139014	2.30519
5.286188876288432	5.230638	2.2870588
5.3037343506831895	5.2047424	2.2813904
5.32127994950651	5.192521	2.2787104
5.3388256731723915	5.2586393	2.2931724
5.356371522094851	5.3337593	2.3094933
5.373917496687938	5.321886	2.3069212
5.391463597365729	5.305622	2.3033936
5.40900982454232	5.302654	2.3027492
5.426556178631843	5.3019533	2.302597
5.444102660048449	5.3433633	2.3115716
5.4616492692063225	5.2762766	2.2970147
5.479196006519669	5.22606	2.2860577
5.496742872402727	5.149821	2.2693217
5.514289867269756	5.149571	2.2692666
5.531836991535049	5.195198	2.2792978
5.549384245612924	5.20978	2.2824943
5.566931629917724	5.233232	2.2876258
5.584479144863822	5.19205	2.2786071
5.6020267908656205	5.133988	2.2658305
5.619574568337545	5.1112657	2.2608109
5.637122477694054	5.1403627	2.2672367
5.654670519349629	5.1771407	2.2753332
5.672218693718784	5.2228003	2.2853446
5.689767001216059	5.1994762	2.280236
5.707315442256021	5.157391	2.270989
5.724864017253266	5.106951	2.2598565
5.7424127266224225	5.1469517	2.2686894
5.75996157077814	5.286133	2.299159
5.777510550135105	5.2925434	2.3005528
5.795059665108022	5.2399826	2.289101
5.812608916111639	5.219678	2.2846615
5.830158303560715	5.2790027	2.2976081
5.847707827870055	5.332501	2.3092208
5.86525748945448	5.4225993	2.3286476
5.8828072887288485	5.5227027	2.350043
5.900357226108044	5.560112	2.357989
5.917907302006979	5.6282997	2.3724039
5.9354575168406	6.1708474	2.484119
5.9530078710238765	6.73194	2.5945983
5.970558364971812	7.279923	2.6981332
5.988108999099438	7.6508865	2.7660236
6.005659773821818	8.298812	2.880766
6.023210689554039	8.159759	2.856529
6.040761746711227	8.539387	2.9222229
6.058312945708531	7.8167286	2.7958412
6.075864286961132	7.354334	2.7118876
6.093415770884244	6.7144933	2.591234
6.1109673978931065	6.1717863	2.484308
6.128519168402993	5.5568614	2.3572996
6.146071082829204	5.457164	2.3360574
6.163623141587075	5.394702	2.3226497
6.181175345091969	5.390201	2.3216805
6.198727693759281	5.2792583	2.2976637
6.216280188004435	5.231653	2.2872808
6.233832828242885	5.2195272	2.2846284
6.251385614890126	5.168598	2.2734551
6.268938548361669	5.13415	2.2658663
6.286491629073067	5.1086445	2.260231
6.304044857439898	5.1317854	2.2653444
6.321598233877777	5.018399	2.2401783
6.339151758802344	4.995325	2.2350223
6.356705432629277	4.982855	2.232231
6.37425925577428	4.985421	2.2328057
6.391813228653095	5.0235143	2.2413197
6.409367351681486	4.992243	2.2343328
6.426921625275259	4.934457	2.2213638
6.44447604985025	4.990093	2.2338517
6.46203062582232	5.015317	2.2394903
6.47958535360737	5.0762234	2.2530475
6.497140233621328	5.064094	2.2503543
6.514695266280161	5.0438185	2.2458446
6.532250451999859	5.028973	2.2425373
6.549805791196454	5.0137973	2.239151
6.567361284286002	5.0621004	2.2499113
6.584916931684597	5.057214	2.248825
6.602472733808367	5.1051893	2.2594666
6.6200286910734665	5.0822883	2.254393
6.637584803896092	5.0870056	2.255439
6.655141072692462	5.1186824	2.2624505
6.672697497878842	5.045607	2.246243
6.690254079871514	5.011237	2.2385793
6.707810819086808	4.946319	2.2240322
6.725367715941078	4.956691	2.2263627
6.742924770850719	5.0192943	2.2403781
6.760481984232151	5.114083	2.2614338
6.778039356501836	5.1322885	2.2654555
6.795596888076266	5.0824666	2.2544327
6.813154579371963	5.01668	2.2397945
6.830712430805492	4.992445	2.234378
6.84827044279344	4.974342	2.2303233
6.865828615752445	4.9688787	2.229098
6.883386950099159	4.987275	2.2332208
6.900945446250287	4.980446	2.2316914
6.918504104622553	4.944125	2.2235389
6.936062925632727	4.970294	2.2294157
6.953621909697607	5.0016537	2.2364378
6.971181057234028	5.070698	2.251821
6.988740368658859	5.1153483	2.2617135
7.006299844389007	5.163957	2.2724342
7.023859484841407	5.2348485	2.2879791
7.041419290433036	5.2919116	2.3004155
7.058979261580902	5.5378103	2.3532553
7.0765393987020495	5.732545	2.3942733
7.094099702213559	6.171058	2.4841614
7.111660172532549	6.4872136	2.547001
7.129220810076164	6.874374	2.6219027
7.146781615261595	7.4413395	2.727882
7.16434258850606	7.660897	2.7678325
7.181903730226821	8.071812	2.8410933
7.1994650408411704	8.262104	2.8743875
7.217026520766437	8.405092	2.8991537
7.234588170419983	8.637462	2.9389558
7.252149990219215	8.564418	2.9265027
7.269711980581568	8.377974	2.8944728
7.2872741419245175	8.234851	2.869643
7.304836474665574	7.922339	2.814665
7.322398979222286	7.630803	2.7623909
7.339961656012233	7.2891583	2.6998441
7.357524505453039	6.9119334	2.6290555
7.375087527962357	6.687789	2.586076
7.392650723957886	6.465067	2.5426495
7.410214093857353	6.1602435	2.481984
7.427777638078528	5.893384	2.4276292
7.445341357039213	5.657862	2.378626
7.4629052511572525	5.43775	2.3318985
7.480469320850524	5.3325644	2.3092346
7.498033566536948	5.202899	2.2809863
7.5155979886344735	5.182015	2.276404
7.5331625875610975	5.142128	2.267626
7.550727363734844	5.1915646	2.2785006
7.568292317573788	5.2166405	2.2839966
7.585857449496025	5.2724304	2.2961774
7.603422759919705	5.2990475	2.301966
7.620988249263007	5.287905	2.2995446
7.638553917944147	5.258191	2.2930746
7.656119766381391	5.177904	2.2755008
7.673685794993023	5.189869	2.2781284
7.691252004197388	5.2341113	2.287818
7.70881839441285	5.270096	2.2956688
7.726384966057826	5.271533	2.295982
7.743951719550762	5.284439	2.2987907
7.761518655310149	5.2209496	2.2849398
7.779085773754511	5.223233	2.2854395
7.796653075302419	5.2611876	2.2937279
7.814220560372475	5.28253	2.2983754
7.831788229383323	5.3208556	2.306698
7.8493560827536495	5.3077602	2.3038578
7.866924120902174	5.2826157	2.2983942
7.884492344247663	5.299789	2.3021271
7.9020607532089135	5.251968	2.2917173
7.919629348204771	5.348342	2.3126483
7.937198129654115	5.398879	2.3235488
7.954767097975865	5.471321	2.3390856
7.972336253588986	5.490992	2.3432865
7.989905596912472	5.452853	2.3351345
8.007475128365371	5.4257736	2.329329
8.025044848366756	5.4164367	2.327324
8.042614757335754	5.457392	2.3361063
8.060184855691523	5.5265193	2.350855
8.07775514385327	5.6918883	2.385768
8.095325622240228	5.740885	2.3960145
8.112896291271687	5.840798	2.4167743
8.130467151366968	5.90094	2.4291852
8.148038202945436	5.908432	2.4307265
8.165609446426497	5.8865247	2.4262161
8.183180882229594	5.973286	2.4440308
8.200752510774217	6.050441	2.4597645
8.218324332479893	6.0175157	2.4530625
8.235896347766193	5.9643974	2.4422116
8.253468557052724	5.9849772	2.4464214
8.27104096075914	6.0027766	2.4500566
8.288613559305137	6.104474	2.4707234
8.306186353110448	6.1583214	2.4815965
8.32375934259485	6.1919703	2.488367
8.341332528178162	6.216866	2.4933643
8.358905910280246	6.2731166	2.5046191
8.376479489321003	6.3336215	2.5166688
8.394053265720377	6.33655	2.5172505
8.411627239898356	6.3182425	2.5136116
8.42920141227497	6.2701244	2.5040216
8.44677578327029	6.2783494	2.5056634
8.464350353304427	6.2788963	2.5057726
8.48192512279754	6.234877	2.4969735
8.499500092169827	6.2641234	2.502823
8.51707526184153	6.1865845	2.4872847
8.534650632232934	6.1533403	2.4805927
8.552226203764365	6.1184044	2.4735408
8.569801976856192	6.20662	2.491309
8.587377951928834	6.3077083	2.5115151
8.60495412940274	6.365813	2.5230563
8.622530509698416	6.414397	2.532666
8.6401070932364	6.556285	2.5605242
8.657683880437283	6.6439714	2.5775902
8.675260871721695	6.8126593	2.6101072
8.692838067510303	6.938808	2.6341617
8.710415468223834	7.1040316	2.665339
8.727993074283043	7.2973514	2.701361
8.745570886108737	7.334723	2.7082694
8.763148904121765	7.4137416	2.7228186
8.78072712874302	7.348327	2.71078
8.798305560393441	7.5609193	2.7497125
8.815884199494006	7.6539965	2.7665856
8.833463046465745	7.8012266	2.7930677
8.851042101729728	7.9674177	2.8226614
8.86862136570707	8.302931	2.8814807
8.886200838818924	8.482782	2.9125216
8.903780521486505	8.483456	2.9126372
8.921360414131055	8.594891	2.9317043
8.938940517173874	8.692541	2.9483116
8.956520831036297	8.910652	2.9850717
8.97410135613971	9.120133	3.0199559
8.99168209290554	9.192341	3.0318873
9.009263041755265	9.341283	3.0563512
9.026844203110405	9.593474	3.0973334
9.044425577392525	9.770364	3.1257582
9.062007165023239	9.918188	3.1493156
9.079588966424197	10.340683	3.2156932
9.097170982017108	10.513856	3.2425077
9.11475321222372	11.539059	3.396919
9.132335657465825	12.387976	3.5196557
9.149918318165264	12.432292	3.5259457
9.167501194743924	12.925463	3.5952
9.18508428762374	12.618478	3.5522497
9.202667597226693	12.627384	3.553503
9.220251123974803	12.332299	3.5117373
9.237834868290143	12.019792	3.466957
9.255418830594836	11.761101	3.4294462
9.273003011311046	11.187439	3.3447628
9.290587410860985	10.867028	3.2965176
9.308172029666911	10.276965	3.2057705
9.32575686815113	10.109408	3.1795297
9.343341926735997	8.901162	2.9834816
9.360927205843916	8.631745	2.9379833
9.378512705897327	8.424682	2.9025302
9.396098427318728	8.255197	2.8731859
9.413684370530664	8.168101	2.857989
9.431270535955722	8.021013	2.8321393
9.448856924016539	7.896088	2.8099978
9.466443535135806	7.8199496	2.7964172
9.484030369736251	7.8695455	2.805271
9.501617428240658	7.866384	2.8047075
9.519204711071852	7.8744626	2.8061473
9.536792218652714	7.874584	2.806169
9.55437995140617	7.99454	2.8274617
9.571967909755191	7.988519	2.826397
9.589556094122802	7.99841	2.828146
9.60714450493207	7.997866	2.82805
9.624733142606116	7.9635067	2.8219686
9.642322007568108	7.9237895	2.8149226
9.659911100241267	7.929695	2.8159714
9.677500421048851	7.948886	2.819377
9.695089970414175	8.03522	2.8346465
9.712679748760609	8.140221	2.8531072
9.730269756511557	8.224721	2.8678775
9.747859994090492	8.282566	2.8779447
9.765450461920915	8.33314	2.886718
9.78304116042639	8.341335	2.888137
9.800632090030527	8.324159	2.8851619
9.81822325115699	8.316253	2.8837914
9.835814644229481	8.34957	2.8895624
9.853406269671762	8.40191	2.8986049
9.870998127907646	8.453146	2.9074295
9.888590219360985	8.438007	2.9048247
9.906182544455698	8.422742	2.902196
9.923775103615734	8.409295	2.8998785
9.941367897265108	8.447508	2.9064596
9.958960925827878	8.475374	2.9112496
9.97655418972816	8.417135	2.9012299
9.994147689390106	8.30977	2.882667
10.011741425237934	8.26886	2.8755624
10.029335397695904	8.400187	2.8983076
10.04692960718833	8.4866905	2.9131925
10.06452405413958	8.465055	2.9094768
10.082118738974064	8.4143505	2.90075
10.099713662116246	8.34574	2.8888996
10.117308823990651	8.311503	2.8829677
10.134904225021844	8.25367	2.87292
10.152499865634445	8.24978	2.872243
10.170095746253125	8.2612295	2.8742354
10.18769186730261	8.319025	2.884272
10.205288229207675	8.269055	2.8755965
10.222884832393145	8.235492	2.8697546
10.2404816772839	8.145856	2.8540945
10.258078764304868	8.157446	2.8561242
10.275676093881035	8.182299	2.8604717
10.293273666437438	8.163821	2.8572402
10.310871482399158	8.211443	2.8655615
10.32846954219134	8.242207	2.8709242
10.346067846239173	8.30191	2.8813035
10.363666394967908	8.282884	2.878
10.38126518880283	8.295582	2.8802052
10.398864228169298	8.365117	2.8922513
10.416463513492713	8.343066	2.8884366
10.434063045198531	8.276552	2.8768997
10.451662823712262	8.234206	2.8695307
10.469262849459467	8.222908	2.8675613
10.486863122865758	8.159587	2.856499
10.504463644356806	8.051231	2.837469
10.522064414358338	8.02354	2.8325853
10.539665433296118	7.9325213	2.8164732
10.557266701595987	7.901626	2.8109832
10.574868219683818	7.8081694	2.79431
10.592469987985552	7.77934	2.789147
10.610072006927185	7.7353387	2.7812476
10.627674276934751	7.630122	2.7622676
10.64527679843435	7.5222955	2.7426803
10.662879571852143	7.4152803	2.7231011
10.680482597614331	7.366345	2.714101
10.698085876147173	7.1890283	2.6812363
10.715689407876988	7.0801067	2.660847
10.733293193230146	6.970101	2.6400948
10.750897232633072	6.851361	2.6175103
10.76850152651225	6.7891517	2.6056
10.786106075294207	6.718787	2.5920622
10.803710879405534	6.5873985	2.5665927
10.821315939272877	6.445827	2.5388634
10.83892125532294	6.327644	2.5154808
10.856526827982472	6.2686176	2.5037208
10.874132657678285	6.287107	2.5074105
10.891738744837243	6.29304	2.508593
10.909345089886271	6.1907563	2.488123
10.926951693252343	6.145646	2.4790413
10.944558555362494	6.0735974	2.464467
10.96216567664381	6.074844	2.4647198
10.979773057523436	6.0458837	2.458838
10.997380698428573	5.985082	2.4464428
11.014988599786477	5.89439	2.4278364
11.032596762024461	5.8078012	2.409938
11.050205185569892	5.722261	2.392125
11.067813870850198	5.6435432	2.3756144
11.085422818292859	5.537309	2.3531487
11.10303202832541	5.4425225	2.3329215
11.120641501375454	5.4010005	2.3240054
11.138251237870636	5.407218	2.3253427
11.155861238238671	5.371433	2.317635
11.173471502907317	5.2500014	2.2912881
11.191082032304402	5.1304445	2.2650485
11.208692826857805	5.097181	2.2576938
11.226303886995465	5.102458	2.258862
11.243915213145371	5.0669203	2.250982
11.261526805735578	4.987576	2.233288
11.279138665194196	4.9140983	2.2167766
11.296750791949393	4.889753	2.2112787
11.314363186429393	4.8816524	2.2094462
11.331975849062479	4.8404694	2.2001066
11.34958878027699	4.7423067	2.1776838
11.36720198050133	4.671165	2.1612878
11.384815450163948	4.6375866	2.1535056
11.402429189693366	4.6046486	2.1458445
11.420043199518153	4.60031	2.1448333
11.437657480066942	63.540344	7.9712195
11.455272031768422	85.21794	9.231357
11.472886855051353	107.55028	10.370645
11.490501950344528	99.17033	9.95843
11.508117318076819	84.534004	9.194238
11.52573295867715	45.921124	6.7765126
11.543348872574514	4.2484856	2.0611854
11.560965060197946	4.225574	2.0556202
11.57858152197655	4.1925945	2.0475826
11.59619825833949	4.1231194	2.0305467
11.613815269715985	4.033883	2.008453
11.631432556535323	38.542217	6.2082376
11.649050119226837	83.078896	9.114762
11.666667958219929	93.49298	9.669177
11.68428607394406	107.80439	10.38289
11.701904466828756	82.60882	9.08894
11.719523137303586	65.45781	8.0906
11.737142085798196	4.651513	2.1567366
11.754761312742286	3.7355118	1.9327472
11.772380818565619	3.6578224	1.9125434
11.790000603698015	3.6339328	1.9062877
11.80762066856935	3.6315613	1.9056655
11.825241013609572	3.6103795	1.9000999
11.842861639248683	3.5875025	1.8940704
11.860482545916748	3.5461035	1.88311
11.878103734043883	3.522419	1.8768109
11.895725204060282	3.4669044	1.8619626
11.91334695639619	3.430033	1.8520348
11.930968991481919	3.39367	1.8421917
11.948591309747824	3.4016104	1.8443456
11.966213911624347	3.3858185	1.8400594
11.98383679754198	3.3723032	1.8363832
12.001459967931268	3.3465407	1.8293552
12.019083423222835	3.3274317	1.8241249
12.036707163847352	3.2564774	1.8045713
12.05433119023556	3.2213564	1.7948138
12.071955502818259	3.193613	1.7870682
12.089580102026313	3.2334538	1.7981807
12.107204988290643	3.2009714	1.7891259
12.12483016204224	3.1813245	1.7836268
12.142455623712152	3.103767	1.761751
12.16008137373149	3.0876546	1.7571723
12.177707412531431	3.071445	1.7525538
12.19533374054321	3.0580008	1.7487141
12.212960358198126	3.02828	1.7401954
12.230587265927545	3.032209	1.741324
12.248214464162889	3.0494568	1.7462695
12.265841953335649	3.0710926	1.7524533
12.283469733877375	3.0698671	1.7521037
12.301097806219685	3.0026371	1.7328119
12.31872617079425	2.986985	1.7282896
12.336354828032825	2.9418886	1.7151934
12.353983778367205	2.969766	1.7233008
12.371613022229262	2.9607375	1.7206794
12.389242560050928	3.0024316	1.7327526
12.406872392264201	2.952547	1.7182977
12.424502519301143	2.9409645	1.7149241
12.442132941593874	2.878787	1.6966989
12.459763659574586	2.8852053	1.6985892
12.477394673675532	2.8524325	1.6889145
12.49502598432903	2.8524735	1.6889267
12.51265759196746	2.8457255	1.6869278
12.530289497023267	2.8678524	1.6934735
12.547921699928967	2.8676324	1.6934085
12.565554201117134	2.860076	1.6911759
12.583187001020404	2.810031	1.6763147
12.600820100071486	2.8121958	1.6769602
12.618453498703152	2.8233109	1.680271
12.636087197348235	2.853529	1.6892391
12.65372119643964	2.8340075	1.683451
12.671355496410326	2.8077283	1.6756277
12.68899009769333	2.8166523	1.6782885
12.706625000721749	2.8489702	1.6878892
12.724260205928752	2.906076	1.7047217
12.741895713747551	2.9548619	1.7189711
12.759531524611454	2.9817991	1.7267886
12.777167638953818	2.961767	1.7209785
12.794804057208072	2.9610891	1.7207816
12.812440779807702	3.0216243	1.738282
12.830077807186271	3.1878362	1.7854513
12.847715139777405	3.2213304	1.7948065
12.865352778014795	3.4187975	1.848999
12.882990722332197	3.5894747	1.8945909
12.90062897316344	3.701275	1.9238698
12.918267530942412	3.7928462	1.9475231
12.935906396103071	3.6125526	1.9006716
12.953545569079449	3.7314827	1.9317046
12.971185050305628	3.5461154	1.8831133
12.988824840215775	3.6202314	1.9026905
13.006464939244115	3.6759007	1.9172639
13.024105347824943	3.5372481	1.8807573
13.041746066392617	3.624187	1.9037298
13.05938709538157	3.3767803	1.8376018
13.077028435226296	3.3966167	1.8429912
13.094670086361363	3.275833	1.8099262
13.112312049221401	3.232894	1.798025
13.129954324241112	3.100709	1.760883
13.147596911855258	2.8470573	1.6873225
13.165239812498685	2.7767787	1.6663669
13.182883026606293	2.7149065	1.6476973
13.200526554613058	2.6985068	1.6427133
13.218170396954017	2.6910856	1.6404529
13.235814554064284	2.6987293	1.6427809
13.253459026379034	2.7235205	1.6503092
13.271103814333523	2.7326598	1.6530758
13.288748918363058	2.708011	1.6456035
13.306394338903031	2.697702	1.6424682
13.32404007638889	2.6224787	1.6194069
13.341686131256164	2.6535165	1.6289618
13.359332503940449	2.6440325	1.6260481
13.376979194877402	2.6938636	1.6412994
13.394626204502751	2.7266276	1.6512504
13.412273533252307	2.7004411	1.6433018
13.429921181561937	2.7012124	1.6435366
13.447569149867581	2.6827512	1.6379106
13.465217438605247	2.7175882	1.6485109
13.482866048211022	2.7296088	1.6521528
13.500514979121052	2.7555735	1.659992
13.518164231771568	2.754331	1.6596178
13.535813806598844	2.69718	1.6423093
13.553463704039254	2.670637	1.6342083
13.571113924529229	2.676389	1.6359673
13.588764468505275	2.7147307	1.647644
13.606415336403956	2.728991	1.6519659
13.624066528661917	2.7261472	1.6511048
13.641718045715882	2.8055952	1.6749911
13.659369888002635	2.8724205	1.6948217
13.67702205595903	2.9419522	1.715212
13.694674550021993	3.0166829	1.73686
13.712327370628532	3.080616	1.7551683
13.729980518215713	3.1702032	1.7805065
13.747633993220681	3.213397	1.792595
13.765287796080647	3.2761633	1.8100175
13.7829419272329	3.3374171	1.82686
13.800596387114801	3.3722746	1.8363754
13.818251176163775	3.4060736	1.8455551
13.835906294817324	3.433504	1.8529717
13.853561743513023	3.4902947	1.8682331
13.871217522688525	3.5108128	1.8737164
13.888873632781538	3.5374284	1.8808053
13.906530074229858	3.5289135	1.8785403
13.92418684747135	3.5272822	1.878106
13.941843952943948	3.5143547	1.8746612
13.959501391085665	3.4471757	1.8566571
13.977159162334578	3.4317062	1.8524865
13.994817267128846	3.4134	1.8475388
14.012475705906693	3.3657324	1.8345933
14.030134479106424	3.2498267	1.8027276
14.047793587166414	3.1675057	1.7797488
14.065453030525108	3.1184819	1.7659224
14.083112809621026	3.0281246	1.7401507
14.100772924892766	2.9064655	1.7048359
14.118433376778997	2.8415205	1.685681
14.136094165718458	2.8274014	1.6814878
14.153755292149969	2.8278985	1.6816356
14.171416756512416	2.7305741	1.6524448
14.189078559244768	2.6280258	1.6211187
14.20674070078606	2.5660956	1.6019038
14.224403181575408	2.5091438	1.5840278
14.242066002051999	2.509494	1.5841383
14.259729162655093	2.4511983	1.5656303
14.277392663824022	2.4348528	1.5604014
14.295056505998208	2.4511645	1.5656195
14.312720689617128	2.4476717	1.5645037
14.330385215120348	2.451423	1.5657021
14.348050082947497	2.4264472	1.5577058
14.3657152935383	2.4283957	1.5583311
14.383380847332528	2.390805	1.5462228
14.401046744770051	2.382125	1.5434134
14.418712986290798	2.399687	1.5490923
14.436379572334793	2.4279633	1.5581923
14.454046503342123	2.4556289	1.5670446
14.471713779752946	2.4266257	1.5577631
14.489381402007504	2.4404528	1.5621948
14.507049370546113	2.4278646	1.5581607
14.524717685809168	2.4028842	1.5501239
14.542386348237134	2.3925998	1.5468031
14.560055358270553	2.3778098	1.5420148
14.577724716350051	2.4250576	1.5572597
14.595394422916325	2.471715	1.5721688
14.61306447841015	2.559045	1.5997015
14.63073488327237	2.5843875	1.6076031
14.648405637943917	2.5890133	1.6090411
14.6660767428658	2.523404	1.5885226
14.683748198479094	2.5345833	1.5920374
14.701420005224954	2.5473967	1.5960566
14.719092163544628	2.6161335	1.6174465
14.73676467387942	2.6546338	1.6293046
14.754437536670727	2.6631494	1.6319158
14.772110752360014	2.6808977	1.6373447
14.78978432138882	2.6920507	1.640747
14.807458244198777	2.7274964	1.6515133
14.82513252123159	2.7012448	1.6435465
14.842807152929028	2.6683524	1.6335092
14.860482139732962	2.649074	1.6275977
14.87815748208531	2.6244633	1.6200196
14.8958331804281	2.6576872	1.6302414
14.91350923520342	2.6473012	1.6270529
14.931185646853438	2.7008407	1.6434234
14.948862415820408	2.6711326	1.63436
14.966539542546656	2.6526835	1.6287061
14.98421702747459	2.6200135	1.6186455
15.001894871046696	2.6534872	1.6289527
15.019573073705542	2.714971	1.6477169
15.037251635893766	2.713068	1.6471393
15.054930558054092	2.7076728	1.6455008
15.072609840629323	2.7302117	1.6523353
15.090289484062351	2.863158	1.6920868
15.107969488796124	3.1666892	1.7795193
15.125649855273691	3.5342352	1.8799561
15.14333058393817	4.037606	2.0093794
15.161011675232768	5.005741	2.2373514
15.17869312960076	6.3926096	2.528361
15.196374947485506	8.272609	2.8762143
15.214057129330447	11.437858	3.3819902
15.231739675579114	16.255264	4.0317817
15.249422586675102	21.36879	4.6226387
15.267105863062092	24.343918	4.9339557
15.284789505183847	24.525173	4.9522896
15.302473513484218	22.358503	4.728478
15.320157888407127	18.845787	4.3411736
15.337842630396578	14.816011	3.8491573
15.355527739896656	11.5586195	3.399797
15.37321321735153	8.967164	2.9945223
15.39089906320545	6.5024676	2.5499938
15.408585277902748	4.8797297	2.209011
15.42627186188783	3.7543757	1.9376211
15.443958815605198	3.2168648	1.793562
15.461646139499424	2.965405	1.7220352
15.479333834015168	2.8431766	1.6861721
15.497021899597165	2.797267	1.6725032
15.514710336690234	2.7039108	1.6443573
15.53239914573928	2.6451988	1.6264067
15.550088327189297	2.5543962	1.5982479
15.567777881485336	2.4997854	1.581071
15.58546780907256	2.4936123	1.5791175
15.6031581103962	2.496207	1.5799389
15.620848785901568	2.5277734	1.5898973
15.638539836034063	2.50573	1.5829498
15.656231261239173	2.4800797	1.5748268
15.673923061962451	2.4631608	1.569446
15.691615238649552	2.4769745	1.5738407
15.709307791746202	2.4795752	1.5746667
15.727000721698221	2.4849741	1.5763801
15.744694028951498	2.4737551	1.5728176
15.76238771395202	2.4684637	1.5711346
15.780081777145844	2.4150643	1.5540477
15.797776218979125	2.4030275	1.5501702
15.815471039898094	2.3825285	1.5435442
15.833166240349064	2.3493698	1.5327654
15.850861820778437	2.3345656	1.5279286
15.868557781632699	2.3298073	1.5263706
15.886254123358412	2.3446357	1.5312203
15.903950846402232	2.3832924	1.5437915
15.921647951210897	2.412687	1.5532826
15.939345438231225	2.4195578	1.5554928
15.957043307910133	2.3827531	1.5436169
15.974741560694602	2.3820214	1.5433799
15.992440197031714	2.3955677	1.5477622
16.01013921736862	2.3829315	1.5436747
16.02783862215259	2.3843315	1.5441281
16.045538411830933	2.4313781	1.5592877
16.06323858685107	2.483587	1.57594
16.080939147660512	2.4425447	1.5628643
16.09864009470684	2.413665	1.5535975
16.11634142843774	2.4161575	1.5543994
16.134043149300954	2.4380934	1.5614395
16.15174525774433	2.412599	1.5532544
16.169447754215817	2.4049308	1.550784
16.18715063916342	2.392975	1.5469244
16.204853913035244	2.4422235	1.5627615
16.222557576279478	2.4712422	1.5720185
16.240261629344403	22.462595	4.739472
16.257966072678386	42.97207	6.5553083
16.275670906729868	38.095524	6.1721573
16.293376131947387	2.526274	1.5894257
16.31108174877957	2.5368586	1.5927519
16.328787757675133	2.5678613	1.6024548
16.34649415908287	2.592928	1.6102571
16.364200953451657	2.5861478	1.6081505
16.38190814123048	2.6069157	1.6145946
16.39961572286839	2.593157	1.6103282
16.41732369881455	2.659723	1.6308657
16.43503206951817	2.7117567	1.6467413
16.45274083542859	2.7789805	1.6670275
16.47044999699522	2.8201928	1.679343
16.488159554667558	2.8657613	1.692856
16.505869508895184	2.9300544	1.7117401
16.523579860127786	3.002204	1.7326869
16.541290608815117	3.0618792	1.7498226
16.559001755407035	3.083933	1.756113
16.57671330035348	3.0844991	1.7562742
16.59442524410448	3.1401467	1.772046
16.61213758711015	3.1963062	1.7878217
16.629850329820705	3.2592878	1.8053498
16.647563472686436	3.3430903	1.8284119
16.665277016157724	3.3982472	1.8434335
16.682990960685053	3.459965	1.8600981
16.70070530671898	3.4668517	1.8619484
16.718420054710155	3.5081017	1.8729928
16.736135205109335	3.5728939	1.89021
16.753850758367335	3.620938	1.9028763
16.771566714935087	3.6678262	1.915157
16.789283075263597	3.7185397	1.9283515
16.80699983980398	3.7899337	1.9467752
16.82471700900741	3.8652244	1.9660174
16.84243458332518	3.9675183	1.991863
16.860152563208665	4.031806	2.0079358
16.87787094910932	4.0504184	2.0125651
16.89558974147871	4.072123	2.0179503
16.913308940768466	4.163277	2.040411
16.931028547430333	4.231153	2.0569766
16.94874856191613	4.2974105	2.0730197
16.966468984677785	4.368034	2.0899842
16.98418981616729	4.421904	2.1028323
17.00191105683676	4.419459	2.1022508
17.019632707138374	4.4440265	2.1080859
17.03735476752442	4.5058784	2.1227055
17.05507723844728	4.5756955	2.1390874
17.072800120359403	4.64222	2.154581
17.090523413713353	4.636096	2.1531596
17.108247118961785	4.6565523	2.1579046
17.125971236557437	4.627627	2.151192
17.143695766953133	4.6157165	2.1484218
17.161420710601806	4.592518	2.143016
17.179146067956477	4.646752	2.1556325
17.19687183947025	4.6802206	2.1633818
17.21459802559634	4.735013	2.1760085
17.232324626788028	4.7018476	2.1683743
17.25005164349871	4.685223	2.1645377
17.267779076181863	4.623025	2.1501222
17.285506925291074	4.592797	2.1430812
17.30323519127999	4.5541353	2.134042
17.320963874602384	4.5452037	2.1319482
17.33869297571211	4.5833488	2.1408758
17.356422495063114	4.603857	2.1456602
17.37415243310944	4.581156	2.1403635
17.391882790305218	4.520064	2.1260443
17.40961356710468	4.444625	2.108228
17.42734476396215	4.4275794	2.1041815
17.445076381332044	4.467009	2.11353
17.462808419668868	4.5912957	2.142731
17.48054087942723	4.74877	2.1791673
17.498273761061835	5.023416	2.241298
17.51600706502747	5.5406575	2.3538601
17.533740791779024	6.2364645	2.4972913
17.551474941771485	7.7215934	2.7787755
17.56920951545993	8.823419	2.970424
17.586944513299528	10.975429	3.3129184
17.60467993574556	12.540814	3.5413013
17.622415783253373	14.183232	3.7660632
17.64015205627843	15.670564	3.9586062
17.657888755276293	16.798548	4.0986032
17.675625880702604	17.289188	4.158027
17.69336343301311	17.128532	4.1386633
17.71110141266366	16.305298	4.037982
17.728839820110178	15.387316	3.922667
17.746578655808705	14.505963	3.8086696
17.764317920215372	12.95405	3.5991735
17.7820576137864	11.34296	3.3679311
17.79979773697811	9.318985	3.0527012
17.81753829024692	7.458362	2.7310002
17.835279274049356	5.7756886	2.4032662
17.85302068884201	4.8008556	2.1910856
17.870762535081607	4.236174	2.0581968
17.888504813224934	3.9900413	1.9975088
17.90624752372891	3.8016124	1.9497724
17.923990667050536	3.6502597	1.9105653
17.941734243646895	3.5799978	1.8920882
17.959478253975185	3.5323453	1.8794534
17.9772226984927	3.4721391	1.8633677
17.994967577656833	3.3623552	1.8336726
18.01271289192506	3.3076081	1.818683
18.030458641754965	3.333417	1.8257648
18.04820482760425	3.3555586	1.8318183
18.06595144993067	3.339602	1.8274578
18.083698509192125	3.3103633	1.8194404
18.101446005846576	3.3125498	1.8200412
18.119193940352105	3.2649896	1.8069283
18.136942313166887	3.2721965	1.8089213
18.1546911247492	3.2379298	1.7994249
18.1724403755574	3.231641	1.7976766
18.19019006604997	3.2150328	1.7930512
18.207940196685467	3.207864	1.7910511
18.225690767922575	3.19793	1.7882757
18.243441780220046	3.1586232	1.7772516
18.261193234036764	3.103413	1.7616507
18.278945129831676	3.0832727	1.755925
18.29669746806386	3.1238465	1.7674407
18.314450249192483	3.1414502	1.7724136
18.3322034736768	3.1250741	1.7677879
18.349957141976184	3.0795982	1.7548784
18.3677112545501	3.0488956	1.7461087
18.385465811858108	3.0444484	1.7448348
18.403220814359884	3.0606003	1.7494571
18.420976262515172	3.0656238	1.7508923
18.43873215678387	3.1031048	1.7615632
18.456488497625923	3.1286373	1.7687955
18.474245285501407	3.25831	1.805079
18.492002520870486	3.3554258	1.8317821
18.50976020419343	3.484503	1.8666824
18.527518335930615	3.7645798	1.9402525
18.545276916542516	4.3442016	2.0842748
18.563035946489688	4.468754	2.1139426
18.580795426232832	4.958565	2.2267835
18.598555356232698	4.8538494	2.2031453
18.616315736950185	5.2132154	2.2832468
18.63407656884626	4.8381076	2.19957
18.65183785238201	5.063175	2.25015
18.669599588018617	4.798034	2.1904416
18.68736177621737	4.73872	2.17686
18.705124417439652	4.6944523	2.1666684
18.72288751214696	4.5453343	2.131979
18.740651060800886	4.7755394	2.1853008
18.758415063863115	4.4960227	2.1203828
18.77617952179546	4.628148	2.151313
18.793944435059814	4.2924294	2.0718179
18.811709804118184	4.323788	2.0793722
18.829475629432675	4.2581754	2.0635347
18.8472419114655	4.086496	2.0215082
18.86500865067897	4.1962743	2.048481
18.88277584753551	3.8595283	1.9645683
18.90054350249763	3.8860586	1.9713088
18.918311616027957	3.514385	1.8746693
18.936080188589226	3.4022872	1.844529
18.953849220644265	3.0429528	1.7444061
18.971618712656007	2.8974316	1.7021843
18.9893886650875	2.8610086	1.6914517
19.007159078401887	8.038124	2.8351586
19.024929953062408	32.91305	5.73699
19.042701289532435	32.870213	5.733255
19.060473088275405	25.43892	5.0437007
19.07824534975489	2.6967106	1.6421664
19.096018074434568	2.629325	1.6215193
19.113791262778197	2.612442	1.616305
19.13156491524966	2.6372354	1.6239567
19.149339032312945	2.65845	1.6304754
19.167113614432136	2.6158626	1.6173629
19.184888662071433	2.5921845	1.6100262
19.202664175695123	2.5468683	1.5958911
19.220440155767623	2.556336	1.5988545
19.238216602753447	2.5483134	1.5963438
19.2559935171172	2.5654192	1.6016926
19.27377089932361	2.5520015	1.5974985
19.291548749837514	2.536839	1.5927458
19.309327069123835	2.5074034	1.5834782
19.32710585764763	2.5279126	1.589941
19.344885115874032	2.542245	1.5944419
19.362664844268313	2.5511303	1.5972258
19.380445043295822	2.5252147	1.5890924
19.39822571342203	2.5085475	1.5838395
19.41600685511252	2.4922798	1.5786955
19.43378846883297	2.5024052	1.5818993
19.451570555049173	2.4953754	1.5796757
19.469353114227037	2.49846	1.5806518
19.48713614683254	2.476406	1.5736601
19.50491965333182	2.4930708	1.5789461
19.52270363419109	2.4862401	1.5767816
19.540488089876686	2.4981313	1.5805478
19.55827302085503	2.4922671	1.5786916
19.576058427592674	2.5169485	1.5864893
19.593844310556282	2.4983382	1.5806133
19.611630670212598	2.499119	1.5808603
19.629417507028506	2.5233934	1.5885192
19.64720482147098	2.5379114	1.5930823
19.6649926140071	2.517573	1.5866863
19.682780885104084	2.5082572	1.5837479
19.70056963522921	2.519094	1.5871654
19.718358864849908	2.5561879	1.5988083
19.7361485744337	2.5893803	1.6091552
19.753938764448215	2.5719838	1.6037406
19.771729435361202	2.5702264	1.6031926
19.789520587640506	2.5652108	1.6016276
19.807312221754092	2.630061	1.6217463
19.825104338170043	2.6650298	1.632492
19.842896937356517	2.6085083	1.6150877
19.860690019781824	2.5379474	1.5930936
19.87848358591436	2.5210462	1.5877802
19.896277636222635	2.5449586	1.5952927
19.914072171175278	2.5405054	1.5938963
19.931867191241015	2.527492	1.5898088
19.94966269688869	2.4913127	1.5783893
19.967458688587264	2.4692583	1.5713874
19.985255166805807	2.4755359	1.5733836
20.00305213201348	2.4851813	1.5764458
20.020849584679578	2.4584007	1.5679288
20.038647525273507	2.423254	1.5566804
20.05644595426477	2.377817	1.5420171
20.07424487212299	2.4065604	1.5513092
20.092044279317903	2.4358842	1.560732
20.109844176319353	2.4400215	1.5620568
20.127644563597304	2.4515214	1.5657336
20.145445441621817	2.4808137	1.5750599
20.16324681086307	2.4589522	1.5681046
20.181048671791373	2.4379942	1.5614078
20.198851024877122	2.4193888	1.5554384
20.216653870590836	2.4102507	1.5524982
20.234457209403146	2.3877268	1.545227
20.252261041784802	2.3557038	1.5348302
20.270065368206662	2.3538616	1.53423
20.287870189139685	2.3736293	1.5406587
20.305675505054968	2.415363	1.5541438
20.323481316423702	2.435324	1.5605525
20.341287623717207	2.4145741	1.55389
20.359094427406884	2.3768997	1.5417197
20.376901727964288	2.3440962	1.5310441
20.39470952586107	2.3389106	1.5293497
20.41251782156899	2.3279264	1.5257543
20.430326615559935	2.3427634	1.5306089
20.448135908305886	2.3431442	1.5307332
20.465945700278965	2.3322754	1.5271789
20.483755991951384	2.3140643	1.5212048
20.50156678379548	2.3160355	1.5218526
20.519378076283708	2.3488102	1.5325829
20.537189869888635	2.379296	1.5424967
20.55500216508294	2.392681	1.5468293
20.572814962339415	2.3540165	1.5342804
20.59062826213098	2.3158696	1.5217981
20.60844206493066	2.3206882	1.5233805
20.626256371211593	2.3208025	1.5234181
20.644071181447032	2.3669178	1.5384791
20.66188649611036	2.3687162	1.5390635
20.67970231567506	2.371282	1.5398967
20.697518640614742	2.3227909	1.5240705
20.715335471403122	2.3070438	1.5188956
20.73315280851404	2.3260705	1.5251461
20.750970652421447	2.3170426	1.5221835
20.768789003599412	2.3143392	1.5212952
20.786607862522136	2.3480206	1.5323253
20.8044272296639	2.332747	1.5273333
20.82224710549913	2.2984025	1.5160483
20.84006749050237	2.28003	1.5099769
20.857888385148268	3.8497367	1.9620746
20.8757097899116	45.96627	6.779843
20.893531705267254	64.811676	8.05057
20.911354131690224	83.82346	9.155516
20.92917706965566	69.05988	8.310227
20.94700051963877	50.12463	7.079875
20.96482448211493	29.407936	5.4229083
20.982648957559622	4.17169	2.0424716
21.00047394644843	2.248086	1.4993619
21.01829944925707	2.237145	1.4957088
21.036125466461375	2.2471356	1.4990449
21.053951998537297	2.2405782	1.4968561
21.071779045960906	2.2419717	1.4973215
21.089606609208378	2.2152896	1.4883848
21.10743468875603	2.1987944	1.4828333
21.12526328508028	2.1895006	1.4796962
21.143092398657675	2.2235272	1.4911497
21.16092202996488	2.2518969	1.5006322
21.17875217947867	2.264449	1.5048085
21.19658284767596	2.2375374	1.4958401
21.21441403503377	2.1796212	1.476354
21.232245742029225	2.1705894	1.473292
21.2500779691396	2.1679425	1.4723935
21.26791071684227	2.1865964	1.4787145
21.28574398561475	2.2125297	1.4874574
21.30357777593465	2.2433136	1.4977695
21.321412088279704	2.2389863	1.4963243
21.339246923127792	2.2076173	1.4858053
21.357082280956888	2.1580076	1.4690158
21.3749181622451	2.1182268	1.4554129
21.392754567470647	2.0865653	1.4444948
21.41059149711187	2.0966957	1.4479971
21.42842895164726	2.113096	1.4536492
21.446266931555378	2.1282477	1.4588515
21.464105437314945	2.1395836	1.4627316
21.481944469404798	2.1633444	1.4708312
21.49978402830388	2.1956592	1.4817756
21.51762411449127	2.153397	1.4674457
21.53546472844617	2.1029081	1.4501407
21.553305870647876	2.097635	1.4483215
21.571147541575865	2.1023052	1.4499328
21.58898974170967	2.0879824	1.4449853
21.60683247152899	2.085197	1.4440211
21.62467573151363	2.084025	1.4436152
21.642519522143523	2.0907245	1.4459338
21.660363843898722	2.048917	1.4314039
21.6782086972594	2.043344	1.4294559
21.696054082705864	2.036933	1.4272116
21.713900000718535	2.054478	1.433345
21.73174645177795	2.070578	1.4389503
21.749593436364794	2.0654807	1.437178
21.767440954959845	2.0444195	1.429832
21.785289008044032	2.0736184	1.4400064
21.803137596098388	2.095194	1.4474785
21.820986719604086	2.0740805	1.4401668
21.838836379042412	2.0083344	1.4171572
21.85668657489478	1.9875858	1.4098177
21.87453730764273	1.9996825	1.4141014
21.892388577767914	2.0176616	1.4204441
21.91024038575213	2.0261803	1.4234396
21.928092732077285	2.0354643	1.426697
21.945945617225426	2.054663	1.4334096
21.963799041678694	2.0417542	1.4288996
21.981653005919398	31.3252	5.596892
21.999507510429943	78.160675	8.840853
22.01736255569286	73.12794	8.551487
22.035218142190818	4.2176948	2.0537026
22.05307427040661	1.9981319	1.4135529
22.07093094082315	2.0195432	1.4211063
22.088788153923474	2.019758	1.4211819
22.106645910190746	1.9877093	1.4098614
22.12450421010827	2.0113225	1.418211
22.142363054159464	2.0352898	1.4266359
22.16022244282787	2.045479	1.4302025
22.178082376597164	2.0128186	1.4187384
22.195942855951145	2.013596	1.4190123
22.213803881373742	2.0051637	1.416038
22.231665453349002	1.9853401	1.409021
22.24952757236111	1.9991434	1.4139106
22.26739023889438	2.0123026	1.4185566
22.28525345343323	1.99387	1.4120446
22.30311721646225	1.9533426	1.3976203
22.320981528466113	1.9613255	1.4004734
22.33884638992964	1.9892911	1.4104223
22.356711801337788	1.9749402	1.4053257
22.37457776317561	1.9411075	1.3932364
22.392444275928337	1.9752105	1.4054219
22.410311340081282	2.006913	1.4166555
22.428178956119904	1.9696468	1.4034411
22.446047124529805	1.9273936	1.388306
22.46391584579669	1.9209749	1.3859924
22.481785120406414	1.9406835	1.3930842
22.49965494884496	1.9862456	1.4093423
22.51752533159841	2.031464	1.4252944
22.53539626915302	2.0406141	1.4285007
22.553267761995137	2.0140092	1.419158
22.571139810611264	1.9872631	1.4097031
22.589012415488025	1.9682952	1.4029595
22.60688557711216	1.9322621	1.3900583
22.624759295970566	1.9473526	1.3954757
22.642633572550263	1.9606266	1.4002237
22.660508407338362	1.9649795	1.4017773
22.67838380082217	1.9610683	1.4003814
22.696259753489077	1.9727253	1.4045374
22.714136265826614	1.9796424	1.4069977
22.73201333832246	1.9883769	1.4100982
22.74989097146439	2.0110717	1.4181226
22.76776916574035	2.0007792	1.414489
22.785647921638393	1.9614189	1.4005066
22.803527239646712	1.9195814	1.3854896
22.82140712025363	1.9369074	1.3917282
22.839287563947593	1.9364555	1.3915658
22.85716857121719	1.9230785	1.386751
22.875050142551135	1.9043974	1.379999
22.892932278438277	1.9391209	1.3925232
22.910814979367604	1.9356377	1.391272
22.928698245828222	1.9045396	1.3800505
22.946582078309387	1.8798374	1.3710716
22.96446647730047	1.9053748	1.3803531
22.98235144329098	1.9006834	1.3786527
23.000236976770562	1.9130276	1.3831224
23.018123078229	1.9288695	1.3888375
23.03600974815619	1.9437839	1.3941965
23.053896987042194	1.9561154	1.3986119
23.071784795377173	1.9432315	1.3939984
23.08967317365145	1.9561217	1.3986142
23.10756212235546	1.9566061	1.3987874
23.125451641979787	1.9864091	1.4094002
23.143341733015134	1.9622616	1.4008075
23.161232395952357	1.983585	1.408398
23.179123631282426	1.9904678	1.4108394
23.197015439496468	1.9768173	1.4059933
23.214907821085717	1.9107093	1.382284
23.23280077654157	1.8814075	1.3716441
23.250694306355538	1.908553	1.3815039
23.268588411019277	1.9209892	1.3859975
23.28648309102458	1.9079329	1.3812795
23.304378346863356	1.8866845	1.3735664
23.322274179027676	1.8713949	1.3679893
23.340170588009723	1.8819333	1.3718357
23.358067574301852	1.9205551	1.3858409
23.37596513839651	1.9295647	1.3890877
23.39386328078629	1.9462112	1.3950667
23.411762001963947	1.9533296	1.3976157
23.429661302422353	1.964899	1.4017485
23.4475611826545	1.9652213	1.4018635
23.46546164315356	1.944958	1.3946176
23.48336268441279	1.9585171	1.3994703
23.501264306925638	1.9841989	1.408616
23.51916651118564	2.0242164	1.4227496
23.537069297686497	2.011356	1.4182229
23.554972666922037	1.983257	1.4082816
23.57287661938623	1.9824426	1.4079924
23.59078115557318	2.001236	1.4146504
23.608686275977128	1.9827191	1.4080906
23.62659198109246	1.9762522	1.4057924
23.6444982714137	1.9536632	1.397735
23.66240514743549	1.9370664	1.3917854
23.68031260965263	1.8858315	1.3732558
23.698220658560068	1.8916638	1.3753777
23.716129294652845	1.8566275	1.3625811
23.7340385184262	1.83598	1.3549834
23.75194833037546	1.8463569	1.3588072
23.769858730996123	1.9147296	1.3837376
23.78776972078382	1.9344559	1.3908472
23.80568130023431	1.904116	1.3798971
23.823593469843495	1.910468	1.3821968
23.841506230107424	1.9396677	1.3927195
23.859419581522275	1.9414388	1.3933553
23.87733352458438	1.9181086	1.384958
23.89524805979019	1.8895068	1.3745934
23.913163187636318	1.8769015	1.3700006
23.931078908619508	1.9079645	1.3812909
23.948995223236633	1.9210738	1.386028
23.966912131984735	1.9600457	1.4000163
23.98482963536096	2.0082204	1.417117
24.002747733862616	2.0261562	1.4234312
24.020666427987155	2.0310824	1.4251605
24.038585718232156	2.0273767	1.4238597
24.056505605095353	2.0046997	1.4158742
24.074426089074617	1.9988002	1.4137893
24.092347170667946	2.0148811	1.4194651
24.110268850373515	2.0550065	1.4335294
24.128191128689586	2.124518	1.4575726
24.146114006114626	2.1050072	1.4508643
24.164037483147187	2.1036868	1.4504092
24.181961560286005	2.0564704	1.4340398
24.199886238029926	2.0924766	1.4465395
24.21781151687797	2.1157615	1.4545658
24.235737397329274	2.083015	1.4432654
24.253663879883135	2.0404575	1.4284458
24.271590965038975	2.0395033	1.4281118
24.289518653296376	2.0762548	1.4409215
24.30744694515505	2.0384796	1.4277533
24.32537584111486	2.034716	1.4264346
24.34330534167581	2.0465336	1.4305711
24.361235447338046	2.062856	1.4362646
24.379166158601876	2.072215	1.439519
24.39709747596772	2.0582702	1.4346672
24.41502939993615	2.0444226	1.429833
24.432961931007917	2.024459	1.4228348
24.450895069683856	2.0134606	1.4189646
24.468828816465	1.9590203	1.3996501
24.4867631718525	1.9603212	1.4001147
24.504698136347656	1.9761683	1.4057626
24.52263371045192	1.9633962	1.4012125
24.540569894666874	1.920781	1.3859224
24.558506689494266	1.9011252	1.3788129
24.57644409543597	1.9259598	1.3877895
24.594382112994012	1.9492005	1.3961377
24.61232074267057	1.9419832	1.3935506
24.630259984967953	1.8963635	1.3770851
24.64819984038863	1.8629751	1.3649085
24.66614030943522	1.8727452	1.3684828
24.684081392610462	1.9080124	1.3813082
24.702023090417274	1.9316646	1.3898433
24.7199654033587	1.9700159	1.4035726
24.737908331937927	2.0149236	1.4194801
24.755851876658305	2.0498111	1.4317162
24.773796038023324	2.0454683	1.4301987
24.79174081653661	2.0485775	1.4312853
24.809686212701962	2.0875456	1.4448341
24.827632227023294	2.0956423	1.4476334
24.8455788600047	2.1032944	1.4502739
24.8635261121504	2.133345	1.4605974
24.88147398396475	2.1397467	1.4627873
24.899422475952303	2.0966961	1.4479973
24.917371588617698	2.0674396	1.4378594
24.935321322465768	2.112283	1.4533695
24.953271678001478	2.2209406	1.490282
24.97122265572994	2.430611	1.5590416
24.989174256156414	2.7408106	1.6555394
25.00712647978632	3.1698704	1.780413
25.02507932712521	3.6619496	1.9136221
25.043032798678798	4.2887754	2.070936
25.060986894952933	4.9903393	2.2339067
25.078941616453637	5.786684	2.4055529
25.096896963687055	6.6934733	2.587175
25.114852937159508	7.825621	2.7974312
25.132809537377444	8.334429	2.8869412
25.150766764847468	8.384586	2.895615
25.168724620076347	7.727394	2.779819
25.186683103570985	6.6479254	2.5783572
25.204642215838426	5.472561	2.3393505
25.222601957385894	4.1986876	2.04907
25.24056232872074	3.2066479	1.7907115
25.25852333035048	2.6303506	1.6218356
25.276484962782778	2.3156729	1.5217335
25.294447226525435	2.109631	1.452457
25.312410122086423	2.0394938	1.4281085
25.330373649973843	1.9573696	1.3990602
25.348337810695988	1.9154905	1.3840125
25.366302604761245	1.8899462	1.3747531
25.384268032678207	1.9117483	1.3826599
25.40223409495558	1.9545867	1.3980653
25.420200792102257	1.9373463	1.3918859
25.438168124627246	1.8963196	1.3770692
25.45613609303974	1.8889265	1.3743823
25.474104697849057	1.8614252	1.3643405
25.492073939564698	1.8618747	1.3645053
25.510043818696285	1.858117	1.3631276
25.528014335753614	1.8639681	1.3652722
25.54598549124664	1.847812	1.3593425
25.56395728568544	1.8753127	1.3694205
25.58192971958028	1.9177662	1.3848344
25.59990279344156	1.8961288	1.377
25.617876507779833	1.8644592	1.365452
25.635850863105826	1.8666904	1.3662688
25.653825859930386	1.8849177	1.372923
25.671801498764548	1.8203169	1.3491912
25.68977778011949	1.7645712	1.3283716
25.707754704506524	1.7762097	1.3327452
25.725732272437153	1.8526644	1.3611262
25.743710484423012	1.8915344	1.3753307
25.761689340975888	1.8716109	1.3680683
25.77966884260774	1.8239784	1.3505474
25.797648989830662	1.8307275	1.3530438
25.815629783156922	1.8418099	1.3571329
25.83361122309895	1.8557452	1.3622574
25.85159331016929	1.8370823	1.3553901
25.869576044880695	1.8543757	1.3617547
25.887559427746034	1.8335221	1.3540761
25.90554345927836	1.8367434	1.355265
25.92352813999086	1.8680257	1.3667574
25.94151347039689	1.877395	1.3701806
25.959499451009965	1.865145	1.3657031
25.97748608234374	1.8551003	1.3620206
25.995473364912062	1.9082497	1.3813941
26.013461299228904	1.9012896	1.3788726
26.03144988580839	1.9041975	1.3799266
26.04943912516483	1.8744817	1.3691171
26.067429017812675	1.8361963	1.3550632
26.085419564266537	1.771823	1.3310984
26.103410765041186	1.7641827	1.3282254
26.12140262065155	1.7982969	1.3410059
26.139395131612723	1.8530114	1.3612536
26.157388298439948	1.8515223	1.3607066
26.17538212164861	1.8893411	1.374533
26.193376601754295	1.8891724	1.3744717
26.211371739272714	1.9090881	1.3816975
26.229367534719746	1.9035966	1.3797089
26.247363988611433	1.8854955	1.3731334
26.26536110146397	1.7806969	1.3344276
26.283358873793727	1.7441331	1.3206563
26.301357306117204	1.7584087	1.32605
26.319356398951104	1.7687267	1.3299348
26.33735615281224	1.781743	1.3348194
26.35535656821762	1.7686929	1.3299221
26.373357645684404	1.7914983	1.3384687
26.39135938572991	1.8115866	1.3459519
26.409361788871614	1.810633	1.3455976
26.427364855627165	1.8148988	1.3471818
26.445368586514352	1.8479118	1.3593792
26.46337298205115	1.7809478	1.3345215
26.48137804275568	1.7410674	1.3194951
26.499383769146217	1.7479838	1.3221134
26.517390161741215	1.8220581	1.3498363
26.53539722105928	1.9054663	1.3803864
26.553404947619182	1.9025478	1.3793287
26.571413341939856	1.853057	1.3612704
26.589422404540397	1.8101838	1.3454307
26.60743213594006	1.8215302	1.3496407
26.62544253665827	1.8513978	1.3606608
26.64345360721459	1.8409867	1.3568296
26.66146534812879	1.821692	1.3497007
26.679477759920758	1.8244191	1.3507106
26.69749084311057	1.8230805	1.350215
26.71550459821847	1.8221421	1.3498675
26.733519025764842	1.823705	1.3504462
26.751534126270258	1.8045932	1.3433515
26.769549900255434	1.787021	1.3367951
26.787566348241267	1.8024118	1.3425393
26.80558347074881	1.8173329	1.3480849
26.823601268299267	1.8423954	1.3573487
26.841619741414036	1.8208498	1.3493887
26.85963889061465	1.8254552	1.3510941
26.877658716422832	1.8447131	1.3582021
26.89567921936045	1.8520697	1.3609077
26.913700399949544	1.8591571	1.363509
26.93172225871233	1.8873776	1.3738186
26.949744796171174	1.9049512	1.3801997
26.967768012848605	1.8855903	1.373168
26.98579190926733	1.8382134	1.3558073
27.003816485950225	1.7782942	1.333527
27.021841743420318	1.7750138	1.3322965
27.039867682200814	1.7822913	1.3350248
27.057894302815072	1.7921375	1.3387074
27.07592160578664	1.7646484	1.3284007
27.0939495916392	1.7611961	1.3271006
27.111978260896635	1.7855394	1.3362408
27.13000761408296	1.8176817	1.3482143
27.148037651722397	1.8144052	1.3469986
27.166068374339304	1.801195	1.3420861
27.184099782458215	1.7838829	1.3356208
27.20213187660384	1.8036106	1.3429857
27.22016465730105	1.8327426	1.3537883
27.23819812507487	1.8815644	1.3717012
27.256232280450533	1.866516	1.366205
27.274267123953383	1.8802234	1.3712124
27.292302656108987	1.8664327	1.3661745
27.31033887744306	1.8602628	1.3639145
27.32837578848146	1.8048502	1.3434471
27.34641338975026	1.7871265	1.3368345
27.364451681775673	1.7885764	1.3373767
27.382490665084074	1.795956	1.3401328
27.400530340202046	1.769489	1.3302214
27.41857070765629	1.8429494	1.3575528
27.436611767973726	1.876531	1.3698653
27.454653521681404	1.8333293	1.3540049
27.472695969306564	1.8256437	1.3511639
27.490739111376627	1.8518014	1.3608091
27.508782948419153	1.8502688	1.3602458
27.526827480961902	1.8193119	1.3488187
27.54487270953279	1.8067902	1.344169
27.562918634659898	1.7493963	1.3226475
27.580965256871508	1.7750788	1.3323208
27.599012576696026	1.8328798	1.3538389
27.617060594662068	1.8508168	1.3604473
27.63510931129842	1.831049	1.3531625
27.65315872713401	1.8106642	1.3456092
27.67120884269797	1.8482435	1.3595012
27.68925965851958	1.877855	1.3703485
27.707311175128307	1.867728	1.3666484
27.725363393053787	1.7964922	1.3403329
27.74341631282583	1.7880727	1.3371884
27.7614699349744	1.8222467	1.3499062
27.77952426002968	2.0253615	1.423152
27.797579288521973	2.1300263	1.459461
27.815635020981784	2.6377847	1.6241258
27.83369145793979	2.6877234	1.6394278
27.85174859992682	2.4985259	1.5806726
27.869806447473923	2.3704693	1.5396328
27.887865001112267	2.1196384	1.4558978
27.905924261373233	2.0008652	1.4145194
27.92398422878836	1.9234945	1.386901
27.94204490388936	1.8885112	1.3742311
27.96010628720813	1.8783131	1.3705156
27.978168379276728	1.9126673	1.3829921
27.9962311806274	1.9064442	1.3807404
28.014294691792568	1.8987776	1.3779614
28.0323589133048	1.8778656	1.3703524
28.050423845696887	1.9057405	1.3804857
28.068489489501758	1.8958013	1.376881
28.086555845252523	1.885619	1.3731785
28.104622913482487	1.8446578	1.3581818
28.122690694725115	1.8170406	1.3479764
28.14075918951405	1.860853	1.3641309
28.15882839838312	1.9512026	1.3968545
28.176898321866304	1.9934503	1.411896
28.1949689604978	1.9443089	1.3943847
28.213040314811945	1.9268396	1.3881065
28.23111238534327	1.9342247	1.3907641
28.249185172626493	1.930132	1.3892919
28.267258677196473	1.9023112	1.379243
28.285332899588294	1.908936	1.3816425
28.303407840337172	1.9655883	1.4019945
28.321483499978545	1.9976913	1.4133971
28.33955987904799	1.9828118	1.4081235
28.357636978081285	1.9402832	1.3929405
28.37571479761439	1.9006569	1.3786432
28.393793338183425	1.8994793	1.378216
28.41187260032469	1.9851834	1.4089653
28.429952584574686	2.0142543	1.4192443
28.448033291470065	1.9917526	1.4112947
28.46611472154769	1.9737133	1.4048891
28.484196875344566	1.9507623	1.3966969
28.502279753397914	1.95548	1.3983848
28.52036335624511	1.9635451	1.4012655
28.538447684423716	2.002121	1.4149632
28.556532738471482	2.003022	1.4152815
28.574618518926325	1.9630362	1.401084
28.59270502632635	1.9738787	1.404948
28.61079226120985	1.975057	1.4053673
28.628880224115274	1.9711267	1.4039682
28.646968915581287	2.0299785	1.4247731
28.66505833614671	2.09897	1.4487822
28.68314848635055	2.0774097	1.4413222
28.701239366732004	2.056737	1.4341328
28.71933097783044	2.0083623	1.417167
28.737423320185403	2.046973	1.4307246
28.75551639433665	2.1089406	1.4522192
28.773610200824074	2.0933194	1.4468309
28.791704740187793	2.0989323	1.4487692
28.80980001296809	2.155617	1.468202
28.827896019705413	2.1857252	1.4784198
28.845992760940433	2.2210884	1.4903316
28.86409023721397	2.278882	1.5095966
28.88218844906704	2.2721832	1.5073763
28.900287397040845	2.2458694	1.4986225
28.918387081676755	2.2952175	1.5149975
28.936487503516343	2.305829	1.5184957
28.954588663101365	2.3317258	1.526999
28.97269056097374	2.3414607	1.5301832
28.990793197675597	2.3298035	1.5263693
29.00889657374923	2.3769724	1.5417433
29.027000689737125	2.385776	1.5445957
29.04510554618196	2.3867514	1.5449115
29.06321114362659	2.4183638	1.5551089
29.08131748261405	2.4787607	1.574408
29.099424563687567	2.5263767	1.589458
29.11753238739057	2.5450602	1.5953245
29.13564095426663	2.5020525	1.5817878
29.15375026485954	2.520724	1.5876788
29.171860319713275	2.5912244	1.6097281
29.18997111937199	2.6351926	1.6233276
29.20808266438002	2.6584206	1.6304663
29.226194955281898	2.73775	1.6546148
29.244307992622335	2.8035645	1.6743848
29.26242177694624	2.8470302	1.6873145
29.2805363087987	2.8293302	1.6820613
29.29865158872498	2.8414652	1.6856647
29.316767617270557	2.9045606	1.7042772
29.334884394981064	2.9984384	1.7315999
29.353001922402367	2.9902217	1.7292258
29.37112020008047	2.9862103	1.7280655
29.389239228561596	3.123468	1.7673335
29.407359008392152	3.3970418	1.8431065
29.42547954011872	3.741608	1.9343237
29.44360082428809	4.4137907	2.1009023
29.46172286144722	5.475958	2.3400764
29.479845652143283	6.981972	2.642342
29.497969196923606	8.999845	2.999974
29.516093496335728	11.370679	3.3720436
29.5342185509274	13.966274	3.7371478
29.55234436124651	16.3515	4.043699
29.570470927841175	17.874609	4.2278376
29.588598251259686	17.71323	4.208709
29.60672633205055	16.28473	4.0354342
29.624855170762405	14.062053	3.7499404
29.642984767944146	11.266235	3.3565214
29.66111512414481	8.589996	2.9308696
29.67924623991366	6.4199443	2.5337608
29.697378115800138	5.044495	2.2459953
29.71551075235387	4.2562656	2.063072
29.733644150124675	3.802028	1.9498789
29.751778309662576	3.5262122	1.8778211
29.769913231517766	3.412801	1.8473768
29.78804891624066	3.4397023	1.8546435
29.806185364381818	3.4415867	1.8551514
29.82432257649206	3.386826	1.8403331
29.842460553122333	3.4040904	1.8450177
29.86059929482382	3.3861141	1.8401397
29.878738802147872	3.3367922	1.8266889
29.896879075646048	3.331542	1.8252512
29.915020115870114	3.3337958	1.8258685
29.933161923371976	3.3562908	1.8320183
29.951304498703777	3.3289173	1.824532
29.969447842417857	3.2674246	1.8076019
29.987591955066733	3.2467198	1.8018657
30.005736837203123	3.259123	1.8053042
30.023882489379943	3.2653437	1.8070261
30.04202891215028	3.2857206	1.8126557
30.060176106067455	3.2790492	1.8108145
30.078324071684946	3.2658942	1.8071785
30.09647280955646	3.1798239	1.7832061
30.114622320235863	3.205593	1.7904171
30.132772604277257	3.2054405	1.7903744
30.1509236622349	3.1585593	1.7772336
30.16907549466328	3.041296	1.7439312
30.18722810211705	2.979233	1.7260455
30.205381485151097	2.9940302	1.7303267
30.22353564432045	3.0198479	1.7377709
30.241690580180403	3.0422773	1.7442125
30.25984629328638	3.0820673	1.7555817
30.278002784194037	3.0570965	1.7484554
30.296160053459246	2.9881525	1.7286273
30.314318101638033	2.9602761	1.7205453
30.332476929286646	2.9456964	1.7163031
30.35063653696153	2.873393	1.6951085
30.368796925219307	2.8501577	1.688241
30.386958094616844	2.871448	1.6945348
30.40512004571115	2.9163966	1.707746
30.423282779059463	2.9092424	1.7056501
30.441446295219233	2.87887	1.6967233
30.459610594748067	2.8710067	1.6944045
30.47777567820382	2.8345435	1.6836102
30.495941546144504	2.883492	1.6980848
30.51410819912835	2.9020085	1.7035283
30.532275637713795	2.8652544	1.6927062
30.55044386245946	2.8302097	1.6823227
30.56861287392416	2.765982	1.6631241
30.586782672666956	2.7466075	1.6572893
30.604953259247047	2.745292	1.6568923
30.623124634223885	2.802894	1.6741846
30.641296798157075	2.845953	1.6869953
30.659469751606462	2.8353684	1.6838552
30.677643495132074	2.7166831	1.6482364
30.695818029294152	2.675617	1.6357313
30.713993354653116	2.710036	1.6462187
30.73216947176962	2.7245824	1.650631
30.75034638120448	2.7250652	1.6507771
30.768524083518756	2.722122	1.6498854
30.786702579273673	2.7214923	1.6496946
30.80488186903069	2.7848184	1.6687775
30.82306195335144	2.9414196	1.7150568
30.841242832797782	3.1435752	1.773013
30.85942450793176	3.414485	1.8478326
30.877606979315637	3.7769496	1.9434376
30.895790247511883	4.120659	2.0299406
30.913974313083134	4.5352387	2.12961
30.932159176592283	4.800022	2.1908953
30.95034483860237	4.8009295	2.1911023
30.968531299676698	4.6290326	2.1515186
30.98671856037873	4.3549438	2.0868502
31.00490662127215	3.9591105	1.9897513
31.023095482920848	3.5588036	1.8864791
31.04128514588892	3.141462	1.7724171
31.059475610740662	2.7924314	1.671057
31.07766687804056	2.6241786	1.6199317
31.09585894835335	2.5622673	1.6007084
31.11405182224393	2.507176	1.5834064
31.132245500277417	2.5095499	1.5841559
31.15043998301914	2.5316412	1.5911132
31.168635271034628	2.499538	1.5809927
31.18683136488964	2.4328072	1.5597459
31.20502826515008	2.3791933	1.5424634
31.223225972382135	2.3607206	1.5364637
31.241424487152155	2.385125	1.544385
31.259623810026692	2.481499	1.5752774
31.27782394157253	2.541631	1.5942494
31.296024882356644	2.5688806	1.6027727
31.314226632946237	2.558518	1.5995368
31.332429193908684	2.4633358	1.5695018
31.350632565811598	2.4015894	1.5497062
31.368836749222787	2.4041057	1.5505179
31.387041744710295	2.4630463	1.5694095
31.40524755284232	2.602683	1.6132833
31.423454174187317	2.7283993	1.6517867
31.441661609313922	2.658908	1.6306158
31.459869858791002	2.5307739	1.5908406
31.478078923187628	2.4874065	1.5771514
31.496288803073064	2.4494934	1.5650858
31.514499499016807	2.3445396	1.531189
31.532711011588546	2.3379567	1.5290378
31.550923341358178	2.3894138	1.5457729
31.56913648889584	2.3372302	1.5288002
31.587350454771844	2.3057804	1.5184796
31.605565239556732	2.3056023	1.5184209
31.62378084382127	2.2643113	1.5047629
31.641997268136382	2.2729993	1.5076469
31.660214513073274	2.3763797	1.5415511
31.67843257920331	2.3891563	1.5456896
31.6966514670981	2.2834039	1.5110936
31.71487117732944	2.229828	1.4932609
31.733091710469346	2.2142687	1.4880419
31.751313067090052	2.234282	1.4947515
31.769535247764008	2.238332	1.4961057
31.787758253063878	2.2948854	1.5148879
31.805982083562526	2.3129451	1.520837
31.824206739833024	2.304009	1.5178962
31.84243222244869	2.3441145	1.5310501
31.860658531983013	2.372897	1.540421
31.878885669009737	2.3892915	1.5457333
31.897113634102784	2.3881066	1.54535
31.91534242783632	2.2876747	1.5125061
31.933572050784694	2.2293196	1.4930906
31.951802503522508	2.232027	1.493997
31.970033786624548	2.2375634	1.4958487
31.988265900665834	2.2050755	1.4849497
32.006498846221575	2.1918492	1.4804895
32.02473262386724	2.2014506	1.4837286
32.04296723417845	2.1735992	1.4743131
32.0612026777311	2.150187	1.4663516
32.07943895510129	2.1887789	1.4794523
32.097676066865304	2.1897054	1.4797653
32.115914013599685	2.1724422	1.4739207
32.13415279588115	2.1582046	1.469083
32.152392414286666	2.1708217	1.4733709
32.1706328693934	2.1162148	1.4547216
32.18887416177875	2.089649	1.4455618
32.20711629202032	2.1613157	1.4701414
32.225359260695924	2.1421804	1.463619
32.243603068383614	2.078299	1.4416307
32.26184771566166	2.045412	1.430179
32.28009320310852	2.1447086	1.4644824
32.2983395313029	2.1626048	1.4705797
32.31658670082372	2.1363099	1.4616121
32.33483471225012	2.1037078	1.4504164
32.35308356616143	2.0832682	1.443353
32.371333263137245	2.058407	1.434715
32.38958380375734	2.0904632	1.4458435
32.407835188601744	2.0818245	1.442853
32.42608741825067	2.0854516	1.4441093
32.444340493284585	2.1132817	1.453713
32.46259441428416	2.1331997	1.4605477
32.48084918183028	2.167914	1.4723837
32.49910479650405	2.1507633	1.4665481
32.51736125888683	2.0701504	1.4388018
32.53561856956014	2.0205343	1.421455
32.5538767291058	2.006035	1.4163457
32.572135738105764	2.016699	1.4201053
32.59039559714228	2.0128567	1.4187518
32.608656306797776	1.9707276	1.403826
32.62691786765491	2.008385	1.4171749
32.645180280296586	1.955948	1.3985521
32.663443545305896	1.8807137	1.3713912
32.68170766326619	1.9483211	1.3958228
32.69997263476099	2.0542684	1.4332719
32.7182384603741	2.1187632	1.4555972
32.7365051406895	2.1140137	1.4539648
32.75477267629144	2.0931997	1.4467895
32.77304106776434	2.034414	1.4263289
32.79131031569289	2.0206618	1.4214998
32.809580420661966	2.0465324	1.4305706
32.827851383256714	2.0138495	1.4191016
32.84612320406245	2.0066965	1.4165791
32.86439588366476	2.0013924	1.4147058
32.88266942264945	1.9442059	1.3943478
32.9009438216025	1.9297119	1.3891407
32.9192190811102	1.9725236	1.4044656
32.937495201758985	1.9725386	1.4044709
32.95577218413556	1.949383	1.396203
32.974050028826866	1.910243	1.3821154
32.992328736420035	1.9747169	1.4052463
33.010608307502444	2.0167596	1.4201267
33.02888874266169	1.9839396	1.4085239
33.047170042485604	1.939848	1.3927842
33.06545220756225	1.9882926	1.4100683
33.083735238479896	2.029067	1.4244533
33.10201913582707	2.0085297	1.4172261
33.12030390019248	1.9576926	1.3991756
33.138589532165135	1.9168992	1.3845212
33.15687603233419	1.9462517	1.3950813
33.17516340128909	1.9743538	1.405117
33.19345163961947	1.9447789	1.3945533
33.211740747915215	1.9943029	1.4121978
33.23003072676643	1.9604609	1.4001646
33.248321576763466	1.8677552	1.3666584
33.266613298496885	1.9411676	1.3932579
33.28490589255747	1.9533994	1.3976407
33.30319935953626	1.8384567	1.3558971
33.32149370002451	1.7808139	1.3344715
33.339788914613706	1.8155912	1.3474388
33.358085003895575	1.9159288	1.3841708
33.376381968462034	2.038964	1.427923
33.39467980890529	2.0367737	1.4271559
33.41297852581774	1.9125215	1.3829395
33.43127811979204	1.8984177	1.3778307
33.44957859142105	1.9247494	1.3873534
33.467879941297866	2.0457573	1.4302998
33.486182170015844	2.1234453	1.4572046
33.50448527816853	2.12577	1.4580021
33.522789266349754	1.9805546	1.4073218
33.541094135153514	1.922056	1.3863823
33.55939988517411	1.9463462	1.3951151
33.57770651700602	1.9640507	1.4014459
33.59601403124398	1.936337	1.3915232
33.61432242848296	2.0149014	1.4194722
33.632631709318154	2.086415	1.4444429
33.650941874344994	2.0570319	1.4342357
33.66925292415916	1.9906667	1.4109099
33.68756485935654	2.0301762	1.4248425
33.70587768053328	2.0183027	1.4206698
33.724191388285746	1.9562835	1.398672
33.74250598321054	1.9440055	1.394276
33.760821465904506	1.9307424	1.3895116
33.77913783696474	2.0040665	1.4156505
33.79745509698852	2.0220284	1.4219805
33.815773246573414	1.9468286	1.395288
33.8340922863172	1.9357384	1.3913082
33.852412216817896	1.9561579	1.3986272
33.87073303867377	1.951365	1.3969127
33.889054752483304	1.8250833	1.3509564
33.907377358845245	1.8078368	1.3445582
33.92570085835853	1.841413	1.3569868
33.94402525162239	1.9002622	1.3785
33.96235053923627	2.0147753	1.4194278
33.980676721799824	2.1053052	1.450967
33.999003799912984	2.1112711	1.4530214
34.01733177417592	2.0895298	1.4455206
34.03566064518901	2.0579882	1.434569
34.0539904135529	1.9825367	1.4080259
34.07232107986846	2.0208352	1.4215608
34.090652644736785	2.080831	1.4425086
34.108985108759235	2.078463	1.4416876
34.12731847253742	1.9083266	1.3814219
34.14565273667313	1.8330668	1.353908
34.16398790176847	1.8386645	1.3559736
34.18232396842574	1.8666376	1.3662494
34.20066093724749	1.8699819	1.3674728
34.21899880883651	2.0338144	1.4261186
34.23733758379583	2.0236611	1.4225545
34.25567726272874	2.0087829	1.4173154
34.27401784623872	2.029902	1.4247463
34.29235933492957	1.9409521	1.3931806
34.31070172940526	1.8928537	1.3758103
34.32904503027003	1.9114189	1.3825407
34.347389238128386	2.0139248	1.4191282
34.36573435358502	2.0517483	1.4323925
34.38408037724492	2.0366578	1.4271152
34.402427309713296	2.0606012	1.4354794
34.42077515159559	1.9703212	1.4036813
34.43912390349752	1.8187737	1.3486192
34.45747356602499	1.6684867	1.2916992
34.47582413978423	1.760873	1.3269789
34.49417562538163	2.0152986	1.4196122
34.51252802342388	1.9579248	1.3992587
34.53088133451789	1.8218853	1.3497723
34.54923555927084	1.9861932	1.4093237
34.567590698290104	2.2015166	1.4837508
34.58594675218336	2.1549344	1.4679695
34.6043037215585	1.9846548	1.4087777
34.62266160702365	1.9232844	1.3868253
34.641020409187234	1.877072	1.3700627
34.65938012865785	1.8067538	1.3441554
34.677740766044394	1.8646061	1.3655058
34.69610232195598	2.0169957	1.4202098
34.714464797002016	2.0238647	1.422626
34.73282819179208	1.9729247	1.4046084
34.751192506936064	1.9446874	1.3945205
34.76955774304408	1.8026664	1.3426341
34.7879239007265	1.7778052	1.3333436
34.80629098059391	1.741175	1.319536
34.824658983257194	1.6982566	1.3031718
34.843027909327446	1.8404138	1.3566185
34.86139775941603	1.9941943	1.4121594
34.879768534134534	2.0739946	1.440137
34.89814023409483	1.8996657	1.3782836
34.91651285990901	1.7901281	1.3379567
34.93488641218944	2.0051692	1.41604
34.95326089154871	2.1403353	1.4629885
34.97163629859967	1.9354155	1.3911921
34.99001263395542	1.9737923	1.4049172
35.00838989822934	2.0383012	1.4276909
35.02676809203499	1.8650478	1.3656676
35.04514721598624	1.9744947	1.4051671
35.063527270697215	2.1564848	1.4684975
35.081908256782256	2.125504	1.4579109
35.10029017485597	1.9365666	1.3916057
35.11867302553321	1.7447853	1.3209032
35.137056809429104	1.6016073	1.2655462
35.155441527159006	1.8397039	1.3563569
35.173827179338524	2.1620712	1.4703983
35.19221376658354	2.1851478	1.4782245
35.21060128951017	1.8791438	1.3708186
35.2289897487348	1.973901	1.4049559
35.24737914487405	1.9744226	1.4051415
35.26576947854479	1.7231185	1.3126761
35.28416075036418	1.6251756	1.2748238
35.30255296094958	1.7991573	1.3413267
35.32094611091867	2.1310232	1.4598024
35.33934020088932	2.454407	1.5666547
35.35773523147969	2.4558587	1.5671179
35.3761312033082	2.3754063	1.5412353
35.394528116993506	2.255223	1.50174
35.41292597315452	1.7423233	1.319971
35.431324772410434	1.6656827	1.2906133
35.449724515380666	2.0641563	1.4367172
35.46812520268491	2.216271	1.4887146
35.486526834943106	1.8963926	1.3770957
35.504929412775454	1.7110565	1.3080735
35.52333293680242	2.0579393	1.434552
35.54173740764471	2.490856	1.5782446
35.560142825923286	1.9321921	1.3900331
35.5785491922594	1.3773438	1.1736029
35.59695650727454	1.152286	1.0734459
35.61536477159042	0.6898081	0.83054686
