0.008763373481513119	0.051685803	0.22734512
0.026290120649546365	0.18429624	0.4292974
0.043816868432600686	0.16380037	0.4047226
0.06134361724069026	0.25144687	0.50144476
0.07887036748382949	0.17574412	0.41921845
0.0963971195720331	0.16024603	0.40030742
0.11392387391531617	0.077221826	0.27788815
0.1314506309236943	0.07472657	0.2733616
0.1489773910071836	0.08068034	0.28404284
0.16650415457580078	0.09337135	0.30556726
0.18403092203956356	0.094008066	0.30660734
0.20155769380849	0.107413374	0.3277398
0.2190844702925996	0.093098074	0.30511978
0.2366112519019124	0.14070764	0.37511018
0.2541380390464497	0.12857136	0.3585685
0.27166483213623416	0.13338268	0.36521593
0.28919163158128947	0.11943578	0.34559482
0.3067184377916406	0.1586594	0.39832073
0.324245251177314	0.17643969	0.42004725
0.34177207214833777	0.1889494	0.4346831
0.3592989011147415	0.17262837	0.4154857
0.37682573848655654	0.1520161	0.38989243
0.39435258467381573	0.1751177	0.41847068
0.41187944008655414	0.15782799	0.39727572
0.42940630513480854	0.14282353	0.37792
0.446933180228618	0.11397217	0.33759764
0.4644600657780234	0.11156042	0.3340066
0.48198696219306775	0.15661874	0.39575085
0.49951386988379676	0.19332969	0.43969274
0.5170407892602581	0.17033873	0.41272113
0.5345677207325025	0.17948228	0.42365348
0.5520946647105822	0.20232823	0.4498091
0.5696216216045534	0.1881387	0.4337496
0.5871485918244737	0.14535938	0.38126025
0.6046755757804043	0.12396203	0.35208243
0.6222025738824094	0.1347181	0.36703965
0.6397295865405557	0.19293468	0.4392433
0.6572566141649129	0.2268387	0.47627586
0.6747836571655547	0.2208067	0.46990073
0.6923107159525568	0.21368209	0.4622576
0.7098377909359992	0.18492036	0.43002367
0.7273648825259653	0.15374434	0.39210245
0.7448919911325411	0.14793023	0.384617
0.762419117165817	0.1418912	0.3766845
0.7799462610358868	0.18586074	0.4311157
0.7974734231528482	0.17487061	0.41817534
0.8150006039268024	0.18803717	0.43363252
0.8325278037678551	0.13885763	0.37263605
0.8500550230861152	0.17052552	0.41294736
0.8675822622916969	0.17511381	0.41846603
0.8851095217947171	0.21512504	0.46381575
0.9026368020052984	0.24219589	0.492134
0.9201641033335665	0.22210398	0.47127908
0.9376914261896523	0.23099008	0.48061427
0.9552187709836915	0.234313	0.4840589
0.9727461381258234	0.24952987	0.49952966
0.990273528026193	0.24815735	0.49815395
1.0078009410949496	0.22951302	0.47907516
1.0253283777422473	0.22479618	0.47412676
1.0428558383782454	0.244933	0.49490705
1.0603833234131086	0.2710503	0.52062494
1.0779108332570058	0.31348938	0.55990124
1.0954383683201119	0.31888995	0.5647034
1.112965929012607	0.35867321	0.59889334
1.1304935157446763	0.47527146	0.68939936
1.1480211289265108	0.5320269	0.7294017
1.1655487689683062	1.3981894	1.1824507
1.1830764362802655	1.7191697	1.3111712
1.200604131272596	2.134286	1.4609195
1.2181318543555117	2.509869	1.5842566
1.235659605939232	2.5179985	1.5868202
1.253187386433982	4.042767	2.0106633
1.270715196249994	6.273691	2.5047338
1.2882430357975057	11.826563	3.438977
1.3057709054867608	16.63051	4.078052
1.3232988057280106	22.676159	4.761949
1.3408267369315112	27.764029	5.2691584
1.358354699507526	31.049309	5.5721908
1.3758826938663256	35.060497	5.9211907
1.3934107204181858	36.737648	6.061159
1.410938779573391	37.311394	6.1083055
1.4284668717422309	38.015415	6.165664
1.4459949973350033	37.43513	6.1184254
1.4635231567620117	37.31377	6.1085
1.4810513504335687	36.965523	6.079928
1.4985795787599925	36.33682	6.0280027
1.5161078421516088	36.190197	6.015829
1.5336361410187505	35.080425	5.922873
1.5511644757717598	34.74141	5.8941846
1.5686928468209842	35.355	5.9460073
1.58622125457678	36.051693	6.0043063
1.6037496994495108	37.247684	6.103088
1.621278181849548	37.147476	6.094873
1.6388067021872719	38.061165	6.169373
1.6563352608730693	37.72209	6.1418314
1.673863858317336	36.44023	6.0365744
1.6913924949304753	35.48591	5.957005
1.7089211711228998	34.405663	5.865634
1.7264498873050296	33.687008	5.804051
1.7439786438872935	33.05307	5.74918
1.7615074412801288	32.105637	5.6661835
1.779036279893981	31.806334	5.6397104
1.796565160139305	31.156807	5.581828
1.814094082426564	30.45709	5.518794
1.8316230471662298	29.381311	5.420453
1.849152054768784	28.29799	5.319586
1.8666811056447168	27.760254	5.2688003
1.8842102002045273	26.995687	5.1957374
1.901739338858724	26.346012	5.132837
1.9192685220178245	25.81683	5.0810266
1.9367977500923557	24.996582	4.999658
1.9543270234928547	24.342266	4.9337883
1.971856342629867	23.524536	4.8502097
1.9893857079139496	23.004927	4.796345
2.006915119755667	22.867147	4.7819605
2.0244445785655945	22.359524	4.7285857
2.0419740847543175	22.059727	4.6967783
2.0595036387324317	21.535025	4.6405845
2.0770332409105414	21.147596	4.5986514
2.094562891699263	20.666948	4.5460916
2.1120925915092217	20.267784	4.5019755
2.129622340751053	19.961857	4.4678693
2.1471521398354043	187.91324	13.708145
2.1646819891729323	444.1956	21.075949
2.182211889174303	440.1941	20.980803
2.1997418402501974	452.8256	21.2797
2.2172718428113023	433.0369	20.809538
2.234801897268317	321.11398	17.919653
2.2523320040319548	17.530975	4.1870008
2.269862163512935	17.058498	4.1301937
2.287392376121992	16.499973	4.062016
2.304922642269869	16.167747	4.0209136
2.322452962367322	15.963956	3.995492
2.3399833368251164	15.70057	3.9623945
2.357513766054032	15.589424	3.9483445
2.3750442504648586	15.198159	3.8984816
2.3925747904683963	14.835114	3.8516378
2.410105386475459	14.722698	3.8370168
2.4276360388968707	14.402583	3.7950735
2.445166748143469	14.142411	3.7606397
2.4626975146261025	13.792974	3.7138894
2.4802283387556323	13.613838	3.6896935
2.4977592209429305	13.480769	3.6716168
2.5152901615988825	13.255179	3.6407664
2.5328211611343865	13.021166	3.6084852
2.5503522199603523	12.688499	3.562092
2.5678833384877024	12.401858	3.5216272
2.5854145171273712	12.272758	3.5032496
2.6029457562903064	12.068595	3.4739883
2.620477056387469	11.996597	3.4636104
2.6380084178298326	11.851748	3.442637
2.655539841028383	11.548543	3.3983147
2.673071326394119	11.389461	3.3748274
2.6906028743380523	11.005052	3.3173862
2.708134485271211	10.881297	3.298681
2.7256661596046325	10.7771225	3.282853
2.743197897749369	10.689862	3.2695355
2.760729700116486	10.593918	3.25483
2.778261567117063	10.252761	3.2019932
2.795793499162193	10.032004	3.1673338
2.8133254966629817	10.008143	3.163565
2.830857560030551	9.88289	3.1437063
2.8483896896760337	9.836076	3.136252
2.865921886010578	9.559935	3.0919144
2.883454149445347	9.402617	3.0663688
2.9009864803915177	9.3447075	3.0569115
2.91851887926028	9.273161	3.0451865
2.9360513464628384	9.244183	3.0404248
2.953583882410413	9.225615	3.0373697
2.9711164875142373	9.08623	3.0143375
2.9886491621855606	8.921871	2.9869502
3.0061819068356455	8.689266	2.947756
3.023714721875769	8.553784	2.9246852
3.041247607717225	8.551462	2.9242883
3.0587805647713213	8.318425	2.884168
3.0763135934493806	8.221004	2.8672292
3.0938466941627407	8.057465	2.8385673
3.1113798673227544	8.09076	2.8444262
3.1289131133407904	7.911713	2.8127768
3.1464464326282315	7.7334647	2.7809107
3.1639798255964786	7.632311	2.7626638
3.1815132926569443	7.5104117	2.740513
3.1990468342210603	7.528317	2.7437778
3.216580450700272	7.332776	2.7079098
3.2341141425060416	7.297324	2.701356
3.251647910049847	7.2753263	2.6972814
3.2691817537431813	7.2368307	2.6901357
3.286715673997555	7.2967615	2.7012517
3.3042496712244938	7.2266383	2.6882408
3.32178374583554	7.2325387	2.689338
3.339317898242251	7.104469	2.665421
3.3568521288562034	7.0116324	2.6479487
3.3743864380889876	6.950657	2.6364098
3.3919208263522127	6.8368335	2.614734
3.4094552940575023	6.899887	2.6267636
3.4269898416164972	6.7924347	2.60623
3.444524469440858	6.704777	2.5893583
3.4620591779422587	6.484356	2.54644
3.479593967532391	6.4634314	2.542328
3.4971288386229658	6.439579	2.5376325
3.5146637916257086	6.387428	2.5273361
3.5321988269523628	6.2743645	2.5048683
3.5497339450146903	6.2295837	2.4959135
3.5672691462244708	6.310935	2.5121574
3.5848044309934988	6.2609215	2.5021834
3.60233979973359	6.302156	2.5104096
3.619875252856575	6.223233	2.4946408
3.6374107907743034	6.1654663	2.4830358
3.6549464138986427	6.187363	2.487441
3.6724821226414788	6.201952	2.490372
3.690017917414714	6.2069664	2.4913783
3.7075537986302702	6.2456465	2.499129
3.7250897667000857	6.33674	2.5172882
3.7426258220361235	6.665534	2.5817695
3.7601619650503553	7.0280204	2.6510413
3.777698196154779	7.5621586	2.749938
3.7952345157614067	8.661444	2.943033
3.8127709242822716	9.276349	3.0457098
3.830307422129425	11.409209	3.377752
3.847844009714936	30.115036	5.4877167
3.8653806874508954	97.65789	9.8822
3.882917455749409	96.942535	9.84594
3.900454315022606	96.75191	9.836255
3.917991265682631	41.32328	6.4283185
3.9355283081416506	11.007529	3.3177598
3.9530654428118495	8.7551365	2.958908
3.970602670105433	7.399837	2.7202642
3.9881399904346244	6.489903	2.5475287
4.005677404211669	6.5194287	2.5533173
4.023214911848827	6.453051	2.5402856
4.0407525137583855	6.458769	2.5414107
4.058290210352644	6.385291	2.5269134
4.075828002043927	6.3455677	2.519041
4.0933658892445814	6.31954	2.5138695
4.110903872366966	6.2598476	2.5019689
4.128441951823468	6.1320333	2.4762943
4.145980128026488	6.13032	2.4759483
4.163518401388452	6.13768	2.4774342
4.181056772321807	6.2512097	2.500242
4.1985952412390155	6.220609	2.4941149
4.216133808552567	6.2201357	2.49402
4.233672474674966	6.19101	2.488174
4.251211240018741	6.338928	2.5177228
4.268750104996445	6.647695	2.5783124
4.286289070020643	7.6170673	2.7599034
4.303828135503928	9.2164955	3.0358682
4.3213673018589125	29.46351	5.42803
4.3389065694982305	90.603226	9.518573
4.356445938834537	165.81995	12.87711
4.3739854102805085	171.38753	13.091506
4.391524984248844	172.35944	13.128573
4.409064661152262	136.41881	11.679846
4.426604441403504	96.67208	9.832196
4.444144325415337	75.52352	8.690427
4.461684313600543	21.715828	4.6600246
4.47922440637193	22.18614	4.7102165
4.496764604142329	20.646254	4.5438147
4.5143049073245916	18.840036	4.340511
4.531845316331589	16.627123	4.0776367
4.5493858315762195	13.683384	3.6991057
4.566926453471405	11.28386	3.3591456
4.584467182430081	9.158588	3.026316
4.602008018865218	8.023363	2.832554
4.619548963189798	7.451494	2.7297425
4.637090015816834	7.0671115	2.6584039
4.654631177159353	6.8328667	2.6139753
4.672172447630417	6.4984393	2.5492036
4.689713827643102	6.2969728	2.509377
4.7072553176105085	5.981449	2.4457002
4.724796917945764	5.7819486	2.4045682
4.742338629062015	5.691498	2.385686
4.759880451372434	5.7095294	2.3894622
4.777422385290215	5.766764	2.4014087
4.794964431228581	5.8246384	2.4134288
4.812506589600768	5.830069	2.4145536
4.830048860820047	5.763797	2.400791
4.847591245299709	5.6946125	2.3863387
4.8651337434530655	5.5957975	2.3655438
4.882676355693457	5.573368	2.3607981
4.900219082434242	5.5316405	2.351944
4.917761924088813	5.550712	2.355995
4.935304881070575	5.523282	2.3501663
4.952847953792969	5.496813	2.3445282
4.970391142669449	5.4753323	2.3399427
4.9879344481135055	5.4858785	2.3421953
5.005477870538642	5.4706974	2.3389523
5.023021410358394	5.452166	2.3349874
5.040565067986324	5.4335465	2.330997
5.05810884383601	5.4347954	2.3312647
5.075652738321066	5.5589714	2.357747
5.09319675185512	5.60331	2.3671312
5.110740884851836	5.6051393	2.3675175
5.128285137724894	5.5053325	2.3463445
5.145829510888007	5.3957605	2.3228776
5.163374004754908	5.402471	2.3243217
5.1809186197393595	5.358264	2.3147924
5.198463356255145	5.3218718	2.3069181
5.216008214716077	5.3324966	2.3092198
5.233553195535998	5.3195405	2.306413
5.251098299128764	5.4046702	2.3247948
5.268643525908272	5.389426	2.321514
5.286188876288432	5.316516	2.305757
5.3037343506831895	5.2513013	2.2915719
5.32127994950651	5.127673	2.2644367
5.3388256731723915	5.1044025	2.2592926
5.356371522094851	5.089835	2.2560663
5.373917496687938	5.1396103	2.2670708
5.391463597365729	5.192326	2.2786677
5.40900982454232	5.187399	2.2775862
5.426556178631843	5.1782827	2.275584
5.444102660048449	5.1209455	2.2629507
5.4616492692063225	5.137145	2.2665272
5.479196006519669	5.158711	2.2712796
5.496742872402727	5.1756063	2.2749958
5.514289867269756	5.21094	2.2827482
5.531836991535049	5.1999035	2.2803297
5.549384245612924	5.213385	2.283284
5.566931629917724	5.2762895	2.2970176
5.584479144863822	5.2780766	2.2974064
5.6020267908656205	5.2447786	2.2901483
5.619574568337545	5.195104	2.279277
5.637122477694054	5.1688356	2.2735074
5.654670519349629	5.1899314	2.278142
5.672218693718784	5.191231	2.2784274
5.689767001216059	5.1871867	2.2775397
5.707315442256021	5.158584	2.2712517
5.724864017253266	5.1073995	2.2599556
5.7424127266224225	5.075132	2.2528052
5.75996157077814	5.060694	2.2495987
5.777510550135105	5.0071225	2.2376602
5.795059665108022	5.057846	2.2489655
5.812608916111639	5.140846	2.2673433
5.830158303560715	5.320526	2.3066266
5.847707827870055	5.3588963	2.314929
5.86525748945448	5.4389153	2.3321483
5.8828072887288485	5.5292525	2.3514364
5.900357226108044	5.5740647	2.3609457
5.917907302006979	5.6219225	2.3710594
5.9354575168406	6.2028923	2.4905605
5.9530078710238765	6.7792325	2.6036959
5.970558364971812	7.346406	2.7104254
5.988108999099438	7.6882706	2.772773
6.005659773821818	8.274172	2.876486
6.023210689554039	8.083284	2.8431118
6.040761746711227	8.446338	2.9062583
6.058312945708531	7.842239	2.8003998
6.075864286961132	7.3370566	2.7087002
6.093415770884244	6.734376	2.5950675
6.1109673978931065	6.1974106	2.48946
6.128519168402993	5.635544	2.37393
6.146071082829204	5.4984193	2.3448708
6.163623141587075	5.3956647	2.322857
6.181175345091969	5.3174753	2.3059652
6.198727693759281	5.2898607	2.2999697
6.216280188004435	5.3041863	2.303082
6.233832828242885	5.268348	2.2952883
6.251385614890126	5.2449737	2.2901907
6.268938548361669	5.1528707	2.2699935
6.286491629073067	5.101687	2.2586913
6.304044857439898	5.0895143	2.2559953
6.321598233877777	5.059479	2.2493286
6.339151758802344	5.009127	2.238108
6.356705432629277	4.9505534	2.224984
6.37425925577428	4.931156	2.2206206
6.391813228653095	4.925679	2.219387
6.409367351681486	4.9842286	2.2325387
6.426921625275259	5.0777693	2.2533906
6.44447604985025	5.092002	2.2565465
6.46203062582232	5.072328	2.252183
6.47958535360737	5.086129	2.2552447
6.497140233621328	5.107407	2.2599573
6.514695266280161	5.1360703	2.26629
6.532250451999859	5.1067967	2.2598224
6.549805791196454	5.056898	2.2487547
6.567361284286002	5.095333	2.2572844
6.584916931684597	5.1053143	2.2594943
6.602472733808367	5.1007166	2.2584765
6.6200286910734665	5.078941	2.2536507
6.637584803896092	4.9959664	2.2351658
6.655141072692462	5.0055532	2.2373095
6.672697497878842	5.033641	2.2435777
6.690254079871514	5.052715	2.2478244
6.707810819086808	5.0686955	2.2513764
6.725367715941078	5.01416	2.239232
6.742924770850719	5.0711646	2.2519248
6.760481984232151	5.05597	2.2485485
6.778039356501836	5.029368	2.2426252
6.795596888076266	4.9659243	2.2284353
6.813154579371963	4.933131	2.2210653
6.830712430805492	4.969895	2.229326
6.84827044279344	5.040289	2.2450588
6.865828615752445	5.048295	2.2468412
6.883386950099159	5.03998	2.2449899
6.900945446250287	5.0107517	2.2384708
6.918504104622553	5.0125566	2.238874
6.936062925632727	4.9947014	2.2348828
6.953621909697607	4.961352	2.2274091
6.971181057234028	4.996486	2.2352822
6.988740368658859	4.982126	2.2320676
7.006299844389007	5.041247	2.2452722
7.023859484841407	5.13735	2.2665722
7.041419290433036	5.322465	2.307047
7.058979261580902	5.438764	2.332116
7.0765393987020495	5.596143	2.3656168
7.094099702213559	5.9227424	2.4336686
7.111660172532549	6.303612	2.5106995
7.129220810076164	6.691678	2.5868278
7.146781615261595	7.34292	2.7097824
7.16434258850606	7.5863895	2.7543402
7.181903730226821	8.020278	2.8320096
7.1994650408411704	8.118419	2.849284
7.217026520766437	8.319765	2.8844004
7.234588170419983	8.517398	2.9184582
7.252149990219215	8.556837	2.9252071
7.269711980581568	8.384686	2.8956323
7.2872741419245175	8.150816	2.8549633
7.304836474665574	7.7586384	2.7854333
7.322398979222286	7.5280023	2.7437205
7.339961656012233	7.3022604	2.7022696
7.357524505453039	6.955003	2.637234
7.375087527962357	6.602537	2.5695403
7.392650723957886	6.213038	2.4925966
7.410214093857353	5.846811	2.4180179
7.427777638078528	5.6674886	2.3806489
7.445341357039213	5.548699	2.3555677
7.4629052511572525	5.403798	2.3246071
7.480469320850524	5.2963376	2.3013773
7.498033566536948	5.1871285	2.2775269
7.5155979886344735	5.1460667	2.2684944
7.5331625875610975	5.12703	2.2642946
7.550727363734844	5.114002	2.261416
7.568292317573788	5.107639	2.2600086
7.585857449496025	5.1590414	2.2713523
7.603422759919705	5.2469287	2.2906175
7.620988249263007	5.278192	2.2974317
7.638553917944147	5.219859	2.284701
7.656119766381391	5.161447	2.2718818
7.673685794993023	5.128083	2.264527
7.691252004197388	5.1771874	2.2753434
7.70881839441285	5.153003	2.2700226
7.726384966057826	5.1492305	2.2691915
7.743951719550762	5.1120725	2.2609892
7.761518655310149	5.0954947	2.2573202
7.779085773754511	5.1257534	2.2640126
7.796653075302419	5.1761937	2.275125
7.814220560372475	5.2829022	2.2984564
7.831788229383323	5.361503	2.315492
7.8493560827536495	5.3610415	2.3153923
7.866924120902174	5.3500657	2.313021
7.884492344247663	5.331183	2.3089354
7.9020607532089135	5.314771	2.3053787
7.919629348204771	5.2799726	2.2978191
7.937198129654115	5.2414975	2.2894318
7.954767097975865	5.2960663	2.3013184
7.972336253588986	5.367975	2.316889
7.989905596912472	5.417976	2.3276546
8.007475128365371	5.442826	2.3329864
8.025044848366756	5.4987197	2.344935
8.042614757335754	5.5580506	2.3575518
8.060184855691523	5.619805	2.3706129
8.07775514385327	5.722555	2.3921862
8.095325622240228	5.7974887	2.4077976
8.112896291271687	5.9081764	2.430674
8.130467151366968	5.9329243	2.4357595
8.148038202945436	5.9193068	2.4329627
8.165609446426497	5.9196634	2.4330359
8.183180882229594	6.016667	2.4528894
8.200752510774217	6.045595	2.458779
8.218324332479893	5.9891443	2.4472728
8.235896347766193	5.850604	2.4188023
8.253468557052724	5.7805758	2.4042828
8.27104096075914	5.889129	2.4267528
8.288613559305137	6.064639	2.4626489
8.306186353110448	6.154742	2.4808753
8.32375934259485	6.240887	2.4981768
8.341332528178162	6.2523723	2.5004745
8.358905910280246	6.2571473	2.501429
8.376479489321003	6.2610145	2.502202
8.394053265720377	6.2787004	2.5057335
8.411627239898356	6.2639155	2.5027816
8.42920141227497	6.2791605	2.5058253
8.44677578327029	6.284359	2.5068624
8.464350353304427	6.223143	2.494623
8.48192512279754	6.165041	2.48295
8.499500092169827	6.119803	2.4738235
8.51707526184153	6.0777164	2.4653025
8.534650632232934	6.108332	2.471504
8.552226203764365	6.091939	2.4681854
8.569801976856192	6.129044	2.4756906
8.587377951928834	6.2050643	2.4909966
8.60495412940274	6.30312	2.5106015
8.622530509698416	6.389438	2.5277338
8.6401070932364	6.463567	2.5423546
8.657683880437283	6.560073	2.561264
8.675260871721695	6.719324	2.592166
8.692838067510303	6.909134	2.628523
8.710415468223834	6.9660892	2.639335
8.727993074283043	7.0645776	2.6579273
8.745570886108737	7.132776	2.6707258
8.763148904121765	7.2135873	2.6858122
8.78072712874302	7.189811	2.6813824
8.798305560393441	7.3230605	2.7061155
8.815884199494006	7.464582	2.7321386
8.833463046465745	7.687095	2.772561
8.851042101729728	7.864455	2.8043635
8.86862136570707	8.175136	2.8592193
8.886200838818924	8.353825	2.8902984
8.903780521486505	8.452578	2.9073317
8.921360414131055	8.518578	2.9186602
8.938940517173874	8.670914	2.9446416
8.956520831036297	8.788525	2.9645445
8.97410135613971	9.031766	3.0052896
8.99168209290554	9.179492	3.0297678
9.009263041755265	9.467398	3.0769136
9.026844203110405	9.732287	3.1196613
9.044425577392525	9.93579	3.152109
9.062007165023239	10.010977	3.1640127
9.079588966424197	10.304307	3.2100322
9.097170982017108	10.384883	3.2225585
9.11475321222372	11.433012	3.3812737
9.132335657465825	12.3376255	3.5124955
9.149918318165264	12.428832	3.5254548
9.167501194743924	13.07811	3.6163669
9.18508428762374	12.746557	3.5702322
9.202667597226693	12.656102	3.5575416
9.220251123974803	12.2495575	3.4999368
9.237834868290143	11.929842	3.4539604
9.255418830594836	11.68386	3.4181662
9.273003011311046	11.198056	3.3463497
9.290587410860985	10.921618	3.3047872
9.308172029666911	10.311054	3.211083
9.32575686815113	10.007989	3.1635406
9.343341926735997	8.752816	2.958516
9.360927205843916	8.553246	2.9245932
9.378512705897327	8.366773	2.8925374
9.396098427318728	8.218687	2.8668253
9.413684370530664	8.187986	2.8614657
9.431270535955722	8.111204	2.8480177
9.448856924016539	8.007885	2.8298206
9.466443535135806	7.8541164	2.8025196
9.484030369736251	7.783115	2.7898235
9.501617428240658	7.732741	2.7807806
9.519204711071852	7.7509966	2.7840612
9.536792218652714	7.727797	2.7798915
9.55437995140617	7.728478	2.780014
9.571967909755191	7.7381415	2.7817516
9.589556094122802	7.8593745	2.8034575
9.60714450493207	7.944001	2.8185105
9.624733142606116	7.956081	2.8206525
9.642322007568108	7.9022856	2.8111005
9.659911100241267	7.950053	2.819584
9.677500421048851	7.951264	2.8197985
9.695089970414175	8.064858	2.8398695
9.712679748760609	8.122624	2.8500218
9.730269756511557	8.180671	2.8601873
9.747859994090492	8.228622	2.8685575
9.765450461920915	8.268457	2.8754926
9.78304116042639	8.332685	2.886639
9.800632090030527	8.31296	2.8832204
9.81822325115699	8.294819	2.8800728
9.835814644229481	8.25566	2.8732665
9.853406269671762	8.293272	2.8798041
9.870998127907646	8.347888	2.8892713
9.888590219360985	8.339864	2.8878822
9.906182544455698	8.3290615	2.8860114
9.923775103615734	8.403182	2.8988242
9.941367897265108	8.421139	2.9019198
9.958960925827878	8.486008	2.9130752
9.97655418972816	8.433131	2.9039855
9.994147689390106	8.395227	2.8974519
10.011741425237934	8.362571	2.891811
10.029335397695904	8.303531	2.8815846
10.04692960718833	8.29781	2.8805919
10.06452405413958	8.310418	2.8827796
10.082118738974064	8.336399	2.8872824
10.099713662116246	8.409347	2.8998873
10.117308823990651	8.401678	2.8985648
10.134904225021844	8.45379	2.90754
10.152499865634445	8.429935	2.9034352
10.170095746253125	8.363223	2.8919237
10.18769186730261	8.301851	2.8812933
10.205288229207675	8.230901	2.8689547
10.222884832393145	8.124189	2.8502963
10.2404816772839	8.110827	2.8479514
10.258078764304868	8.099921	2.846036
10.275676093881035	8.151412	2.8550677
10.293273666437438	8.088624	2.8440506
10.310871482399158	8.113665	2.8484495
10.32846954219134	8.079675	2.8424768
10.346067846239173	8.151626	2.8551052
10.363666394967908	8.20284	2.86406
10.38126518880283	8.281128	2.8776948
10.398864228169298	8.391091	2.896738
10.416463513492713	8.339352	2.8877935
10.434063045198531	8.238636	2.8703024
10.451662823712262	8.186805	2.8612592
10.469262849459467	8.148211	2.854507
10.486863122865758	8.121237	2.8497784
10.504463644356806	8.142116	2.8534393
10.522064414358338	8.083872	2.843215
10.539665433296118	8.023096	2.8325071
10.557266701595987	7.87441	2.806138
10.574868219683818	7.788027	2.7907035
10.592469987985552	7.7868137	2.7904863
10.610072006927185	7.6919847	2.7734427
10.627674276934751	7.5665464	2.7507355
10.64527679843435	7.3846555	2.7174723
10.662879571852143	7.2787127	2.6979089
10.680482597614331	7.1817064	2.6798706
10.698085876147173	7.0526257	2.655678
10.715689407876988	6.892658	2.6253872
10.733293193230146	6.817383	2.6110117
10.750897232633072	6.747759	2.5976448
10.76850152651225	6.727861	2.593812
10.786106075294207	6.6919127	2.586873
10.803710879405534	6.6251507	2.5739367
10.821315939272877	6.557364	2.560735
10.83892125532294	6.4626455	2.5421734
10.856526827982472	6.40583	2.5309741
10.874132657678285	6.3678446	2.523459
10.891738744837243	6.2835283	2.5066967
10.909345089886271	6.167917	2.483529
10.926951693252343	6.06177	2.4620662
10.944558555362494	6.025237	2.4546359
10.96216567664381	6.0857935	2.4669402
10.979773057523436	6.031216	2.4558535
10.997380698428573	5.987353	2.4469068
11.014988599786477	5.8759933	2.4240448
11.032596762024461	5.8212576	2.4127283
11.050205185569892	5.7215347	2.391973
11.067813870850198	5.617267	2.3700774
11.085422818292859	5.5489316	2.355617
11.10303202832541	5.4712553	2.3390715
11.120641501375454	5.4400573	2.332393
11.138251237870636	5.3098025	2.3043008
11.155861238238671	5.273379	2.2963839
11.173471502907317	5.262714	2.2940605
11.191082032304402	5.219415	2.2846038
11.208692826857805	5.126217	2.264115
11.226303886995465	5.0319324	2.243197
11.243915213145371	5.0052657	2.237245
11.261526805735578	5.0061183	2.2374356
11.279138665194196	4.920505	2.2182212
11.296750791949393	4.8025184	2.191465
11.314363186429393	4.7379527	2.176684
11.331975849062479	4.7067065	2.1694946
11.34958878027699	4.67167	2.1614046
11.36720198050133	4.650364	2.1564703
11.384815450163948	4.5879855	2.1419582
11.402429189693366	4.507514	2.1230907
11.420043199518153	4.480042	2.116611
11.437657480066942	63.45982	7.966167
11.455272031768422	85.13597	9.226915
11.472886855051353	107.510895	10.368746
11.490501950344528	99.110115	9.955406
11.508117318076819	84.524376	9.193714
11.52573295867715	45.88653	6.7739596
11.543348872574514	4.1729383	2.042777
11.560965060197946	4.1348157	2.0334246
11.57858152197655	4.132018	2.0327365
11.59619825833949	4.1434703	2.0355515
11.613815269715985	4.052787	2.0131536
11.631432556535323	38.501747	6.2049775
11.649050119226837	83.011856	9.111084
11.666667958219929	93.45754	9.667344
11.68428607394406	107.74919	10.380231
11.701904466828756	82.5584	9.086165
11.719523137303586	65.393616	8.086632
11.737142085798196	4.582303	2.1406314
11.754761312742286	3.7058132	1.9250488
11.772380818565619	3.7333097	1.9321774
11.790000603698015	3.730139	1.9313568
11.80762066856935	3.6800108	1.9183354
11.825241013609572	3.6388595	1.9075795
11.842861639248683	3.6096625	1.8999112
11.860482545916748	3.603088	1.8981801
11.878103734043883	3.5645788	1.8880092
11.895725204060282	3.499362	1.8706582
11.91334695639619	3.4106853	1.846804
11.930968991481919	3.376247	1.8374567
11.948591309747824	3.341944	1.8280984
11.966213911624347	3.3558176	1.831889
11.98383679754198	3.3826957	1.8392106
12.001459967931268	3.3534224	1.8312352
12.019083423222835	3.31089	1.8195851
12.036707163847352	3.2549877	1.8041584
12.05433119023556	3.268327	1.8078514
12.071955502818259	3.2671697	1.8075314
12.089580102026313	3.2287054	1.7968599
12.107204988290643	3.1601846	1.7776908
12.12483016204224	3.1064737	1.7625191
12.142455623712152	3.1290069	1.7688999
12.16008137373149	3.1234841	1.7673382
12.177707412531431	3.1161013	1.7652482
12.19533374054321	3.097476	1.7599648
12.212960358198126	3.079781	1.7549305
12.230587265927545	3.0766122	1.7540275
12.248214464162889	3.0690653	1.7518748
12.265841953335649	3.0589774	1.7489933
12.283469733877375	3.0611415	1.7496119
12.301097806219685	3.0248847	1.7392195
12.31872617079425	2.9694042	1.7231959
12.336354828032825	2.9279082	1.7111131
12.353983778367205	2.8859856	1.6988189
12.371613022229262	2.8463962	1.6871266
12.389242560050928	2.8380299	1.6846453
12.406872392264201	2.843057	1.6861367
12.424502519301143	2.8634355	1.6921688
12.442132941593874	2.8699706	1.6940987
12.459763659574586	2.8410063	1.6855285
12.477394673675532	2.8120542	1.676918
12.49502598432903	2.8030565	1.6742331
12.51265759196746	2.7851696	1.6688827
12.530289497023267	2.8199024	1.6792566
12.547921699928967	2.8201487	1.6793299
12.565554201117134	2.7978473	1.6726767
12.583187001020404	2.7419736	1.6558906
12.600820100071486	2.7489004	1.6579808
12.618453498703152	2.7671828	1.6634852
12.636087197348235	2.798939	1.673003
12.65372119643964	2.824005	1.6804776
12.671355496410326	2.7826855	1.6681384
12.68899009769333	2.7847595	1.6687598
12.706625000721749	2.7945728	1.6716976
12.724260205928752	2.8870385	1.6991287
12.741895713747551	2.9262319	1.7106233
12.759531524611454	2.9851758	1.7277662
12.777167638953818	2.9969718	1.7311764
12.794804057208072	3.0224705	1.7385254
12.812440779807702	3.0400264	1.7435671
12.830077807186271	3.1924598	1.7867455
12.847715139777405	3.2405226	1.8001451
12.865352778014795	3.4721482	1.8633701
12.882990722332197	3.6369395	1.9070761
12.90062897316344	3.7089753	1.9258701
12.918267530942412	3.7349164	1.9325932
12.935906396103071	3.5716257	1.8898746
12.953545569079449	3.7544985	1.9376528
12.971185050305628	3.6466734	1.9096265
12.988824840215775	3.65206	1.9110364
13.006464939244115	3.6365676	1.9069786
13.024105347824943	3.4780002	1.8649397
13.041746066392617	3.6261187	1.904237
13.05938709538157	3.461207	1.8604319
13.077028435226296	3.4562109	1.8590887
13.094670086361363	3.2945483	1.8150891
13.112312049221401	3.1786306	1.7828715
13.129954324241112	3.0902991	1.7579247
13.147596911855258	2.9284806	1.7112803
13.165239812498685	2.9040365	1.7041234
13.182883026606293	2.809622	1.6761928
13.200526554613058	2.7557433	1.6600431
13.218170396954017	2.7207062	1.6494564
13.235814554064284	2.710855	1.6464674
13.253459026379034	2.7072067	1.6453592
13.271103814333523	2.7504761	1.658456
13.288748918363058	2.7613106	1.6617192
13.306394338903031	2.726191	1.6511182
13.32404007638889	2.6614878	1.6314067
13.341686131256164	2.6348264	1.6232148
13.359332503940449	2.622737	1.6194866
13.376979194877402	2.6214385	1.6190857
13.394626204502751	2.6847534	1.6385217
13.412273533252307	2.7289557	1.6519551
13.429921181561937	2.7352207	1.6538502
13.447569149867581	2.7442806	1.656587
13.465217438605247	2.777448	1.6665677
13.482866048211022	2.7839715	1.6685238
13.500514979121052	2.746193	1.6571641
13.518164231771568	2.7060828	1.6450176
13.535813806598844	2.6754894	1.6356924
13.553463704039254	2.6703131	1.6341093
13.571113924529229	2.6739159	1.6352112
13.588764468505275	2.7237456	1.6503774
13.606415336403956	2.7681587	1.6637784
13.624066528661917	2.792881	1.6711915
13.641718045715882	2.8527734	1.6890155
13.659369888002635	2.9429307	1.7154973
13.67702205595903	3.0050607	1.7335111
13.694674550021993	3.0272348	1.7398951
13.712327370628532	3.0365617	1.7425733
13.729980518215713	3.090132	1.7578771
13.747633993220681	3.180357	1.7833556
13.765287796080647	3.2304552	1.7973467
13.7829419272329	3.2964525	1.8156135
13.800596387114801	3.3646011	1.8342849
13.818251176163775	3.411433	1.8470064
13.835906294817324	3.430056	1.852041
13.853561743513023	3.4404435	1.8548433
13.871217522688525	3.5189238	1.8758794
13.888873632781538	3.5158281	1.8750541
13.906530074229858	3.5477655	1.8835512
13.92418684747135	3.5051384	1.8722014
13.941843952943948	3.5322022	1.8794154
13.959501391085665	3.48557	1.8669682
13.977159162334578	3.439779	1.8546641
13.994817267128846	3.3532197	1.8311799
14.012475705906693	3.2931683	1.8147088
14.030134479106424	3.2396917	1.7999144
14.047793587166414	3.208985	1.7913641
14.065453030525108	3.1680245	1.7798945
14.083112809621026	3.0948398	1.7592157
14.100772924892766	3.0072618	1.7341459
14.118433376778997	2.9545	1.7188659
14.136094165718458	2.8813982	1.6974682
14.153755292149969	2.8189597	1.6789758
14.171416756512416	2.7530117	1.6592202
14.189078559244768	2.7109184	1.6464866
14.20674070078606	2.624084	1.6199025
14.224403181575408	2.5384889	1.5932636
14.242066002051999	2.52141	1.5878948
14.259729162655093	2.5225866	1.5882653
14.277392663824022	2.5097678	1.5842247
14.295056505998208	2.444934	1.5636284
14.312720689617128	2.397953	1.5485325
14.330385215120348	2.4044166	1.5506182
14.348050082947497	2.4192498	1.5553938
14.3657152935383	2.4247086	1.5571476
14.383380847332528	2.4276836	1.5581026
14.401046744770051	2.438476	1.5615621
14.418712986290798	2.4165897	1.5545385
14.436379572334793	2.448903	1.5648972
14.454046503342123	2.4666026	1.5705421
14.471713779752946	2.4925423	1.5787787
14.489381402007504	2.4563234	1.5672662
14.507049370546113	2.3960352	1.5479132
14.524717685809168	2.3826873	1.5435956
14.542386348237134	2.3815546	1.5432286
14.560055358270553	2.3996356	1.5490757
14.577724716350051	2.4124513	1.5532068
14.595394422916325	2.429186	1.5585847
14.61306447841015	2.4670892	1.5706971
14.63073488327237	2.5084472	1.5838078
14.648405637943917	2.5558996	1.5987182
14.6660767428658	2.580834	1.6064974
14.683748198479094	2.5941348	1.6106318
14.701420005224954	2.6012504	1.6128392
14.719092163544628	2.6385233	1.6243532
14.73676467387942	2.6485667	1.6274418
14.754437536670727	2.6760206	1.6358547
14.772110752360014	2.6575108	1.6301874
14.78978432138882	2.659056	1.6306612
14.807458244198777	2.6592329	1.6307155
14.82513252123159	2.6616166	1.6314461
14.842807152929028	2.6677036	1.6333107
14.860482139732962	2.662729	1.6317871
14.87815748208531	2.687577	1.6393831
14.8958331804281	2.6929555	1.6410227
14.91350923520342	2.6466885	1.6268646
14.931185646853438	2.6182017	1.6180859
14.948862415820408	2.624328	1.6199777
14.966539542546656	2.6759512	1.6358335
14.98421702747459	2.7076254	1.6454864
15.001894871046696	2.6988447	1.6428161
15.019573073705542	2.6585455	1.6305047
15.037251635893766	2.6173034	1.6178082
15.054930558054092	2.6668622	1.6330531
15.072609840629323	2.7748363	1.665784
15.090289484062351	2.9188294	1.7084582
15.107969488796124	3.1957371	1.7876625
15.125649855273691	3.5983648	1.8969357
15.14333058393817	4.121986	2.0302675
15.161011675232768	5.064015	2.2503366
15.17869312960076	6.42294	2.5343518
15.196374947485506	8.256901	2.8734822
15.214057129330447	11.381229	3.3736079
15.231739675579114	16.103056	4.0128613
15.249422586675102	21.139061	4.5977235
15.267105863062092	24.31979	4.93151
15.284789505183847	24.605618	4.960405
15.302473513484218	22.628574	4.75695
15.320157888407127	19.050692	4.36471
15.337842630396578	14.844149	3.8528104
15.355527739896656	11.548262	3.3982732
15.37321321735153	8.925901	2.9876246
15.39089906320545	6.5243106	2.554273
15.408585277902748	4.902011	2.2140486
15.42627186188783	3.82489	1.9557326
15.443958815605198	3.2250216	1.7958345
15.461646139499424	2.8853526	1.6986326
15.479333834015168	2.7412431	1.65567
15.497021899597165	2.6916897	1.640637
15.514710336690234	2.6747959	1.6354803
15.53239914573928	2.6463645	1.626765
15.550088327189297	2.6416209	1.6253064
15.567777881485336	2.6113198	1.6159579
15.58546780907256	2.5684578	1.6026409
15.6031581103962	2.5030382	1.5820993
15.620848785901568	2.500297	1.5812328
15.638539836034063	2.4873445	1.5771317
15.656231261239173	2.4732273	1.5726497
15.673923061962451	2.471299	1.5720365
15.691615238649552	2.471822	1.5722029
15.709307791746202	2.4796727	1.5746976
15.727000721698221	2.4455645	1.56383
15.744694028951498	2.4222343	1.5563529
15.76238771395202	2.407703	1.5516775
15.780081777145844	2.3958013	1.5478376
15.797776218979125	2.3934696	1.5470842
15.815471039898094	2.4098437	1.5523671
15.833166240349064	2.400572	1.5493779
15.850861820778437	2.3855686	1.5445286
15.868557781632699	2.4187412	1.5552303
15.886254123358412	2.411162	1.5527916
15.903950846402232	2.3918061	1.5465465
15.921647951210897	2.3551612	1.5346534
15.939345438231225	2.36652	1.5383497
15.957043307910133	2.3698204	1.539422
15.974741560694602	2.3875008	1.545154
15.992440197031714	2.40383	1.550429
16.01013921736862	2.4135242	1.5535522
16.02783862215259	2.437343	1.5611992
16.045538411830933	2.3923542	1.5467237
16.06323858685107	2.3804424	1.5428683
16.080939147660512	2.40604	1.5511415
16.09864009470684	2.4659889	1.5703467
16.11634142843774	2.4426017	1.5628825
16.134043149300954	2.4139102	1.5536764
16.15174525774433	2.374977	1.5410961
16.169447754215817	2.3692348	1.5392319
16.18715063916342	2.417475	1.5548232
16.204853913035244	2.462903	1.5693638
16.222557576279478	2.5126746	1.5851418
16.240261629344403	22.490517	4.742417
16.257966072678386	43.032063	6.5598826
16.275670906729868	38.163807	6.177686
16.293376131947387	2.5966167	1.6114022
16.31108174877957	2.5669024	1.6021556
16.328787757675133	2.5354466	1.5923086
16.34649415908287	2.5090392	1.5839946
16.364200953451657	2.5590913	1.5997161
16.38190814123048	2.5777078	1.6055242
16.39961572286839	2.6265988	1.6206785
16.41732369881455	2.6504385	1.6280167
16.43503206951817	2.69385	1.6412952
16.45274083542859	2.7513347	1.6587148
16.47044999699522	2.806089	1.6751385
16.488159554667558	2.8322856	1.6829395
16.505869508895184	2.8482163	1.6876659
16.523579860127786	2.901067	1.7032518
16.541290608815117	2.9486032	1.7171497
16.559001755407035	2.9801548	1.7263125
16.57671330035348	3.0271535	1.7398717
16.59442524410448	3.1261177	1.7680831
16.61213758711015	3.2245004	1.7956893
16.629850329820705	3.2963483	1.8155849
16.647563472686436	3.331999	1.8253764
16.665277016157724	3.393203	1.8420649
16.682990960685053	3.3857245	1.8400339
16.70070530671898	3.414255	1.8477702
16.718420054710155	3.482678	1.8661934
16.736135205109335	3.584381	1.8932462
16.753850758367335	3.6172657	1.901911
16.771566714935087	3.6157055	1.9015008
16.789283075263597	3.6558244	1.912021
16.80699983980398	3.7496476	1.9364007
16.82471700900741	3.873172	1.9680376
16.84243458332518	3.987491	1.9968703
16.860152563208665	4.0192056	2.0047956
16.87787094910932	4.094754	2.0235498
16.89558974147871	4.152776	2.037836
16.913308940768466	4.196997	2.0486574
16.931028547430333	4.1984715	2.0490172
16.94874856191613	4.223395	2.05509
16.966468984677785	4.3020754	2.0741446
16.98418981616729	4.3765163	2.0920124
17.00191105683676	4.384397	2.0938952
17.019632707138374	4.4487734	2.1092114
17.03735476752442	4.5028663	2.121996
17.05507723844728	4.536736	2.1299615
17.072800120359403	4.5770645	2.1394074
17.090523413713353	4.5838842	2.1410007
17.108247118961785	4.6170106	2.1487231
17.125971236557437	4.674615	2.1620858
17.143695766953133	4.703873	2.1688414
17.161420710601806	4.7504787	2.1795592
17.179146067956477	4.7672906	2.1834126
17.19687183947025	4.7371492	2.1764994
17.21459802559634	4.6939487	2.1665523
17.232324626788028	4.68705	2.1649597
17.25005164349871	4.7285485	2.1745226
17.267779076181863	4.710215	2.170303
17.285506925291074	4.6296	2.1516504
17.30323519127999	4.599197	2.144574
17.320963874602384	4.6582794	2.1583047
17.33869297571211	4.6511283	2.1566474
17.356422495063114	4.568381	2.137377
17.37415243310944	4.50033	2.1213982
17.391882790305218	4.5135756	2.1245177
17.40961356710468	4.570021	2.1377609
17.42734476396215	4.5619807	2.1358793
17.445076381332044	4.5091734	2.1234815
17.462808419668868	4.540719	2.1308963
17.48054087942723	4.6450458	2.1552367
17.498273761061835	4.980762	2.2317622
17.51600706502747	5.480814	2.3411138
17.533740791779024	6.221165	2.4942265
17.551474941771485	7.6057115	2.7578454
17.56920951545993	8.728718	2.9544404
17.586944513299528	10.982682	3.314013
17.60467993574556	12.684816	3.561575
17.622415783253373	14.4348135	3.7993176
17.64015205627843	15.851731	3.9814234
17.657888755276293	16.984846	4.1212673
17.675625880702604	17.516714	4.1852975
17.69336343301311	17.440727	4.1762094
17.71110141266366	16.599642	4.074266
17.728839820110178	15.577842	3.9468775
17.746578655808705	14.549	3.814315
17.764317920215372	12.9216175	3.594665
17.7820576137864	11.484653	3.3889015
17.79979773697811	9.508386	3.0835671
17.81753829024692	7.6377387	2.763646
17.835279274049356	5.898352	2.4286523
17.85302068884201	4.8678017	2.2063096
17.870762535081607	4.260369	2.0640662
17.888504813224934	3.9374323	1.9842964
17.90624752372891	3.7164001	1.9277967
17.923990667050536	3.590158	1.8947712
17.941734243646895	3.5143435	1.8746582
17.959478253975185	3.5121672	1.8740777
17.9772226984927	3.4918735	1.8686556
17.994967577656833	3.4183078	1.8488666
18.01271289192506	3.38386	1.8395271
18.030458641754965	3.3788283	1.838159
18.04820482760425	3.3856869	1.8400236
18.06595144993067	3.2986815	1.8162273
18.083698509192125	3.2375875	1.7993298
18.101446005846576	3.2546744	1.8040717
18.119193940352105	3.230053	1.7972348
18.136942313166887	3.2284107	1.7967778
18.1546911247492	3.1521392	1.7754265
18.1724403755574	3.106667	1.762574
18.19019006604997	3.0944436	1.7591031
18.207940196685467	3.112163	1.7641324
18.225690767922575	3.115608	1.7651085
18.243441780220046	3.1204245	1.7664723
18.261193234036764	3.1210911	1.766661
18.278945129831676	3.1018689	1.7612123
18.29669746806386	3.058489	1.7488537
18.314450249192483	3.015524	1.7365264
18.3322034736768	3.0721276	1.7527486
18.349957141976184	3.092858	1.7586523
18.3677112545501	3.076308	1.7539407
18.385465811858108	3.0455952	1.7451633
18.403220814359884	3.056338	1.7482386
18.420976262515172	3.0797906	1.7549332
18.43873215678387	3.0987613	1.7603298
18.456488497625923	3.1249967	1.767766
18.474245285501407	3.1917903	1.7865583
18.492002520870486	3.2367537	1.799098
18.50976020419343	3.3630645	1.833866
18.527518335930615	3.6969862	1.9227549
18.545276916542516	4.2817793	2.069246
18.563035946489688	4.4139156	2.1009321
18.580795426232832	4.8612404	2.204822
18.598555356232698	4.736834	2.176427
18.616315736950185	5.046427	2.2464254
18.63407656884626	4.679874	2.1633017
18.65183785238201	4.8460255	2.201369
18.669599588018617	4.560192	2.1354606
18.68736177621737	4.5396414	2.1306434
18.705124417439652	4.5714526	2.1380956
18.72288751214696	4.4458265	2.1085129
18.740651060800886	4.6052537	2.1459854
18.758415063863115	4.2923045	2.0717878
18.77617952179546	4.4112587	2.1002996
18.793944435059814	4.175317	2.0433593
18.811709804118184	4.2226987	2.0549207
18.829475629432675	4.2045603	2.0505025
18.8472419114655	4.0080137	2.0020025
18.86500865067897	4.1106706	2.027479
18.88277584753551	3.8135214	1.952824
18.90054350249763	3.7943568	1.9479109
18.918311616027957	3.4570823	1.859323
18.936080188589226	3.33014	1.8248671
18.953849220644265	3.0229228	1.7386554
18.971618712656007	2.8442094	1.6864784
18.9893886650875	2.8420162	1.6858281
19.007159078401887	8.053749	2.8379128
19.024929953062408	32.88558	5.734595
19.042701289532435	32.77077	5.724576
19.060473088275405	25.312166	5.03112
19.07824534975489	2.60299	1.6133784
19.096018074434568	2.6303859	1.6218464
19.113791262778197	2.6238196	1.6198208
19.13156491524966	2.594654	1.610793
19.149339032312945	2.5647783	1.6014925
19.167113614432136	2.5766568	1.6051968
19.184888662071433	2.5449944	1.5953039
19.202664175695123	2.5261765	1.589395
19.220440155767623	2.5323706	1.5913423
19.238216602753447	2.5680084	1.6025007
19.2559935171172	2.5701387	1.6031653
19.27377089932361	2.5475063	1.5960909
19.291548749837514	2.5311182	1.5909488
19.309327069123835	2.5349662	1.5921577
19.32710585764763	2.544846	1.5952574
19.344885115874032	2.548928	1.5965363
19.362664844268313	2.554301	1.5982181
19.380445043295822	2.538916	1.5933976
19.39822571342203	2.530754	1.5908344
19.41600685511252	2.4977968	1.580442
19.43378846883297	2.501778	1.5817009
19.451570555049173	2.489925	1.5779496
19.469353114227037	2.5104518	1.5844406
19.48713614683254	2.5077043	1.5835732
19.50491965333182	2.5439808	1.5949862
19.52270363419109	2.5511525	1.5972327
19.540488089876686	2.5680506	1.6025138
19.55827302085503	2.528856	1.5902377
19.576058427592674	2.4950657	1.5795777
19.593844310556282	2.4978871	1.5804706
19.611630670212598	2.5175958	1.5866933
19.629417507028506	2.4974673	1.5803378
19.64720482147098	2.4782991	1.5742614
19.6649926140071	2.4774024	1.5739766
19.682780885104084	2.483244	1.5758312
19.70056963522921	2.459158	1.5681703
19.718358864849908	2.487635	1.5772238
19.7361485744337	2.5179577	1.5868074
19.753938764448215	2.5475755	1.5961126
19.771729435361202	2.5441563	1.5950412
19.789520587640506	2.5274913	1.5898086
19.807312221754092	2.5168388	1.5864547
19.825104338170043	2.5253532	1.589136
19.842896937356517	2.5169866	1.5865014
19.860690019781824	2.5243688	1.5888262
19.87848358591436	2.4921217	1.5786455
19.896277636222635	2.4592726	1.5682068
19.914072171175278	2.4489796	1.5649216
19.931867191241015	2.455387	1.5669675
19.94966269688869	2.478416	1.5742986
19.967458688587264	2.4835336	1.5759231
19.985255166805807	2.4760525	1.5735477
20.00305213201348	2.4558039	1.5671005
20.020849584679578	2.4479852	1.5646038
20.038647525273507	2.4572291	1.5675552
20.05644595426477	2.419093	1.5553434
20.07424487212299	2.3980203	1.5485543
20.092044279317903	2.3782008	1.5421417
20.109844176319353	2.4019585	1.5498253
20.127644563597304	2.4057977	1.5510634
20.145445441621817	2.4079506	1.5517572
20.16324681086307	2.4158502	1.5543005
20.181048671791373	2.3877175	1.5452241
20.198851024877122	2.406251	1.5512096
20.216653870590836	2.417673	1.5548868
20.234457209403146	2.3908684	1.5462433
20.252261041784802	2.390435	1.5461031
20.270065368206662	2.3951118	1.5476149
20.287870189139685	2.410869	1.5526973
20.305675505054968	2.3851626	1.5443971
20.323481316423702	2.3788369	1.5423478
20.341287623717207	2.3702066	1.5395476
20.359094427406884	2.3723202	1.5402339
20.376901727964288	2.357374	1.5353742
20.39470952586107	2.3444421	1.5311571
20.41251782156899	2.3630927	1.5372354
20.430326615559935	2.348231	1.5323939
20.448135908305886	2.3443344	1.531122
20.465945700278965	2.3309026	1.5267293
20.483755991951384	2.3311338	1.5268052
20.50156678379548	2.343329	1.5307935
20.519378076283708	2.3622437	1.5369592
20.537189869888635	2.3673124	1.5386074
20.55500216508294	2.363965	1.5375191
20.572814962339415	2.3666282	1.5383849
20.59062826213098	2.4134047	1.5535136
20.60844206493066	2.423373	1.5567187
20.626256371211593	2.4144423	1.5538476
20.644071181447032	2.3773808	1.5418757
20.66188649611036	2.3228068	1.5240757
20.67970231567506	2.3249557	1.5247805
20.697518640614742	2.3368967	1.5286912
20.715335471403122	2.3280067	1.5257807
20.73315280851404	2.2790883	1.5096649
20.750970652421447	2.2702653	1.50674
20.768789003599412	2.29893	1.5162222
20.786607862522136	2.3275244	1.5256226
20.8044272296639	2.3439853	1.5310079
20.82224710549913	2.3514724	1.5334511
20.84006749050237	2.336146	1.5284456
20.857888385148268	3.8643844	1.9658037
20.8757097899116	45.959484	6.7793427
20.893531705267254	64.81172	8.050572
20.911354131690224	83.855095	9.157243
20.92917706965566	69.11004	8.313245
20.94700051963877	50.15755	7.0821996
20.96482448211493	29.376787	5.420036
20.982648957559622	4.1160703	2.02881
21.00047394644843	2.2318852	1.4939495
21.01829944925707	2.2281358	1.4926941
21.036125466461375	2.2352788	1.4950849
21.053951998537297	2.2584615	1.5028179
21.071779045960906	2.2813215	1.5104045
21.089606609208378	2.2725081	1.5074841
21.10743468875603	2.254222	1.5014067
21.12526328508028	2.2024517	1.4840659
21.143092398657675	2.2117763	1.4872042
21.16092202996488	2.2431014	1.4976987
21.17875217947867	2.2237322	1.4912183
21.19658284767596	2.1738977	1.4744143
21.21441403503377	2.1567185	1.468577
21.232245742029225	2.1778998	1.475771
21.2500779691396	2.2184463	1.489445
21.26791071684227	2.2176096	1.4891641
21.28574398561475	2.1941464	1.4812652
21.30357777593465	2.1647882	1.471322
21.321412088279704	2.1385036	1.4623623
21.339246923127792	2.123417	1.4571949
21.357082280956888	2.1382	1.4622586
21.3749181622451	2.1332986	1.4605817
21.392754567470647	2.1140893	1.4539908
21.41059149711187	2.0912626	1.4461198
21.42842895164726	2.1041498	1.4505688
21.446266931555378	2.1340735	1.4608469
21.464105437314945	2.1465874	1.4651237
21.481944469404798	2.147755	1.465522
21.49978402830388	2.144348	1.4643592
21.51762411449127	2.1376934	1.4620852
21.53546472844617	2.1176345	1.4552095
21.553305870647876	2.0656967	1.4372532
21.571147541575865	2.0833747	1.44339
21.58898974170967	2.116661	1.454875
21.60683247152899	2.120442	1.4561738
21.62467573151363	2.0931113	1.4467589
21.642519522143523	2.0529342	1.4328064
21.660363843898722	2.0503716	1.4319118
21.6782086972594	2.048278	1.4311807
21.696054082705864	2.057893	1.4345359
21.713900000718535	2.042669	1.4292197
21.73174645177795	2.0740125	1.4401432
21.749593436364794	2.0502865	1.4318821
21.767440954959845	1.9960876	1.4128296
21.785289008044032	1.9794514	1.4069297
21.803137596098388	1.9991362	1.4139081
21.820986719604086	1.9876873	1.4098537
21.838836379042412	1.9984963	1.4136819
21.85668657489478	2.017354	1.4203359
21.87453730764273	2.0389361	1.4279132
21.892388577767914	2.0361373	1.4269328
21.91024038575213	2.024056	1.4226933
21.928092732077285	1.9860551	1.4092747
21.945945617225426	1.9828165	1.4081252
21.963799041678694	2.0074074	1.4168301
21.981653005919398	31.366037	5.600539
21.999507510429943	78.17116	8.841446
22.01736255569286	73.12259	8.551175
22.035218142190818	4.211274	2.0521388
22.05307427040661	2.0158644	1.4198114
22.07093094082315	1.9926938	1.411628
22.088788153923474	1.9918652	1.4113345
22.106645910190746	1.9857638	1.4091713
22.12450421010827	1.9658647	1.4020929
22.142363054159464	1.9598035	1.3999298
22.16022244282787	1.9888259	1.4102573
22.178082376597164	1.9997054	1.4141095
22.195942855951145	2.0237353	1.4225805
22.213803881373742	1.9939386	1.4120688
22.231665453349002	2.0018134	1.4148545
22.24952757236111	1.9858851	1.4092144
22.26739023889438	1.9652373	1.4018692
22.28525345343323	1.9410774	1.3932256
22.30311721646225	1.9797527	1.4070368
22.320981528466113	2.0264452	1.4235326
22.33884638992964	2.0131607	1.4188589
22.356711801337788	1.9951534	1.412499
22.37457776317561	1.9531692	1.3975583
22.392444275928337	1.9348657	1.3909945
22.410311340081282	1.9345148	1.3908683
22.428178956119904	1.958365	1.399416
22.446047124529805	1.9735833	1.4048429
22.46391584579669	1.9429182	1.393886
22.481785120406414	1.9248571	1.3873922
22.49965494884496	1.9253714	1.3875775
22.51752533159841	1.9649308	1.4017599
22.53539626915302	1.9637834	1.4013505
22.553267761995137	1.9636914	1.4013177
22.571139810611264	1.9779199	1.4063854
22.589012415488025	1.9995328	1.4140484
22.60688557711216	1.9950303	1.4124554
22.624759295970566	1.9927068	1.4116327
22.642633572550263	2.007691	1.4169301
22.660508407338362	2.012777	1.4187237
22.67838380082217	1.9980465	1.4135227
22.696259753489077	1.960228	1.4000814
22.714136265826614	1.9693005	1.4033177
22.73201333832246	1.9572053	1.3990015
22.74989097146439	1.9410306	1.3932087
22.76776916574035	1.9087557	1.3815773
22.785647921638393	1.8803991	1.3712765
22.803527239646712	1.8251597	1.3509847
22.82140712025363	1.813513	1.3466674
22.839287563947593	1.8398175	1.3563987
22.85716857121719	1.8958768	1.3769084
22.875050142551135	1.9216347	1.3862303
22.892932278438277	1.9289163	1.3888543
22.910814979367604	1.9241838	1.3871496
22.928698245828222	1.9050827	1.3802474
22.946582078309387	1.8829134	1.3721929
22.96446647730047	1.8881589	1.374103
22.98235144329098	1.9576591	1.3991637
23.000236976770562	1.9818616	1.407786
23.018123078229	1.9424523	1.3937188
23.03600974815619	1.9115053	1.382572
23.053896987042194	1.9017396	1.3790357
23.071784795377173	1.8709046	1.3678101
23.08967317365145	1.8776271	1.3702654
23.10756212235546	1.9003432	1.3785293
23.125451641979787	1.9437159	1.3941721
23.143341733015134	1.9538562	1.397804
23.161232395952357	1.9522978	1.3972465
23.179123631282426	1.9181895	1.3849872
23.197015439496468	1.8919848	1.3754944
23.214907821085717	1.9056616	1.380457
23.23280077654157	1.9545659	1.3980579
23.250694306355538	1.9734466	1.4047941
23.268588411019277	1.9691371	1.4032594
23.28648309102458	1.9361725	1.3914641
23.304378346863356	1.8947873	1.3765128
23.322274179027676	1.8737309	1.368843
23.340170588009723	1.8640034	1.3652852
23.358067574301852	1.8986826	1.377927
23.37596513839651	1.8833532	1.3723532
23.39386328078629	1.9106537	1.382264
23.411762001963947	1.9337252	1.3905845
23.429661302422353	1.9591978	1.3997134
23.4475611826545	1.9157573	1.3841089
23.46546164315356	1.9167291	1.3844599
23.48336268441279	1.9036977	1.3797455
23.501264306925638	1.9127072	1.3830066
23.51916651118564	1.8896645	1.3746507
23.537069297686497	1.9011201	1.3788111
23.554972666922037	1.9102342	1.3821123
23.57287661938623	1.9067327	1.380845
23.59078115557318	1.9120207	1.3827584
23.608686275977128	1.9120125	1.3827554
23.62659198109246	1.9350971	1.3910776
23.6444982714137	1.9416407	1.3934277
23.66240514743549	1.9717644	1.4041953
23.68031260965263	1.9610586	1.400378
23.698220658560068	1.9390332	1.3924917
23.716129294652845	1.9291377	1.388934
23.7340385184262	1.9577223	1.3991863
23.75194833037546	1.9273907	1.388305
23.769858730996123	1.9132107	1.3831886
23.78776972078382	1.9203001	1.385749
23.80568130023431	1.9001119	1.3784455
23.823593469843495	1.8670388	1.3663963
23.841506230107424	1.876877	1.3699915
23.859419581522275	1.8863534	1.3734457
23.87733352458438	1.8718983	1.3681734
23.89524805979019	1.8635709	1.3651267
23.913163187636318	1.8853184	1.3730689
23.931078908619508	1.9188167	1.3852136
23.948995223236633	1.9601853	1.4000661
23.966912131984735	1.9938195	1.4120268
23.98482963536096	2.0121903	1.418517
24.002747733862616	2.032575	1.425684
24.020666427987155	2.039596	1.4281443
24.038585718232156	2.062604	1.4361769
24.056505605095353	2.0291412	1.4244792
24.074426089074617	2.0350983	1.4265687
24.092347170667946	2.0039506	1.4156096
24.110268850373515	2.0145152	1.4193362
24.128191128689586	2.0859413	1.4442788
24.146114006114626	2.0767744	1.4411018
24.164037483147187	2.0486562	1.4313128
24.181961560286005	2.0107212	1.417999
24.199886238029926	2.0294986	1.4246047
24.21781151687797	2.0512547	1.4322202
24.235737397329274	2.064228	1.4367422
24.253663879883135	2.0157855	1.4197836
24.271590965038975	2.031945	1.4254631
24.289518653296376	2.0893757	1.4454674
24.30744694515505	2.0907488	1.4459422
24.32537584111486	2.0502155	1.4318573
24.34330534167581	2.0167115	1.4201096
24.361235447338046	2.0268428	1.4236723
24.379166158601876	2.0449643	1.4300225
24.39709747596772	2.034633	1.4264055
24.41502939993615	2.042845	1.4292812
24.432961931007917	1.9786471	1.4066439
24.450895069683856	1.9725776	1.4044847
24.468828816465	1.94503	1.3946433
24.4867631718525	1.9733901	1.4047741
24.504698136347656	1.9504786	1.3965954
24.52263371045192	1.947465	1.395516
24.540569894666874	1.9469984	1.3953488
24.558506689494266	1.948096	1.395742
24.57644409543597	1.947817	1.3956422
24.594382112994012	1.9572333	1.3990115
24.61232074267057	1.94226	1.3936499
24.630259984967953	1.9227009	1.3866149
24.64819984038863	1.914898	1.3837984
24.66614030943522	1.9104165	1.3821782
24.684081392610462	1.926364	1.3879352
24.702023090417274	1.9543457	1.3979791
24.7199654033587	2.007934	1.4170159
24.737908331937927	1.9974018	1.4132947
24.755851876658305	1.9996645	1.4140949
24.773796038023324	2.0196066	1.4211286
24.79174081653661	2.031284	1.4252312
24.809686212701962	2.0486984	1.4313275
24.827632227023294	2.086701	1.4445418
24.8455788600047	2.1263855	1.4582131
24.8635261121504	2.1198232	1.4559612
24.88147398396475	2.1311781	1.4598556
24.899422475952303	2.1222336	1.4567888
24.917371588617698	2.1128225	1.4535551
24.935321322465768	2.1383877	1.4623227
24.953271678001478	2.220396	1.4900993
24.97122265572994	2.436277	1.5608578
24.989174256156414	2.7343805	1.6535963
25.00712647978632	3.2214813	1.7948486
25.02507932712521	3.7667766	1.9408185
25.043032798678798	4.3231416	2.0792165
25.060986894952933	5.0652847	2.2506187
25.078941616453637	5.8627744	2.4213166
25.096896963687055	6.872667	2.6215773
25.114852937159508	7.893095	2.8094652
25.132809537377444	8.3403	2.8879576
25.150766764847468	8.349297	2.889515
25.168724620076347	7.8754478	2.8063228
25.186683103570985	6.8878837	2.6244779
25.204642215838426	5.760252	2.4000525
25.222601957385894	4.3812895	2.093153
25.24056232872074	3.2732882	1.809223
25.25852333035048	2.5901992	1.6094096
25.276484962782778	2.201557	1.4837644
25.294447226525435	2.0737066	1.440037
25.312410122086423	2.036002	1.4268854
25.330373649973843	2.059729	1.4351757
25.348337810695988	1.9590551	1.3996625
25.366302604761245	1.9013326	1.3788881
25.384268032678207	1.9000267	1.3784145
25.40223409495558	1.9359742	1.391393
25.420200792102257	1.9189827	1.3852736
25.438168124627246	1.9176406	1.384789
25.45613609303974	1.9432942	1.3940209
25.474104697849057	1.9693375	1.4033308
25.492073939564698	1.9651916	1.401853
25.510043818696285	1.896275	1.377053
25.528014335753614	1.8451285	1.358355
25.54598549124664	1.8266977	1.3515538
25.56395728568544	1.8563122	1.3624655
25.58192971958028	1.8784317	1.3705589
25.59990279344156	1.8761967	1.3697433
25.617876507779833	1.9031	1.3795289
25.635850863105826	1.8953589	1.3767203
25.653825859930386	1.8393658	1.3562322
25.671801498764548	1.8529416	1.361228
25.68977778011949	1.9076858	1.38119
25.707754704506524	1.9209487	1.385983
25.725732272437153	1.8960074	1.3769559
25.743710484423012	1.8638892	1.3652433
25.761689340975888	1.8740245	1.3689501
25.77966884260774	1.8676921	1.3666353
25.797648989830662	1.8588498	1.3633964
25.815629783156922	1.8631655	1.3649782
25.83361122309895	1.859318	1.3635681
25.85159331016929	1.883592	1.3724402
25.869576044880695	1.9030341	1.379505
25.887559427746034	1.8997186	1.3783028
25.90554345927836	1.9039787	1.3798474
25.92352813999086	1.8265835	1.3515116
25.94151347039689	1.8548971	1.3619461
25.959499451009965	1.8660938	1.3660504
25.97748608234374	1.8989557	1.378026
25.995473364912062	1.8725982	1.3684291
26.013461299228904	1.8971313	1.3773639
26.03144988580839	1.9062918	1.3806853
26.04943912516483	1.9273989	1.3883079
26.067429017812675	1.8843155	1.3727037
26.085419564266537	1.8572623	1.3628141
26.103410765041186	1.8175869	1.3481791
26.12140262065155	1.8170522	1.3479809
26.139395131612723	1.8187023	1.3485928
26.157388298439948	1.8419896	1.3571992
26.17538212164861	1.8694726	1.3672866
26.193376601754295	1.8971694	1.3773777
26.211371739272714	1.883416	1.3723761
26.229367534719746	1.917846	1.3848631
26.247363988611433	1.9569253	1.3989015
26.26536110146397	1.9291945	1.3889544
26.283358873793727	1.8587409	1.3633565
26.301357306117204	1.8401116	1.3565072
26.319356398951104	1.8537312	1.3615179
26.33735615281224	1.8604227	1.3639731
26.35535656821762	1.8233554	1.3503168
26.373357645684404	1.8144418	1.3470122
26.39135938572991	1.8864996	1.373499
26.409361788871614	1.9061432	1.3806314
26.427364855627165	1.9170322	1.3845693
26.445368586514352	1.8488966	1.3597413
26.46337298205115	1.8125658	1.3463156
26.48137804275568	1.850921	1.3604856
26.499383769146217	1.7981218	1.3409406
26.517390161741215	1.7537616	1.3242967
26.53539722105928	1.7165735	1.3101807
26.553404947619182	1.7668617	1.3292335
26.571413341939856	1.8239135	1.3505234
26.589422404540397	1.7838339	1.3356024
26.60743213594006	1.7848057	1.3359662
26.62544253665827	1.7991463	1.3413225
26.64345360721459	1.8111646	1.3457952
26.66146534812879	1.7888403	1.3374753
26.679477759920758	1.7692442	1.3301294
26.69749084311057	1.7553828	1.3249086
26.71550459821847	1.7871345	1.3368375
26.733519025764842	1.8260924	1.3513298
26.751534126270258	1.8248631	1.3508749
26.769549900255434	1.8095285	1.3451872
26.787566348241267	1.7851952	1.336112
26.80558347074881	1.7959306	1.3401234
26.823601268299267	1.8089885	1.3449864
26.841619741414036	1.8206042	1.3492976
26.85963889061465	1.793124	1.3390758
26.877658716422832	1.7698041	1.3303399
26.89567921936045	1.8007686	1.3419272
26.913700399949544	1.8501433	1.3601997
26.93172225871233	1.8495427	1.3599789
26.949744796171174	1.8431535	1.3576279
26.967768012848605	1.8064973	1.3440601
26.98579190926733	1.8343928	1.3543975
27.003816485950225	1.8664379	1.3661764
27.021841743420318	1.8615009	1.3643683
27.039867682200814	1.7867932	1.3367099
27.057894302815072	1.719107	1.3111472
27.07592160578664	1.7284192	1.3146936
27.0939495916392	1.7244366	1.3131781
27.111978260896635	1.7019739	1.3045973
27.13000761408296	1.7213173	1.3119898
27.148037651722397	1.7925001	1.3388429
27.166068374339304	1.8284723	1.3522102
27.184099782458215	1.830657	1.3530177
27.20213187660384	1.8223422	1.3499415
27.22016465730105	1.8148043	1.3471467
27.23819812507487	1.8228549	1.3501314
27.256232280450533	1.829632	1.352639
27.274267123953383	1.817873	1.3482852
27.292302656108987	1.8106062	1.3455877
27.31033887744306	1.8003768	1.3417811
27.32837578848146	1.7995304	1.3414657
27.34641338975026	1.7960978	1.3401858
27.364451681775673	1.7647156	1.328426
27.382490665084074	1.7552251	1.3248491
27.400530340202046	1.8248187	1.3508586
27.41857070765629	1.8930597	1.3758851
27.436611767973726	1.8883412	1.3741692
27.454653521681404	1.8331476	1.3539379
27.472695969306564	1.8270231	1.3516742
27.490739111376627	1.864469	1.3654556
27.508782948419153	1.8339837	1.3542465
27.526827480961902	1.874377	1.3690789
27.54487270953279	1.9049481	1.3801986
27.562918634659898	1.8992282	1.3781248
27.580965256871508	1.8507017	1.360405
27.599012576696026	1.8231257	1.3502318
27.617060594662068	1.8484675	1.3595836
27.63510931129842	1.8520178	1.3608886
27.65315872713401	1.8410544	1.3568546
27.67120884269797	1.805952	1.3438572
27.68925965851958	1.8529539	1.3612325
27.707311175128307	1.9025235	1.3793199
27.725363393053787	1.882711	1.3721192
27.74341631282583	1.8560871	1.3623829
27.7614699349744	1.8365316	1.3551869
27.77952426002968	1.9942162	1.4121672
27.797579288521973	2.1798947	1.4764466
27.815635020981784	2.6122203	1.6162364
27.83369145793979	2.627449	1.6209408
27.85174859992682	2.436834	1.5610362
27.869806447473923	2.3192458	1.522907
27.887865001112267	2.0656157	1.437225
27.905924261373233	1.9520957	1.3971742
27.92398422878836	1.8835392	1.3724209
27.94204490388936	1.8335277	1.3540782
27.96010628720813	1.8273884	1.3518093
27.978168379276728	1.870326	1.3675987
27.9962311806274	1.8970442	1.3773322
28.014294691792568	1.9109235	1.3823615
28.0323589133048	1.897727	1.3775802
28.050423845696887	1.9142922	1.3835795
28.068489489501758	1.9076645	1.3811823
28.086555845252523	1.874818	1.3692399
28.104622913482487	1.8639741	1.3652743
28.122690694725115	1.897547	1.3775148
28.14075918951405	1.8827127	1.3721198
28.15882839838312	1.9034235	1.3796462
28.176898321866304	1.9104322	1.3821839
28.1949689604978	1.9268026	1.3880931
28.213040314811945	1.9457451	1.3948997
28.23111238534327	1.9416573	1.3934337
28.249185172626493	1.9855174	1.4090838
28.267258677196473	2.000986	1.4145621
28.285332899588294	1.9899209	1.4106456
28.303407840337172	1.9842199	1.4086235
28.321483499978545	1.963284	1.4011724
28.33955987904799	1.9673554	1.4026245
28.357636978081285	1.9426215	1.3937795
28.37571479761439	1.9450048	1.3946342
28.393793338183425	1.9293169	1.3889985
28.41187260032469	2.012402	1.4185916
28.429952584574686	2.0314732	1.4252976
28.448033291470065	1.965557	1.4019833
28.46611472154769	1.9752363	1.405431
28.484196875344566	2.0303714	1.424911
28.502279753397914	2.0476723	1.430969
28.52036335624511	1.9974356	1.4133066
28.538447684423716	1.9509189	1.396753
28.556532738471482	1.9808134	1.4074137
28.574618518926325	1.992069	1.4114068
28.59270502632635	1.9914405	1.4111841
28.61079226120985	2.0300603	1.4248018
28.628880224115274	2.0038455	1.4155725
28.646968915581287	1.9888123	1.4102526
28.66505833614671	2.032112	1.4255216
28.68314848635055	2.0079024	1.4170047
28.701239366732004	2.0318582	1.4254327
28.71933097783044	2.0701122	1.4387884
28.737423320185403	2.0925765	1.4465741
28.75551639433665	2.1097586	1.4525008
28.773610200824074	2.1320994	1.460171
28.791704740187793	2.135055	1.4611827
28.80980001296809	2.1798964	1.4764472
28.827896019705413	2.2045925	1.484787
28.845992760940433	2.2030954	1.4842829
28.86409023721397	2.1817527	1.4770757
28.88218844906704	2.2212687	1.4903921
28.900287397040845	2.284499	1.5114559
28.918387081676755	2.2995718	1.5164338
28.936487503516343	2.2956424	1.5151378
28.954588663101365	2.3126419	1.5207373
28.97269056097374	2.3742797	1.5408698
28.990793197675597	2.4172206	1.5547414
29.00889657374923	2.413148	1.553431
29.027000689737125	2.4148786	1.553988
29.04510554618196	2.455534	1.5670143
29.06321114362659	2.4707763	1.5718703
29.08131748261405	2.5245638	1.5888876
29.099424563687567	2.550382	1.5969915
29.11753238739057	2.5607	1.6002188
29.13564095426663	2.5760396	1.6050045
29.15375026485954	2.5796502	1.6061289
29.171860319713275	2.568008	1.6025006
29.18997111937199	2.5862687	1.608188
29.20808266438002	2.673738	1.6351569
29.226194955281898	2.7847238	1.6687492
29.244307992622335	2.828491	1.6818118
29.26242177694624	2.8600142	1.6911577
29.2805363087987	2.8770666	1.6961918
29.29865158872498	2.885929	1.6988022
29.316767617270557	2.8344135	1.6835717
29.334884394981064	2.9278529	1.711097
29.353001922402367	2.99335	1.7301301
29.37112020008047	3.1217453	1.7668462
29.389239228561596	3.2760673	1.809991
29.407359008392152	3.4419625	1.8552526
29.42547954011872	3.6833026	1.9191933
29.44360082428809	4.2639256	2.0649276
29.46172286144722	5.3423133	2.3113444
29.479845652143283	6.873262	2.6216908
29.497969196923606	9.014693	3.0024478
29.516093496335728	11.719272	3.4233422
29.5342185509274	14.511012	3.8093321
29.55234436124651	17.016628	4.1251216
29.570470927841175	18.38288	4.287526
29.588598251259686	18.096592	4.254009
29.60672633205055	16.87221	4.1075797
29.624855170762405	14.82745	3.8506427
29.642984767944146	12.109726	3.4799032
29.66111512414481	9.058244	3.0096917
29.67924623991366	6.6398664	2.576794
29.697378115800138	5.120079	2.2627592
29.71551075235387	4.260171	2.0640182
29.733644150124675	3.8205442	1.9546212
29.751778309662576	3.5519266	1.8846556
29.769913231517766	3.4758127	1.8643532
29.78804891624066	3.4388878	1.8544239
29.806185364381818	3.3989744	1.8436308
29.82432257649206	3.3529248	1.8310994
29.842460553122333	3.3380027	1.8270202
29.86059929482382	3.2719252	1.8088464
29.878738802147872	3.1873398	1.7853123
29.896879075646048	3.2201025	1.7944645
29.915020115870114	3.2863872	1.8128395
29.933161923371976	3.2979813	1.8160344
29.951304498703777	3.2094173	1.7914847
29.969447842417857	3.1554775	1.7763664
29.987591955066733	3.1410887	1.7723117
30.005736837203123	3.1922498	1.7866868
30.023882489379943	3.267085	1.807508
30.04202891215028	3.269626	1.8082107
30.060176106067455	3.1993632	1.7886764
30.078324071684946	3.167701	1.7798036
30.09647280955646	3.1948173	1.7874051
30.114622320235863	3.2128427	1.7924404
30.132772604277257	3.23969	1.7999139
30.1509236622349	3.2592561	1.805341
30.16907549466328	3.1058981	1.7623558
30.18722810211705	3.0366344	1.7425941
30.205381485151097	3.0669308	1.7512655
30.22353564432045	3.048816	1.7460859
30.241690580180403	3.020656	1.7380035
30.25984629328638	3.0130312	1.7358085
30.278002784194037	3.0579894	1.7487108
30.296160053459246	3.0901408	1.7578796
30.314318101638033	3.0270693	1.7398475
30.332476929286646	2.933519	1.7127519
30.35063653696153	2.8937275	1.7010959
30.368796925219307	2.8954153	1.701592
30.386958094616844	2.9317653	1.7122399
30.40512004571115	2.9271734	1.7108984
30.423282779059463	2.8952765	1.7015512
30.441446295219233	2.917623	1.7081051
30.459610594748067	2.9154723	1.7074754
30.47777567820382	2.8836877	1.6981424
30.495941546144504	2.841911	1.6857969
30.51410819912835	2.795563	1.6719937
30.532275637713795	2.8318303	1.6828042
30.55044386245946	2.8205261	1.6794422
30.56861287392416	2.7918258	1.6708758
30.586782672666956	2.7826488	1.6681273
30.604953259247047	2.808062	1.6757274
30.623124634223885	2.8138433	1.6774514
30.641296798157075	2.8190134	1.6789918
30.659469751606462	2.7974598	1.6725608
30.677643495132074	2.7783046	1.6668247
30.695818029294152	2.767239	1.6635021
30.713993354653116	2.693897	1.6413095
30.73216947176962	2.6781662	1.6365104
30.75034638120448	2.7289839	1.6519636
30.768524083518756	2.8151155	1.6778306
30.786702579273673	2.8247588	1.6807019
30.80488186903069	2.8397841	1.6851659
30.82306195335144	2.8927372	1.7008048
30.841242832797782	3.0608351	1.7495242
30.85942450793176	3.39857	1.8435211
30.877606979315637	3.7169905	1.9279498
30.895790247511883	4.066139	2.016467
30.913974313083134	4.4889736	2.1187198
30.932159176592283	4.8593273	2.2043881
30.95034483860237	4.9758973	2.230672
30.968531299676698	4.8127203	2.1937914
30.98671856037873	4.486914	2.1182337
31.00490662127215	4.059011	2.0146987
31.023095482920848	3.5803316	1.8921764
31.04128514588892	3.0807724	1.7552129
31.059475610740662	2.8513753	1.6886016
31.07766687804056	2.708419	1.6457275
31.09585894835335	2.596883	1.6114848
31.11405182224393	2.4478993	1.5645764
31.132245500277417	2.356163	1.5349798
31.15043998301914	2.3330004	1.5274162
31.168635271034628	2.358347	1.535691
31.18683136488964	2.4122267	1.5531344
31.20502826515008	2.4531112	1.5662411
31.223225972382135	2.432552	1.5596641
31.241424487152155	2.390238	1.5460395
31.259623810026692	2.4070354	1.5514623
31.27782394157253	2.4753914	1.5733377
31.296024882356644	2.543023	1.5946859
31.314226632946237	2.516151	1.586238
31.332429193908684	2.50901	1.5839854
31.350632565811598	2.521361	1.5878794
31.368836749222787	2.4748268	1.5731583
31.387041744710295	2.4749804	1.573207
31.40524755284232	2.4514022	1.5656954
31.423454174187317	2.5224407	1.5882193
31.441661609313922	2.5625558	1.6007985
31.459869858791002	2.4831457	1.5758001
31.478078923187628	2.4289763	1.5585173
31.496288803073064	2.4236183	1.5567975
31.514499499016807	2.4023476	1.5499508
31.532711011588546	2.3792431	1.5424795
31.550923341358178	2.3501446	1.5330181
31.56913648889584	2.3325868	1.5272808
31.587350454771844	2.2583144	1.5027689
31.605565239556732	2.2739544	1.5079637
31.62378084382127	2.3474305	1.5321326
31.641997268136382	2.3741333	1.5408223
31.660214513073274	2.4242725	1.5570076
31.67843257920331	2.3089445	1.5195211
31.6966514670981	2.2926495	1.5141498
31.71487117732944	2.2883773	1.5127383
31.733091710469346	2.2467523	1.498917
31.751313067090052	2.1987803	1.4828285
31.769535247764008	2.2232215	1.4910471
31.787758253063878	2.2397387	1.4965757
31.805982083562526	2.3323371	1.5271991
31.824206739833024	2.2760725	1.5086658
31.84243222244869	2.2533135	1.5011041
31.860658531983013	2.2355368	1.4951712
31.878885669009737	2.2827713	1.5108843
31.897113634102784	2.329035	1.5261177
31.91534242783632	2.3026779	1.5174577
31.933572050784694	2.1978536	1.4825159
31.951802503522508	2.1760774	1.4751533
31.970033786624548	2.1991806	1.4829634
31.988265900665834	2.1845114	1.4780092
32.006498846221575	2.1556156	1.4682015
32.02473262386724	2.1503267	1.4663992
32.04296723417845	2.2116814	1.4871722
32.0612026777311	2.2084475	1.4860846
32.07943895510129	2.2324455	1.494137
32.097676066865304	2.2774613	1.509126
32.115914013599685	2.2441463	1.4980475
32.13415279588115	2.254676	1.501558
32.152392414286666	2.25738	1.502458
32.1706328693934	2.2623708	1.504118
32.18887416177875	2.1573064	1.4687772
32.20711629202032	2.1212125	1.4564383
32.225359260695924	2.1552112	1.4680637
32.243603068383614	2.1639051	1.4710218
32.26184771566166	2.1372848	1.4619455
32.28009320310852	2.091527	1.4462112
32.2983395313029	1.9995838	1.4140664
32.31658670082372	2.0400593	1.4283065
32.33483471225012	2.1398358	1.4628178
32.35308356616143	2.149331	1.4660597
32.371333263137245	2.1710765	1.4734573
32.38958380375734	2.174903	1.4747552
32.407835188601744	2.0829446	1.443241
32.42608741825067	1.9869323	1.4095858
32.444340493284585	2.0124695	1.4186153
32.46259441428416	2.067322	1.4378185
32.48084918183028	2.0797014	1.442117
32.49910479650405	2.0461645	1.4304421
32.51736125888683	2.0609882	1.4356142
32.53561856956014	2.0861425	1.4443485
32.5538767291058	2.085205	1.444024
32.572135738105764	2.0614223	1.4357654
32.59039559714228	2.0526495	1.4327071
32.608656306797776	2.0581076	1.4346106
32.62691786765491	2.1050005	1.4508619
32.645180280296586	2.019815	1.421202
32.663443545305896	2.0256503	1.4232534
32.68170766326619	2.067799	1.4379843
32.69997263476099	2.036081	1.4269131
32.7182384603741	1.9755635	1.4055474
32.7365051406895	1.9460839	1.3950211
32.75477267629144	1.9068774	1.3808973
32.77304106776434	1.9451234	1.3946768
32.79131031569289	2.0146384	1.4193796
32.809580420661966	1.99339	1.4118747
32.827851383256714	1.9676017	1.4027122
32.84612320406245	2.0323048	1.4255893
32.86439588366476	1.958076	1.3993127
32.88266942264945	1.918573	1.3851256
32.9009438216025	1.9828238	1.4081278
32.9192190811102	2.0495114	1.4316115
32.937495201758985	1.9895227	1.4105045
32.95577218413556	1.9514515	1.3969437
32.974050028826866	1.9772186	1.406136
32.992328736420035	1.9470632	1.395372
33.010608307502444	1.9024436	1.3792909
33.02888874266169	1.9169527	1.3845407
33.047170042485604	1.9331733	1.390386
33.06545220756225	1.9292053	1.3889583
33.083735238479896	1.9082199	1.3813833
33.10201913582707	1.8631111	1.3649583
33.12030390019248	1.9581395	1.3993354
33.138589532165135	2.0051193	1.4160223
33.15687603233419	1.977428	1.4062105
33.17516340128909	1.9423203	1.3936715
33.19345163961947	1.9468226	1.3952858
33.211740747915215	1.925734	1.3877082
33.23003072676643	1.9701883	1.403634
33.248321576763466	1.9832833	1.4082909
33.266613298496885	1.9627765	1.4009913
33.28490589255747	1.911828	1.3826886
33.30319935953626	1.9796071	1.4069852
33.32149370002451	2.0084078	1.417183
33.339788914613706	1.9608332	1.4002975
33.358085003895575	1.9174312	1.3847134
33.376381968462034	2.047683	1.4309727
33.39467980890529	2.1057706	1.4511274
33.41297852581774	2.0041025	1.4156632
33.43127811979204	1.9757332	1.4056077
33.44957859142105	1.993974	1.4120815
33.467879941297866	1.9842594	1.4086374
33.486182170015844	1.9413844	1.3933357
33.50448527816853	1.8769853	1.3700311
33.522789266349754	1.806643	1.3441142
33.541094135153514	1.8090829	1.3450215
33.55939988517411	1.9216307	1.3862289
33.57770651700602	1.8810073	1.3714982
33.59601403124398	1.936975	1.3917525
33.61432242848296	1.9483788	1.3958434
33.632631709318154	1.863976	1.365275
33.650941874344994	1.9609365	1.4003345
33.66925292415916	2.0889857	1.4453324
33.68756485935654	2.0231767	1.4223841
33.70587768053328	1.9343305	1.3908021
33.724191388285746	1.946863	1.3953004
33.74250598321054	1.9813505	1.4076046
33.760821465904506	1.9677852	1.4027777
33.77913783696474	1.9162624	1.3842913
33.79745509698852	1.8639269	1.365257
33.815773246573414	1.8438469	1.3578832
33.8340922863172	1.9230584	1.3867438
33.852412216817896	1.9326679	1.3902042
33.87073303867377	1.9567817	1.3988502
33.889054752483304	1.9001329	1.3784531
33.907377358845245	1.8323286	1.3536353
33.92570085835853	1.9131491	1.3831663
33.94402525162239	2.0046957	1.4158728
33.96235053923627	2.0253036	1.4231316
33.980676721799824	1.9826256	1.4080573
33.999003799912984	1.9205854	1.3858519
34.01733177417592	1.9632056	1.4011444
34.03566064518901	2.0002387	1.4142979
34.0539904135529	1.9562495	1.39866
34.07232107986846	1.8840283	1.3725991
34.090652644736785	1.9788349	1.4067106
34.108985108759235	1.9935783	1.4119413
34.12731847253742	1.9828362	1.4081322
34.14565273667313	2.0096068	1.417606
34.16398790176847	1.9091877	1.3817335
34.18232396842574	1.9199684	1.3856292
34.20066093724749	1.9292203	1.3889637
34.21899880883651	1.9199945	1.3856386
34.23733758379583	1.897134	1.3773649
34.25567726272874	1.9255615	1.3876461
34.27401784623872	1.7943947	1.3395503
34.29235933492957	1.7433863	1.3203735
34.31070172940526	1.7989434	1.341247
34.32904503027003	1.9701177	1.4036088
34.347389238128386	2.0781217	1.4415692
34.36573435358502	2.0289304	1.4244053
34.38408037724492	1.9263754	1.3879392
34.402427309713296	1.8745046	1.3691255
34.42077515159559	1.9886463	1.4101937
34.43912390349752	1.9071244	1.3809867
34.45747356602499	1.8078481	1.3445624
34.47582413978423	1.8931258	1.3759091
34.49417562538163	1.9146043	1.3836923
34.51252802342388	1.9410282	1.3932079
34.53088133451789	1.9675323	1.4026875
34.54923555927084	1.9956145	1.4126623
34.567590698290104	2.0105758	1.4179478
34.58594675218336	2.0772512	1.4412673
34.6043037215585	2.0224736	1.422137
34.62266160702365	1.9116069	1.3826088
34.641020409187234	1.8190043	1.3487047
34.65938012865785	1.8908672	1.3750881
34.677740766044394	1.9931703	1.4117968
34.69610232195598	1.9225298	1.3865532
34.714464797002016	1.9323268	1.3900815
34.73282819179208	2.034262	1.4262755
34.751192506936064	2.1424417	1.4637082
34.76955774304408	2.1171236	1.4550339
34.7879239007265	2.0387394	1.4278443
34.80629098059391	2.0322428	1.4255675
34.824658983257194	2.0406978	1.42853
34.843027909327446	2.1359208	1.461479
34.86139775941603	2.056689	1.4341161
34.879768534134534	1.7693192	1.3301575
34.89814023409483	1.7872679	1.3368874
34.91651285990901	1.8416793	1.3570849
34.93488641218944	1.7630979	1.327817
34.95326089154871	1.725275	1.3134973
34.97163629859967	1.8855224	1.3731432
34.99001263395542	2.0443742	1.4298161
35.00838989822934	2.1670747	1.4720987
35.02676809203499	2.2565427	1.5021793
35.04514721598624	2.3671772	1.5385634
35.063527270697215	2.243941	1.497979
35.081908256782256	2.0567427	1.4341348
35.10029017485597	1.9101887	1.3820958
35.11867302553321	1.8539456	1.3615967
35.137056809429104	1.7071632	1.3065846
35.155441527159006	1.9203073	1.3857515
35.173827179338524	2.2515764	1.5005254
35.19221376658354	2.289739	1.5131884
35.21060128951017	2.1639304	1.4710304
35.2289897487348	2.3547812	1.5345296
35.24737914487405	2.3034694	1.5177184
35.26576947854479	2.000346	1.4143358
35.28416075036418	1.8891788	1.374474
35.30255296094958	1.7122104	1.3085146
35.32094611091867	1.760625	1.3268855
35.33934020088932	1.8085436	1.344821
35.35773523147969	1.6321411	1.2775527
35.3761312033082	1.7013673	1.3043647
35.394528116993506	2.388282	1.5454068
35.41292597315452	2.8445191	1.6865703
35.431324772410434	2.5716279	1.6036296
35.449724515380666	2.3896253	1.5458413
35.46812520268491	2.684074	1.6383144
35.486526834943106	2.7535684	1.659388
35.504929412775454	2.423381	1.5567212
35.52333293680242	1.9299093	1.3892118
35.54173740764471	1.7768437	1.332983
35.560142825923286	1.804577	1.3433454
35.5785491922594	2.214741	1.4882005
35.59695650727454	2.3995194	1.5490383
35.61536477159042	1.6131138	1.2700841
