0.008763373481513119	0.051685803	0.22734512
0.026290120649546365	0.18429624	0.4292974
0.043816868432600686	0.12367553	0.35167533
0.06134361724069026	0.10256808	0.32026252
0.07887036748382949	0.09412469	0.30679747
0.0963971195720331	0.116477706	0.3412883
0.11392387391531617	0.11612325	0.3407686
0.1314506309236943	0.13563864	0.36829153
0.1489773910071836	0.18673308	0.43212622
0.16650415457580078	0.15911298	0.3988897
0.18403092203956356	0.15597855	0.39494118
0.20155769380849	0.13545673	0.36804447
0.2190844702925996	0.121074304	0.34795734
0.2366112519019124	0.13841663	0.37204385
0.2541380390464497	0.13414429	0.36625713
0.27166483213623416	0.16333213	0.4041437
0.28919163158128947	0.13418284	0.36630976
0.3067184377916406	0.09704355	0.31151813
0.324245251177314	0.083563775	0.289074
0.34177207214833777	0.09307905	0.3050886
0.3592989011147415	0.119760826	0.34606478
0.37682573848655654	0.13404843	0.36612624
0.39435258467381573	0.15254964	0.39057603
0.41187944008655414	0.15285856	0.3909713
0.42940630513480854	0.14160535	0.37630486
0.446933180228618	0.14671934	0.3830396
0.4644600657780234	0.15305321	0.39122015
0.48198696219306775	0.15531455	0.39409968
0.49951386988379676	0.16120599	0.40150467
0.5170407892602581	0.16054767	0.400684
0.5345677207325025	0.15906249	0.3988264
0.5520946647105822	0.18069303	0.42508003
0.5696216216045534	0.16804388	0.40993157
0.5871485918244737	0.17937219	0.42352355
0.6046755757804043	0.1624856	0.40309504
0.6222025738824094	0.1491886	0.3862494
0.6397295865405557	0.16099037	0.40123606
0.6572566141649129	0.1908035	0.43681058
0.6747836571655547	0.21321587	0.46175304
0.6923107159525568	0.19827002	0.44527522
0.7098377909359992	0.17175782	0.41443676
0.7273648825259653	0.15330131	0.39153713
0.7448919911325411	0.17609763	0.4196399
0.762419117165817	0.20783721	0.45589167
0.7799462610358868	0.23803331	0.48788658
0.7974734231528482	0.27473694	0.52415353
0.8150006039268024	0.24677321	0.49676272
0.8325278037678551	0.22124958	0.47037175
0.8500550230861152	0.18633378	0.43166396
0.8675822622916969	0.18756548	0.4330883
0.8851095217947171	0.23897697	0.4888527
0.9026368020052984	0.26248565	0.5123335
0.9201641033335665	0.25094068	0.5009398
0.9376914261896523	0.20840614	0.45651522
0.9552187709836915	0.19536869	0.4420053
0.9727461381258234	0.21711391	0.46595484
0.990273528026193	0.25149214	0.50148994
1.0078009410949496	0.246902	0.49689233
1.0253283777422473	0.2936628	0.5419066
1.0428558383782454	0.3344334	0.5783022
1.0603833234131086	0.36994302	0.6082294
1.0779108332570058	0.34731644	0.5893356
1.0954383683201119	0.3245328	0.5696778
1.112965929012607	0.35953698	0.599614
1.1304935157446763	0.43394673	0.6587463
1.1480211289265108	0.4634662	0.6807835
1.1655487689683062	1.4415832	1.2006595
1.1830764362802655	1.7743556	1.3320494
1.200604131272596	2.2029843	1.4842454
1.2181318543555117	2.370787	1.539736
1.235659605939232	2.3096967	1.5197686
1.253187386433982	3.8075097	1.951284
1.270715196249994	6.2349663	2.4969914
1.2882430357975057	11.9476595	3.4565387
1.3057709054867608	17.025394	4.126184
1.3232988057280106	22.8181	4.7768297
1.3408267369315112	27.492868	5.2433643
1.358354699507526	30.645327	5.535822
1.3758826938663256	34.347168	5.860646
1.3934107204181858	36.54189	6.0449886
1.410938779573391	37.052544	6.08708
1.4284668717422309	38.175797	6.1786566
1.4459949973350033	37.532757	6.1263986
1.4635231567620117	37.48751	6.1227045
1.4810513504335687	36.682384	6.0565987
1.4985795787599925	36.02204	6.0018363
1.5161078421516088	35.664055	5.971939
1.5336361410187505	34.90003	5.9076247
1.5511644757717598	34.95095	5.911933
1.5686928468209842	35.666603	5.972152
1.58622125457678	36.096085	6.008002
1.6037496994495108	37.15816	6.0957494
1.621278181849548	37.103336	6.091251
1.6388067021872719	38.032997	6.16709
1.6563352608730693	37.379246	6.113857
1.673863858317336	36.45404	6.0377183
1.6913924949304753	36.010765	6.000897
1.7089211711228998	34.811726	5.900146
1.7264498873050296	34.19847	5.8479457
1.7439786438872935	33.247887	5.766098
1.7615074412801288	32.333485	5.686254
1.779036279893981	31.319674	5.5963984
1.796565160139305	30.219643	5.4972396
1.814094082426564	29.3938	5.421605
1.8316230471662298	28.624895	5.350224
1.849152054768784	27.91022	5.2830124
1.8666811056447168	27.578512	5.251525
1.8842102002045273	26.98734	5.1949344
1.901739338858724	26.686579	5.1659055
1.9192685220178245	26.165388	5.1152115
1.9367977500923557	25.402365	5.040076
1.9543270234928547	24.914124	4.991405
1.971856342629867	24.425598	4.942226
1.9893857079139496	23.671154	4.865301
2.006915119755667	23.05022	4.8010645
2.0244445785655945	22.141912	4.705519
2.0419740847543175	21.717201	4.660172
2.0595036387324317	21.443977	4.630764
2.0770332409105414	21.347881	4.6203766
2.094562891699263	21.25738	4.610573
2.1120925915092217	20.665966	4.5459833
2.129622340751053	20.116762	4.4851713
2.1471521398354043	188.13057	13.71607
2.1646819891729323	444.50232	21.083223
2.182211889174303	440.63327	20.991266
2.1997418402501974	453.107	21.28631
2.2172718428113023	433.12546	20.811666
2.234801897268317	320.8525	17.912355
2.2523320040319548	17.081217	4.1329427
2.269862163512935	16.666924	4.0825143
2.287392376121992	16.386438	4.0480165
2.304922642269869	16.160393	4.019999
2.322452962367322	15.744301	3.9679089
2.3399833368251164	15.412455	3.92587
2.357513766054032	15.295717	3.910974
2.3750442504648586	15.038505	3.8779511
2.3925747904683963	14.733342	3.8384037
2.410105386475459	14.393073	3.7938204
2.4276360388968707	13.991157	3.7404754
2.445166748143469	14.100332	3.755041
2.4626975146261025	13.954131	3.735523
2.4802283387556323	13.737671	3.7064364
2.4977592209429305	13.42175	3.6635706
2.5152901615988825	13.08789	3.617719
2.5328211611343865	13.055009	3.6131716
2.5503522199603523	12.877608	3.5885384
2.5678833384877024	12.636615	3.5548017
2.5854145171273712	12.279255	3.5041769
2.6029457562903064	11.951128	3.4570403
2.620477056387469	11.753345	3.4283152
2.6380084178298326	11.80346	3.4356165
2.655539841028383	11.72831	3.4246619
2.673071326394119	11.414443	3.3785267
2.6906028743380523	11.051553	3.3243876
2.708134485271211	10.647752	3.2630894
2.7256661596046325	10.510375	3.2419708
2.743197897749369	10.530179	3.2450237
2.760729700116486	10.6393795	3.2618062
2.778261567117063	10.410211	3.2264857
2.795793499162193	10.257557	3.202742
2.8133254966629817	10.192771	3.192612
2.830857560030551	9.99847	3.1620357
2.8483896896760337	9.829407	3.1351886
2.865921886010578	9.586836	3.0962615
2.883454149445347	9.453172	3.0746012
2.9009864803915177	9.371393	3.061273
2.91851887926028	9.213546	3.0353823
2.9360513464628384	9.159468	3.0264614
2.953583882410413	9.002924	3.0004873
2.9711164875142373	8.972626	2.995434
2.9886491621855606	8.945856	2.9909625
3.0061819068356455	8.779801	2.963073
3.023714721875769	8.597393	2.932131
3.041247607717225	8.376563	2.8942292
3.0587805647713213	8.281258	2.8777175
3.0763135934493806	8.22026	2.8670995
3.0938466941627407	8.143094	2.8536108
3.1113798673227544	8.02803	2.8333778
3.1289131133407904	7.9093547	2.8123574
3.1464464326282315	7.7455463	2.7830822
3.1639798255964786	7.7539926	2.784599
3.1815132926569443	7.6529427	2.7663953
3.1990468342210603	7.6346517	2.7630873
3.216580450700272	7.569905	2.751346
3.2341141425060416	7.513972	2.7411625
3.251647910049847	7.401052	2.7204874
3.2691817537431813	7.2782006	2.697814
3.286715673997555	7.2770114	2.6975937
3.3042496712244938	7.211964	2.68551
3.32178374583554	7.104868	2.6654959
3.339317898242251	6.8968153	2.6261787
3.3568521288562034	6.7412705	2.5963957
3.3743864380889876	6.654122	2.5795584
3.3919208263522127	6.6126866	2.5715144
3.4094552940575023	6.6011667	2.5692735
3.4269898416164972	6.6481633	2.5784032
3.444524469440858	6.7357306	2.5953286
3.4620591779422587	6.588272	2.566763
3.479593967532391	6.551561	2.5596018
3.4971288386229658	6.443994	2.5385022
3.5146637916257086	6.446235	2.5389438
3.5321988269523628	6.3692336	2.523734
3.5497339450146903	6.2726326	2.5045223
3.5672691462244708	6.400668	2.5299542
3.5848044309934988	6.3984575	2.5295172
3.60233979973359	6.356848	2.521279
3.619875252856575	6.2938175	2.5087483
3.6374107907743034	6.1470556	2.4793255
3.6549464138986427	6.197171	2.4894118
3.6724821226414788	6.1595244	2.481839
3.690017917414714	6.2331853	2.4966347
3.7075537986302702	6.2919536	2.5083766
3.7250897667000857	6.3284693	2.5156448
3.7426258220361235	6.503686	2.5502324
3.7601619650503553	6.847714	2.6168137
3.777698196154779	7.430838	2.7259564
3.7952345157614067	8.537426	2.9218874
3.8127709242822716	9.399326	3.0658321
3.830307422129425	11.730338	3.4249582
3.847844009714936	30.476078	5.5205145
3.8653806874508954	97.87157	9.893006
3.882917455749409	97.014984	9.849619
3.900454315022606	96.73514	9.8354025
3.917991265682631	41.220173	6.420294
3.9355283081416506	10.87689	3.298013
3.9530654428118495	8.607874	2.9339178
3.970602670105433	7.4297543	2.7257576
3.9881399904346244	6.543041	2.557937
4.005677404211669	6.475531	2.5447066
4.023214911848827	6.390563	2.5279562
4.0407525137583855	6.227316	2.495459
4.058290210352644	6.21461	2.492912
4.075828002043927	6.118531	2.4735665
4.0933658892445814	6.1986327	2.4897053
4.110903872366966	6.257698	2.5015392
4.128441951823468	6.253919	2.5007837
4.145980128026488	6.264239	2.5028462
4.163518401388452	6.1426497	2.478437
4.181056772321807	6.084508	2.4666796
4.1985952412390155	6.163332	2.482606
4.216133808552567	6.1422386	2.478354
4.233672474674966	6.253552	2.5007102
4.251211240018741	6.4039707	2.5306067
4.268750104996445	6.674882	2.5835793
4.286289070020643	7.665441	2.7686534
4.303828135503928	9.337394	3.0557148
4.3213673018589125	29.55377	5.436338
4.3389065694982305	90.64581	9.520809
4.356445938834537	165.805	12.876529
4.3739854102805085	171.0443	13.07839
4.391524984248844	172.07393	13.117695
4.409064661152262	136.37328	11.6778965
4.426604441403504	96.79033	9.838207
4.444144325415337	75.98602	8.716996
4.461684313600543	21.79529	4.6685424
4.47922440637193	22.241077	4.716045
4.496764604142329	20.628159	4.5418234
4.5143049073245916	18.807648	4.3367786
4.531845316331589	16.6762	4.0836506
4.5493858315762195	13.629715	3.6918445
4.566926453471405	11.140702	3.337769
4.584467182430081	9.167567	3.0277991
4.602008018865218	8.050598	2.8373575
4.619548963189798	7.4124155	2.7225752
4.637090015816834	6.8683825	2.62076
4.654631177159353	6.6449	2.5777702
4.672172447630417	6.446917	2.539078
4.689713827643102	6.2773867	2.5054712
4.7072553176105085	6.0082645	2.4511762
4.724796917945764	5.841765	2.4169743
4.742338629062015	5.763487	2.4007263
4.759880451372434	5.69883	2.3872223
4.777422385290215	5.664307	2.3799806
4.794964431228581	5.632926	2.3733785
4.812506589600768	5.763284	2.400684
4.830048860820047	5.7876678	2.4057572
4.847591245299709	5.773798	2.4028728
4.8651337434530655	5.671716	2.3815365
4.882676355693457	5.6088405	2.368299
4.900219082434242	5.6085057	2.3682284
4.917761924088813	5.508332	2.3469834
4.935304881070575	5.4742265	2.3397064
4.952847953792969	5.491094	2.3433084
4.970391142669449	5.492243	2.3435535
4.9879344481135055	5.502412	2.345722
5.005477870538642	5.5209928	2.3496792
5.023021410358394	5.510013	2.3473418
5.040565067986324	5.429849	2.3302038
5.05810884383601	5.3449035	2.3119047
5.075652738321066	5.321488	2.306835
5.09319675185512	5.303675	2.302971
5.110740884851836	5.350963	2.3132148
5.128285137724894	5.4110956	2.3261762
5.145829510888007	5.4419847	2.332806
5.163374004754908	5.3802714	2.3195412
5.1809186197393595	5.3143263	2.3052824
5.198463356255145	5.2626634	2.2940495
5.216008214716077	5.302676	2.3027542
5.233553195535998	5.3332677	2.309387
5.251098299128764	5.3148956	2.3054059
5.268643525908272	5.2705173	2.2957606
5.286188876288432	5.250577	2.2914138
5.3037343506831895	5.231063	2.2871518
5.32127994950651	5.2188854	2.284488
5.3388256731723915	5.2318225	2.2873178
5.356371522094851	5.226235	2.286096
5.373917496687938	5.205824	2.2816274
5.391463597365729	5.217113	2.2841
5.40900982454232	5.2359614	2.2882223
5.426556178631843	5.2389154	2.2888677
5.444102660048449	5.148509	2.2690327
5.4616492692063225	5.086581	2.255345
5.479196006519669	5.039483	2.2448792
5.496742872402727	5.0599127	2.249425
5.514289867269756	5.152636	2.2699418
5.531836991535049	5.237848	2.2886345
5.549384245612924	5.2418365	2.2895057
5.566931629917724	5.1518946	2.2697785
5.584479144863822	5.1360407	2.2662835
5.6020267908656205	5.1497936	2.2693157
5.619574568337545	5.1775165	2.2754157
5.637122477694054	5.170459	2.2738643
5.654670519349629	5.1296725	2.264878
5.672218693718784	5.061546	2.249788
5.689767001216059	5.050678	2.2473712
5.707315442256021	5.125041	2.2638555
5.724864017253266	5.170572	2.273889
5.7424127266224225	5.2118673	2.2829514
5.75996157077814	5.169309	2.2736115
5.777510550135105	5.1021857	2.258802
5.795059665108022	5.1318755	2.2653644
5.812608916111639	5.181423	2.276274
5.830158303560715	5.3265862	2.3079398
5.847707827870055	5.338486	2.3105164
5.86525748945448	5.37036	2.3174038
5.8828072887288485	5.4212646	2.328361
5.900357226108044	5.4734225	2.3395348
5.917907302006979	5.6409965	2.3750782
5.9354575168406	6.3957443	2.528981
5.9530078710238765	7.0045424	2.6466095
5.970558364971812	7.526159	2.7433846
5.988108999099438	7.7891493	2.7909048
6.005659773821818	8.3265	2.8855674
6.023210689554039	8.120656	2.8496764
6.040761746711227	8.615818	2.9352713
6.058312945708531	8.020637	2.8320727
6.075864286961132	7.4656415	2.7323327
6.093415770884244	6.7190337	2.59211
6.1109673978931065	6.080593	2.4658859
6.128519168402993	5.503432	2.3459394
6.146071082829204	5.308179	2.3039486
6.163623141587075	5.2320757	2.287373
6.181175345091969	5.246089	2.2904341
6.198727693759281	5.2699957	2.2956471
6.216280188004435	5.231076	2.2871544
6.233832828242885	5.1349254	2.2660375
6.251385614890126	5.193995	2.279034
6.268938548361669	5.200703	2.280505
6.286491629073067	5.1262984	2.264133
6.304044857439898	5.0738163	2.2525134
6.321598233877777	5.066316	2.2508478
6.339151758802344	5.1263547	2.2641454
6.356705432629277	5.1304517	2.26505
6.37425925577428	5.119655	2.2626655
6.391813228653095	5.030213	2.2428136
6.409367351681486	4.961323	2.2274027
6.426921625275259	5.00804	2.237865
6.44447604985025	5.082775	2.254501
6.46203062582232	5.061473	2.2497718
6.47958535360737	5.0234942	2.2413154
6.497140233621328	4.9974174	2.2354903
6.514695266280161	5.017972	2.240083
6.532250451999859	5.0793943	2.2537513
6.549805791196454	5.101496	2.258649
6.567361284286002	5.1141543	2.2614496
6.584916931684597	5.0968223	2.2576144
6.602472733808367	5.026343	2.2419508
6.6200286910734665	5.022008	2.2409837
6.637584803896092	4.97456	2.2303722
6.655141072692462	4.9683294	2.228975
6.672697497878842	4.9535475	2.2256567
6.690254079871514	4.977401	2.231009
6.707810819086808	5.0208735	2.2407305
6.725367715941078	5.0314517	2.2430897
6.742924770850719	4.994818	2.234909
6.760481984232151	4.9443197	2.2235827
6.778039356501836	4.894959	2.2124555
6.795596888076266	4.9256277	2.2193756
6.813154579371963	4.9513936	2.2251728
6.830712430805492	4.9910135	2.2340577
6.84827044279344	4.9448557	2.2237031
6.865828615752445	4.9463573	2.2240407
6.883386950099159	4.9375024	2.2220492
6.900945446250287	4.939881	2.2225842
6.918504104622553	4.922339	2.2186344
6.936062925632727	4.9519844	2.2253056
6.953621909697607	5.0077624	2.237803
6.971181057234028	5.062391	2.2499757
6.988740368658859	5.152833	2.2699852
7.006299844389007	5.2370214	2.288454
7.023859484841407	5.2883	2.2996304
7.041419290433036	5.3394966	2.310735
7.058979261580902	5.4692793	2.338649
7.0765393987020495	5.669542	2.38108
7.094099702213559	6.0314183	2.4558947
7.111660172532549	6.367429	2.5233765
7.129220810076164	6.7116575	2.5906868
7.146781615261595	7.170733	2.6778224
7.16434258850606	7.3882504	2.7181337
7.181903730226821	7.8229065	2.7969458
7.1994650408411704	8.079638	2.8424704
7.217026520766437	8.299153	2.880825
7.234588170419983	8.530414	2.9206872
7.252149990219215	8.523256	2.9194617
7.269711980581568	8.405067	2.8991494
7.2872741419245175	8.224428	2.8678265
7.304836474665574	7.880018	2.807137
7.322398979222286	7.4895773	2.736709
7.339961656012233	7.24995	2.692573
7.357524505453039	6.873787	2.621791
7.375087527962357	6.5449347	2.558307
7.392650723957886	6.2132397	2.4926372
7.410214093857353	5.8696547	2.4227371
7.427777638078528	5.7284083	2.3934093
7.445341357039213	5.601455	2.3667393
7.4629052511572525	5.4623575	2.3371687
7.480469320850524	5.32704	2.3080382
7.498033566536948	5.199252	2.280187
7.5155979886344735	5.1574535	2.2710028
7.5331625875610975	5.120403	2.2628307
7.550727363734844	5.0718126	2.2520685
7.568292317573788	5.1462526	2.2685354
7.585857449496025	5.191042	2.2783859
7.603422759919705	5.210972	2.2827554
7.620988249263007	5.2195573	2.284635
7.638553917944147	5.1621423	2.272035
7.656119766381391	5.1419067	2.2675772
7.673685794993023	5.101233	2.258591
7.691252004197388	5.1364336	2.26637
7.70881839441285	5.142442	2.2676954
7.726384966057826	5.1652627	2.2727215
7.743951719550762	5.2067432	2.2818289
7.761518655310149	5.2666016	2.2949078
7.779085773754511	5.3395467	2.310746
7.796653075302419	5.3605247	2.3152807
7.814220560372475	5.3685966	2.3170233
7.831788229383323	5.3553863	2.3141708
7.8493560827536495	5.3147707	2.3053787
7.866924120902174	5.3611984	2.315426
7.884492344247663	5.414447	2.3268964
7.9020607532089135	5.488767	2.3428118
7.919629348204771	5.5036116	2.3459778
7.937198129654115	5.4980845	2.3447995
7.954767097975865	5.4405036	2.3324888
7.972336253588986	5.4173503	2.3275201
7.989905596912472	5.499778	2.3451605
8.007475128365371	5.48035	2.3410146
8.025044848366756	5.47361	2.3395748
8.042614757335754	5.5024557	2.3457315
8.060184855691523	5.5498443	2.3558106
8.07775514385327	5.701806	2.3878455
8.095325622240228	5.7578387	2.3995497
8.112896291271687	5.8690615	2.4226146
8.130467151366968	5.9195795	2.4330187
8.148038202945436	5.9201407	2.4331338
8.165609446426497	5.863695	2.421507
8.183180882229594	5.90003	2.4289978
8.200752510774217	5.917863	2.4326658
8.218324332479893	5.9011526	2.4292288
8.235896347766193	5.887121	2.4263391
8.253468557052724	5.8468895	2.4180343
8.27104096075914	5.898821	2.4287488
8.288613559305137	5.9811473	2.4456384
8.306186353110448	6.131185	2.476123
8.32375934259485	6.208848	2.491756
8.341332528178162	6.2173643	2.4934642
8.358905910280246	6.262284	2.5024555
8.376479489321003	6.2951374	2.5090113
8.394053265720377	6.3767433	2.5252213
8.411627239898356	6.354357	2.5207849
8.42920141227497	6.3443446	2.5187984
8.44677578327029	6.3071923	2.5114124
8.464350353304427	6.252283	2.5004566
8.48192512279754	6.2095723	2.4919014
8.499500092169827	6.1854763	2.4870617
8.51707526184153	6.1957674	2.4891298
8.534650632232934	6.2789145	2.5057762
8.552226203764365	6.301023	2.5101838
8.569801976856192	6.2477736	2.4995546
8.587377951928834	6.219554	2.4939034
8.60495412940274	6.2743325	2.5048618
8.622530509698416	6.347477	2.51942
8.6401070932364	6.445106	2.5387213
8.657683880437283	6.5844817	2.5660245
8.675260871721695	6.726212	2.5934942
8.692838067510303	6.8808017	2.6231282
8.710415468223834	7.0496507	2.6551178
8.727993074283043	7.175699	2.6787496
8.745570886108737	7.180224	2.679594
8.763148904121765	7.2413983	2.6909847
8.78072712874302	7.2407026	2.6908553
8.798305560393441	7.4037533	2.720984
8.815884199494006	7.4489303	2.7292728
8.833463046465745	7.582643	2.75366
8.851042101729728	7.8074975	2.79419
8.86862136570707	8.124929	2.8504262
8.886200838818924	8.317958	2.884087
8.903780521486505	8.338066	2.8875709
8.921360414131055	8.473576	2.9109406
8.938940517173874	8.568578	2.9272132
8.956520831036297	8.714525	2.9520376
8.97410135613971	9.00356	3.0005932
8.99168209290554	9.155172	3.0257516
9.009263041755265	9.448017	3.0737627
9.026844203110405	9.681906	3.111576
9.044425577392525	9.897681	3.146058
9.062007165023239	9.963698	3.1565328
9.079588966424197	10.243857	3.2006028
9.097170982017108	10.373791	3.2208369
9.11475321222372	11.501697	3.391415
9.132335657465825	12.380586	3.5186057
9.149918318165264	12.509847	3.5369263
9.167501194743924	13.192184	3.6321046
9.18508428762374	12.869233	3.5873713
9.202667597226693	12.842016	3.583576
9.220251123974803	12.4443655	3.5276573
9.237834868290143	12.101092	3.4786625
9.255418830594836	11.962019	3.458615
9.273003011311046	11.479751	3.388178
9.290587410860985	11.244333	3.3532572
9.308172029666911	10.520182	3.243483
9.32575686815113	10.222498	3.1972642
9.343341926735997	8.773959	2.962087
9.360927205843916	8.502018	2.915822
9.378512705897327	8.241692	2.8708346
9.396098427318728	8.137954	2.85271
9.413684370530664	8.081657	2.8428257
9.431270535955722	7.9706974	2.8232424
9.448856924016539	7.853825	2.8024676
9.466443535135806	7.678006	2.7709215
9.484030369736251	7.68411	2.7720227
9.501617428240658	7.6874375	2.7726228
9.519204711071852	7.741581	2.7823696
9.536792218652714	7.7521334	2.7842653
9.55437995140617	7.7754326	2.7884462
9.571967909755191	7.7673144	2.7869902
9.589556094122802	7.735972	2.7813616
9.60714450493207	7.7243805	2.779277
9.624733142606116	7.8048415	2.7937148
9.642322007568108	7.8595243	2.8034842
9.659911100241267	7.859213	2.803429
9.677500421048851	7.8983135	2.8103938
9.695089970414175	7.9278293	2.8156402
9.712679748760609	8.033659	2.834371
9.730269756511557	8.111948	2.848148
9.747859994090492	8.162375	2.8569872
9.765450461920915	8.214208	2.8660438
9.78304116042639	8.245249	2.8714542
9.800632090030527	8.306973	2.8821821
9.81822325115699	8.25296	2.8727965
9.835814644229481	8.24921	2.8721437
9.853406269671762	8.260417	2.874094
9.870998127907646	8.298437	2.8807008
9.888590219360985	8.284233	2.8782344
9.906182544455698	8.256483	2.8734097
9.923775103615734	8.244138	2.8712606
9.941367897265108	8.357845	2.8909938
9.958960925827878	8.426833	2.902901
9.97655418972816	8.41213	2.9003673
9.994147689390106	8.32658	2.8855815
10.011741425237934	8.203125	2.8641098
10.029335397695904	8.221168	2.8672578
10.04692960718833	8.234324	2.8695512
10.06452405413958	8.316303	2.8838
10.082118738974064	8.312683	2.8831725
10.099713662116246	8.327575	2.8857539
10.117308823990651	8.310009	2.8827085
10.134904225021844	8.183313	2.860649
10.152499865634445	8.123682	2.8502073
10.170095746253125	8.139064	2.8529046
10.18769186730261	8.175995	2.8593698
10.205288229207675	8.187075	2.8613064
10.222884832393145	8.126333	2.8506725
10.2404816772839	8.043008	2.8360198
10.258078764304868	7.998281	2.8281233
10.275676093881035	7.9811096	2.8250859
10.293273666437438	8.069992	2.840773
10.310871482399158	8.178475	2.8598034
10.32846954219134	8.282722	2.877972
10.346067846239173	8.243687	2.8711822
10.363666394967908	8.16696	2.8577893
10.38126518880283	8.127211	2.8508263
10.398864228169298	8.208444	2.8650382
10.416463513492713	8.305079	2.8818536
10.434063045198531	8.289768	2.8791957
10.451662823712262	8.250917	2.872441
10.469262849459467	8.257184	2.8735316
10.486863122865758	8.188325	2.8615248
10.504463644356806	8.185822	2.8610876
10.522064414358338	8.071141	2.8409753
10.539665433296118	7.9678717	2.822742
10.557266701595987	7.873282	2.8059368
10.574868219683818	7.7807417	2.7893982
10.592469987985552	7.7364154	2.7814412
10.610072006927185	7.726898	2.7797298
10.627674276934751	7.6791224	2.771123
10.64527679843435	7.5304747	2.7441711
10.662879571852143	7.43984	2.727607
10.680482597614331	7.290014	2.7000027
10.698085876147173	7.196966	2.6827161
10.715689407876988	6.981909	2.6423302
10.733293193230146	6.8797255	2.6229231
10.750897232633072	6.786253	2.6050436
10.76850152651225	6.7492313	2.5979283
10.786106075294207	6.689389	2.5863853
10.803710879405534	6.6017613	2.5693893
10.821315939272877	6.5300145	2.5553894
10.83892125532294	6.411597	2.532113
10.856526827982472	6.338161	2.5175705
10.874132657678285	6.3248873	2.5149329
10.891738744837243	6.2980976	2.509601
10.909345089886271	6.243246	2.498649
10.926951693252343	6.124093	2.4746904
10.944558555362494	6.0716767	2.4640772
10.96216567664381	6.0117693	2.451891
10.979773057523436	5.9811854	2.4456463
10.997380698428573	5.9144716	2.4319687
11.014988599786477	5.8350434	2.4155834
11.032596762024461	5.7623925	2.4004984
11.050205185569892	5.696931	2.3868244
11.067813870850198	5.5984726	2.3661091
11.085422818292859	5.493215	2.343761
11.10303202832541	5.493942	2.343916
11.120641501375454	5.4812293	2.3412025
11.138251237870636	5.3743873	2.3182726
11.155861238238671	5.3060966	2.3034966
11.173471502907317	5.233981	2.2877896
11.191082032304402	5.222969	2.2853816
11.208692826857805	5.1326685	2.2655394
11.226303886995465	5.006027	2.2374153
11.243915213145371	4.937316	2.2220073
11.261526805735578	4.898874	2.21334
11.279138665194196	4.8774323	2.2084908
11.296750791949393	4.8193755	2.1953077
11.314363186429393	4.769491	2.1839166
11.331975849062479	4.7429147	2.1778233
11.34958878027699	4.6789618	2.1630907
11.36720198050133	4.640307	2.1541371
11.384815450163948	4.5932627	2.14319
11.402429189693366	4.541702	2.1311269
11.420043199518153	4.475625	2.1155672
11.437657480066942	63.414433	7.963318
11.455272031768422	85.14565	9.22744
11.472886855051353	107.571465	10.371666
11.490501950344528	99.201706	9.960006
11.508117318076819	84.53401	9.194238
11.52573295867715	45.859974	6.7719994
11.543348872574514	4.1567483	2.0388105
11.560965060197946	4.082374	2.0204885
11.57858152197655	4.057434	2.0143073
11.59619825833949	4.013363	2.0033379
11.613815269715985	4.0047326	2.0011828
11.631432556535323	38.5498	6.2088485
11.649050119226837	83.10574	9.116235
11.666667958219929	93.507416	9.669923
11.68428607394406	107.744095	10.379985
11.701904466828756	82.53681	9.084977
11.719523137303586	65.39272	8.086576
11.737142085798196	4.6031833	2.145503
11.754761312742286	3.725862	1.9302492
11.772380818565619	3.677698	1.9177325
11.790000603698015	3.6358109	1.9067802
11.80762066856935	3.5830638	1.8928983
11.825241013609572	3.5809755	1.8923466
11.842861639248683	3.5669353	1.8886331
11.860482545916748	3.4997203	1.870754
11.878103734043883	3.432863	1.8527987
11.895725204060282	3.4232628	1.8502061
11.91334695639619	3.4138522	1.8476613
11.930968991481919	3.4121196	1.8471924
11.948591309747824	3.3834407	1.8394132
11.966213911624347	3.341643	1.8280162
11.98383679754198	3.2937872	1.8148794
12.001459967931268	3.2626038	1.8062679
12.019083423222835	3.2297196	1.797142
12.036707163847352	3.2333264	1.7981453
12.05433119023556	3.2615664	1.8059807
12.071955502818259	3.2668588	1.8074454
12.089580102026313	3.2970774	1.8157856
12.107204988290643	3.2419896	1.8005526
12.12483016204224	3.191878	1.7865828
12.142455623712152	3.1473007	1.7740633
12.16008137373149	3.1254916	1.767906
12.177707412531431	3.1273637	1.7684354
12.19533374054321	3.0992918	1.7604805
12.212960358198126	3.0656352	1.7508955
12.230587265927545	3.0283291	1.7402095
12.248214464162889	3.017663	1.7371422
12.265841953335649	3.0146885	1.7362858
12.283469733877375	3.0482183	1.7459147
12.301097806219685	3.0752866	1.7536495
12.31872617079425	3.0468028	1.7455093
12.336354828032825	3.0306304	1.7408706
12.353983778367205	3.0057058	1.7336972
12.371613022229262	2.9666698	1.7224023
12.389242560050928	2.9060717	1.7047204
12.406872392264201	2.899443	1.7027751
12.424502519301143	2.9196944	1.7087114
12.442132941593874	2.8996031	1.7028221
12.459763659574586	2.8669195	1.693198
12.477394673675532	2.8432117	1.6861826
12.49502598432903	2.829544	1.6821249
12.51265759196746	2.8179526	1.6786759
12.530289497023267	2.7897017	1.67024
12.547921699928967	2.808133	1.6757485
12.565554201117134	2.820431	1.6794139
12.583187001020404	2.8532252	1.6891493
12.600820100071486	2.8301086	1.6822927
12.618453498703152	2.8349977	1.6837451
12.636087197348235	2.8060524	1.6751276
12.65372119643964	2.8320317	1.6828642
12.671355496410326	2.860007	1.6911556
12.68899009769333	2.8820317	1.6976547
12.706625000721749	2.901527	1.7033869
12.724260205928752	2.903423	1.7039434
12.741895713747551	2.9085062	1.7054343
12.759531524611454	2.9663975	1.7223233
12.777167638953818	3.0270977	1.7398556
12.794804057208072	3.0642571	1.750502
12.812440779807702	3.0864103	1.7568182
12.830077807186271	3.2231836	1.7953227
12.847715139777405	3.2138886	1.7927321
12.865352778014795	3.445936	1.8563232
12.882990722332197	3.5604758	1.8869224
12.90062897316344	3.6778672	1.9177766
12.918267530942412	3.7518408	1.9369669
12.935906396103071	3.6391582	1.9076577
12.953545569079449	3.7811387	1.944515
12.971185050305628	3.5957053	1.8962345
12.988824840215775	3.577535	1.8914373
13.006464939244115	3.6120687	1.9005443
13.024105347824943	3.460057	1.8601228
13.041746066392617	3.5541801	1.8852533
13.05938709538157	3.3207726	1.8222988
13.077028435226296	3.332838	1.8256062
13.094670086361363	3.2609003	1.8057963
13.112312049221401	3.214785	1.7929822
13.129954324241112	3.1219997	1.7669182
13.147596911855258	2.906328	1.7047956
13.165239812498685	2.8673973	1.6933391
13.182883026606293	2.8091364	1.6760478
13.200526554613058	2.7462223	1.6571729
13.218170396954017	2.6938794	1.6413041
13.235814554064284	2.71323	1.6471884
13.253459026379034	2.728499	1.6518168
13.271103814333523	2.712921	1.6470947
13.288748918363058	2.6831825	1.6380422
13.306394338903031	2.702968	1.6440705
13.32404007638889	2.699044	1.6428767
13.341686131256164	2.7250488	1.6507722
13.359332503940449	2.6811175	1.6374118
13.376979194877402	2.6696644	1.6339108
13.394626204502751	2.709636	1.6460972
13.412273533252307	2.7241864	1.6505109
13.429921181561937	2.732018	1.6528817
13.447569149867581	2.7449737	1.6567962
13.465217438605247	2.7570956	1.6604505
13.482866048211022	2.7072287	1.6453658
13.500514979121052	2.671637	1.6345143
13.518164231771568	2.6461217	1.6266904
13.535813806598844	2.6706514	1.6342127
13.553463704039254	2.6684055	1.6335255
13.571113924529229	2.6805134	1.6372273
13.588764468505275	2.6607234	1.6311724
13.606415336403956	2.670515	1.634171
13.624066528661917	2.6913621	1.6405371
13.641718045715882	2.7599695	1.6613156
13.659369888002635	2.8501823	1.6882483
13.67702205595903	2.9133406	1.7068511
13.694674550021993	2.9534037	1.718547
13.712327370628532	3.004439	1.7333318
13.729980518215713	3.1222093	1.7669774
13.747633993220681	3.2168026	1.7935447
13.765287796080647	3.258501	1.8051319
13.7829419272329	3.288191	1.813337
13.800596387114801	3.2951694	1.8152602
13.818251176163775	3.3579884	1.8324815
13.835906294817324	3.4288266	1.8517091
13.853561743513023	3.5027256	1.871557
13.871217522688525	3.519161	1.8759427
13.888873632781538	3.4993527	1.8706557
13.906530074229858	3.486832	1.8673061
13.92418684747135	3.5057335	1.8723603
13.941843952943948	3.4920945	1.8687147
13.959501391085665	3.4290128	1.8517593
13.977159162334578	3.3465803	1.8293661
13.994817267128846	3.340858	1.8278015
14.012475705906693	3.276741	1.8101771
14.030134479106424	3.2061696	1.790578
14.047793587166414	3.122986	1.7671973
14.065453030525108	3.105395	1.7622131
14.083112809621026	3.063553	1.7503009
14.100772924892766	3.0144162	1.7362074
14.118433376778997	2.948529	1.7171282
14.136094165718458	2.8495643	1.6880653
14.153755292149969	2.766473	1.6632718
14.171416756512416	2.7151644	1.6477757
14.189078559244768	2.6898968	1.6400905
14.20674070078606	2.673899	1.6352061
14.224403181575408	2.594182	1.6106465
14.242066002051999	2.5572865	1.5991518
14.259729162655093	2.494248	1.5793188
14.277392663824022	2.459001	1.5681202
14.295056505998208	2.4167185	1.5545799
14.312720689617128	2.37622	1.5414993
14.330385215120348	2.3812554	1.5431317
14.348050082947497	2.4074435	1.5515939
14.3657152935383	2.4162462	1.554428
14.383380847332528	2.4067502	1.5513704
14.401046744770051	2.4135268	1.553553
14.418712986290798	2.4283135	1.5583047
14.436379572334793	2.4337146	1.5600368
14.454046503342123	2.4305973	1.5590373
14.471713779752946	2.4384375	1.5615497
14.489381402007504	2.4319947	1.5594854
14.507049370546113	2.3881657	1.5453691
14.524717685809168	2.380262	1.5428097
14.542386348237134	2.3970878	1.5482532
14.560055358270553	2.4199977	1.5556341
14.577724716350051	2.4297698	1.5587718
14.595394422916325	2.4360335	1.5607798
14.61306447841015	2.4912064	1.5783556
14.63073488327237	2.5031967	1.5821494
14.648405637943917	2.5490103	1.596562
14.6660767428658	2.497633	1.5803901
14.683748198479094	2.5286899	1.5901855
14.701420005224954	2.531199	1.5909742
14.719092163544628	2.664478	1.6323229
14.73676467387942	2.681973	1.637673
14.754437536670727	2.6742957	1.6353273
14.772110752360014	2.6526942	1.6287093
14.78978432138882	2.6831982	1.6380471
14.807458244198777	2.731906	1.6528478
14.82513252123159	2.7268128	1.6513064
14.842807152929028	2.751712	1.6588285
14.860482139732962	2.7121553	1.6468623
14.87815748208531	2.730981	1.652568
14.8958331804281	2.714567	1.6475943
14.91350923520342	2.6803532	1.6371784
14.931185646853438	2.6727664	1.6348598
14.948862415820408	2.6565084	1.6298798
14.966539542546656	2.691795	1.6406691
14.98421702747459	2.6915042	1.6405804
15.001894871046696	2.6879191	1.6394875
15.019573073705542	2.681499	1.6375283
15.037251635893766	2.662063	1.631583
15.054930558054092	2.6758978	1.6358172
15.072609840629323	2.7202103	1.649306
15.090289484062351	2.8788636	1.6967214
15.107969488796124	3.1537526	1.7758808
15.125649855273691	3.5017996	1.8713096
15.14333058393817	3.9752011	1.9937906
15.161011675232768	4.9711833	2.229615
15.17869312960076	6.3461356	2.5191538
15.196374947485506	8.307481	2.88227
15.214057129330447	11.40771	3.37753
15.231739675579114	16.224997	4.0280266
15.249422586675102	21.2939	4.6145315
15.267105863062092	24.52814	4.952589
15.284789505183847	24.988962	4.998896
15.302473513484218	23.0804	4.8042064
15.320157888407127	19.535162	4.41986
15.337842630396578	15.209017	3.899874
15.355527739896656	11.813489	3.4370756
15.37321321735153	9.098407	3.0163565
15.39089906320545	6.5302997	2.5554452
15.408585277902748	4.8512115	2.2025466
15.42627186188783	3.6990402	1.923289
15.443958815605198	3.1376476	1.7713406
15.461646139499424	2.8202288	1.6793537
15.479333834015168	2.695912	1.6419232
15.497021899597165	2.710831	1.6464602
15.514710336690234	2.6876879	1.6394169
15.53239914573928	2.668708	1.6336181
15.550088327189297	2.5865693	1.6082815
15.567777881485336	2.5055113	1.5828807
15.58546780907256	2.452506	1.5660479
15.6031581103962	2.4231875	1.5566591
15.620848785901568	2.4441812	1.5633878
15.638539836034063	2.4519584	1.565873
15.656231261239173	2.4680643	1.5710074
15.673923061962451	2.440747	1.562289
15.691615238649552	2.4694364	1.571444
15.709307791746202	2.4962912	1.5799656
15.727000721698221	2.484451	1.5762142
15.744694028951498	2.4220488	1.5562932
15.76238771395202	2.4024022	1.5499685
15.780081777145844	2.4094045	1.5522257
15.797776218979125	2.3823056	1.5434719
15.815471039898094	2.3285577	1.5259613
15.833166240349064	2.3189514	1.5228103
15.850861820778437	2.3416653	1.5302501
15.868557781632699	2.372696	1.5403558
15.886254123358412	2.3958483	1.5478528
15.903950846402232	2.3952415	1.5476568
15.921647951210897	2.416257	1.5544313
15.939345438231225	2.4610393	1.56877
15.957043307910133	2.4751227	1.5732523
15.974741560694602	2.4444282	1.5634667
15.992440197031714	2.4057515	1.5510485
16.01013921736862	2.3693597	1.5392724
16.02783862215259	2.370568	1.5396649
16.045538411830933	2.405414	1.5509398
16.06323858685107	2.478823	1.5744278
16.080939147660512	2.4455009	1.5638098
16.09864009470684	2.4062247	1.5512011
16.11634142843774	2.346864	1.5319477
16.134043149300954	2.332223	1.5271617
16.15174525774433	2.3511236	1.5333374
16.169447754215817	2.3984232	1.5486844
16.18715063916342	2.4584084	1.5679312
16.204853913035244	2.4653711	1.57015
16.222557576279478	2.461535	1.568928
16.240261629344403	22.413616	4.734302
16.257966072678386	42.96424	6.5547113
16.275670906729868	38.08841	6.171581
16.293376131947387	2.5281315	1.5900099
16.31108174877957	2.553674	1.5980219
16.328787757675133	2.5833302	1.6072742
16.34649415908287	2.6124048	1.6162935
16.364200953451657	2.6366508	1.6237767
16.38190814123048	2.656961	1.6300187
16.39961572286839	2.660891	1.6312238
16.41732369881455	2.6964726	1.642094
16.43503206951817	2.7347562	1.6537099
16.45274083542859	2.782027	1.667941
16.47044999699522	2.8041482	1.6745591
16.488159554667558	2.8656352	1.6928188
16.505869508895184	2.8908231	1.700242
16.523579860127786	2.9363155	1.7135681
16.541290608815117	2.970265	1.7234457
16.559001755407035	3.0004783	1.7321888
16.57671330035348	2.9942012	1.730376
16.59442524410448	3.0246656	1.7391566
16.61213758711015	3.1047454	1.7620288
16.629850329820705	3.1996667	1.7887613
16.647563472686436	3.2778623	1.8104868
16.665277016157724	3.3716018	1.8361923
16.682990960685053	3.442975	1.8555255
16.70070530671898	3.5021727	1.8714093
16.718420054710155	3.525057	1.8775135
16.736135205109335	3.5477457	1.883546
16.753850758367335	3.615071	1.901334
16.771566714935087	3.6580687	1.9126078
16.789283075263597	3.7040958	1.9246027
16.80699983980398	3.7427154	1.9346099
16.82471700900741	3.7888722	1.9465026
16.84243458332518	3.9000165	1.974846
16.860152563208665	4.0314636	2.0078504
16.87787094910932	4.065463	2.0162992
16.89558974147871	4.0803475	2.019987
16.913308940768466	4.102327	2.0254202
16.931028547430333	4.170122	2.0420878
16.94874856191613	4.2836485	2.0696976
16.966468984677785	4.3435984	2.08413
16.98418981616729	4.43959	2.1070335
17.00191105683676	4.4200845	2.1023996
17.019632707138374	4.490103	2.1189864
17.03735476752442	4.5080857	2.1232252
17.05507723844728	4.577542	2.139519
17.072800120359403	4.626529	2.1509368
17.090523413713353	4.633239	2.1524959
17.108247118961785	4.639878	2.1540375
17.125971236557437	4.651609	2.1567588
17.143695766953133	4.710683	2.1704109
17.161420710601806	4.7266893	2.1740952
17.179146067956477	4.692542	2.1662276
17.19687183947025	4.692343	2.1661818
17.21459802559634	4.684956	2.164476
17.232324626788028	4.716005	2.1716363
17.25005164349871	4.7070785	2.1695802
17.267779076181863	4.7134237	2.171042
17.285506925291074	4.6923404	2.166181
17.30323519127999	4.6586256	2.158385
17.320963874602384	4.579278	2.1399248
17.33869297571211	4.502779	2.1219752
17.356422495063114	4.4783144	2.1162028
17.37415243310944	4.4957576	2.12032
17.391882790305218	4.470663	2.1143942
17.40961356710468	4.4597397	2.1118095
17.42734476396215	4.429498	2.1046374
17.445076381332044	4.468579	2.1139014
17.462808419668868	4.5510793	2.1333258
17.48054087942723	4.7164063	2.1717288
17.498273761061835	4.9957376	2.2351146
17.51600706502747	5.4414234	2.332686
17.533740791779024	6.206159	2.4912164
17.551474941771485	7.5877595	2.7545888
17.56920951545993	8.681575	2.9464512
17.586944513299528	10.868241	3.2967017
17.60467993574556	12.621895	3.5527306
17.622415783253373	14.587721	3.8193874
17.64015205627843	16.154505	4.0192666
17.657888755276293	17.331738	4.1631403
17.675625880702604	17.760431	4.2143126
17.69336343301311	17.557974	4.1902237
17.71110141266366	16.739618	4.091408
17.728839820110178	15.825595	3.9781396
17.746578655808705	14.875237	3.856843
17.764317920215372	13.269854	3.642781
17.7820576137864	11.585534	3.403753
17.79979773697811	9.428112	3.070523
17.81753829024692	7.3973565	2.719808
17.835279274049356	5.678633	2.3829882
17.85302068884201	4.716963	2.1718569
17.870762535081607	4.129495	2.032116
17.888504813224934	3.828787	1.9567287
17.90624752372891	3.6480289	1.9099814
17.923990667050536	3.61669	1.9017597
17.941734243646895	3.5682642	1.8889849
17.959478253975185	3.518547	1.875779
17.9772226984927	3.4678106	1.8622059
17.994967577656833	3.4353497	1.8534696
18.01271289192506	3.4063797	1.845638
18.030458641754965	3.3727453	1.8365035
18.04820482760425	3.376292	1.8374689
18.06595144993067	3.3381493	1.8270603
18.083698509192125	3.3146179	1.8206092
18.101446005846576	3.2677038	1.807679
18.119193940352105	3.26874	1.8079656
18.136942313166887	3.2681096	1.8077914
18.1546911247492	3.2170198	1.7936052
18.1724403755574	3.1706264	1.7806253
18.19019006604997	3.13258	1.7699096
18.207940196685467	3.0969057	1.7598027
18.225690767922575	3.0477374	1.745777
18.243441780220046	3.0415697	1.7440096
18.261193234036764	3.049471	1.7462734
18.278945129831676	3.0142865	1.73617
18.29669746806386	3.034828	1.7420758
18.314450249192483	3.0172904	1.7370349
18.3322034736768	2.9990673	1.7317815
18.349957141976184	3.0089202	1.7346239
18.3677112545501	3.0675561	1.751444
18.385465811858108	3.1299787	1.7691746
18.403220814359884	3.1269574	1.7683206
18.420976262515172	3.1261208	1.7680839
18.43873215678387	3.1397557	1.7719356
18.456488497625923	3.2030795	1.7897149
18.474245285501407	3.291299	1.8141938
18.492002520870486	3.3470802	1.8295027
18.50976020419343	3.4155402	1.8481181
18.527518335930615	3.697622	1.9229202
18.545276916542516	4.222013	2.0547538
18.563035946489688	4.3551273	2.0868943
18.580795426232832	4.788353	2.1882305
18.598555356232698	4.6954923	2.1669085
18.616315736950185	5.038816	2.2447307
18.63407656884626	4.72669	2.1740952
18.65183785238201	4.9389124	2.2223663
18.669599588018617	4.7385273	2.1768157
18.68736177621737	4.6905894	2.165777
18.705124417439652	4.6805644	2.1634612
18.72288751214696	4.447775	2.108975
18.740651060800886	4.5980926	2.1443164
18.758415063863115	4.2915854	2.0716143
18.77617952179546	4.433838	2.105668
18.793944435059814	4.158291	2.0391889
18.811709804118184	4.218963	2.0540116
18.829475629432675	4.1578703	2.0390856
18.8472419114655	3.9371212	1.984218
18.86500865067897	4.030416	2.0075896
18.88277584753551	3.7314708	1.9317015
18.90054350249763	3.7539349	1.9375074
18.918311616027957	3.4476922	1.8567963
18.936080188589226	3.364718	1.8343167
18.953849220644265	3.091206	1.7581826
18.971618712656007	2.933866	1.7128532
18.9893886650875	2.8881533	1.6994568
19.007159078401887	8.053413	2.8378537
19.024929953062408	32.9158	5.7372293
19.042701289532435	32.836052	5.730275
19.060473088275405	25.356997	5.035573
19.07824534975489	2.6111023	1.6158906
19.096018074434568	2.610383	1.6156679
19.113791262778197	2.605847	1.6142635
19.13156491524966	2.5947542	1.6108241
19.149339032312945	2.5890262	1.6090451
19.167113614432136	2.5859916	1.6081018
19.184888662071433	2.5476007	1.5961205
19.202664175695123	2.5215077	1.5879256
19.220440155767623	2.5174706	1.586654
19.238216602753447	2.533101	1.5915719
19.2559935171172	2.5142915	1.5856518
19.27377089932361	2.5235786	1.5885775
19.291548749837514	2.5068586	1.5833062
19.309327069123835	2.4772944	1.5739423
19.32710585764763	2.426049	1.557578
19.344885115874032	2.468023	1.5709943
19.362664844268313	2.5275831	1.5898374
19.380445043295822	2.5233853	1.5885167
19.39822571342203	2.496934	1.580169
19.41600685511252	2.4664135	1.5704819
19.43378846883297	2.4962583	1.5799551
19.451570555049173	2.4926345	1.578808
19.469353114227037	2.5054548	1.5828629
19.48713614683254	2.4812493	1.5751982
19.50491965333182	2.5063245	1.5831375
19.52270363419109	2.5484664	1.5963917
19.540488089876686	2.5497308	1.5967877
19.55827302085503	2.529842	1.5905477
19.576058427592674	2.515851	1.5861435
19.593844310556282	2.514303	1.5856553
19.611630670212598	2.469423	1.5714399
19.629417507028506	2.445605	1.563843
19.64720482147098	2.4392858	1.5618213
19.6649926140071	2.433126	1.5598481
19.682780885104084	2.426406	1.5576925
19.70056963522921	2.417951	1.5549762
19.718358864849908	2.4541247	1.5665646
19.7361485744337	2.4763784	1.5736513
19.753938764448215	2.4880114	1.5773431
19.771729435361202	2.5011585	1.5815052
19.789520587640506	2.510858	1.5845687
19.807312221754092	2.5383992	1.5932355
19.825104338170043	2.5121102	1.5849638
19.842896937356517	2.4867978	1.5769584
19.860690019781824	2.4479215	1.5645835
19.87848358591436	2.4193575	1.5554284
19.896277636222635	2.4594452	1.5682619
19.914072171175278	2.5209076	1.5877366
19.931867191241015	2.51832	1.5869216
19.94966269688869	2.491733	1.5785224
19.967458688587264	2.5091422	1.5840272
19.985255166805807	2.5485103	1.5964054
20.00305213201348	2.5283258	1.590071
20.020849584679578	2.4339488	1.5601118
20.038647525273507	2.3440664	1.5310345
20.05644595426477	2.3760214	1.5414349
20.07424487212299	2.394508	1.5474198
20.092044279317903	2.4399405	1.5620309
20.109844176319353	2.45614	1.5672077
20.127644563597304	2.4520633	1.5659065
20.145445441621817	2.4235408	1.5567726
20.16324681086307	2.4284966	1.5583634
20.181048671791373	2.4148617	1.5539825
20.198851024877122	2.416999	1.5546701
20.216653870590836	2.4244096	1.5570515
20.234457209403146	2.3971174	1.5482627
20.252261041784802	2.3656993	1.538083
20.270065368206662	2.3408756	1.529992
20.287870189139685	2.3345423	1.5279208
20.305675505054968	2.3250313	1.5248053
20.323481316423702	2.3301723	1.5264902
20.341287623717207	2.355556	1.534782
20.359094427406884	2.3637009	1.5374333
20.376901727964288	2.3518634	1.5335786
20.39470952586107	2.2790473	1.5096514
20.41251782156899	2.2937665	1.5145186
20.430326615559935	2.2953053	1.5150265
20.448135908305886	2.2841876	1.5113529
20.465945700278965	2.279738	1.5098801
20.483755991951384	2.302471	1.5173895
20.50156678379548	2.333812	1.527682
20.519378076283708	2.3218145	1.5237502
20.537189869888635	2.342685	1.5305833
20.55500216508294	2.3758569	1.5413815
20.572814962339415	2.3800037	1.542726
20.59062826213098	2.3432033	1.5307525
20.60844206493066	2.334765	1.5279938
20.626256371211593	2.3153372	1.5216233
20.644071181447032	2.289862	1.513229
20.66188649611036	2.3104973	1.520032
20.67970231567506	2.3640058	1.5375323
20.697518640614742	2.3678029	1.5387666
20.715335471403122	2.3243802	1.5245918
20.73315280851404	2.3212752	1.5235732
20.750970652421447	2.312332	1.5206354
20.768789003599412	2.3060553	1.5185702
20.786607862522136	2.291441	1.5137507
20.8044272296639	2.295615	1.5151287
20.82224710549913	2.2703807	1.5067782
20.84006749050237	2.2927885	1.5141957
20.857888385148268	3.8340638	1.9580766
20.8757097899116	45.948593	6.778539
20.893531705267254	64.76789	8.04785
20.911354131690224	83.78142	9.153219
20.92917706965566	69.075	8.311137
20.94700051963877	50.145645	7.081359
20.96482448211493	29.421625	5.4241705
20.982648957559622	4.1623955	2.040195
21.00047394644843	2.316078	1.5218666
21.01829944925707	2.3109887	1.5201936
21.036125466461375	2.2811832	1.5103587
21.053951998537297	2.2448456	1.4982809
21.071779045960906	2.2139924	1.487949
21.089606609208378	2.212122	1.4873204
21.10743468875603	2.2135513	1.4878008
21.12526328508028	2.1987927	1.4828327
21.143092398657675	2.1805391	1.4766649
21.16092202996488	2.194338	1.4813298
21.17875217947867	2.209888	1.4865692
21.19658284767596	2.195601	1.4817561
21.21441403503377	2.180141	1.4765301
21.232245742029225	2.178152	1.4758564
21.2500779691396	2.1845002	1.4780055
21.26791071684227	2.1927962	1.4808093
21.28574398561475	2.188487	1.4793535
21.30357777593465	2.1543715	1.4677777
21.321412088279704	2.1501458	1.4663376
21.339246923127792	2.12377	1.457316
21.357082280956888	2.1665528	1.4719214
21.3749181622451	2.1464164	1.4650654
21.392754567470647	2.1442826	1.4643369
21.41059149711187	2.138213	1.462263
21.42842895164726	2.1318555	1.4600875
21.446266931555378	2.126458	1.458238
21.464105437314945	2.133095	1.4605119
21.481944469404798	2.1267476	1.4583373
21.49978402830388	2.1264353	1.4582301
21.51762411449127	2.110797	1.4528582
21.53546472844617	2.1037204	1.4504207
21.553305870647876	2.093491	1.4468901
21.571147541575865	2.079139	1.441922
21.58898974170967	2.0823643	1.44304
21.60683247152899	2.0939467	1.4470476
21.62467573151363	2.0882442	1.4450759
21.642519522143523	2.0579438	1.4345535
21.660363843898722	2.0470574	1.4307542
21.6782086972594	2.066097	1.4373925
21.696054082705864	2.055187	1.4335923
21.713900000718535	2.044775	1.4299563
21.73174645177795	2.0392194	1.4280124
21.749593436364794	2.0632923	1.4364165
21.767440954959845	2.070409	1.4388916
21.785289008044032	2.064841	1.4369555
21.803137596098388	2.0407948	1.428564
21.820986719604086	2.021111	1.4216578
21.838836379042412	2.0114708	1.4182633
21.85668657489478	2.0079541	1.417023
21.87453730764273	2.0142775	1.4192524
21.892388577767914	2.0459719	1.4303747
21.91024038575213	2.0564635	1.4340374
21.928092732077285	2.0045183	1.4158101
21.945945617225426	1.9696985	1.4034595
21.963799041678694	2.0097528	1.4176575
21.981653005919398	31.360996	5.600089
21.999507510429943	78.16933	8.841342
22.01736255569286	73.095535	8.549593
22.035218142190818	4.204347	2.0504506
22.05307427040661	2.0699487	1.4387317
22.07093094082315	2.072689	1.4396837
22.088788153923474	2.043631	1.4295563
22.106645910190746	2.0120296	1.4184602
22.12450421010827	1.9918969	1.4113457
22.142363054159464	1.9820883	1.4078666
22.16022244282787	1.9493095	1.3961767
22.178082376597164	1.9582227	1.3993651
22.195942855951145	1.9501219	1.3964677
22.213803881373742	1.9812504	1.4075689
22.231665453349002	1.9718689	1.4042325
22.24952757236111	1.9723307	1.4043969
22.26739023889438	1.951722	1.3970405
22.28525345343323	1.9469162	1.3953193
22.30311721646225	1.9232112	1.3867989
22.320981528466113	1.9150954	1.3838698
22.33884638992964	1.928448	1.3886857
22.356711801337788	1.9509962	1.3967806
22.37457776317561	1.9096326	1.3818946
22.392444275928337	1.8957968	1.3768793
22.410311340081282	1.9105781	1.3822366
22.428178956119904	1.9276351	1.3883929
22.446047124529805	1.9418987	1.3935202
22.46391584579669	1.9539915	1.3978524
22.481785120406414	1.9465865	1.3952012
22.49965494884496	1.9583827	1.3994223
22.51752533159841	1.9708569	1.4038721
22.53539626915302	1.9741338	1.4050387
22.553267761995137	1.9820164	1.4078411
22.571139810611264	1.9654168	1.4019332
22.589012415488025	1.9648018	1.4017138
22.60688557711216	1.9773625	1.4061872
22.624759295970566	1.9924666	1.4115475
22.642633572550263	1.9562182	1.3986487
22.660508407338362	1.9253544	1.3875713
22.67838380082217	1.8878425	1.3739878
22.696259753489077	1.9022806	1.3792319
22.714136265826614	1.8910165	1.3751423
22.73201333832246	1.9002234	1.3784859
22.74989097146439	1.8850038	1.3729544
22.76776916574035	1.8679407	1.3667263
22.785647921638393	1.8954843	1.3767658
22.803527239646712	1.9224156	1.386512
22.82140712025363	1.93273	1.3902266
22.839287563947593	1.928241	1.3886112
22.85716857121719	1.9216684	1.3862425
22.875050142551135	1.9188323	1.3852192
22.892932278438277	1.8909707	1.3751256
22.910814979367604	1.8800882	1.3711631
22.928698245828222	1.8654885	1.3658289
22.946582078309387	1.8781242	1.3704467
22.96446647730047	1.8721164	1.3682531
22.98235144329098	1.8441368	1.35799
23.000236976770562	1.8316064	1.3533685
23.018123078229	1.8490394	1.3597939
23.03600974815619	1.9265939	1.388018
23.053896987042194	1.9631569	1.401127
23.071784795377173	1.9521755	1.3972027
23.08967317365145	1.9211586	1.3860587
23.10756212235546	1.920019	1.3856475
23.125451641979787	1.9126688	1.3829927
23.143341733015134	1.9348965	1.3910055
23.161232395952357	1.9646673	1.4016659
23.179123631282426	1.979598	1.406982
23.197015439496468	1.9806674	1.4073619
23.214907821085717	1.9463222	1.3951066
23.23280077654157	1.9379847	1.3921152
23.250694306355538	1.8774818	1.3702123
23.268588411019277	1.8716446	1.3680806
23.28648309102458	1.9048402	1.3801595
23.304378346863356	1.932007	1.3899665
23.322274179027676	1.9181044	1.3849565
23.340170588009723	1.8936543	1.3761011
23.358067574301852	1.9304034	1.3893895
23.37596513839651	1.9360652	1.3914256
23.39386328078629	1.9531041	1.397535
23.411762001963947	1.9321325	1.3900117
23.429661302422353	1.9162672	1.384293
23.4475611826545	1.9121846	1.3828176
23.46546164315356	1.9192426	1.3853673
23.48336268441279	1.8920732	1.3755265
23.501264306925638	1.9196856	1.3855271
23.51916651118564	1.9104401	1.3821867
23.537069297686497	1.9231781	1.3867869
23.554972666922037	1.9128133	1.383045
23.57287661938623	1.9186442	1.3851513
23.59078115557318	1.912392	1.3828926
23.608686275977128	1.9492131	1.3961422
23.62659198109246	1.9203317	1.3857603
23.6444982714137	1.8918512	1.3754458
23.66240514743549	1.8928409	1.3758055
23.68031260965263	1.8739868	1.3689364
23.698220658560068	1.8689646	1.3671008
23.716129294652845	1.8728433	1.3685186
23.7340385184262	1.8975303	1.3775088
23.75194833037546	1.9610078	1.4003599
23.769858730996123	1.9616414	1.4005861
23.78776972078382	1.926429	1.3879585
23.80568130023431	1.8584539	1.3632512
23.823593469843495	1.8649323	1.3656253
23.841506230107424	1.8822225	1.3719412
23.859419581522275	1.9194801	1.385453
23.87733352458438	1.9245638	1.3872864
23.89524805979019	1.8937316	1.3761292
23.913163187636318	1.915088	1.383867
23.931078908619508	1.9687802	1.4031323
23.948995223236633	2.013319	1.4189147
23.966912131984735	2.0201845	1.421332
23.98482963536096	2.051565	1.4323285
24.002747733862616	2.0598671	1.4352237
24.020666427987155	2.054853	1.4334759
24.038585718232156	2.1062317	1.4512862
24.056505605095353	2.1007757	1.4494053
24.074426089074617	2.0584977	1.4347465
24.092347170667946	2.0239992	1.4226732
24.110268850373515	2.0752196	1.4405622
24.128191128689586	2.132605	1.4603442
24.146114006114626	2.1139107	1.4539294
24.164037483147187	2.0853717	1.4440817
24.181961560286005	2.0330546	1.4258522
24.199886238029926	2.0025706	1.4151222
24.21781151687797	1.9939234	1.4120635
24.235737397329274	2.0203123	1.421377
24.253663879883135	2.0097516	1.417657
24.271590965038975	2.0147007	1.4194015
24.289518653296376	1.9834471	1.408349
24.30744694515505	2.0241053	1.4227105
24.32537584111486	2.027839	1.4240221
24.34330534167581	2.0436547	1.4295645
24.361235447338046	2.0364702	1.4270495
24.379166158601876	2.017087	1.4202418
24.39709747596772	2.0183654	1.4206918
24.41502939993615	1.9981604	1.413563
24.432961931007917	1.9736903	1.4048809
24.450895069683856	1.9618613	1.4006646
24.468828816465	1.9250317	1.3874551
24.4867631718525	1.9307545	1.389516
24.504698136347656	1.9581058	1.3993233
24.52263371045192	2.003305	1.4153816
24.540569894666874	2.0007727	1.4144868
24.558506689494266	2.0137582	1.4190695
24.57644409543597	2.001832	1.4148611
24.594382112994012	1.9715844	1.4041312
24.61232074267057	1.947615	1.3955698
24.630259984967953	1.9650778	1.4018123
24.64819984038863	1.9885222	1.4101497
24.66614030943522	2.003486	1.4154454
24.684081392610462	2.02007	1.4212917
24.702023090417274	1.9997181	1.4141139
24.7199654033587	1.9688156	1.4031448
24.737908331937927	1.9917591	1.411297
24.755851876658305	2.0301762	1.4248425
24.773796038023324	2.053849	1.4331256
24.79174081653661	2.0591254	1.4349653
24.809686212701962	2.06452	1.4368438
24.827632227023294	2.0975246	1.4482833
24.8455788600047	2.1129324	1.4535929
24.8635261121504	2.1468127	1.4652005
24.88147398396475	2.1823924	1.4772922
24.899422475952303	2.1933994	1.481013
24.917371588617698	2.217804	1.4892293
24.935321322465768	2.2269127	1.4922844
24.953271678001478	2.351599	1.5334924
24.97122265572994	2.535075	1.5921918
24.989174256156414	2.8074648	1.6755491
25.00712647978632	3.2310898	1.7975233
25.02507932712521	3.8669298	1.966451
25.043032798678798	4.4732566	2.1150074
25.060986894952933	5.113869	2.2613866
25.078941616453637	5.79887	2.4080844
25.096896963687055	6.801159	2.6079032
25.114852937159508	7.9750705	2.8240168
25.132809537377444	8.499017	2.9153073
25.150766764847468	8.560084	2.9257622
25.168724620076347	8.016728	2.8313828
25.186683103570985	6.939855	2.6343606
25.204642215838426	5.5944343	2.3652556
25.222601957385894	4.1891923	2.0467517
25.24056232872074	3.1619089	1.7781757
25.25852333035048	2.619888	1.6186068
25.276484962782778	2.285406	1.511756
25.294447226525435	2.0947108	1.4473116
25.312410122086423	2.03793	1.4275608
25.330373649973843	1.976136	1.405751
25.348337810695988	1.948364	1.3958381
25.366302604761245	1.887253	1.3737733
25.384268032678207	1.8558608	1.3622998
25.40223409495558	1.8318999	1.353477
25.420200792102257	1.8873149	1.3737957
25.438168124627246	1.9428146	1.3938489
25.45613609303974	1.9659055	1.4021076
25.474104697849057	1.9509544	1.3967657
25.492073939564698	1.952474	1.3973095
25.510043818696285	1.9087527	1.3815762
25.528014335753614	1.855769	1.3622662
25.54598549124664	1.8456918	1.3585624
25.56395728568544	1.8856851	1.3732024
25.58192971958028	1.9206015	1.3858577
25.59990279344156	1.9099678	1.3820158
25.617876507779833	1.8884013	1.3741912
25.635850863105826	1.8896428	1.3746428
25.653825859930386	1.885285	1.3730568
25.671801498764548	1.8543229	1.3617352
25.68977778011949	1.8254156	1.3510795
25.707754704506524	1.8388473	1.3560411
25.725732272437153	1.871159	1.3679031
25.743710484423012	1.8670872	1.366414
25.761689340975888	1.8983725	1.3778144
25.77966884260774	1.9275328	1.3883561
25.797648989830662	1.8934674	1.3760332
25.815629783156922	1.8527098	1.3611429
25.83361122309895	1.8500303	1.3601582
25.85159331016929	1.8230438	1.3502014
25.869576044880695	1.8289195	1.3523755
25.887559427746034	1.7842686	1.3357651
25.90554345927836	1.7899839	1.3379028
25.92352813999086	1.7816108	1.33477
25.94151347039689	1.7647674	1.3284454
25.959499451009965	1.8246032	1.3507787
25.97748608234374	1.9068944	1.3809035
25.995473364912062	1.9111326	1.3824372
26.013461299228904	1.9038701	1.379808
26.03144988580839	1.8716197	1.3680716
26.04943912516483	1.8425395	1.3574017
26.067429017812675	1.7966282	1.3403836
26.085419564266537	1.8315787	1.3533583
26.103410765041186	1.8302302	1.35286
26.12140262065155	1.8363003	1.3551016
26.139395131612723	1.7916334	1.3385191
26.157388298439948	1.7788992	1.3337538
26.17538212164861	1.7920206	1.3386637
26.193376601754295	1.799863	1.3415897
26.211371739272714	1.7780747	1.3334447
26.229367534719746	1.755471	1.3249419
26.247363988611433	1.7795033	1.3339803
26.26536110146397	1.7909256	1.3382547
26.283358873793727	1.8105794	1.3455777
26.301357306117204	1.8100134	1.3453674
26.319356398951104	1.8076525	1.3444897
26.33735615281224	1.7780992	1.3334539
26.35535656821762	1.7903103	1.3380247
26.373357645684404	1.839566	1.356306
26.39135938572991	1.8163296	1.3477128
26.409361788871614	1.7850132	1.3360438
26.427364855627165	1.7911706	1.3383462
26.445368586514352	1.846379	1.3588153
26.46337298205115	1.8698497	1.3674245
26.48137804275568	1.8530279	1.3612597
26.499383769146217	1.8127866	1.3463976
26.517390161741215	1.7705687	1.3306272
26.53539722105928	1.7484399	1.3222859
26.553404947619182	1.7843962	1.3358129
26.571413341939856	1.7778876	1.3333745
26.589422404540397	1.8222882	1.3499216
26.60743213594006	1.8076324	1.3444822
26.62544253665827	1.8098629	1.3453114
26.64345360721459	1.8332515	1.3539761
26.66146534812879	1.8312331	1.3532306
26.679477759920758	1.847586	1.3592594
26.69749084311057	1.8763198	1.3697882
26.71550459821847	1.8491269	1.3598261
26.733519025764842	1.7707373	1.3306905
26.751534126270258	1.7645185	1.3283519
26.769549900255434	1.7708831	1.3307453
26.787566348241267	1.7849165	1.3360077
26.80558347074881	1.8017406	1.3422893
26.823601268299267	1.8396013	1.3563191
26.841619741414036	1.8189362	1.3486794
26.85963889061465	1.8264369	1.3514574
26.877658716422832	1.8669045	1.3663472
26.89567921936045	1.9146422	1.383706
26.913700399949544	1.8642794	1.3653861
26.93172225871233	1.8353989	1.354769
26.949744796171174	1.8509508	1.3604965
26.967768012848605	1.8408183	1.3567675
26.98579190926733	1.7612058	1.3271043
27.003816485950225	1.713713	1.3090886
27.021841743420318	1.7307624	1.3155844
27.039867682200814	1.7821392	1.3349679
27.057894302815072	1.8175726	1.3481739
27.07592160578664	1.7807311	1.3344404
27.0939495916392	1.7605182	1.3268452
27.111978260896635	1.8358798	1.3549464
27.13000761408296	1.8511069	1.3605539
27.148037651722397	1.8454063	1.3584573
27.166068374339304	1.7830445	1.3353069
27.184099782458215	1.7834932	1.3354748
27.20213187660384	1.804969	1.3434913
27.22016465730105	1.81427	1.3469484
27.23819812507487	1.8340577	1.3542739
27.256232280450533	1.8601438	1.3638709
27.274267123953383	1.8326848	1.3537669
27.292302656108987	1.811779	1.3460234
27.31033887744306	1.8120077	1.3461083
27.32837578848146	1.8004146	1.3417953
27.34641338975026	1.8184923	1.3485148
27.364451681775673	1.7974741	1.3406991
27.382490665084074	1.7732761	1.3316442
27.400530340202046	1.7739302	1.3318897
27.41857070765629	1.7926064	1.3388824
27.436611767973726	1.8084363	1.3447812
27.454653521681404	1.8399129	1.3564339
27.472695969306564	1.8145651	1.3470579
27.490739111376627	1.8569098	1.3626847
27.508782948419153	1.8519307	1.3608567
27.526827480961902	1.8213276	1.3495657
27.54487270953279	1.7965798	1.3403655
27.562918634659898	1.7790173	1.333798
27.580965256871508	1.7419138	1.3198159
27.599012576696026	1.7920402	1.3386711
27.617060594662068	1.8226125	1.3500416
27.63510931129842	1.8367712	1.3552754
27.65315872713401	1.8461851	1.3587439
27.67120884269797	1.8699385	1.3674569
27.68925965851958	1.8895607	1.3746129
27.707311175128307	1.8773696	1.3701714
27.725363393053787	1.8392775	1.3561996
27.74341631282583	1.8571478	1.3627721
27.7614699349744	1.8672067	1.3664577
27.77952426002968	2.0624948	1.4361389
27.797579288521973	2.1665168	1.4719093
27.815635020981784	2.5712063	1.6034981
27.83369145793979	2.6082506	1.6150079
27.85174859992682	2.3530095	1.5339522
27.869806447473923	2.2162037	1.4886919
27.887865001112267	1.9660825	1.4021707
27.905924261373233	1.9639479	1.4014093
27.92398422878836	1.9436712	1.3941561
27.94204490388936	1.9053768	1.3803538
27.96010628720813	1.867896	1.36671
27.978168379276728	1.8993942	1.3781852
27.9962311806274	1.9381896	1.3921888
28.014294691792568	1.9435927	1.394128
28.0323589133048	1.8930216	1.3758712
28.050423845696887	1.8382477	1.35582
28.068489489501758	1.7866025	1.3366385
28.086555845252523	1.8595278	1.3636451
28.104622913482487	1.9062783	1.3806803
28.122690694725115	1.8457174	1.3585719
28.14075918951405	1.8408403	1.3567758
28.15882839838312	1.9221342	1.3864105
28.176898321866304	1.9748045	1.4052774
28.1949689604978	1.9719312	1.4042547
28.213040314811945	1.9529258	1.3974712
28.23111238534327	1.9073269	1.3810601
28.249185172626493	1.8639457	1.3652639
28.267258677196473	1.8538811	1.361573
28.285332899588294	1.8507301	1.3604155
28.303407840337172	1.8849113	1.3729208
28.321483499978545	1.9333084	1.3904346
28.33955987904799	1.966621	1.4023627
28.357636978081285	1.982837	1.4081324
28.37571479761439	1.9684535	1.4030159
28.393793338183425	1.9283628	1.3886551
28.41187260032469	1.930582	1.3894539
28.429952584574686	1.9910811	1.4110568
28.448033291470065	1.966153	1.4021958
28.46611472154769	1.937282	1.3918628
28.484196875344566	1.9784727	1.4065819
28.502279753397914	1.9850415	1.408915
28.52036335624511	1.9492925	1.3961706
28.538447684423716	1.9414368	1.3933545
28.556532738471482	1.9739319	1.4049668
28.574618518926325	1.9661694	1.4022017
28.59270502632635	2.025382	1.4231591
28.61079226120985	2.094755	1.4473268
28.628880224115274	2.0703723	1.4388789
28.646968915581287	2.0168173	1.420147
28.66505833614671	1.9813579	1.4076072
28.68314848635055	1.9924265	1.4115334
28.701239366732004	2.0741746	1.4401995
28.71933097783044	2.0809853	1.4425621
28.737423320185403	2.103358	1.4502958
28.75551639433665	2.127969	1.458756
28.773610200824074	2.125312	1.457845
28.791704740187793	2.0872288	1.4447244
28.80980001296809	2.112304	1.4533768
28.827896019705413	2.1534994	1.4674807
28.845992760940433	2.1667025	1.4719723
28.86409023721397	2.1659508	1.471717
28.88218844906704	2.1962101	1.4819616
28.900287397040845	2.199167	1.4829589
28.918387081676755	2.223819	1.4912474
28.936487503516343	2.2368748	1.4956186
28.954588663101365	2.2051544	1.4849763
28.97269056097374	2.2389045	1.4962969
28.990793197675597	2.3346353	1.5279514
29.00889657374923	2.401571	1.5497003
29.027000689737125	2.3871045	1.5450257
29.04510554618196	2.3283262	1.5258853
29.06321114362659	2.4140046	1.5537068
29.08131748261405	2.493713	1.5791494
29.099424563687567	2.4924524	1.5787503
29.11753238739057	2.4871843	1.577081
29.13564095426663	2.535434	1.5923046
29.15375026485954	2.5737553	1.6042928
29.171860319713275	2.6101253	1.6155882
29.18997111937199	2.6582327	1.6304088
29.20808266438002	2.7686198	1.663917
29.226194955281898	2.8150501	1.6778111
29.244307992622335	2.816151	1.6781391
29.26242177694624	2.8309357	1.6825385
29.2805363087987	2.8831277	1.6979775
29.29865158872498	2.8970265	1.7020653
29.316767617270557	2.8811975	1.697409
29.334884394981064	2.9824858	1.7269875
29.353001922402367	3.0747364	1.7534926
29.37112020008047	3.1110938	1.7638292
29.389239228561596	3.2317235	1.7976996
29.407359008392152	3.3762207	1.8374496
29.42547954011872	3.6884692	1.9205388
29.44360082428809	4.338156	2.082824
29.46172286144722	5.422755	2.328681
29.479845652143283	6.915183	2.6296735
29.497969196923606	9.094916	3.0157778
29.516093496335728	11.825354	3.4388013
29.5342185509274	14.756788	3.8414564
29.55234436124651	17.320541	4.1617956
29.570470927841175	18.946537	4.352762
29.588598251259686	18.645035	4.31799
29.60672633205055	17.090483	4.1340637
29.624855170762405	15.006186	3.873782
29.642984767944146	12.0376	3.4695244
29.66111512414481	9.061114	3.0101686
29.67924623991366	6.6612315	2.5809362
29.697378115800138	5.1248302	2.2638087
29.71551075235387	4.1648974	2.040808
29.733644150124675	3.7670865	1.9408984
29.751778309662576	3.5921962	1.895309
29.769913231517766	3.392852	1.8419696
29.78804891624066	3.2976966	1.8159561
29.806185364381818	3.2397783	1.7999384
29.82432257649206	3.171903	1.7809837
29.842460553122333	3.1821735	1.7838647
29.86059929482382	3.1882515	1.7855675
29.878738802147872	3.2197218	1.7943584
29.896879075646048	3.2913265	1.8142014
29.915020115870114	3.3341765	1.8259728
29.933161923371976	3.3416183	1.8280094
29.951304498703777	3.2562556	1.8045098
29.969447842417857	3.222114	1.7950249
29.987591955066733	3.2090259	1.7913754
30.005736837203123	3.1587663	1.7772919
30.023882489379943	3.1546342	1.776129
30.04202891215028	3.1285982	1.7687844
30.060176106067455	3.0908718	1.7580875
30.078324071684946	3.1113682	1.7639071
30.09647280955646	3.1432276	1.772915
30.114622320235863	3.154683	1.7761427
30.132772604277257	3.127912	1.7685905
30.1509236622349	3.0424943	1.7442747
30.16907549466328	2.994727	1.7305279
30.18722810211705	3.0515296	1.7468628
30.205381485151097	3.0896761	1.7577474
30.22353564432045	3.0186017	1.7374123
30.241690580180403	3.0121934	1.7355672
30.25984629328638	3.05212	1.7470318
30.278002784194037	3.0492876	1.746221
30.296160053459246	2.9861214	1.7280397
30.314318101638033	2.9637911	1.7215664
30.332476929286646	2.9312916	1.7121015
30.35063653696153	2.9396732	1.7145475
30.368796925219307	3.0070474	1.734084
30.386958094616844	2.979592	1.7261494
30.40512004571115	2.9436975	1.7157207
30.423282779059463	2.9534414	1.718558
30.441446295219233	2.9701827	1.7234218
30.459610594748067	2.9488864	1.7172322
30.47777567820382	2.9047153	1.7043226
30.495941546144504	2.8525035	1.6889356
30.51410819912835	2.8419952	1.6858218
30.532275637713795	2.8425684	1.6859918
30.55044386245946	2.8289292	1.6819421
30.56861287392416	2.8387158	1.6848489
30.586782672666956	2.8554487	1.6898073
30.604953259247047	2.8699684	1.6940981
30.623124634223885	2.8449008	1.6866834
30.641296798157075	2.7969687	1.6724141
30.659469751606462	2.7962244	1.6721915
30.677643495132074	2.7882183	1.6697959
30.695818029294152	2.773734	1.6654531
30.713993354653116	2.7466183	1.6572925
30.73216947176962	2.7213473	1.6496507
30.75034638120448	2.6806211	1.6372602
30.768524083518756	2.6357455	1.623498
30.786702579273673	2.652232	1.6285675
30.80488186903069	2.7578335	1.6606725
30.82306195335144	2.9354	1.713301
30.841242832797782	3.1964529	1.7878627
30.85942450793176	3.484093	1.8665725
30.877606979315637	3.7396255	1.9338111
30.895790247511883	3.9887297	1.9971805
30.913974313083134	4.505792	2.1226852
30.932159176592283	4.9632306	2.227831
30.95034483860237	5.0117326	2.23869
30.968531299676698	4.706723	2.1694984
30.98671856037873	4.327013	2.0801473
31.00490662127215	4.01095	2.0027356
31.023095482920848	3.620311	1.9027115
31.04128514588892	3.1180444	1.7657986
31.059475610740662	2.7547812	1.6597533
31.07766687804056	2.568604	1.6026865
31.09585894835335	2.539477	1.5935737
31.11405182224393	2.5127194	1.585156
31.132245500277417	2.4808376	1.5750675
31.15043998301914	2.4788494	1.5744362
31.168635271034628	2.4918742	1.5785671
31.18683136488964	2.4269533	1.5578682
31.20502826515008	2.3490934	1.5326753
31.223225972382135	2.34334	1.5307971
31.241424487152155	2.4105601	1.5525979
31.259623810026692	2.4550562	1.5668619
31.27782394157253	2.4532585	1.5662881
31.296024882356644	2.4722354	1.5723344
31.314226632946237	2.5108247	1.5845582
31.332429193908684	2.5212262	1.587837
31.350632565811598	2.4858537	1.576659
31.368836749222787	2.424807	1.5571792
31.387041744710295	2.4616487	1.5689642
31.40524755284232	2.5646079	1.6014394
31.423454174187317	2.521347	1.587875
31.441661609313922	2.459706	1.568345
31.459869858791002	2.4582222	1.5678718
31.478078923187628	2.4483001	1.5647045
31.496288803073064	2.438878	1.5616908
31.514499499016807	2.354613	1.5344748
31.532711011588546	2.2871664	1.512338
31.550923341358178	2.3237014	1.5243691
31.56913648889584	2.346486	1.5318245
31.587350454771844	2.300525	1.5167482
31.605565239556732	2.2200165	1.489972
31.62378084382127	2.2371294	1.4957037
31.641997268136382	2.285754	1.511871
31.660214513073274	2.379871	1.542683
31.67843257920331	2.3876905	1.5452154
31.6966514670981	2.3329802	1.5274097
31.71487117732944	2.289858	1.5132277
31.733091710469346	2.314519	1.5213543
31.751313067090052	2.300508	1.5167426
31.769535247764008	2.2827032	1.5108618
31.787758253063878	2.2276077	1.4925172
31.805982083562526	2.2318828	1.4939487
31.824206739833024	2.2713845	1.5071113
31.84243222244869	2.3160627	1.5218616
31.860658531983013	2.2624757	1.5041528
31.878885669009737	2.2227468	1.4908879
31.897113634102784	2.2312775	1.4937462
31.91534242783632	2.2727544	1.5075657
31.933572050784694	2.2355485	1.4951751
31.951802503522508	2.232084	1.494016
31.970033786624548	2.2413807	1.4971242
31.988265900665834	2.1913953	1.4803362
32.006498846221575	2.1736357	1.4743255
32.02473262386724	2.178036	1.4758171
32.04296723417845	2.130726	1.4597007
32.0612026777311	2.1121724	1.4533315
32.07943895510129	2.168374	1.47254
32.097676066865304	2.2101116	1.4866444
32.115914013599685	2.1413288	1.463328
32.13415279588115	2.1164145	1.4547902
32.152392414286666	2.0578535	1.434522
32.1706328693934	2.0191305	1.4209611
32.18887416177875	2.0122023	1.4185212
32.20711629202032	2.1205025	1.4561945
32.225359260695924	2.2360377	1.4953387
32.243603068383614	2.297206	1.5156536
32.26184771566166	2.2137678	1.4878736
32.28009320310852	2.1280165	1.4587723
32.2983395313029	2.1062288	1.4512852
32.31658670082372	2.2019312	1.4838905
32.33483471225012	2.1883907	1.479321
32.35308356616143	2.1525862	1.4671694
32.371333263137245	2.1232355	1.4571326
32.38958380375734	2.1451023	1.4646168
32.407835188601744	2.1424267	1.463703
32.42608741825067	2.1621268	1.4704173
32.444340493284585	2.075255	1.4405745
32.46259441428416	1.9469081	1.3953165
32.48084918183028	1.9383818	1.3922578
32.49910479650405	2.0564482	1.4340322
32.51736125888683	2.16899	1.4727491
32.53561856956014	2.1788654	1.4760981
32.5538767291058	2.1216836	1.4566001
32.572135738105764	2.1205356	1.4562058
32.59039559714228	2.2231166	1.491012
32.608656306797776	2.1727076	1.4740107
32.62691786765491	2.1071627	1.451607
32.645180280296586	2.1005166	1.4493159
32.663443545305896	2.1527982	1.4672416
32.68170766326619	2.103037	1.4501852
32.69997263476099	2.0009024	1.4145325
32.7182384603741	1.9120345	1.3827634
32.7365051406895	1.9862409	1.4093406
32.75477267629144	2.1199799	1.4560151
32.77304106776434	2.050419	1.4319284
32.79131031569289	1.917683	1.3848044
32.809580420661966	1.9032555	1.3795853
32.827851383256714	1.9720712	1.4043045
32.84612320406245	2.0296013	1.4246408
32.86439588366476	2.039174	1.4279965
32.88266942264945	2.0545902	1.4333842
32.9009438216025	2.041844	1.428931
32.9192190811102	2.0076847	1.4169279
32.937495201758985	2.0111063	1.4181348
32.95577218413556	2.0210285	1.4216288
32.974050028826866	1.9351411	1.3910935
32.992328736420035	1.8465532	1.3588794
33.010608307502444	1.9044168	1.3800061
33.02888874266169	1.9497145	1.3963218
33.047170042485604	1.9191123	1.3853203
33.06545220756225	1.9211631	1.3860602
33.083735238479896	1.9524359	1.397296
33.10201913582707	2.0493987	1.4315721
33.12030390019248	1.951037	1.3967953
33.138589532165135	1.9081731	1.3813664
33.15687603233419	1.9639827	1.4014217
33.17516340128909	1.9660887	1.4021728
33.19345163961947	1.900634	1.3786348
33.211740747915215	1.8984458	1.377841
33.23003072676643	1.9450337	1.3946446
33.248321576763466	2.0016723	1.4148047
33.266613298496885	1.9854155	1.4090477
33.28490589255747	1.9703707	1.4036989
33.30319935953626	2.0009131	1.4145364
33.32149370002451	1.9338837	1.3906415
33.339788914613706	1.8145077	1.3470366
33.358085003895575	1.9216758	1.3862453
33.376381968462034	2.0420609	1.4290069
33.39467980890529	1.9704176	1.4037156
33.41297852581774	1.851756	1.3607924
33.43127811979204	1.8220923	1.349849
33.44957859142105	1.7225823	1.3124719
33.467879941297866	1.7956785	1.3400292
33.486182170015844	1.8546095	1.3618405
33.50448527816853	1.8239694	1.3505441
33.522789266349754	1.818813	1.3486338
33.541094135153514	1.8410903	1.3568678
33.55939988517411	1.8690084	1.3671168
33.57770651700602	1.9049193	1.3801881
33.59601403124398	2.0014365	1.4147214
33.61432242848296	2.047927	1.4310579
33.632631709318154	1.9964664	1.4129637
33.650941874344994	1.9327533	1.390235
33.66925292415916	2.0345924	1.4263914
33.68756485935654	2.070453	1.4389069
33.70587768053328	1.9569677	1.3989166
33.724191388285746	1.942372	1.3936901
33.74250598321054	1.9440783	1.3943021
33.760821465904506	1.9417554	1.3934689
33.77913783696474	1.9682717	1.4029511
33.79745509698852	1.9561533	1.3986255
33.815773246573414	1.9396138	1.3927002
33.8340922863172	1.8237695	1.3504701
33.852412216817896	1.839329	1.3562187
33.87073303867377	1.8452697	1.358407
33.889054752483304	1.9114851	1.3825647
33.907377358845245	2.00401	1.4156306
33.92570085835853	1.9745389	1.4051828
33.94402525162239	1.9161944	1.3842667
33.96235053923627	1.969323	1.4033257
33.980676721799824	1.9397327	1.3927429
33.999003799912984	1.9369355	1.3917383
34.01733177417592	2.0141547	1.4192091
34.03566064518901	1.9507712	1.3967001
34.0539904135529	1.9104681	1.3821968
34.07232107986846	1.9006504	1.3786408
34.090652644736785	1.9110895	1.3824216
34.108985108759235	1.923477	1.3868947
34.12731847253742	1.9187162	1.3851774
34.14565273667313	1.9494101	1.3962128
34.16398790176847	1.9468801	1.3953065
34.18232396842574	1.9998902	1.4141748
34.20066093724749	1.960507	1.400181
34.21899880883651	1.8827611	1.3721374
34.23733758379583	1.8467873	1.3589655
34.25567726272874	1.8342562	1.3543471
34.27401784623872	1.85482	1.3619177
34.29235933492957	1.9469861	1.3953444
34.31070172940526	2.014468	1.4193195
34.32904503027003	2.1465414	1.4651079
34.347389238128386	2.221268	1.4903919
34.36573435358502	2.158032	1.4690242
34.38408037724492	2.0198188	1.4212033
34.402427309713296	2.0460122	1.4303888
34.42077515159559	2.1748507	1.4747375
34.43912390349752	2.210391	1.4867384
34.45747356602499	2.0587091	1.4348203
34.47582413978423	2.0438793	1.429643
34.49417562538163	2.0616314	1.4358382
34.51252802342388	1.9771012	1.4060943
34.53088133451789	1.9077803	1.3812242
34.54923555927084	1.8488339	1.3597183
34.567590698290104	1.8925252	1.3756908
34.58594675218336	1.9154364	1.3839929
34.6043037215585	1.8346646	1.3544979
34.62266160702365	2.033715	1.4260838
34.641020409187234	2.0745275	1.440322
34.65938012865785	2.0286353	1.4243016
34.677740766044394	2.100239	1.4492202
34.69610232195598	2.1977396	1.4824775
34.714464797002016	2.2164345	1.4887694
34.73282819179208	2.1968782	1.4821869
34.751192506936064	2.105507	1.4510365
34.76955774304408	1.9614687	1.4005244
34.7879239007265	1.7877089	1.3370523
34.80629098059391	1.7634946	1.3279663
34.824658983257194	1.8436555	1.3578128
34.843027909327446	1.959546	1.3998379
34.86139775941603	1.9958092	1.4127312
34.879768534134534	1.9591442	1.3996943
34.89814023409483	2.0673552	1.43783
34.91651285990901	2.1070254	1.4515597
34.93488641218944	1.9149325	1.3838109
34.95326089154871	1.9604921	1.4001758
34.97163629859967	2.0866306	1.4445174
34.99001263395542	2.0144646	1.4193183
35.00838989822934	1.8269159	1.3516345
35.02676809203499	1.7599592	1.3266345
35.04514721598624	1.7606657	1.3269007
35.063527270697215	1.9412912	1.3933023
35.081908256782256	2.2316954	1.493886
35.10029017485597	2.1544743	1.4678128
35.11867302553321	1.784092	1.3356991
35.137056809429104	1.721573	1.3120873
35.155441527159006	1.8856475	1.3731889
35.173827179338524	1.8629582	1.3649023
35.19221376658354	1.9266409	1.3880349
35.21060128951017	1.9015751	1.3789761
35.2289897487348	1.7567323	1.3254178
35.24737914487405	1.8376735	1.3556082
35.26576947854479	1.8652436	1.3657392
35.28416075036418	1.9830108	1.4081942
35.30255296094958	2.222504	1.4908065
35.32094611091867	2.2719436	1.5072968
35.33934020088932	2.0964575	1.4479148
35.35773523147969	2.0065365	1.4165226
35.3761312033082	2.075038	1.4404992
35.394528116993506	1.8892256	1.374491
35.41292597315452	1.8571419	1.36277
35.431324772410434	1.9482877	1.3958107
35.449724515380666	1.9981873	1.4135725
35.46812520268491	2.1862092	1.4785835
35.486526834943106	2.1083739	1.4520241
35.504929412775454	2.1710534	1.4734495
35.52333293680242	2.1693845	1.4728831
35.54173740764471	1.9959425	1.4127783
35.560142825923286	1.5350153	1.2389574
35.5785491922594	1.3475732	1.1608502
35.59695650727454	1.5539938	1.2465929
35.61536477159042	1.7820303	1.3349271
