0.008763373481513119	0.0	0.0
0.026290120649546365	0.17179282	0.414479
0.043816868432600686	0.25175577	0.5017527
0.06134361724069026	0.23460844	0.48436394
0.07887036748382949	0.21562289	0.4643521
0.0963971195720331	0.17309935	0.4160521
0.11392387391531617	0.1897145	0.43556228
0.1314506309236943	0.16693	0.40857068
0.1489773910071836	0.113035224	0.33620712
0.16650415457580078	0.14470588	0.38040227
0.18403092203956356	0.1580327	0.39753327
0.20155769380849	0.13168547	0.3628849
0.2190844702925996	0.08925466	0.2987552
0.2366112519019124	0.07300309	0.27019083
0.2541380390464497	0.13107947	0.36204898
0.27166483213623416	0.15171827	0.3895103
0.28919163158128947	0.15237461	0.3903519
0.3067184377916406	0.16167383	0.40208685
0.324245251177314	0.16671315	0.40830523
0.34177207214833777	0.1433968	0.3786777
0.3592989011147415	0.11407667	0.33775237
0.37682573848655654	0.12375567	0.35178924
0.39435258467381573	0.11434987	0.33815658
0.41187944008655414	0.105234735	0.32439902
0.42940630513480854	0.09574818	0.30943203
0.446933180228618	0.10287861	0.32074696
0.4644600657780234	0.13537936	0.36793935
0.48198696219306775	0.14058213	0.37494284
0.49951386988379676	0.1441403	0.37965813
0.5170407892602581	0.13758276	0.3709215
0.5345677207325025	0.10068386	0.3173072
0.5520946647105822	0.13416268	0.36628225
0.5696216216045534	0.12814	0.35796648
0.5871485918244737	0.19388555	0.44032437
0.6046755757804043	0.19688949	0.4437223
0.6222025738824094	0.21868068	0.46763307
0.6397295865405557	0.21478243	0.46344626
0.6572566141649129	0.19725733	0.44413662
0.6747836571655547	0.17206413	0.41480613
0.6923107159525568	0.16662547	0.40819782
0.7098377909359992	0.2122415	0.46069676
0.7273648825259653	0.25209892	0.5020945
0.7448919911325411	0.24492095	0.4948949
0.762419117165817	0.23317882	0.48288593
0.7799462610358868	0.20186421	0.44929302
0.7974734231528482	0.21608493	0.46484935
0.8150006039268024	0.19616318	0.44290313
0.8325278037678551	0.20855206	0.456675
0.8500550230861152	0.19253121	0.4387838
0.8675822622916969	0.18241933	0.42710575
0.8851095217947171	0.19301449	0.43933415
0.9026368020052984	0.20217827	0.4496424
0.9201641033335665	0.18913591	0.43489757
0.9376914261896523	0.20349276	0.45110172
0.9552187709836915	0.2258093	0.47519398
0.9727461381258234	0.23717298	0.48700407
0.990273528026193	0.28243205	0.53144336
1.0078009410949496	0.26062882	0.5105182
1.0253283777422473	0.25677046	0.50672525
1.0428558383782454	0.2102278	0.45850605
1.0603833234131086	0.19741842	0.44431794
1.0779108332570058	0.24445613	0.49442506
1.0954383683201119	0.31233296	0.5588676
1.112965929012607	0.3926233	0.6265966
1.1304935157446763	0.55140287	0.74256504
1.1480211289265108	0.56920713	0.7544582
1.1655487689683062	1.305905	1.142762
1.1830764362802655	1.5377682	1.2400678
1.200604131272596	1.9182692	1.385016
1.2181318543555117	2.4195378	1.5554863
1.235659605939232	2.385789	1.5445999
1.253187386433982	3.7570124	1.9383014
1.270715196249994	5.8083873	2.4100597
1.2882430357975057	11.010404	3.3181927
1.3057709054867608	15.500402	3.937055
1.3232988057280106	21.059977	4.589115
1.3408267369315112	25.992668	5.0983005
1.358354699507526	29.630636	5.443403
1.3758826938663256	33.89028	5.821536
1.3934107204181858	35.878937	5.989903
1.410938779573391	36.38655	6.0321264
1.4284668717422309	37.050358	6.0869007
1.4459949973350033	36.99764	6.0825686
1.4635231567620117	36.776413	6.064356
1.4810513504335687	36.04966	6.004137
1.4985795787599925	35.170795	5.930497
1.5161078421516088	34.68404	5.8893156
1.5336361410187505	33.653206	5.8011384
1.5511644757717598	33.345737	5.7745767
1.5686928468209842	33.89765	5.822169
1.58622125457678	34.245274	5.8519464
1.6037496994495108	35.84805	5.987324
1.621278181849548	36.019875	6.001656
1.6388067021872719	36.808067	6.066965
1.6563352608730693	36.11423	6.009512
1.673863858317336	35.440277	5.9531736
1.6913924949304753	34.98225	5.9145794
1.7089211711228998	33.94023	5.8258247
1.7264498873050296	32.697895	5.7182074
1.7439786438872935	31.312943	5.595797
1.7615074412801288	30.638332	5.5351906
1.779036279893981	30.155706	5.491421
1.796565160139305	29.191195	5.402888
1.814094082426564	28.432774	5.332239
1.8316230471662298	27.611319	5.2546473
1.849152054768784	27.174973	5.212962
1.8666811056447168	26.788805	5.1757903
1.8842102002045273	26.09904	5.1087217
1.901739338858724	25.670246	5.0665812
1.9192685220178245	25.32566	5.0324607
1.9367977500923557	24.476034	4.947326
1.9543270234928547	24.055748	4.904666
1.971856342629867	23.37397	4.8346634
1.9893857079139496	22.991821	4.7949786
2.006915119755667	22.28946	4.7211714
2.0244445785655945	21.509863	4.6378727
2.0419740847543175	21.212946	4.6057515
2.0595036387324317	20.854456	4.566668
2.0770332409105414	20.498188	4.5274925
2.094562891699263	20.096766	4.4829416
2.1120925915092217	19.431175	4.4080806
2.129622340751053	18.997787	4.358645
2.1471521398354043	187.06245	13.677077
2.1646819891729323	443.4778	21.058912
2.182211889174303	439.8108	20.971666
2.1997418402501974	452.21283	21.265297
2.2172718428113023	431.97034	20.783895
2.234801897268317	319.8801	17.885193
2.2523320040319548	16.19392	4.024167
2.269862163512935	15.987788	3.9984732
2.287392376121992	15.9288	3.99109
2.304922642269869	15.720791	3.9649453
2.322452962367322	15.359001	3.9190562
2.3399833368251164	14.858392	3.8546584
2.357513766054032	14.874592	3.8567593
2.3750442504648586	14.832617	3.8513136
2.3925747904683963	14.502433	3.808206
2.410105386475459	14.153523	3.762117
2.4276360388968707	13.737401	3.7064
2.445166748143469	13.575626	3.6845117
2.4626975146261025	13.363199	3.655571
2.4802283387556323	13.177197	3.630041
2.4977592209429305	13.06192	3.6141279
2.5152901615988825	12.653594	3.557189
2.5328211611343865	12.355381	3.5150223
2.5503522199603523	12.067366	3.4738114
2.5678833384877024	11.92796	3.453688
2.5854145171273712	11.832854	3.4398916
2.6029457562903064	11.69338	3.4195585
2.620477056387469	11.557334	3.399608
2.6380084178298326	11.35733	3.3700638
2.655539841028383	11.010636	3.318228
2.673071326394119	10.799864	3.2863147
2.6906028743380523	10.755956	3.2796273
2.708134485271211	10.705473	3.2719219
2.7256661596046325	10.612406	3.2576687
2.743197897749369	10.253447	3.2021003
2.760729700116486	10.090781	3.176599
2.778261567117063	9.87853	3.1430128
2.795793499162193	9.807455	3.1316857
2.8133254966629817	9.747869	3.1221576
2.830857560030551	9.539345	3.088583
2.8483896896760337	9.421248	3.0694053
2.865921886010578	9.358969	3.0592432
2.883454149445347	9.276538	3.0457408
2.9009864803915177	9.154386	3.0256214
2.91851887926028	9.038303	3.0063772
2.9360513464628384	8.872783	2.9787216
2.953583882410413	8.712934	2.951768
2.9711164875142373	8.750807	2.9581764
2.9886491621855606	8.653701	2.9417174
3.0061819068356455	8.574111	2.9281583
3.023714721875769	8.5188	2.9186983
3.041247607717225	8.285735	2.8784952
3.0587805647713213	8.100495	2.8461368
3.0763135934493806	7.9183526	2.8139567
3.0938466941627407	7.7920146	2.791418
3.1113798673227544	7.800038	2.7928548
3.1289131133407904	7.750414	2.7839565
3.1464464326282315	7.606739	2.7580318
3.1639798255964786	7.62536	2.7614055
3.1815132926569443	7.3417826	2.7095723
3.1990468342210603	7.244912	2.6916375
3.216580450700272	7.1205163	2.6684296
3.2341141425060416	6.994316	2.644677
3.251647910049847	7.047844	2.6547775
3.2691817537431813	6.964445	2.6390235
3.286715673997555	6.911697	2.6290107
3.3042496712244938	6.7469783	2.5974946
3.32178374583554	6.679067	2.5843892
3.339317898242251	6.6542773	2.5795887
3.3568521288562034	6.665274	2.5817192
3.3743864380889876	6.633029	2.5754666
3.3919208263522127	6.6622996	2.5811431
3.4094552940575023	6.550181	2.5593321
3.4269898416164972	6.49586	2.5486977
3.444524469440858	6.420563	2.533883
3.4620591779422587	6.347582	2.519441
3.479593967532391	6.2551794	2.5010357
3.4971288386229658	6.124141	2.4747002
3.5146637916257086	6.065943	2.4629135
3.5321988269523628	6.037395	2.4571111
3.5497339450146903	6.0710235	2.4639447
3.5672691462244708	6.0541425	2.4605167
3.5848044309934988	6.080515	2.46587
3.60233979973359	6.19166	2.4883046
3.619875252856575	6.231112	2.4962196
3.6374107907743034	6.2771106	2.5054162
3.6549464138986427	6.1854525	2.487057
3.6724821226414788	6.0915465	2.4681058
3.690017917414714	6.001256	2.4497461
3.7075537986302702	6.0127635	2.4520936
3.7250897667000857	6.1183405	2.473528
3.7426258220361235	6.2490673	2.4998136
3.7601619650503553	6.5714927	2.5634923
3.777698196154779	7.1090755	2.666285
3.7952345157614067	8.289258	2.8791072
3.8127709242822716	9.155059	3.0257328
3.830307422129425	11.420383	3.3794057
3.847844009714936	30.151451	5.4910336
3.8653806874508954	97.61827	9.880196
3.882917455749409	96.785904	9.837983
3.900454315022606	96.49796	9.823338
3.917991265682631	40.969875	6.4007716
3.9355283081416506	10.583943	3.2532973
3.9530654428118495	8.351706	2.8899317
3.970602670105433	7.0964866	2.6639233
3.9881399904346244	6.2982693	2.5096352
4.005677404211669	6.300629	2.5101054
4.023214911848827	6.3034453	2.5106664
4.0407525137583855	6.240928	2.498185
4.058290210352644	6.15513	2.4809535
4.075828002043927	6.061977	2.4621081
4.0933658892445814	5.966897	2.4427233
4.110903872366966	5.9454284	2.438325
4.128441951823468	5.9757166	2.4445279
4.145980128026488	5.995253	2.4485207
4.163518401388452	6.004218	2.4503505
4.181056772321807	5.949451	2.4391496
4.1985952412390155	5.9640627	2.442143
4.216133808552567	5.9689255	2.4431384
4.233672474674966	6.0006003	2.4496124
4.251211240018741	6.1826935	2.4865022
4.268750104996445	6.3295918	2.515868
4.286289070020643	7.20053	2.6833804
4.303828135503928	8.834622	2.9723094
4.3213673018589125	29.255293	5.4088163
4.3389065694982305	90.467255	9.511428
4.356445938834537	165.7075	12.872743
4.3739854102805085	170.49504	13.057375
4.391524984248844	171.3623	13.090543
4.409064661152262	135.25455	11.629899
4.426604441403504	95.64142	9.779643
4.444144325415337	75.0045	8.660514
4.461684313600543	21.058298	4.588932
4.47922440637193	21.669046	4.655002
4.496764604142329	20.037186	4.4762917
4.5143049073245916	18.316547	4.2797837
4.531845316331589	16.203566	4.0253654
4.5493858315762195	13.086827	3.617572
4.566926453471405	10.87053	3.2970488
4.584467182430081	8.79443	2.9655404
4.602008018865218	7.722257	2.778895
4.619548963189798	7.0887823	2.6624768
4.637090015816834	6.651698	2.5790887
4.654631177159353	6.480468	2.5456762
4.672172447630417	6.21159	2.4923062
4.689713827643102	6.065177	2.462758
4.7072553176105085	5.817446	2.4119382
4.724796917945764	5.6413574	2.3751543
4.742338629062015	5.576474	2.361456
4.759880451372434	5.6177306	2.3701751
4.777422385290215	5.5492387	2.3556821
4.794964431228581	5.5665417	2.3593519
4.812506589600768	5.4265156	2.3294883
4.830048860820047	5.4225264	2.3286319
4.847591245299709	5.378355	2.319128
4.8651337434530655	5.3791223	2.3192935
4.882676355693457	5.3957243	2.3228698
4.900219082434242	5.377017	2.3188396
4.917761924088813	5.406758	2.3252437
4.935304881070575	5.3749356	2.3183908
4.952847953792969	5.4386053	2.3320818
4.970391142669449	5.329275	2.3085222
4.9879344481135055	5.3070536	2.3037043
5.005477870538642	5.2437797	2.28993
5.023021410358394	5.268132	2.295241
5.040565067986324	5.2722244	2.2961326
5.05810884383601	5.249375	2.2911515
5.075652738321066	5.2342477	2.2878478
5.09319675185512	5.1834497	2.276719
5.110740884851836	5.211427	2.282855
5.128285137724894	5.2458763	2.2903879
5.145829510888007	5.210404	2.282631
5.163374004754908	5.1477647	2.2688687
5.1809186197393595	5.0796275	2.253803
5.198463356255145	5.1374693	2.2665987
5.216008214716077	5.100849	2.258506
5.233553195535998	5.064134	2.250363
5.251098299128764	4.962365	2.2276366
5.268643525908272	4.920289	2.2181726
5.286188876288432	4.9568505	2.2263985
5.3037343506831895	5.066815	2.2509587
5.32127994950651	5.067945	2.2512097
5.3388256731723915	5.1182823	2.262362
5.356371522094851	5.0619464	2.249877
5.373917496687938	5.03631	2.2441726
5.391463597365729	5.006673	2.2375596
5.40900982454232	5.015903	2.2396212
5.426556178631843	5.035365	2.2439618
5.444102660048449	5.029332	2.2426174
5.4616492692063225	5.0079384	2.2378423
5.479196006519669	5.054657	2.2482564
5.496742872402727	5.0916357	2.2564652
5.514289867269756	5.131992	2.26539
5.531836991535049	5.0947075	2.257146
5.549384245612924	5.0579743	2.248994
5.566931629917724	5.0843024	2.25484
5.584479144863822	5.003496	2.2368495
5.6020267908656205	4.981396	2.2319043
5.619574568337545	4.938996	2.2223852
5.637122477694054	4.9553995	2.2260725
5.654670519349629	4.9674144	2.2287698
5.672218693718784	4.98535	2.2327898
5.689767001216059	4.95243	2.2254055
5.707315442256021	4.9438787	2.2234836
5.724864017253266	4.9216657	2.2184827
5.7424127266224225	4.890301	2.2114027
5.75996157077814	4.933482	2.2211444
5.777510550135105	4.919132	2.2179117
5.795059665108022	4.9524794	2.2254167
5.812608916111639	5.0153303	2.2394934
5.830158303560715	5.0721183	2.2521365
5.847707827870055	5.10185	2.2587276
5.86525748945448	5.2004375	2.2804468
5.8828072887288485	5.29203	2.3004413
5.900357226108044	5.3584266	2.3148274
5.917907302006979	5.4391246	2.3321931
5.9354575168406	6.1414814	2.4782012
5.9530078710238765	6.866738	2.6204462
5.970558364971812	7.5130577	2.7409956
5.988108999099438	7.8222055	2.7968206
6.005659773821818	8.332794	2.886658
6.023210689554039	8.028968	2.8335433
6.040761746711227	8.422286	2.9021175
6.058312945708531	7.7721896	2.7878647
6.075864286961132	7.310388	2.703773
6.093415770884244	6.569377	2.5630796
6.1109673978931065	5.973655	2.4441063
6.128519168402993	5.3249674	2.307589
6.146071082829204	5.283338	2.2985513
6.163623141587075	5.208801	2.2822797
6.181175345091969	5.0697236	2.2516046
6.198727693759281	4.9882164	2.2334316
6.216280188004435	4.9702945	2.2294157
6.233832828242885	4.911517	2.2161944
6.251385614890126	4.836413	2.1991847
6.268938548361669	4.8255024	2.1967027
6.286491629073067	4.7766905	2.185564
6.304044857439898	4.8749547	2.2079298
6.321598233877777	4.8358984	2.1990676
6.339151758802344	4.917905	2.217635
6.356705432629277	4.8653216	2.2057474
6.37425925577428	4.849541	2.2021673
6.391813228653095	4.88328	2.2098143
6.409367351681486	4.920142	2.2181394
6.426921625275259	4.910321	2.2159245
6.44447604985025	4.869064	2.2065954
6.46203062582232	4.8607736	2.2047162
6.47958535360737	4.7883554	2.188231
6.497140233621328	4.783143	2.1870399
6.514695266280161	4.7934775	2.1894011
6.532250451999859	4.8172016	2.1948125
6.549805791196454	4.863545	2.2053447
6.567361284286002	4.8793635	2.208928
6.584916931684597	4.9012456	2.2138758
6.602472733808367	4.8767195	2.2083297
6.6200286910734665	4.845419	2.2012312
6.637584803896092	4.7981725	2.190473
6.655141072692462	4.7487016	2.1791515
6.672697497878842	4.730313	2.1749282
6.690254079871514	4.752056	2.1799212
6.707810819086808	4.765015	2.1828914
6.725367715941078	4.755147	2.18063
6.742924770850719	4.768743	2.1837451
6.760481984232151	4.730503	2.174972
6.778039356501836	4.7573204	2.1811283
6.795596888076266	4.737014	2.1764681
6.813154579371963	4.794273	2.1895828
6.830712430805492	4.8088856	2.192917
6.84827044279344	4.8258243	2.196776
6.865828615752445	4.7925167	2.1891818
6.883386950099159	4.818629	2.1951375
6.900945446250287	4.842582	2.2005868
6.918504104622553	4.8280478	2.1972818
6.936062925632727	4.8441753	2.2009487
6.953621909697607	4.860443	2.2046413
6.971181057234028	4.860066	2.2045557
6.988740368658859	4.8826675	2.2096758
7.006299844389007	4.9164047	2.2172966
7.023859484841407	5.056346	2.248632
7.041419290433036	5.1475434	2.2688198
7.058979261580902	5.2895107	2.2998936
7.0765393987020495	5.4467525	2.333828
7.094099702213559	5.7439117	2.396646
7.111660172532549	6.114673	2.4727864
7.129220810076164	6.5260544	2.5546143
7.146781615261595	7.091045	2.6629016
7.16434258850606	7.2829595	2.698696
7.181903730226821	7.544408	2.7467086
7.1994650408411704	7.5774446	2.7527158
7.217026520766437	7.7942586	2.79182
7.234588170419983	8.131998	2.8516657
7.252149990219215	8.309286	2.8825831
7.269711980581568	8.278007	2.8771524
7.2872741419245175	8.074415	2.8415515
7.304836474665574	7.6827416	2.771776
7.322398979222286	7.3119106	2.7040546
7.339961656012233	6.9591017	2.638011
7.357524505453039	6.574932	2.564163
7.375087527962357	6.287516	2.507492
7.392650723957886	6.0794597	2.465656
7.410214093857353	5.751545	2.398238
7.427777638078528	5.540334	2.3537915
7.445341357039213	5.3483224	2.312644
7.4629052511572525	5.180786	2.276134
7.480469320850524	5.103509	2.2590947
7.498033566536948	5.0389094	2.2447515
7.5155979886344735	5.008549	2.237979
7.5331625875610975	4.988521	2.2334998
7.550727363734844	5.052055	2.2476776
7.568292317573788	5.054822	2.2482932
7.585857449496025	5.0114007	2.2386158
7.603422759919705	4.9856105	2.2328482
7.620988249263007	5.0081563	2.237891
7.638553917944147	4.989678	2.2337587
7.656119766381391	5.0111847	2.2385676
7.673685794993023	5.0005703	2.2361956
7.691252004197388	4.9756827	2.230624
7.70881839441285	5.0615444	2.2497876
7.726384966057826	5.0385246	2.2446659
7.743951719550762	5.0919952	2.256545
7.761518655310149	5.080829	2.2540696
7.779085773754511	5.15284	2.2699869
7.796653075302419	5.1247044	2.263781
7.814220560372475	5.072028	2.2521164
7.831788229383323	5.1128507	2.2611613
7.8493560827536495	5.1330485	2.265623
7.866924120902174	5.1224732	2.2632883
7.884492344247663	5.0631223	2.2501383
7.9020607532089135	5.098214	2.2579224
7.919629348204771	5.1496387	2.2692816
7.937198129654115	5.2061424	2.2816973
7.954767097975865	5.1499557	2.2693515
7.972336253588986	5.1641917	2.2724857
7.989905596912472	5.1826797	2.27655
8.007475128365371	5.2101016	2.2825646
8.025044848366756	5.2751203	2.296763
8.042614757335754	5.3386064	2.3105423
8.060184855691523	5.372459	2.3178566
8.07775514385327	5.4414067	2.3326824
8.095325622240228	5.507025	2.3467052
8.112896291271687	5.608879	2.368307
8.130467151366968	5.685346	2.3843963
8.148038202945436	5.7040057	2.3883061
8.165609446426497	5.6686163	2.3808856
8.183180882229594	5.766123	2.4012752
8.200752510774217	5.7595015	2.3998961
8.218324332479893	5.742587	2.3963695
8.235896347766193	5.717092	2.3910441
8.253468557052724	5.7815204	2.4044793
8.27104096075914	5.840619	2.4167373
8.288613559305137	5.875115	2.4238636
8.306186353110448	5.933818	2.435943
8.32375934259485	6.0422444	2.4580977
8.341332528178162	6.1154823	2.4729502
8.358905910280246	6.1595716	2.4818485
8.376479489321003	6.0886664	2.4675224
8.394053265720377	6.057164	2.4611306
8.411627239898356	6.0452924	2.4587176
8.42920141227497	6.070363	2.4638107
8.44677578327029	6.1410403	2.4781122
8.464350353304427	6.0882354	2.467435
8.48192512279754	6.064232	2.4625661
8.499500092169827	6.038095	2.4572535
8.51707526184153	5.9967637	2.448829
8.534650632232934	5.993876	2.4482393
8.552226203764365	5.9605513	2.4414241
8.569801976856192	5.9491644	2.439091
8.587377951928834	5.9849644	2.4464188
8.60495412940274	6.0096183	2.4514523
8.622530509698416	6.038665	2.4573696
8.6401070932364	6.1064696	2.4711273
8.657683880437283	6.194278	2.4888306
8.675260871721695	6.322488	2.5144558
8.692838067510303	6.4940033	2.5483334
8.710415468223834	6.596278	2.568322
8.727993074283043	6.7218704	2.592657
8.745570886108737	6.711753	2.5907052
8.763148904121765	6.811892	2.60996
8.78072712874302	6.8802066	2.6230147
8.798305560393441	7.052453	2.6556456
8.815884199494006	7.1926804	2.6819172
8.833463046465745	7.3115587	2.7039895
8.851042101729728	7.527929	2.7437072
8.86862136570707	7.7735124	2.788102
8.886200838818924	7.932378	2.8164477
8.903780521486505	7.9523363	2.8199887
8.921360414131055	8.061763	2.8393245
8.938940517173874	8.209784	2.865272
8.956520831036297	8.411087	2.9001875
8.97410135613971	8.684239	2.9469035
8.99168209290554	8.906436	2.9843652
9.009263041755265	9.216052	3.0357952
9.026844203110405	9.528059	3.0867555
9.044425577392525	9.739237	3.120775
9.062007165023239	9.812843	3.1325457
9.079588966424197	9.994795	3.1614544
9.097170982017108	10.082276	3.17526
9.11475321222372	11.200179	3.3466668
9.132335657465825	12.086282	3.476533
9.149918318165264	12.186068	3.4908547
9.167501194743924	12.8152685	3.5798419
9.18508428762374	12.523469	3.5388513
9.202667597226693	12.651595	3.5569081
9.220251123974803	12.337043	3.5124128
9.237834868290143	11.915613	3.4519
9.255418830594836	11.660318	3.4147208
9.273003011311046	11.169141	3.3420265
9.290587410860985	10.874331	3.297625
9.308172029666911	10.245583	3.2008722
9.32575686815113	9.924295	3.150285
9.343341926735997	8.574774	2.9282715
9.360927205843916	8.2833605	2.8780828
9.378512705897327	8.014962	2.831071
9.396098427318728	7.7598176	2.785645
9.413684370530664	7.685661	2.7723024
9.431270535955722	7.602349	2.7572358
9.448856924016539	7.5313535	2.7443311
9.466443535135806	7.4709444	2.7333028
9.484030369736251	7.482913	2.7354913
9.501617428240658	7.5184064	2.7419713
9.519204711071852	7.466829	2.73255
9.536792218652714	7.5146055	2.7412782
9.55437995140617	7.5636935	2.750217
9.571967909755191	7.6162868	2.759762
9.589556094122802	7.7067056	2.7760954
9.60714450493207	7.711574	2.776972
9.624733142606116	7.7449164	2.782969
9.642322007568108	7.741152	2.7822926
9.659911100241267	7.7188106	2.7782748
9.677500421048851	7.771928	2.7878177
9.695089970414175	7.803795	2.7935274
9.712679748760609	7.8600173	2.8035722
9.730269756511557	7.857008	2.8030355
9.747859994090492	7.8426776	2.8004782
9.765450461920915	7.8365793	2.7993891
9.78304116042639	7.9270167	2.8154957
9.800632090030527	7.964235	2.8220975
9.81822325115699	8.067505	2.8403354
9.835814644229481	8.054659	2.838073
9.853406269671762	7.9737678	2.823786
9.870998127907646	7.8764687	2.8065047
9.888590219360985	7.887415	2.8084543
9.906182544455698	7.885318	2.808081
9.923775103615734	7.9463377	2.818925
9.941367897265108	7.9555674	2.8205616
9.958960925827878	8.084385	2.8433053
9.97655418972816	8.129714	2.8512654
9.994147689390106	8.1755905	2.859299
10.011741425237934	8.09334	2.8448796
10.029335397695904	8.044029	2.8361998
10.04692960718833	8.060925	2.8391767
10.06452405413958	8.061319	2.8392463
10.082118738974064	8.133957	2.8520093
10.099713662116246	8.150256	2.8548653
10.117308823990651	8.023558	2.8325884
10.134904225021844	7.9469366	2.8190312
10.152499865634445	7.910897	2.8126316
10.170095746253125	7.906524	2.8118541
10.18769186730261	7.962096	2.8217187
10.205288229207675	7.9388356	2.817594
10.222884832393145	7.9446507	2.8186257
10.2404816772839	7.9709783	2.823292
10.258078764304868	7.9868193	2.826096
10.275676093881035	7.930651	2.8161411
10.293273666437438	7.899925	2.8106806
10.310871482399158	7.877507	2.8066897
10.32846954219134	7.895477	2.809889
10.346067846239173	7.967756	2.8227212
10.363666394967908	7.9959273	2.827707
10.38126518880283	7.9596405	2.8212836
10.398864228169298	8.014264	2.8309476
10.416463513492713	8.011826	2.8305168
10.434063045198531	7.951157	2.8197796
10.451662823712262	7.9417105	2.818104
10.469262849459467	7.96382	2.822024
10.486863122865758	7.924719	2.8150878
10.504463644356806	7.877059	2.8066099
10.522064414358338	7.748577	2.7836266
10.539665433296118	7.719473	2.778394
10.557266701595987	7.611647	2.7589214
10.574868219683818	7.518911	2.7420633
10.592469987985552	7.434871	2.726696
10.610072006927185	7.3547115	2.7119572
10.627674276934751	7.317931	2.7051675
10.64527679843435	7.137574	2.671624
10.662879571852143	7.027323	2.65091
10.680482597614331	6.912826	2.6292253
10.698085876147173	6.876125	2.6222367
10.715689407876988	6.8350754	2.6143978
10.733293193230146	6.7267437	2.5935967
10.750897232633072	6.57796	2.5647533
10.76850152651225	6.442737	2.5382547
10.786106075294207	6.405412	2.5308917
10.803710879405534	6.3505583	2.5200315
10.821315939272877	6.2969985	2.509382
10.83892125532294	6.213805	2.4927506
10.856526827982472	6.2024164	2.4904652
10.874132657678285	6.1860085	2.4871688
10.891738744837243	6.140524	2.478008
10.909345089886271	6.029573	2.455519
10.926951693252343	5.9028873	2.429586
10.944558555362494	5.835045	2.4155838
10.96216567664381	5.777239	2.4035888
10.979773057523436	5.7349544	2.3947766
10.997380698428573	5.7036285	2.388227
11.014988599786477	5.648094	2.376572
11.032596762024461	5.5602956	2.358028
11.050205185569892	5.4509625	2.3347297
11.067813870850198	5.4112706	2.3262138
11.085422818292859	5.3657627	2.3164115
11.10303202832541	5.294119	2.3008952
11.120641501375454	5.231755	2.287303
11.138251237870636	5.2370963	2.2884703
11.155861238238671	5.2545643	2.2922835
11.173471502907317	5.203336	2.2810822
11.191082032304402	5.1042166	2.2592514
11.208692826857805	5.0030847	2.2367575
11.226303886995465	4.9793997	2.2314568
11.243915213145371	4.9815392	2.2319362
11.261526805735578	4.9201217	2.2181346
11.279138665194196	4.7777596	2.1858087
11.296750791949393	4.619967	2.149411
11.314363186429393	4.5891943	2.1422405
11.331975849062479	4.5767035	2.1393232
11.34958878027699	4.5987616	2.1444724
11.36720198050133	4.612905	2.1477675
11.384815450163948	4.483191	2.1173546
11.402429189693366	4.3885546	2.0948877
11.420043199518153	4.300325	2.0737224
11.437657480066942	63.308365	7.9566555
11.455272031768422	85.05983	9.222789
11.472886855051353	107.43907	10.365282
11.490501950344528	99.000084	9.949879
11.508117318076819	84.34916	9.18418
11.52573295867715	45.739803	6.7631207
11.543348872574514	4.0464106	2.0115693
11.560965060197946	4.005234	2.001308
11.57858152197655	4.01239	2.0030951
11.59619825833949	3.9397414	1.9848782
11.613815269715985	3.8564572	1.9637865
11.631432556535323	38.326717	6.1908574
11.649050119226837	82.830284	9.101114
11.666667958219929	93.27063	9.657672
11.68428607394406	107.527466	10.369545
11.701904466828756	82.359184	9.075196
11.719523137303586	65.28007	8.079608
11.737142085798196	4.5276933	2.1278377
11.754761312742286	3.6853979	1.919739
11.772380818565619	3.613109	1.900818
11.790000603698015	3.6025667	1.8980429
11.80762066856935	3.5558474	1.8856955
11.825241013609572	3.5158567	1.8750618
11.842861639248683	3.40937	1.846448
11.860482545916748	3.3691907	1.8355355
11.878103734043883	3.3539863	1.8313892
11.895725204060282	3.3082266	1.8188531
11.91334695639619	3.264896	1.8069023
11.930968991481919	3.2582772	1.8050698
11.948591309747824	3.2570963	1.8047427
11.966213911624347	3.2545612	1.8040402
11.98383679754198	3.2388282	1.7996745
12.001459967931268	3.2132556	1.7925556
12.019083423222835	3.2049022	1.7902241
12.036707163847352	3.1582632	1.7771503
12.05433119023556	3.1385732	1.7716019
12.071955502818259	3.1334958	1.7701683
12.089580102026313	3.1147263	1.7648587
12.107204988290643	3.0533876	1.7473946
12.12483016204224	2.99424	1.7303872
12.142455623712152	2.9725442	1.7241068
12.16008137373149	2.9895332	1.7290267
12.177707412531431	3.003203	1.7329751
12.19533374054321	2.9727259	1.7241595
12.212960358198126	2.947938	1.716956
12.230587265927545	2.9367802	1.7137036
12.248214464162889	2.9587057	1.7200888
12.265841953335649	2.9368725	1.7137306
12.283469733877375	2.910155	1.7059177
12.301097806219685	2.9289277	1.711411
12.31872617079425	2.948322	1.7170678
12.336354828032825	2.9241571	1.7100167
12.353983778367205	2.9167671	1.7078545
12.371613022229262	2.8933723	1.7009915
12.389242560050928	2.8425994	1.6860011
12.406872392264201	2.7956297	1.6720136
12.424502519301143	2.7569566	1.6604086
12.442132941593874	2.75295	1.6592016
12.459763659574586	2.7452826	1.6568894
12.477394673675532	2.729567	1.6521401
12.49502598432903	2.7113833	1.6466279
12.51265759196746	2.710063	1.6462269
12.530289497023267	2.7057648	1.644921
12.547921699928967	2.682684	1.6378901
12.565554201117134	2.6797686	1.6369998
12.583187001020404	2.6806047	1.6372552
12.600820100071486	2.6790326	1.636775
12.618453498703152	2.7256076	1.6509415
12.636087197348235	2.7399147	1.6552688
12.65372119643964	2.7495434	1.6581748
12.671355496410326	2.735839	1.6540371
12.68899009769333	2.7600093	1.6613276
12.706625000721749	2.796817	1.6723686
12.724260205928752	2.8553603	1.6897812
12.741895713747551	2.857188	1.6903218
12.759531524611454	2.8705623	1.6942734
12.777167638953818	2.8538063	1.6893213
12.794804057208072	2.867871	1.693479
12.812440779807702	2.899199	1.7027035
12.830077807186271	3.086476	1.756837
12.847715139777405	3.1483397	1.7743561
12.865352778014795	3.3613758	1.8334055
12.882990722332197	3.4776533	1.8648467
12.90062897316344	3.5788546	1.8917861
12.918267530942412	3.6920774	1.9214779
12.935906396103071	3.5938063	1.8957337
12.953545569079449	3.7790375	1.9439746
12.971185050305628	3.614687	1.901233
12.988824840215775	3.6346142	1.9064665
13.006464939244115	3.617965	1.9020948
13.024105347824943	3.4621391	1.8606825
13.041746066392617	3.5561285	1.88577
13.05938709538157	3.3315632	1.8252571
13.077028435226296	3.3573935	1.8323191
13.094670086361363	3.2583566	1.8050919
13.112312049221401	3.1584911	1.7772144
13.129954324241112	3.0516114	1.7468863
13.147596911855258	2.810923	1.6765808
13.165239812498685	2.7520833	1.6589404
13.182883026606293	2.6860008	1.6389023
13.200526554613058	2.6319227	1.6223202
13.218170396954017	2.584184	1.6075398
13.235814554064284	2.5834737	1.6073188
13.253459026379034	2.6174629	1.6178575
13.271103814333523	2.625674	1.6203932
13.288748918363058	2.6043043	1.6137857
13.306394338903031	2.57273	1.6039733
13.32404007638889	2.560964	1.6003013
13.341686131256164	2.5684998	1.602654
13.359332503940449	2.567483	1.6023368
13.376979194877402	2.5770075	1.605306
13.394626204502751	2.612348	1.616276
13.412273533252307	2.619693	1.6185466
13.429921181561937	2.6349294	1.6232466
13.447569149867581	2.6464472	1.6267904
13.465217438605247	2.6554825	1.6295651
13.482866048211022	2.6672301	1.6331657
13.500514979121052	2.6809971	1.6373751
13.518164231771568	2.6721897	1.6346834
13.535813806598844	2.6708646	1.634278
13.553463704039254	2.635517	1.6234275
13.571113924529229	2.6107628	1.6157855
13.588764468505275	2.6188715	1.6182928
13.606415336403956	2.67326	1.6350107
13.624066528661917	2.7226946	1.650059
13.641718045715882	2.7366366	1.6542783
13.659369888002635	2.7543492	1.6596233
13.67702205595903	2.8042676	1.6745948
13.694674550021993	2.8538947	1.6893474
13.712327370628532	2.8771334	1.6962115
13.729980518215713	2.9630356	1.721347
13.747633993220681	3.0125833	1.7356795
13.765287796080647	3.0802145	1.755054
13.7829419272329	3.134015	1.7703149
13.800596387114801	3.171323	1.7808208
13.818251176163775	3.170518	1.7805948
13.835906294817324	3.2101958	1.7917019
13.853561743513023	3.299307	1.8163995
13.871217522688525	3.3634722	1.8339771
13.888873632781538	3.379947	1.8384632
13.906530074229858	3.3579466	1.83247
13.92418684747135	3.37733	1.8377514
13.941843952943948	3.4125762	1.8473159
13.959501391085665	3.4119122	1.8471363
13.977159162334578	3.3431242	1.8284212
13.994817267128846	3.296181	1.8155388
14.012475705906693	3.2268353	1.7963394
14.030134479106424	3.1318486	1.7697029
14.047793587166414	3.0501626	1.7464714
14.065453030525108	2.9827106	1.7270526
14.083112809621026	2.9223773	1.7094963
14.100772924892766	2.829651	1.6821567
14.118433376778997	2.7790306	1.6670425
14.136094165718458	2.7454438	1.6569381
14.153755292149969	2.7223585	1.6499571
14.171416756512416	2.668968	1.6336976
14.189078559244768	2.5912862	1.6097473
14.20674070078606	2.5012703	1.5815405
14.224403181575408	2.4695451	1.5714786
14.242066002051999	2.4166515	1.5545583
14.259729162655093	2.3883557	1.5454305
14.277392663824022	2.3245604	1.5246509
14.295056505998208	2.3027024	1.5174658
14.312720689617128	2.2890086	1.512947
14.330385215120348	2.3038204	1.5178341
14.348050082947497	2.3050184	1.5182288
14.3657152935383	2.3127759	1.5207813
14.383380847332528	2.3000255	1.5165834
14.401046744770051	2.2813497	1.5104138
14.418712986290798	2.2837448	1.5112064
14.436379572334793	2.3278258	1.5257214
14.454046503342123	2.3567023	1.5351554
14.471713779752946	2.350509	1.533137
14.489381402007504	2.3267744	1.5253768
14.507049370546113	2.3219016	1.5237787
14.524717685809168	2.3650415	1.5378691
14.542386348237134	2.3769917	1.5417496
14.560055358270553	2.3503053	1.5330706
14.577724716350051	2.3338635	1.5276988
14.595394422916325	2.3115206	1.5203686
14.61306447841015	2.3394935	1.5295403
14.63073488327237	2.378955	1.542386
14.648405637943917	2.4179845	1.554987
14.6660767428658	2.4107394	1.5526556
14.683748198479094	2.432927	1.5597843
14.701420005224954	2.46957	1.5714865
14.719092163544628	2.5757847	1.6049252
14.73676467387942	2.5890427	1.6090503
14.754437536670727	2.57802	1.6056215
14.772110752360014	2.5600672	1.600021
14.78978432138882	2.5210485	1.5877811
14.807458244198777	2.5830727	1.6071941
14.82513252123159	2.6123137	1.6162654
14.842807152929028	2.6832657	1.6380677
14.860482139732962	2.6248827	1.620149
14.87815748208531	2.570942	1.6034157
14.8958331804281	2.5720658	1.6037661
14.91350923520342	2.5852551	1.6078728
14.931185646853438	2.6242514	1.6199541
14.948862415820408	2.6109033	1.615829
14.966539542546656	2.5743551	1.6044797
14.98421702747459	2.5503755	1.5969895
15.001894871046696	2.5336227	1.5917357
15.019573073705542	2.5439548	1.594978
15.037251635893766	2.5545077	1.5982827
15.054930558054092	2.5809095	1.6065209
15.072609840629323	2.680119	1.6371069
15.090289484062351	2.8311632	1.6826061
15.107969488796124	3.0930605	1.7587099
15.125649855273691	3.4083962	1.8461843
15.14333058393817	3.844523	1.9607455
15.161011675232768	4.7021413	2.1684422
15.17869312960076	5.9814477	2.4457
15.196374947485506	7.8041396	2.793589
15.214057129330447	10.8121605	3.288185
15.231739675579114	15.569845	3.9458642
15.249422586675102	20.9913	4.5816264
15.267105863062092	24.541313	4.953919
15.284789505183847	25.308178	5.0307236
15.302473513484218	23.642324	4.862337
15.320157888407127	20.110218	4.4844418
15.337842630396578	15.693819	3.9615426
15.355527739896656	12.04137	3.4700677
15.37321321735153	9.238612	3.0395086
15.39089906320545	6.5949383	2.568061
15.408585277902748	4.8373666	2.1994014
15.42627186188783	3.69021	1.920992
15.443958815605198	3.087751	1.7571998
15.461646139499424	2.778754	1.6669595
15.479333834015168	2.6051824	1.6140578
15.497021899597165	2.548407	1.5963731
15.514710336690234	2.532154	1.5912744
15.53239914573928	2.5061045	1.583068
15.550088327189297	2.4686835	1.5712044
15.567777881485336	2.4713042	1.5720382
15.58546780907256	2.4820144	1.575441
15.6031581103962	2.5075214	1.5835155
15.620848785901568	2.4488523	1.564881
15.638539836034063	2.41241	1.5531934
15.656231261239173	2.3588448	1.5358531
15.673923061962451	2.3813782	1.5431715
15.691615238649552	2.356451	1.5350736
15.709307791746202	2.3558044	1.534863
15.727000721698221	2.322851	1.5240902
15.744694028951498	2.312911	1.5208257
15.76238771395202	2.3180022	1.5224987
15.780081777145844	2.3159223	1.5218154
15.797776218979125	2.3369956	1.5287235
15.815471039898094	2.3293052	1.5262061
15.833166240349064	2.3274136	1.5255862
15.850861820778437	2.3188715	1.5227841
15.868557781632699	2.339884	1.529668
15.886254123358412	2.3453531	1.5314546
15.903950846402232	2.3420851	1.5303873
15.921647951210897	2.3241994	1.5245326
15.939345438231225	2.2906137	1.5134773
15.957043307910133	2.3029425	1.5175449
15.974741560694602	2.2868142	1.5122216
15.992440197031714	2.31552	1.5216833
16.01013921736862	2.3420384	1.530372
16.02783862215259	2.352211	1.533692
16.045538411830933	2.3510063	1.5332991
16.06323858685107	2.3704321	1.5396208
16.080939147660512	2.3884254	1.5454531
16.09864009470684	2.3711908	1.5398672
16.11634142843774	2.3292027	1.5261725
16.134043149300954	2.3269858	1.525446
16.15174525774433	2.3188372	1.5227729
16.169447754215817	2.3049738	1.518214
16.18715063916342	2.2992857	1.5163395
16.204853913035244	2.3387969	1.5293125
16.222557576279478	2.3428917	1.5306507
16.240261629344403	22.331253	4.7255955
16.257966072678386	42.85022	6.546008
16.275670906729868	37.980602	6.1628404
16.293376131947387	2.4101384	1.552462
16.31108174877957	2.4384658	1.5615588
16.328787757675133	2.4680212	1.5709937
16.34649415908287	2.4829085	1.5757247
16.364200953451657	2.5253825	1.5891452
16.38190814123048	2.5480762	1.5962695
16.39961572286839	2.5596054	1.5998766
16.41732369881455	2.56055	1.6001718
16.43503206951817	2.5656078	1.6017514
16.45274083542859	2.6325643	1.622518
16.47044999699522	2.6790326	1.636775
16.488159554667558	2.770017	1.6643368
16.505869508895184	2.7815003	1.667783
16.523579860127786	2.8336275	1.6833382
16.541290608815117	2.8753934	1.6956985
16.559001755407035	2.9216537	1.7092845
16.57671330035348	2.9656901	1.7221179
16.59442524410448	2.9889228	1.7288501
16.61213758711015	3.0460525	1.7452943
16.629850329820705	3.1293027	1.7689835
16.647563472686436	3.2162607	1.7933936
16.665277016157724	3.2753544	1.8097941
16.682990960685053	3.29418	1.8149875
16.70070530671898	3.3063326	1.8183323
16.718420054710155	3.374442	1.8369654
16.736135205109335	3.457735	1.8594986
16.753850758367335	3.5146718	1.8747458
16.771566714935087	3.5809286	1.8923341
16.789283075263597	3.6246376	1.903848
16.80699983980398	3.6729324	1.9164896
16.82471700900741	3.712529	1.9267924
16.84243458332518	3.7855709	1.9456544
16.860152563208665	3.9142373	1.9784431
16.87787094910932	3.965122	1.9912614
16.89558974147871	3.9979374	1.9994843
16.913308940768466	4.044046	2.0109813
16.931028547430333	4.089376	2.0222206
16.94874856191613	4.1605988	2.0397546
16.966468984677785	4.2438483	2.0600603
16.98418981616729	4.3341293	2.0818572
17.00191105683676	4.3783064	2.0924404
17.019632707138374	4.3942122	2.0962377
17.03735476752442	4.4301114	2.104783
17.05507723844728	4.4685006	2.1138828
17.072800120359403	4.5255494	2.1273339
17.090523413713353	4.506857	2.122936
17.108247118961785	4.5040703	2.1222794
17.125971236557437	4.5103383	2.1237557
17.143695766953133	4.5457296	2.1320717
17.161420710601806	4.578864	2.139828
17.179146067956477	4.542596	2.1313367
17.19687183947025	4.558643	2.1350977
17.21459802559634	4.5554547	2.134351
17.232324626788028	4.543906	2.131644
17.25005164349871	4.5110297	2.1239185
17.267779076181863	4.512824	2.1243408
17.285506925291074	4.521317	2.126339
17.30323519127999	4.5104947	2.1237926
17.320963874602384	4.4841413	2.1175792
17.33869297571211	4.442544	2.1077344
17.356422495063114	4.417631	2.1018162
17.37415243310944	4.368838	2.0901766
17.391882790305218	4.364508	2.0891404
17.40961356710468	4.396975	2.0968964
17.42734476396215	4.4101458	2.1000347
17.445076381332044	4.4113975	2.1003327
17.462808419668868	4.4189916	2.1021397
17.48054087942723	4.489347	2.118808
17.498273761061835	4.727276	2.1742299
17.51600706502747	5.1510434	2.269591
17.533740791779024	5.7965846	2.4076097
17.551474941771485	7.19492	2.682335
17.56920951545993	8.405004	2.8991385
17.586944513299528	10.809847	3.2878332
17.60467993574556	12.713628	3.5656176
17.622415783253373	14.669804	3.830118
17.64015205627843	16.317726	4.0395207
17.657888755276293	17.671276	4.2037215
17.675625880702604	18.365772	4.2855306
17.69336343301311	18.260706	4.273255
17.71110141266366	17.209433	4.148425
17.728839820110178	15.90463	3.988061
17.746578655808705	14.622926	3.8239934
17.764317920215372	12.79553	3.577084
17.7820576137864	11.1106615	3.3332658
17.79979773697811	9.077535	3.0128946
17.81753829024692	7.184373	2.680368
17.835279274049356	5.5473475	2.3552809
17.85302068884201	4.5411115	2.1309884
17.870762535081607	3.9561875	1.9890168
17.888504813224934	3.6896617	1.9208492
17.90624752372891	3.585249	1.8934754
17.923990667050536	3.4756205	1.8643016
17.941734243646895	3.3549614	1.8316554
17.959478253975185	3.3433836	1.8284922
17.9772226984927	3.3414974	1.8279763
17.994967577656833	3.3329935	1.8256488
18.01271289192506	3.270677	1.8085014
18.030458641754965	3.2448373	1.8013432
18.04820482760425	3.2737007	1.8093371
18.06595144993067	3.2572756	1.8047924
18.083698509192125	3.2369032	1.7991396
18.101446005846576	3.228339	1.7967579
18.119193940352105	3.1642873	1.7788444
18.136942313166887	3.1393342	1.7718166
18.1546911247492	3.095028	1.7592691
18.1724403755574	3.1206882	1.766547
18.19019006604997	3.062602	1.7500292
18.207940196685467	3.0403287	1.7436539
18.225690767922575	3.0308177	1.7409244
18.243441780220046	3.0382628	1.7430613
18.261193234036764	2.9938302	1.7302688
18.278945129831676	2.9746673	1.7247224
18.29669746806386	2.9552805	1.719093
18.314450249192483	2.9173503	1.7080252
18.3322034736768	2.88331	1.6980312
18.349957141976184	2.8825076	1.6977949
18.3677112545501	2.9184349	1.7083427
18.385465811858108	2.9466383	1.7165775
18.403220814359884	2.9829614	1.7271252
18.420976262515172	3.0228288	1.7386284
18.43873215678387	3.0915098	1.758269
18.456488497625923	3.129547	1.7690526
18.474245285501407	3.2603505	1.805644
18.492002520870486	3.3116283	1.819788
18.50976020419343	3.3497758	1.8302393
18.527518335930615	3.5810297	1.8923609
18.545276916542516	4.1265364	2.0313878
18.563035946489688	4.248666	2.0612292
18.580795426232832	4.624801	2.150535
18.598555356232698	4.4644685	2.1129289
18.616315736950185	4.7404714	2.1772623
18.63407656884626	4.448177	2.10907
18.65183785238201	4.662591	2.1593034
18.669599588018617	4.492878	2.119641
18.68736177621737	4.491342	2.1192787
18.705124417439652	4.433306	2.1055417
18.72288751214696	4.231588	2.0570824
18.740651060800886	4.34714	2.0849795
18.758415063863115	4.078729	2.0195863
18.77617952179546	4.2052927	2.050681
18.793944435059814	3.9679165	1.991963
18.811709804118184	3.9929492	1.9982365
18.829475629432675	4.003107	2.0007765
18.8472419114655	3.805867	1.9508631
18.86500865067897	3.8523757	1.962747
18.88277584753551	3.5207539	1.8763672
18.90054350249763	3.5869927	1.8939358
18.918311616027957	3.2811172	1.8113854
18.936080188589226	3.1816325	1.7837131
18.953849220644265	2.9103267	1.705968
18.971618712656007	2.772312	1.6650261
18.9893886650875	2.7490878	1.6580373
19.007159078401887	7.9370294	2.8172734
19.024929953062408	32.78399	5.7257304
19.042701289532435	32.709038	5.7191815
19.060473088275405	25.27975	5.0278974
19.07824534975489	2.5872533	1.6084942
19.096018074434568	2.5914485	1.6097977
19.113791262778197	2.5521376	1.5975411
19.13156491524966	2.5056803	1.5829341
19.149339032312945	2.47661	1.5737249
19.167113614432136	2.4755514	1.5733885
19.184888662071433	2.47948	1.5746365
19.202664175695123	2.4692554	1.5713865
19.220440155767623	2.4889371	1.5776366
19.238216602753447	2.5013692	1.5815718
19.2559935171172	2.5118284	1.5848749
19.27377089932361	2.457542	1.567655
19.291548749837514	2.420639	1.5558403
19.309327069123835	2.3853102	1.5444449
19.32710585764763	2.398778	1.5487989
19.344885115874032	2.4201915	1.5556965
19.362664844268313	2.4761748	1.5735866
19.380445043295822	2.4897263	1.5778867
19.39822571342203	2.4721699	1.5723135
19.41600685511252	2.412332	1.5531684
19.43378846883297	2.4164145	1.5544821
19.451570555049173	2.4058564	1.5510824
19.469353114227037	2.410994	1.5527376
19.48713614683254	2.418101	1.5550245
19.50491965333182	2.4489477	1.5649114
19.52270363419109	2.4486668	1.5648216
19.540488089876686	2.4078991	1.5517406
19.55827302085503	2.4179955	1.5549905
19.576058427592674	2.4311888	1.559227
19.593844310556282	2.4273183	1.5579853
19.611630670212598	2.4218035	1.5562145
19.629417507028506	2.4325812	1.5596734
19.64720482147098	2.4503334	1.5653541
19.6649926140071	2.4282062	1.5582702
19.682780885104084	2.396786	1.5481557
19.70056963522921	2.42009	1.5556638
19.718358864849908	2.439641	1.5619351
19.7361485744337	2.4632828	1.569485
19.753938764448215	2.4266915	1.5577842
19.771729435361202	2.4298043	1.5587829
19.789520587640506	2.4175851	1.5548586
19.807312221754092	2.44611	1.5640044
19.825104338170043	2.4360895	1.5607977
19.842896937356517	2.4599667	1.568428
19.860690019781824	2.4584289	1.5679377
19.87848358591436	2.4658651	1.5703074
19.896277636222635	2.45394	1.5665057
19.914072171175278	2.438344	1.5615197
19.931867191241015	2.4104772	1.5525712
19.94966269688869	2.396883	1.548187
19.967458688587264	2.3784466	1.5422213
19.985255166805807	2.3965924	1.5480932
20.00305213201348	2.410804	1.5526764
20.020849584679578	2.424746	1.5571597
20.038647525273507	2.3868942	1.5449576
20.05644595426477	2.3505309	1.5331441
20.07424487212299	2.3492415	1.5327235
20.092044279317903	2.3488607	1.5325993
20.109844176319353	2.3577085	1.5354831
20.127644563597304	2.3797565	1.5426459
20.145445441621817	2.366388	1.5383068
20.16324681086307	2.3415997	1.5302286
20.181048671791373	2.3364553	1.5285468
20.198851024877122	2.3505578	1.5331529
20.216653870590836	2.3349624	1.5280584
20.234457209403146	2.306105	1.5185865
20.252261041784802	2.3103664	1.5199889
20.270065368206662	2.3387656	1.5293024
20.287870189139685	2.3574	1.5353826
20.305675505054968	2.3423336	1.5304685
20.323481316423702	2.3267844	1.52538
20.341287623717207	2.3013418	1.5170174
20.359094427406884	2.314741	1.5214273
20.376901727964288	2.3007917	1.516836
20.39470952586107	2.2639167	1.5046318
20.41251782156899	2.2271543	1.4923654
20.430326615559935	2.2571228	1.5023724
20.448135908305886	2.2769248	1.5089482
20.465945700278965	2.2854989	1.5117867
20.483755991951384	2.276377	1.5087667
20.50156678379548	2.2812955	1.5103958
20.519378076283708	2.2768912	1.5089371
20.537189869888635	2.2359345	1.4953041
20.55500216508294	2.2513804	1.50046
20.572814962339415	2.2539363	1.5013115
20.59062826213098	2.2752597	1.5083964
20.60844206493066	2.2678285	1.5059311
20.626256371211593	2.2573278	1.5024406
20.644071181447032	2.2740934	1.5080098
20.66188649611036	2.2903664	1.5133957
20.67970231567506	2.287668	1.5125039
20.697518640614742	2.2428317	1.4976087
20.715335471403122	2.2455907	1.4985296
20.73315280851404	2.2264502	1.4921294
20.750970652421447	2.2180345	1.4893067
20.768789003599412	2.223232	1.4910506
20.786607862522136	2.194951	1.4815367
20.8044272296639	2.1990721	1.4829268
20.82224710549913	2.20031	1.4833442
20.84006749050237	2.1927838	1.4808052
20.857888385148268	3.7309952	1.9315784
20.8757097899116	45.82157	6.769163
20.893531705267254	64.70332	8.043838
20.911354131690224	83.74979	9.151491
20.92917706965566	69.03378	8.308657
20.94700051963877	50.108105	7.0787077
20.96482448211493	29.380257	5.420356
20.982648957559622	4.1611996	2.039902
21.00047394644843	2.2825274	1.5108036
21.01829944925707	2.2259989	1.4919782
21.036125466461375	2.168102	1.4724476
21.053951998537297	2.1566818	1.4685645
21.071779045960906	2.1607919	1.4699632
21.089606609208378	2.1682694	1.4725045
21.10743468875603	2.1804156	1.476623
21.12526328508028	2.211309	1.4870471
21.143092398657675	2.2078393	1.48588
21.16092202996488	2.191778	1.4804654
21.17875217947867	2.1741235	1.4744909
21.19658284767596	2.1663659	1.4718579
21.21441403503377	2.117085	1.4550207
21.232245742029225	2.1146076	1.454169
21.2500779691396	2.1113727	1.4530563
21.26791071684227	2.106612	1.4514172
21.28574398561475	2.1377966	1.4621207
21.30357777593465	2.1572857	1.4687701
21.321412088279704	2.1761913	1.475192
21.339246923127792	2.1537426	1.4675635
21.357082280956888	2.1370652	1.4618704
21.3749181622451	2.1098661	1.4525378
21.392754567470647	2.0917091	1.4462743
21.41059149711187	2.0626924	1.4362077
21.42842895164726	2.032575	1.425684
21.446266931555378	2.0166752	1.4200969
21.464105437314945	2.0232148	1.4223976
21.481944469404798	2.0431604	1.4293916
21.49978402830388	2.0689588	1.4383875
21.51762411449127	2.0739312	1.440115
21.53546472844617	2.0824726	1.4430774
21.553305870647876	2.0671177	1.4377475
21.571147541575865	2.0302486	1.424868
21.58898974170967	1.9886007	1.4101776
21.60683247152899	1.9862872	1.4093571
21.62467573151363	2.0091097	1.4174306
21.642519522143523	2.023445	1.4224784
21.660363843898722	2.03296	1.425819
21.6782086972594	2.0130775	1.4188297
21.696054082705864	1.9813488	1.4076039
21.713900000718535	1.967433	1.4026521
21.73174645177795	1.9655768	1.4019903
21.749593436364794	1.9803833	1.4072609
21.767440954959845	1.9761987	1.4057733
21.785289008044032	1.9804784	1.4072948
21.803137596098388	1.9628185	1.4010062
21.820986719604086	1.9285977	1.3887396
21.838836379042412	1.9140751	1.383501
21.85668657489478	1.9270562	1.3881845
21.87453730764273	1.9254433	1.3876034
21.892388577767914	1.9479101	1.3956755
21.91024038575213	1.932459	1.3901291
21.928092732077285	1.9327874	1.3902472
21.945945617225426	1.9279628	1.388511
21.963799041678694	1.9525635	1.3973416
21.981653005919398	31.26041	5.591101
21.999507510429943	78.067696	8.835592
22.01736255569286	73.03598	8.546109
22.035218142190818	4.133033	2.0329862
22.05307427040661	1.9486023	1.3959235
22.07093094082315	1.9334646	1.3904908
22.088788153923474	1.9120775	1.3827789
22.106645910190746	1.9286677	1.3887647
22.12450421010827	1.9419088	1.3935239
22.142363054159464	1.9470649	1.3953726
22.16022244282787	1.9257928	1.3877294
22.178082376597164	1.9138358	1.3834145
22.195942855951145	1.9128513	1.3830587
22.213803881373742	1.9532312	1.3975805
22.231665453349002	1.9731089	1.4046739
22.24952757236111	1.973399	1.4047772
22.26739023889438	1.9605466	1.4001952
22.28525345343323	1.9392663	1.3925754
22.30311721646225	1.938528	1.3923103
22.320981528466113	1.9445935	1.3944868
22.33884638992964	1.9578911	1.3992466
22.356711801337788	1.9273924	1.3883055
22.37457776317561	1.9376633	1.3919997
22.392444275928337	1.8976095	1.3775375
22.410311340081282	1.888756	1.3743201
22.428178956119904	1.852468	1.3610541
22.446047124529805	1.8414266	1.3569918
22.46391584579669	1.845371	1.3584443
22.481785120406414	1.8570502	1.3627362
22.49965494884496	1.8957456	1.3768607
22.51752533159841	1.9051793	1.3802823
22.53539626915302	1.8892238	1.3744904
22.553267761995137	1.8755293	1.3694997
22.571139810611264	1.8769752	1.3700274
22.589012415488025	1.8766464	1.3699075
22.60688557711216	1.8853909	1.3730954
22.624759295970566	1.9201783	1.385705
22.642633572550263	1.9326487	1.3901974
22.660508407338362	1.9483238	1.3958237
22.67838380082217	1.9470986	1.3953848
22.696259753489077	1.9252365	1.3875289
22.714136265826614	1.9102736	1.3821265
22.73201333832246	1.8992639	1.3781378
22.74989097146439	1.8871127	1.3737222
22.76776916574035	1.8342714	1.3543527
22.785647921638393	1.8068423	1.3441883
22.803527239646712	1.7974861	1.3407036
22.82140712025363	1.8302741	1.3528762
22.839287563947593	1.8569986	1.3627174
22.85716857121719	1.9003631	1.3785366
22.875050142551135	1.9290942	1.3889184
22.892932278438277	1.916392	1.3843381
22.910814979367604	1.8347034	1.3545122
22.928698245828222	1.8305686	1.352985
22.946582078309387	1.8398602	1.3564144
22.96446647730047	1.890956	1.3751204
22.98235144329098	1.8577267	1.3629845
23.000236976770562	1.8836249	1.3724521
23.018123078229	1.8720187	1.3682173
23.03600974815619	1.8675034	1.3665663
23.053896987042194	1.852995	1.3612477
23.071784795377173	1.9031777	1.3795571
23.08967317365145	1.9313945	1.3897462
23.10756212235546	1.9181491	1.3849726
23.125451641979787	1.8380544	1.3557487
23.143341733015134	1.8447914	1.358231
23.161232395952357	1.8488541	1.3597257
23.179123631282426	1.9133546	1.3832406
23.197015439496468	1.896748	1.3772247
23.214907821085717	1.9005873	1.3786179
23.23280077654157	1.9043499	1.3799819
23.250694306355538	1.8897517	1.3746824
23.268588411019277	1.90815	1.381358
23.28648309102458	1.8927844	1.375785
23.304378346863356	1.8875046	1.3738649
23.322274179027676	1.8769468	1.370017
23.340170588009723	1.8779639	1.3703883
23.358067574301852	1.8975893	1.3775301
23.37596513839651	1.8777459	1.3703086
23.39386328078629	1.8655542	1.365853
23.411762001963947	1.8623976	1.3646969
23.429661302422353	1.8485713	1.3596218
23.4475611826545	1.8697864	1.3674014
23.46546164315356	1.8800669	1.3711553
23.48336268441279	1.8885514	1.3742458
23.501264306925638	1.8998611	1.3783544
23.51916651118564	1.8863437	1.3734423
23.537069297686497	1.879308	1.3708786
23.554972666922037	1.8782499	1.3704926
23.57287661938623	1.8749746	1.3692971
23.59078115557318	1.8639214	1.3652551
23.608686275977128	1.8475333	1.3592399
23.62659198109246	1.8689681	1.3671021
23.6444982714137	1.91453	1.3836654
23.66240514743549	1.9042538	1.3799471
23.68031260965263	1.8649876	1.3656455
23.698220658560068	1.8226776	1.3500658
23.716129294652845	1.7938057	1.3393303
23.7340385184262	1.7787893	1.3337126
23.75194833037546	1.7756815	1.332547
23.769858730996123	1.8143421	1.3469752
23.78776972078382	1.8442016	1.3580139
23.80568130023431	1.8696424	1.3673487
23.823593469843495	1.8431939	1.3576428
23.841506230107424	1.851137	1.360565
23.859419581522275	1.8185033	1.348519
23.87733352458438	1.8147252	1.3471173
23.89524805979019	1.7795385	1.3339934
23.913163187636318	1.7936056	1.3392556
23.931078908619508	1.8236195	1.3504145
23.948995223236633	1.8673245	1.3665009
23.966912131984735	1.9363701	1.3915352
23.98482963536096	1.9927212	1.4116378
24.002747733862616	1.9802775	1.4072233
24.020666427987155	1.959574	1.3998479
24.038585718232156	1.9967198	1.4130534
24.056505605095353	2.0472636	1.4308262
24.074426089074617	2.0978086	1.4483814
24.092347170667946	2.0621703	1.4360259
24.110268850373515	2.0131469	1.4188541
24.128191128689586	1.9687294	1.4031142
24.146114006114626	1.9609942	1.4003551
24.164037483147187	1.967639	1.4027256
24.181961560286005	2.0166626	1.4200925
24.199886238029926	2.0472403	1.4308181
24.21781151687797	2.0287201	1.4243314
24.235737397329274	1.9722093	1.4043537
24.253663879883135	1.9745681	1.4051933
24.271590965038975	1.9938757	1.4120467
24.289518653296376	1.9940221	1.4120985
24.30744694515505	1.9861269	1.4093001
24.32537584111486	1.9767365	1.4059646
24.34330534167581	1.9755087	1.405528
24.361235447338046	1.9542047	1.3979287
24.379166158601876	1.9519508	1.3971224
24.39709747596772	1.9519778	1.397132
24.41502939993615	2.0041265	1.4156718
24.432961931007917	1.961966	1.400702
24.450895069683856	1.9483795	1.3958436
24.468828816465	1.940209	1.3929138
24.4867631718525	1.9506042	1.3966403
24.504698136347656	1.9168006	1.3844857
24.52263371045192	1.9027338	1.3793962
24.540569894666874	1.905499	1.3803982
24.558506689494266	1.8976016	1.3775346
24.57644409543597	1.9082487	1.3813938
24.594382112994012	1.9595206	1.3998288
24.61232074267057	2.0146375	1.4193792
24.630259984967953	1.9625561	1.4009126
24.64819984038863	1.9466352	1.3952187
24.66614030943522	1.9357518	1.391313
24.684081392610462	1.9397749	1.392758
24.702023090417274	1.9239825	1.387077
24.7199654033587	1.9693227	1.4033256
24.737908331937927	1.9864911	1.4094293
24.755851876658305	2.001078	1.4145947
24.773796038023324	1.9917698	1.4113008
24.79174081653661	2.0198822	1.4212255
24.809686212701962	2.0444753	1.4298515
24.827632227023294	2.083129	1.4433049
24.8455788600047	2.1014612	1.4496417
24.8635261121504	2.1154888	1.454472
24.88147398396475	2.044371	1.4298149
24.899422475952303	1.9990433	1.4138753
24.917371588617698	1.9725393	1.4044712
24.935321322465768	2.0252337	1.423107
24.953271678001478	2.1691053	1.4727882
24.97122265572994	2.43286	1.5597627
24.989174256156414	2.774927	1.6658112
25.00712647978632	3.2287278	1.796866
25.02507932712521	3.8210757	1.9547572
25.043032798678798	4.4424205	2.107705
25.060986894952933	5.223797	2.2855628
25.078941616453637	5.9995565	2.4493992
25.096896963687055	7.0393214	2.653172
25.114852937159508	8.331818	2.886489
25.132809537377444	8.8266325	2.970965
25.150766764847468	8.690231	2.9479198
25.168724620076347	7.8598123	2.8035357
25.186683103570985	6.740996	2.5963428
25.204642215838426	5.485106	2.3420303
25.222601957385894	4.082599	2.0205443
25.24056232872074	3.0588863	1.7489672
25.25852333035048	2.508141	1.5837111
25.276484962782778	2.1745703	1.4746424
25.294447226525435	2.0037282	1.415531
25.312410122086423	1.9200875	1.3856722
25.330373649973843	1.8688673	1.3670652
25.348337810695988	1.8720797	1.3682396
25.366302604761245	1.8975627	1.3775206
25.384268032678207	1.8766915	1.3699238
25.40223409495558	1.868492	1.366928
25.420200792102257	1.8706849	1.3677298
25.438168124627246	1.8617085	1.3644444
25.45613609303974	1.8470745	1.3590711
25.474104697849057	1.7998762	1.3415947
25.492073939564698	1.7956628	1.3400234
25.510043818696285	1.8139576	1.3468324
25.528014335753614	1.8345348	1.35445
25.54598549124664	1.8375508	1.3555629
25.56395728568544	1.817869	1.3482836
25.58192971958028	1.8252926	1.3510339
25.59990279344156	1.8518897	1.3608415
25.617876507779833	1.8505635	1.3603542
25.635850863105826	1.8673337	1.3665042
25.653825859930386	1.8493128	1.3598944
25.671801498764548	1.8674493	1.3665465
25.68977778011949	1.8327541	1.3537925
25.707754704506524	1.8035738	1.342972
25.725732272437153	1.8007877	1.3419343
25.743710484423012	1.8093911	1.345136
25.761689340975888	1.8313862	1.3532872
25.77966884260774	1.8244796	1.3507329
25.797648989830662	1.7996769	1.3415203
25.815629783156922	1.7735776	1.3317573
25.83361122309895	1.8034227	1.3429158
25.85159331016929	1.829778	1.3526928
25.869576044880695	1.7903847	1.3380525
25.887559427746034	1.8066331	1.3441105
25.90554345927836	1.7993442	1.3413963
25.92352813999086	1.7701101	1.3304548
25.94151347039689	1.7415743	1.3196872
25.959499451009965	1.7739266	1.3318883
25.97748608234374	1.8150406	1.3472344
25.995473364912062	1.8138404	1.3467889
26.013461299228904	1.8124822	1.3462846
26.03144988580839	1.7858233	1.336347
26.04943912516483	1.7866249	1.3366469
26.067429017812675	1.772831	1.3314769
26.085419564266537	1.777046	1.3330588
26.103410765041186	1.7959139	1.3401171
26.12140262065155	1.8346283	1.3544846
26.139395131612723	1.8507817	1.3604344
26.157388298439948	1.8397981	1.3563915
26.17538212164861	1.770741	1.3306919
26.193376601754295	1.7350647	1.3172185
26.211371739272714	1.7757807	1.3325843
26.229367534719746	1.7977973	1.3408196
26.247363988611433	1.7855638	1.33625
26.26536110146397	1.7668924	1.3292451
26.283358873793727	1.7288119	1.3148429
26.301357306117204	1.670407	1.2924423
26.319356398951104	1.6873903	1.2989959
26.33735615281224	1.7274466	1.3143237
26.35535656821762	1.7580438	1.3259125
26.373357645684404	1.7461394	1.3214157
26.39135938572991	1.7563856	1.325287
26.409361788871614	1.7391392	1.3187643
26.427364855627165	1.7749423	1.3322695
26.445368586514352	1.7980142	1.3409005
26.46337298205115	1.7640864	1.3281891
26.48137804275568	1.7898417	1.3378496
26.499383769146217	1.7966183	1.34038
26.517390161741215	1.7546895	1.324647
26.53539722105928	1.7545965	1.3246118
26.553404947619182	1.7567375	1.3254198
26.571413341939856	1.7575079	1.3257103
26.589422404540397	1.7348353	1.3171314
26.60743213594006	1.7859894	1.3364091
26.62544253665827	1.7706673	1.3306643
26.64345360721459	1.7436924	1.3204894
26.66146534812879	1.7446675	1.3208586
26.679477759920758	1.722663	1.3125026
26.69749084311057	1.7246006	1.3132405
26.71550459821847	1.728125	1.3145816
26.733519025764842	1.7010753	1.3042527
26.751534126270258	1.7074347	1.3066884
26.769549900255434	1.7243103	1.3131299
26.787566348241267	1.6982491	1.3031689
26.80558347074881	1.6560514	1.2868766
26.823601268299267	1.7158983	1.309923
26.841619741414036	1.8045206	1.3433244
26.85963889061465	1.8286264	1.3522671
26.877658716422832	1.7905436	1.338112
26.89567921936045	1.7756753	1.3325447
26.913700399949544	1.7818743	1.3348687
26.93172225871233	1.7386838	1.3185916
26.949744796171174	1.7103688	1.3078107
26.967768012848605	1.7207477	1.3117727
26.98579190926733	1.7250166	1.3133988
27.003816485950225	1.741049	1.3194882
27.021841743420318	1.7557648	1.3250527
27.039867682200814	1.8051848	1.3435717
27.057894302815072	1.8252783	1.3510286
27.07592160578664	1.8200679	1.3490989
27.0939495916392	1.7938371	1.339342
27.111978260896635	1.7737485	1.3318216
27.13000761408296	1.7547008	1.3246512
27.148037651722397	1.7741823	1.3319844
27.166068374339304	1.7530135	1.3240142
27.184099782458215	1.734038	1.3168287
27.20213187660384	1.7729175	1.3315095
27.22016465730105	1.7948235	1.3397102
27.23819812507487	1.7703526	1.330546
27.256232280450533	1.7654505	1.3287026
27.274267123953383	1.7821515	1.3349725
27.292302656108987	1.7888236	1.3374691
27.31033887744306	1.8013073	1.3421279
27.32837578848146	1.8099222	1.3453335
27.34641338975026	1.7928853	1.3389866
27.364451681775673	1.7747176	1.3321853
27.382490665084074	1.7595865	1.3264941
27.400530340202046	1.7714103	1.3309433
27.41857070765629	1.7658348	1.3288472
27.436611767973726	1.8168731	1.3479143
27.454653521681404	1.778256	1.3335127
27.472695969306564	1.7688229	1.3299711
27.490739111376627	1.8028191	1.342691
27.508782948419153	1.8019524	1.3423682
27.526827480961902	1.728104	1.3145736
27.54487270953279	1.718693	1.3109894
27.562918634659898	1.7594049	1.3264256
27.580965256871508	1.7091689	1.3073518
27.599012576696026	1.6997855	1.3037583
27.617060594662068	1.747845	1.322061
27.63510931129842	1.804018	1.3431374
27.65315872713401	1.823843	1.3504974
27.67120884269797	1.7748222	1.3322245
27.68925965851958	1.7793156	1.3339099
27.707311175128307	1.8108164	1.3456658
27.725363393053787	1.8399489	1.3564471
27.74341631282583	1.8048056	1.3434305
27.7614699349744	1.8012851	1.3421197
27.77952426002968	1.8952427	1.3766781
27.797579288521973	1.9395397	1.3926736
27.815635020981784	2.168588	1.4726126
27.83369145793979	2.2101014	1.4866409
27.85174859992682	2.1572835	1.4687694
27.869806447473923	2.0825844	1.4431162
27.887865001112267	1.9187871	1.3852029
27.905924261373233	1.8540206	1.3616242
27.92398422878836	1.8252472	1.3510171
27.94204490388936	1.7792203	1.3338742
27.96010628720813	1.7610842	1.3270584
27.978168379276728	1.7872415	1.3368775
27.9962311806274	1.8441849	1.3580077
28.014294691792568	1.877791	1.3703252
28.0323589133048	1.8333099	1.3539977
28.050423845696887	1.8452158	1.3583872
28.068489489501758	1.8512954	1.3606231
28.086555845252523	1.8838534	1.3725353
28.104622913482487	1.8918333	1.3754393
28.122690694725115	1.8866584	1.3735569
28.14075918951405	1.789765	1.337821
28.15882839838312	1.7549654	1.3247511
28.176898321866304	1.8386488	1.3559679
28.1949689604978	1.873194	1.3686467
28.213040314811945	1.9020913	1.3791633
28.23111238534327	1.9183278	1.3850371
28.249185172626493	1.9336478	1.3905567
28.267258677196473	1.8998383	1.3783462
28.285332899588294	1.8927141	1.3757595
28.303407840337172	1.8783693	1.3705361
28.321483499978545	1.8566675	1.3625959
28.33955987904799	1.814455	1.347017
28.357636978081285	1.7893736	1.3376747
28.37571479761439	1.8286057	1.3522595
28.393793338183425	1.9277	1.3884164
28.41187260032469	1.9762585	1.4057946
28.429952584574686	1.9651327	1.4018319
28.448033291470065	1.9214671	1.3861699
28.46611472154769	1.9382149	1.3921978
28.484196875344566	1.9564029	1.3987148
28.502279753397914	1.9831251	1.4082347
28.52036335624511	1.9192028	1.385353
28.538447684423716	1.8812429	1.371584
28.556532738471482	1.9105326	1.3822201
28.574618518926325	1.9640139	1.4014329
28.59270502632635	1.9633484	1.4011953
28.61079226120985	1.935462	1.3912088
28.628880224115274	1.9183661	1.3850509
28.646968915581287	1.9179441	1.3848985
28.66505833614671	1.9121926	1.3828205
28.68314848635055	1.8751348	1.3693557
28.701239366732004	1.925841	1.3877467
28.71933097783044	1.966849	1.4024439
28.737423320185403	1.9511788	1.396846
28.75551639433665	2.0176497	1.42044
28.773610200824074	2.0646818	1.4369
28.791704740187793	2.0362823	1.4269836
28.80980001296809	2.03228	1.4255806
28.827896019705413	2.0731127	1.4398308
28.845992760940433	2.0957518	1.4476712
28.86409023721397	2.0869327	1.4446219
28.88218844906704	2.125652	1.4579616
28.900287397040845	2.1548421	1.4679381
28.918387081676755	2.183418	1.4776393
28.936487503516343	2.1642985	1.4711555
28.954588663101365	2.1823385	1.4772741
28.97269056097374	2.2381883	1.4960576
28.990793197675597	2.2888	1.5128781
29.00889657374923	2.3170583	1.5221887
29.027000689737125	2.3125246	1.5206987
29.04510554618196	2.3053834	1.5183489
29.06321114362659	2.3631718	1.5372611
29.08131748261405	2.4477344	1.5645237
29.099424563687567	2.4775546	1.5740249
29.11753238739057	2.480348	1.5749121
29.13564095426663	2.543854	1.5949464
29.15375026485954	2.5652292	1.6016333
29.171860319713275	2.5307007	1.5908176
29.18997111937199	2.5333936	1.5916638
29.20808266438002	2.6010838	1.6127876
29.226194955281898	2.666146	1.6328337
29.244307992622335	2.7449453	1.6567876
29.26242177694624	2.788917	1.6700051
29.2805363087987	2.8107507	1.6765294
29.29865158872498	2.818825	1.6789356
29.316767617270557	2.8083231	1.6758052
29.334884394981064	2.9243572	1.7100751
29.353001922402367	2.9694278	1.7232028
29.37112020008047	3.022012	1.7383935
29.389239228561596	3.0775316	1.7542895
29.407359008392152	3.295848	1.815447
29.42547954011872	3.6645832	1.9143101
29.44360082428809	4.210655	2.0519881
29.46172286144722	5.276839	2.297137
29.479845652143283	6.9319205	2.632854
29.497969196923606	9.221292	3.036658
29.516093496335728	11.999634	3.4640489
29.5342185509274	15.091894	3.8848288
29.55234436124651	17.895971	4.230363
29.570470927841175	19.78172	4.4476643
29.588598251259686	19.623255	4.4298143
29.60672633205055	18.16837	4.262437
29.624855170762405	15.616774	3.9518063
29.642984767944146	12.406615	3.5223026
29.66111512414481	9.297938	3.049252
29.67924623991366	6.818321	2.6111915
29.697378115800138	5.0745783	2.2526824
29.71551075235387	4.091752	2.022808
29.733644150124675	3.6456943	1.9093701
29.751778309662576	3.350665	1.8304822
29.769913231517766	3.2943332	1.8150299
29.78804891624066	3.3088083	1.819013
29.806185364381818	3.3182843	1.8216158
29.82432257649206	3.3412533	1.8279096
29.842460553122333	3.3217728	1.8225732
29.86059929482382	3.288357	1.8133827
29.878738802147872	3.2725987	1.8090326
29.896879075646048	3.2880325	1.8132933
29.915020115870114	3.258123	1.8050271
29.933161923371976	3.211118	1.7919593
29.951304498703777	3.168705	1.7800857
29.969447842417857	3.1849875	1.7846533
29.987591955066733	3.189557	1.7859331
30.005736837203123	3.17669	1.7823272
30.023882489379943	3.1061249	1.7624202
30.04202891215028	2.9925268	1.7298921
30.060176106067455	3.0342731	1.7419165
30.078324071684946	3.0870504	1.7570004
30.09647280955646	3.0713406	1.752524
30.114622320235863	3.0833445	1.7559454
30.132772604277257	3.085626	1.756595
30.1509236622349	3.0728478	1.752954
30.16907549466328	3.058929	1.7489794
30.18722810211705	3.0374205	1.7428197
30.205381485151097	3.0189238	1.7375051
30.22353564432045	2.9460895	1.7164177
30.241690580180403	2.9047434	1.7043308
30.25984629328638	2.8993073	1.7027352
30.278002784194037	2.9490373	1.7172761
30.296160053459246	2.8679755	1.6935098
30.314318101638033	2.8505416	1.6883547
30.332476929286646	2.8631597	1.6920874
30.35063653696153	2.8193462	1.6790909
30.368796925219307	2.8063376	1.6752127
30.386958094616844	2.8023045	1.6740085
30.40512004571115	2.7932324	1.6712966
30.423282779059463	2.8351264	1.6837834
30.441446295219233	2.844285	1.6865008
30.459610594748067	2.805272	1.6748947
30.47777567820382	2.7742088	1.6655957
30.495941546144504	2.716703	1.6482424
30.51410819912835	2.7093053	1.6459967
30.532275637713795	2.7394772	1.6551366
30.55044386245946	2.7168276	1.6482803
30.56861287392416	2.7313924	1.6526924
30.586782672666956	2.8324263	1.6829814
30.604953259247047	2.814041	1.6775104
30.623124634223885	2.7309005	1.6525437
30.641296798157075	2.7046335	1.644577
30.659469751606462	2.721537	1.6497082
30.677643495132074	2.7363117	1.65418
30.695818029294152	2.7263038	1.6511523
30.713993354653116	2.6474173	1.6270885
30.73216947176962	2.5915618	1.6098329
30.75034638120448	2.5907495	1.6095805
30.768524083518756	2.6377347	1.6241105
30.786702579273673	2.6879106	1.6394849
30.80488186903069	2.8135488	1.6773636
30.82306195335144	2.9899452	1.7291458
30.841242832797782	3.0862238	1.7567651
30.85942450793176	3.341024	1.8278468
30.877606979315637	3.7415588	1.9343109
30.895790247511883	4.2325826	2.0573242
30.913974313083134	4.6928945	2.1663089
30.932159176592283	4.8739223	2.2076962
30.95034483860237	4.9200644	2.2181218
30.968531299676698	4.7755337	2.1852994
30.98671856037873	4.420296	2.1024501
31.00490662127215	3.9312868	1.9827473
31.023095482920848	3.5136309	1.8744682
31.04128514588892	3.0398042	1.7435035
31.059475610740662	2.7395682	1.6551641
31.07766687804056	2.6215422	1.6191177
31.09585894835335	2.5267549	1.589577
31.11405182224393	2.4353254	1.560553
31.132245500277417	2.3410256	1.5300411
31.15043998301914	2.3947365	1.5474936
31.168635271034628	2.4119825	1.5530559
31.18683136488964	2.4429305	1.5629877
31.20502826515008	2.4423645	1.5628066
31.223225972382135	2.4533246	1.5663092
31.241424487152155	2.4037032	1.5503881
31.259623810026692	2.4188213	1.555256
31.27782394157253	2.4334822	1.5599623
31.296024882356644	2.3526833	1.5338459
31.314226632946237	2.2737787	1.5079054
31.332429193908684	2.23669	1.4955567
31.350632565811598	2.307325	1.5189881
31.368836749222787	2.4084105	1.5519055
31.387041744710295	2.4559557	1.5671489
31.40524755284232	2.424654	1.5571301
31.423454174187317	2.4610298	1.568767
31.441661609313922	2.48505	1.5764041
31.459869858791002	2.4607472	1.568677
31.478078923187628	2.4404895	1.5622066
31.496288803073064	2.4474678	1.5644385
31.514499499016807	2.3836217	1.5438982
31.532711011588546	2.2855709	1.5118104
31.550923341358178	2.3009777	1.5168974
31.56913648889584	2.268034	1.5059993
31.587350454771844	2.195961	1.4818776
31.605565239556732	2.2118466	1.4872278
31.62378084382127	2.270207	1.5067205
31.641997268136382	2.2781854	1.5093659
31.660214513073274	2.2390628	1.4963498
31.67843257920331	2.2458482	1.4986154
31.6966514670981	2.209018	1.4862765
31.71487117732944	2.2169783	1.488952
31.733091710469346	2.150925	1.4666032
31.751313067090052	2.1613126	1.4701403
31.769535247764008	2.145398	1.4647177
31.787758253063878	2.2007384	1.4834886
31.805982083562526	2.207237	1.4856772
31.824206739833024	2.1100714	1.4526085
31.84243222244869	2.0706341	1.4389699
31.860658531983013	2.1450748	1.4646074
31.878885669009737	2.3019996	1.5172342
31.897113634102784	2.340457	1.5298553
31.91534242783632	2.2772439	1.509054
31.933572050784694	2.141674	1.4634459
31.951802503522508	2.102414	1.4499704
31.970033786624548	2.0556326	1.4337478
31.988265900665834	2.0403464	1.428407
32.006498846221575	2.0876465	1.444869
32.02473262386724	2.1578574	1.4689647
32.04296723417845	2.1945555	1.4814032
32.0612026777311	2.1648433	1.4713407
32.07943895510129	2.1050491	1.4508787
32.097676066865304	2.051306	1.4322381
32.115914013599685	2.0074117	1.4168316
32.13415279588115	2.101063	1.4495044
32.152392414286666	2.1719203	1.4737437
32.1706328693934	2.1453795	1.4647114
32.18887416177875	2.1786592	1.4760282
32.20711629202032	2.149853	1.4662377
32.225359260695924	2.0362341	1.4269668
32.243603068383614	2.0079417	1.4170187
32.26184771566166	2.0857782	1.4442223
32.28009320310852	2.0925367	1.4465603
32.2983395313029	2.0817616	1.4428312
32.31658670082372	2.0745692	1.4403365
32.33483471225012	2.1070175	1.4515569
32.35308356616143	2.012786	1.4187269
32.371333263137245	1.9917971	1.4113104
32.38958380375734	2.010363	1.4178728
32.407835188601744	2.0620098	1.43597
32.42608741825067	2.0416932	1.4288783
32.444340493284585	2.0182087	1.4206368
32.46259441428416	2.0161963	1.4199283
32.48084918183028	2.1028063	1.4501057
32.49910479650405	2.1488223	1.4658862
32.51736125888683	2.076569	1.4410305
32.53561856956014	1.9462419	1.3950777
32.5538767291058	1.9564449	1.3987297
32.572135738105764	1.8765293	1.3698647
32.59039559714228	1.8988267	1.3779792
32.608656306797776	1.9174188	1.3847089
32.62691786765491	1.9744177	1.4051397
32.645180280296586	1.9876637	1.4098452
32.663443545305896	1.96717	1.4025583
32.68170766326619	1.906193	1.3806494
32.69997263476099	1.9633163	1.4011838
32.7182384603741	2.0301683	1.4248397
32.7365051406895	1.99038	1.4108083
32.75477267629144	1.8079548	1.3446021
32.77304106776434	1.8293556	1.3525367
32.79131031569289	1.9322858	1.3900669
32.809580420661966	1.9650748	1.4018112
32.827851383256714	1.9555646	1.3984151
32.84612320406245	1.9058379	1.3805208
32.86439588366476	1.8765359	1.3698671
32.88266942264945	1.8719186	1.3681808
32.9009438216025	1.9652326	1.4018675
32.9192190811102	1.9638623	1.4013788
32.937495201758985	2.0271237	1.4237709
32.95577218413556	2.0567822	1.4341487
32.974050028826866	2.0699563	1.4387343
32.992328736420035	2.0192208	1.4209929
33.010608307502444	2.0139287	1.4191295
33.02888874266169	1.9312156	1.3896818
33.047170042485604	1.8704402	1.3676404
33.06545220756225	1.9681144	1.402895
33.083735238479896	2.0320835	1.4255117
33.10201913582707	1.9723148	1.4043913
33.12030390019248	1.9192427	1.3853674
33.138589532165135	1.9473631	1.3954796
33.15687603233419	1.9888623	1.4102703
33.17516340128909	1.9275291	1.3883548
33.19345163961947	1.9302702	1.3893416
33.211740747915215	1.9072133	1.381019
33.23003072676643	1.8769153	1.3700056
33.248321576763466	1.8310946	1.3531795
33.266613298496885	1.8461752	1.3587403
33.28490589255747	1.9614834	1.4005296
33.30319935953626	1.9831152	1.4082313
33.32149370002451	1.9551742	1.3982755
33.339788914613706	1.8723067	1.3683226
33.358085003895575	1.7659467	1.3288893
33.376381968462034	1.7522978	1.3237438
33.39467980890529	1.9146799	1.3837196
33.41297852581774	1.9772931	1.4061625
33.43127811979204	1.9092264	1.3817476
33.44957859142105	1.9052985	1.3803254
33.467879941297866	1.8899873	1.3747681
33.486182170015844	1.9009521	1.3787502
33.50448527816853	1.9859143	1.4092247
33.522789266349754	2.058494	1.4347453
33.541094135153514	2.015777	1.4197806
33.55939988517411	1.9705317	1.4037563
33.57770651700602	1.8981274	1.3777255
33.59601403124398	1.8622664	1.3646488
33.61432242848296	1.8604	1.3639648
33.632631709318154	1.8769965	1.3700352
33.650941874344994	1.8120193	1.3461127
33.66925292415916	1.8220512	1.3498337
33.68756485935654	1.8820802	1.3718892
33.70587768053328	1.8875822	1.373893
33.724191388285746	1.8154155	1.3473736
33.74250598321054	1.8703438	1.3676051
33.760821465904506	1.890373	1.3749083
33.77913783696474	1.8833328	1.3723458
33.79745509698852	1.890026	1.3747822
33.815773246573414	1.9202417	1.3857279
33.8340922863172	1.7726542	1.3314106
33.852412216817896	1.6990573	1.303479
33.87073303867377	1.8759217	1.369643
33.889054752483304	1.9200102	1.3856443
33.907377358845245	1.8898491	1.3747178
33.92570085835853	1.8549676	1.361972
33.94402525162239	1.9270504	1.3881824
33.96235053923627	1.9955591	1.4126426
33.980676721799824	1.9512993	1.3968892
33.999003799912984	1.7994736	1.3414446
34.01733177417592	1.7277011	1.3144205
34.03566064518901	1.8152609	1.3473161
34.0539904135529	1.9453896	1.3947723
34.07232107986846	1.9645301	1.4016169
34.090652644736785	1.9647808	1.4017063
34.108985108759235	1.8893359	1.3745311
34.12731847253742	1.8808116	1.3714268
34.14565273667313	1.9253513	1.3875703
34.16398790176847	1.9817076	1.4077314
34.18232396842574	2.009072	1.4174174
34.20066093724749	1.9636326	1.4012967
34.21899880883651	1.8777502	1.3703102
34.23733758379583	1.8654134	1.3658013
34.25567726272874	1.9069577	1.3809264
34.27401784623872	1.9479631	1.3956945
34.29235933492957	1.9111805	1.3824545
34.31070172940526	1.8596375	1.3636853
34.32904503027003	1.768826	1.3299721
34.347389238128386	1.8204718	1.3492486
34.36573435358502	1.8964838	1.3771288
34.38408037724492	2.030344	1.4249014
34.402427309713296	2.064671	1.4368963
34.42077515159559	2.0256042	1.4232372
34.43912390349752	1.7911799	1.3383497
34.45747356602499	1.5846083	1.2588123
34.47582413978423	1.6720701	1.2930855
34.49417562538163	1.9371489	1.391815
34.51252802342388	2.0420856	1.4290156
34.53088133451789	1.9344542	1.3908466
34.54923555927084	1.8045609	1.3433394
34.567590698290104	1.853903	1.3615811
34.58594675218336	1.9777653	1.4063305
34.6043037215585	1.9559704	1.3985602
34.62266160702365	1.9453498	1.394758
34.641020409187234	1.977242	1.4061444
34.65938012865785	2.0162158	1.4199351
34.677740766044394	1.9796389	1.4069964
34.69610232195598	2.031798	1.4254115
34.714464797002016	1.9919558	1.4113666
34.73282819179208	1.8929433	1.3758427
34.751192506936064	1.9228988	1.3866862
34.76955774304408	1.9053289	1.3803365
34.7879239007265	1.7812858	1.3346481
34.80629098059391	1.8237184	1.3504512
34.824658983257194	1.925891	1.3877648
34.843027909327446	1.8506111	1.3603717
34.86139775941603	1.7702737	1.3305163
34.879768534134534	1.859131	1.3634995
34.89814023409483	1.9455643	1.3948349
34.91651285990901	1.7473416	1.3218704
34.93488641218944	1.5941613	1.262601
34.95326089154871	1.5662165	1.2514857
34.97163629859967	1.6726615	1.2933142
34.99001263395542	1.7798022	1.3340923
35.00838989822934	1.8137661	1.3467613
35.02676809203499	1.9376135	1.3919818
35.04514721598624	1.9229774	1.3867146
35.063527270697215	1.9189593	1.385265
35.081908256782256	2.0594585	1.4350814
35.10029017485597	2.172151	1.4738219
35.11867302553321	2.047814	1.4310185
35.137056809429104	1.785202	1.3361145
35.155441527159006	1.7468196	1.321673
35.173827179338524	1.8127044	1.3463671
35.19221376658354	2.0997894	1.449065
35.21060128951017	2.231217	1.4937259
35.2289897487348	1.9258194	1.387739
35.24737914487405	1.6710585	1.2926943
35.26576947854479	1.7263057	1.3138895
35.28416075036418	1.9311875	1.3896717
35.30255296094958	2.075794	1.4407616
35.32094611091867	2.121974	1.4566997
35.33934020088932	1.997227	1.4132328
35.35773523147969	2.0032825	1.4153737
35.3761312033082	2.2170389	1.4889724
35.394528116993506	2.501286	1.5815455
35.41292597315452	2.2824712	1.510785
35.431324772410434	2.0468137	1.430669
35.449724515380666	1.895773	1.3768708
35.46812520268491	2.1099322	1.4525605
35.486526834943106	2.1946456	1.4814336
35.504929412775454	2.0326662	1.425716
35.52333293680242	1.5921707	1.2618124
35.54173740764471	1.3732222	1.1718457
35.560142825923286	1.8741732	1.3690045
35.5785491922594	2.422882	1.556561
35.59695650727454	2.3603978	1.5363586
35.61536477159042	1.8569168	1.3626873
