0.008763373481513119	0.0	0.0
0.026290120649546365	0.14626539	0.3824466
0.043816868432600686	0.16110043	0.40137318
0.06134361724069026	0.180435	0.4247764
0.07887036748382949	0.17675579	0.42042333
0.0963971195720331	0.111424334	0.33380285
0.11392387391531617	0.07073085	0.26595274
0.1314506309236943	0.0729173	0.27003202
0.1489773910071836	0.13021667	0.36085546
0.16650415457580078	0.17996426	0.42422193
0.18403092203956356	0.16417933	0.40519047
0.20155769380849	0.14891073	0.38588953
0.2190844702925996	0.120769374	0.3475189
0.2366112519019124	0.10003905	0.3162895
0.2541380390464497	0.09163117	0.3027064
0.27166483213623416	0.096687615	0.31094632
0.28919163158128947	0.10608334	0.32570437
0.3067184377916406	0.103333294	0.32145497
0.324245251177314	0.14708486	0.38351643
0.34177207214833777	0.13652156	0.36948824
0.3592989011147415	0.12688269	0.35620597
0.37682573848655654	0.11513209	0.3393112
0.39435258467381573	0.123627156	0.35160655
0.41187944008655414	0.19671446	0.44352505
0.42940630513480854	0.19525562	0.4418774
0.446933180228618	0.18680221	0.4322062
0.4644600657780234	0.16624296	0.40772903
0.48198696219306775	0.14850196	0.38535953
0.49951386988379676	0.12219077	0.34955797
0.5170407892602581	0.108629234	0.3295895
0.5345677207325025	0.11608778	0.34071657
0.5520946647105822	0.13875812	0.3725025
0.5696216216045534	0.14967228	0.38687503
0.5871485918244737	0.12736562	0.3568832
0.6046755757804043	0.14692755	0.3833113
0.6222025738824094	0.13559133	0.36822727
0.6397295865405557	0.13202384	0.36335084
0.6572566141649129	0.12013869	0.34661028
0.6747836571655547	0.15196076	0.38982144
0.6923107159525568	0.15249978	0.3905122
0.7098377909359992	0.16581008	0.40719783
0.7273648825259653	0.17676069	0.42042917
0.7448919911325411	0.20776322	0.45581052
0.762419117165817	0.2064661	0.4543854
0.7799462610358868	0.21998437	0.4690249
0.7974734231528482	0.21122846	0.45959598
0.8150006039268024	0.19884968	0.44592565
0.8325278037678551	0.17680754	0.42048487
0.8500550230861152	0.1499164	0.3871904
0.8675822622916969	0.17555657	0.41899472
0.8851095217947171	0.20127572	0.44863763
0.9026368020052984	0.2115089	0.45990098
0.9201641033335665	0.18956797	0.43539405
0.9376914261896523	0.19168803	0.43782192
0.9552187709836915	0.21453175	0.4631757
0.9727461381258234	0.22475947	0.47408804
0.990273528026193	0.26966372	0.5192916
1.0078009410949496	0.25110358	0.5011024
1.0253283777422473	0.27496493	0.52437097
1.0428558383782454	0.27742946	0.52671576
1.0603833234131086	0.3118506	0.55843586
1.0779108332570058	0.35635144	0.5969518
1.0954383683201119	0.34826055	0.59013605
1.112965929012607	0.42001477	0.6480855
1.1304935157446763	0.5092242	0.71359944
1.1480211289265108	0.5624945	0.74999636
1.1655487689683062	1.4994987	1.2245402
1.1830764362802655	1.8270124	1.3516703
1.200604131272596	2.1723912	1.4739034
1.2181318543555117	2.1691117	1.4727905
1.235659605939232	2.152416	1.4671115
1.253187386433982	3.8932862	1.9731412
1.270715196249994	6.3471336	2.5193517
1.2882430357975057	11.597238	3.4054718
1.3057709054867608	16.139624	4.017415
1.3232988057280106	22.344206	4.726966
1.3408267369315112	27.712885	5.2643027
1.358354699507526	31.670006	5.627611
1.3758826938663256	35.25464	5.9375615
1.3934107204181858	36.81708	6.067708
1.410938779573391	36.967834	6.080118
1.4284668717422309	37.574986	6.1298437
1.4459949973350033	37.341667	6.1107826
1.4635231567620117	37.76923	6.1456676
1.4810513504335687	36.95439	6.0790124
1.4985795787599925	36.27144	6.0225773
1.5161078421516088	35.51601	5.959531
1.5336361410187505	34.320168	5.8583417
1.5511644757717598	34.308422	5.8573394
1.5686928468209842	35.274494	5.9392333
1.58622125457678	36.44378	6.036868
1.6037496994495108	37.963833	6.16148
1.621278181849548	37.66801	6.137427
1.6388067021872719	38.343357	6.192201
1.6563352608730693	37.561844	6.128772
1.673863858317336	36.533386	6.0442853
1.6913924949304753	35.941643	5.995135
1.7089211711228998	34.608658	5.882912
1.7264498873050296	33.764645	5.810735
1.7439786438872935	33.013935	5.745775
1.7615074412801288	32.113384	5.6668673
1.779036279893981	31.422924	5.6056156
1.796565160139305	30.201838	5.49562
1.814094082426564	29.361858	5.4186583
1.8316230471662298	28.533148	5.341643
1.849152054768784	27.761976	5.2689633
1.8666811056447168	27.628313	5.256264
1.8842102002045273	26.86776	5.183412
1.901739338858724	26.275206	5.1259346
1.9192685220178245	25.692694	5.068796
1.9367977500923557	24.81689	4.9816556
1.9543270234928547	24.41592	4.941247
1.971856342629867	23.525585	4.850318
1.9893857079139496	22.700497	4.764504
2.006915119755667	22.07402	4.6983
2.0244445785655945	21.457003	4.63217
2.0419740847543175	21.379555	4.623803
2.0595036387324317	21.217134	4.606206
2.0770332409105414	20.996222	4.5821633
2.094562891699263	20.705181	4.5502944
2.1120925915092217	20.24355	4.4992833
2.129622340751053	19.99512	4.47159
2.1471521398354043	188.27798	13.721442
2.1646819891729323	444.4284	21.08147
2.182211889174303	440.62457	20.99106
2.1997418402501974	452.89856	21.281414
2.2172718428113023	432.64975	20.800234
2.234801897268317	320.51157	17.902838
2.2523320040319548	16.920826	4.113493
2.269862163512935	16.856543	4.105672
2.287392376121992	16.539043	4.066822
2.304922642269869	16.354359	4.044052
2.322452962367322	15.988977	3.998622
2.3399833368251164	15.589258	3.9483235
2.357513766054032	15.361232	3.9193408
2.3750442504648586	15.131813	3.8899632
2.3925747904683963	14.983379	3.870837
2.410105386475459	14.686506	3.8322978
2.4276360388968707	14.030859	3.7457788
2.445166748143469	13.777177	3.711762
2.4626975146261025	13.72251	3.7043908
2.4802283387556323	13.595356	3.6871881
2.4977592209429305	13.332916	3.6514266
2.5152901615988825	12.928094	3.5955658
2.5328211611343865	12.758747	3.5719388
2.5503522199603523	12.595209	3.548973
2.5678833384877024	12.607248	3.5506687
2.5854145171273712	12.431221	3.5257936
2.6029457562903064	12.279745	3.5042467
2.620477056387469	12.000439	3.464165
2.6380084178298326	11.9012985	3.4498258
2.655539841028383	11.688563	3.418854
2.673071326394119	11.34721	3.368562
2.6906028743380523	10.962092	3.310905
2.708134485271211	10.728185	3.2753909
2.7256661596046325	10.587158	3.2537913
2.743197897749369	10.415545	3.2273123
2.760729700116486	10.330289	3.2140768
2.778261567117063	10.212584	3.1957133
2.795793499162193	10.078678	3.1746933
2.8133254966629817	9.924796	3.1503644
2.830857560030551	9.8088665	3.131911
2.8483896896760337	9.717622	3.11731
2.865921886010578	9.699332	3.114375
2.883454149445347	9.5613785	3.0921478
2.9009864803915177	9.298458	3.0493374
2.91851887926028	9.191995	3.0318303
2.9360513464628384	9.106799	3.0177474
2.953583882410413	9.133948	3.0222423
2.9711164875142373	9.01273	3.002121
2.9886491621855606	8.839292	2.9730947
3.0061819068356455	8.638609	2.939151
3.023714721875769	8.580242	2.929205
3.041247607717225	8.445729	2.9061537
3.0587805647713213	8.234311	2.869549
3.0763135934493806	8.091437	2.8445451
3.0938466941627407	7.982016	2.825246
3.1113798673227544	7.949494	2.8194847
3.1289131133407904	7.8062034	2.7939584
3.1464464326282315	7.763503	2.7863064
3.1639798255964786	7.6485243	2.7655966
3.1815132926569443	7.5270667	2.74355
3.1990468342210603	7.38175	2.7169375
3.216580450700272	7.1850247	2.6804895
3.2341141425060416	7.197124	2.6827457
3.251647910049847	7.2027855	2.6838005
3.2691817537431813	7.2403555	2.690791
3.286715673997555	7.2632065	2.6950338
3.3042496712244938	7.2495723	2.692503
3.32178374583554	7.152303	2.674379
3.339317898242251	7.018846	2.6493106
3.3568521288562034	6.8360543	2.614585
3.3743864380889876	6.7582088	2.5996554
3.3919208263522127	6.673662	2.5833433
3.4094552940575023	6.59619	2.5683048
3.4269898416164972	6.6015553	2.5693493
3.444524469440858	6.5872583	2.5665655
3.4620591779422587	6.5400963	2.5573611
3.479593967532391	6.5720005	2.5635912
3.4971288386229658	6.487362	2.54703
3.5146637916257086	6.387198	2.5272906
3.5321988269523628	6.343255	2.5185819
3.5497339450146903	6.298142	2.50961
3.5672691462244708	6.300781	2.5101357
3.5848044309934988	6.2372904	2.4974568
3.60233979973359	6.209723	2.4919317
3.619875252856575	6.170606	2.4840705
3.6374107907743034	6.070029	2.4637427
3.6549464138986427	6.077105	2.4651785
3.6724821226414788	6.105282	2.470887
3.690017917414714	6.1685433	2.4836552
3.7075537986302702	6.336796	2.5172994
3.7250897667000857	6.3781605	2.525502
3.7426258220361235	6.5295362	2.5552957
3.7601619650503553	6.7781224	2.6034827
3.777698196154779	7.2157884	2.6862218
3.7952345157614067	8.291106	2.8794281
3.8127709242822716	9.044716	3.0074434
3.830307422129425	11.270564	3.357166
3.847844009714936	30.109177	5.487183
3.8653806874508954	97.60942	9.879748
3.882917455749409	96.89018	9.843281
3.900454315022606	96.72574	9.834925
3.917991265682631	41.246532	6.422346
3.9355283081416506	10.850083	3.2939465
3.9530654428118495	8.658741	2.9425738
3.970602670105433	7.433971	2.726531
3.9881399904346244	6.6566377	2.5800462
4.005677404211669	6.599458	2.568941
4.023214911848827	6.5626245	2.561762
4.0407525137583855	6.5800705	2.5651648
4.058290210352644	6.5489445	2.5590906
4.075828002043927	6.441509	2.5380127
4.0933658892445814	6.379791	2.5258248
4.110903872366966	6.2051315	2.4910102
4.128441951823468	6.17753	2.4854636
4.145980128026488	6.1135364	2.4725566
4.163518401388452	6.101767	2.4701755
4.181056772321807	6.033238	2.456265
4.1985952412390155	6.055857	2.460865
4.216133808552567	6.097082	2.469227
4.233672474674966	6.203007	2.4905837
4.251211240018741	6.4306083	2.5358644
4.268750104996445	6.657303	2.580175
4.286289070020643	7.5028353	2.7391305
4.303828135503928	9.179556	3.0297782
4.3213673018589125	29.564938	5.437365
4.3389065694982305	90.852516	9.531658
4.356445938834537	166.0245	12.88505
4.3739854102805085	171.71805	13.104123
4.391524984248844	172.58986	13.137346
4.409064661152262	136.78471	11.695499
4.426604441403504	97.07303	9.852565
4.444144325415337	75.9195	8.71318
4.461684313600543	21.686666	4.6568947
4.47922440637193	21.77209	4.666057
4.496764604142329	20.048971	4.4776077
4.5143049073245916	18.38854	4.288186
4.531845316331589	16.377827	4.0469527
4.5493858315762195	13.708884	3.7025511
4.566926453471405	11.288006	3.3597627
4.584467182430081	9.286105	3.047311
4.602008018865218	8.292881	2.8797362
4.619548963189798	7.5990615	2.7566395
4.637090015816834	7.18221	2.6799645
4.654631177159353	6.787577	2.6052978
4.672172447630417	6.498286	2.5491736
4.689713827643102	6.270389	2.5040746
4.7072553176105085	6.1115274	2.4721503
4.724796917945764	5.9378347	2.4367673
4.742338629062015	5.884338	2.4257655
4.759880451372434	5.7956014	2.4074056
4.777422385290215	5.7963657	2.4075642
4.794964431228581	5.7358766	2.394969
4.812506589600768	5.72231	2.3921351
4.830048860820047	5.703001	2.3880956
4.847591245299709	5.7167563	2.390974
4.8651337434530655	5.697437	2.3869305
4.882676355693457	5.5886016	2.3640223
4.900219082434242	5.526571	2.350866
4.917761924088813	5.42116	2.3283386
4.935304881070575	5.3405786	2.310969
4.952847953792969	5.28869	2.2997153
4.970391142669449	5.365824	2.3164248
4.9879344481135055	5.3846555	2.320486
5.005477870538642	5.4309173	2.330433
5.023021410358394	5.4142137	2.3268464
5.040565067986324	5.39007	2.3216524
5.05810884383601	5.3818035	2.3198714
5.075652738321066	5.39966	2.3237169
5.09319675185512	5.4119473	2.3263593
5.110740884851836	5.420371	2.328169
5.128285137724894	5.349336	2.312863
5.145829510888007	5.3192163	2.3063426
5.163374004754908	5.3029685	2.3028176
5.1809186197393595	5.256688	2.2927468
5.198463356255145	5.299572	2.30208
5.216008214716077	5.308254	2.3039649
5.233553195535998	5.2600846	2.2934875
5.251098299128764	5.2499037	2.291267
5.268643525908272	5.194805	2.2792115
5.286188876288432	5.2682056	2.295257
5.3037343506831895	5.226257	2.2861009
5.32127994950651	5.1463594	2.268559
5.3388256731723915	5.1566477	2.2708254
5.356371522094851	5.159663	2.2714891
5.373917496687938	5.1350346	2.2660615
5.391463597365729	5.1091447	2.2603416
5.40900982454232	5.092124	2.2565734
5.426556178631843	5.1351576	2.2660887
5.444102660048449	5.134185	2.265874
5.4616492692063225	5.10668	2.2597964
5.479196006519669	5.056803	2.2487338
5.496742872402727	5.097851	2.257842
5.514289867269756	5.157291	2.270967
5.531836991535049	5.2300577	2.286932
5.549384245612924	5.200982	2.2805662
5.566931629917724	5.088819	2.255841
5.584479144863822	5.089401	2.25597
5.6020267908656205	5.0982733	2.2579355
5.619574568337545	5.1822605	2.2764578
5.637122477694054	5.177161	2.2753377
5.654670519349629	5.246787	2.2905867
5.672218693718784	5.1898723	2.278129
5.689767001216059	5.2094994	2.2824328
5.707315442256021	5.20808	2.282122
5.724864017253266	5.188509	2.27783
5.7424127266224225	5.157374	2.2709851
5.75996157077814	5.1385074	2.2668276
5.777510550135105	5.157933	2.2711084
5.795059665108022	5.1944513	2.2791338
5.812608916111639	5.2549024	2.2923574
5.830158303560715	5.407173	2.3253329
5.847707827870055	5.42091	2.3282847
5.86525748945448	5.499688	2.3451414
5.8828072887288485	5.648728	2.3767052
5.900357226108044	5.73161	2.394078
5.917907302006979	5.7201886	2.3916917
5.9354575168406	6.17316	2.4845846
5.9530078710238765	6.722576	2.5927932
5.970558364971812	7.2852244	2.6991155
5.988108999099438	7.6286073	2.7619934
6.005659773821818	8.151973	2.855166
6.023210689554039	7.936549	2.8171883
6.040761746711227	8.191738	2.8621213
6.058312945708531	7.5589952	2.7493627
6.075864286961132	7.1305127	2.670302
6.093415770884244	6.5618978	2.5616202
6.1109673978931065	6.155278	2.4809833
6.128519168402993	5.631962	2.3731754
6.146071082829204	5.4804006	2.3410256
6.163623141587075	5.328113	2.3082707
6.181175345091969	5.2793837	2.2976909
6.198727693759281	5.232788	2.2875288
6.216280188004435	5.205733	2.2816074
6.233832828242885	5.1874943	2.2776072
6.251385614890126	5.1753335	2.274936
6.268938548361669	5.1403737	2.2672393
6.286491629073067	5.0298934	2.2427423
6.304044857439898	4.993139	2.2345333
6.321598233877777	5.0249777	2.2416463
6.339151758802344	5.014867	2.23939
6.356705432629277	5.0177727	2.2400386
6.37425925577428	4.9505386	2.2249806
6.391813228653095	4.9228063	2.2187397
6.409367351681486	4.9019666	2.2140386
6.426921625275259	4.9229035	2.2187617
6.44447604985025	4.930657	2.2205083
6.46203062582232	4.9038553	2.214465
6.47958535360737	4.90703	2.2151818
6.497140233621328	4.909871	2.215823
6.514695266280161	4.9138904	2.2167296
6.532250451999859	5.0014753	2.2363977
6.549805791196454	5.029356	2.2426226
6.567361284286002	5.0619316	2.2498736
6.584916931684597	5.0360045	2.2441044
6.602472733808367	5.0368524	2.2442932
6.6200286910734665	5.0137515	2.2391407
6.637584803896092	4.982103	2.2320626
6.655141072692462	4.957258	2.22649
6.672697497878842	4.959561	2.2270072
6.690254079871514	4.9841537	2.2325218
6.707810819086808	4.9466324	2.2241025
6.725367715941078	4.928598	2.2200446
6.742924770850719	4.975596	2.2306044
6.760481984232151	4.9924307	2.2343748
6.778039356501836	5.0310616	2.243003
6.795596888076266	5.0233235	2.2412772
6.813154579371963	5.019498	2.2404237
6.830712430805492	5.006347	2.2374868
6.84827044279344	4.9860883	2.232955
6.865828615752445	4.9459667	2.223953
6.883386950099159	4.9097767	2.2158015
6.900945446250287	4.894068	2.212254
6.918504104622553	4.892581	2.2119179
6.936062925632727	4.9227333	2.2187233
6.953621909697607	4.944522	2.223628
6.971181057234028	4.993674	2.234653
6.988740368658859	5.042847	2.2456284
7.006299844389007	5.128513	2.264622
7.023859484841407	5.223537	2.2855058
7.041419290433036	5.247331	2.2907054
7.058979261580902	5.3206997	2.3066642
7.0765393987020495	5.526386	2.3508265
7.094099702213559	5.9502172	2.4393067
7.111660172532549	6.409673	2.5317333
7.129220810076164	6.8410025	2.615531
7.146781615261595	7.418761	2.72374
7.16434258850606	7.584212	2.7539449
7.181903730226821	7.9938426	2.8273385
7.1994650408411704	8.04424	2.836237
7.217026520766437	8.203321	2.864144
7.234588170419983	8.47645	2.9114344
7.252149990219215	8.431269	2.9036646
7.269711980581568	8.335041	2.887047
7.2872741419245175	8.050752	2.8373847
7.304836474665574	7.6468754	2.7652984
7.322398979222286	7.396041	2.7195663
7.339961656012233	7.128036	2.6698382
7.357524505453039	6.743287	2.5967839
7.375087527962357	6.467439	2.543116
7.392650723957886	6.2334657	2.496691
7.410214093857353	5.943953	2.4380224
7.427777638078528	5.730681	2.3938842
7.445341357039213	5.533228	2.3522813
7.4629052511572525	5.451287	2.334799
7.480469320850524	5.3655634	2.3163686
7.498033566536948	5.2847486	2.2988582
7.5155979886344735	5.205679	2.2815957
7.5331625875610975	5.1502934	2.2694259
7.550727363734844	5.1275167	2.2644022
7.568292317573788	5.156489	2.2707903
7.585857449496025	5.1408687	2.2673483
7.603422759919705	5.1294694	2.2648332
7.620988249263007	5.1024294	2.2588558
7.638553917944147	5.068338	2.251297
7.656119766381391	5.1435657	2.2679431
7.673685794993023	5.2077723	2.2820544
7.691252004197388	5.2250924	2.285846
7.70881839441285	5.1986985	2.2800655
7.726384966057826	5.2028475	2.280975
7.743951719550762	5.1825666	2.276525
7.761518655310149	5.235834	2.2881944
7.779085773754511	5.229231	2.2867513
7.796653075302419	5.1653085	2.2727315
7.814220560372475	5.166791	2.2730577
7.831788229383323	5.227232	2.286314
7.8493560827536495	5.3023	2.3026724
7.866924120902174	5.3565454	2.3144212
7.884492344247663	5.3317785	2.3090644
7.9020607532089135	5.2716413	2.2960055
7.919629348204771	5.246263	2.2904723
7.937198129654115	5.2296476	2.2868423
7.954767097975865	5.269623	2.2955658
7.972336253588986	5.2477765	2.2908025
7.989905596912472	5.2961955	2.3013465
8.007475128365371	5.331097	2.3089168
8.025044848366756	5.333388	2.309413
8.042614757335754	5.405944	2.3250685
8.060184855691523	5.5123286	2.3478348
8.07775514385327	5.767803	2.4016252
8.095325622240228	5.8837247	2.425639
8.112896291271687	5.8482795	2.4183216
8.130467151366968	5.7816706	2.4045105
8.148038202945436	5.7368407	2.3951702
8.165609446426497	5.851747	2.4190385
8.183180882229594	5.987976	2.4470341
8.200752510774217	6.0125732	2.452055
8.218324332479893	5.9839554	2.4462125
8.235896347766193	5.924028	2.4339325
8.253468557052724	5.8804855	2.4249713
8.27104096075914	5.867711	2.4223359
8.288613559305137	5.907918	2.430621
8.306186353110448	5.970392	2.4434385
8.32375934259485	6.042369	2.458123
8.341332528178162	6.100773	2.4699743
8.358905910280246	6.129533	2.4757893
8.376479489321003	6.163777	2.4826956
8.394053265720377	6.245854	2.4991705
8.411627239898356	6.2902665	2.5080404
8.42920141227497	6.292742	2.5085337
8.44677578327029	6.233156	2.496629
8.464350353304427	6.223342	2.4946628
8.48192512279754	6.199226	2.4898245
8.499500092169827	6.2459354	2.499187
8.51707526184153	6.189138	2.4877977
8.534650632232934	6.1559315	2.4811149
8.552226203764365	6.08925	2.4676406
8.569801976856192	6.1242027	2.4747126
8.587377951928834	6.1690097	2.4837492
8.60495412940274	6.200158	2.4900117
8.622530509698416	6.210736	2.4921348
8.6401070932364	6.2955933	2.509102
8.657683880437283	6.3819084	2.526244
8.675260871721695	6.590453	2.5671878
8.692838067510303	6.7823057	2.604286
8.710415468223834	6.8935018	2.625548
8.727993074283043	7.039354	2.653178
8.745570886108737	6.996979	2.6451805
8.763148904121765	7.029383	2.6512983
8.78072712874302	7.0520544	2.6555705
8.798305560393441	7.3942647	2.7192397
8.815884199494006	7.628079	2.7618978
8.833463046465745	7.7974744	2.7923958
8.851042101729728	7.8181543	2.7960963
8.86862136570707	8.119316	2.8494413
8.886200838818924	8.294341	2.8799899
8.903780521486505	8.3845415	2.8956072
8.921360414131055	8.525589	2.919861
8.938940517173874	8.596865	2.932041
8.956520831036297	8.757524	2.9593112
8.97410135613971	9.021631	3.003603
8.99168209290554	9.213354	3.0353508
9.009263041755265	9.534973	3.0878751
9.026844203110405	9.7942295	3.1295733
9.044425577392525	9.944211	3.1534443
9.062007165023239	9.998356	3.1620176
9.079588966424197	10.195713	3.1930726
9.097170982017108	10.258227	3.2028468
9.11475321222372	11.120808	3.3347876
9.132335657465825	12.067588	3.4738433
9.149918318165264	12.221838	3.4959745
9.167501194743924	12.716226	3.5659816
9.18508428762374	12.419378	3.524114
9.202667597226693	12.442199	3.5273502
9.220251123974803	12.112994	3.4803727
9.237834868290143	11.787383	3.433276
9.255418830594836	11.585667	3.4037724
9.273003011311046	11.164909	3.3413932
9.290587410860985	10.918441	3.3043065
9.308172029666911	10.200811	3.193871
9.32575686815113	9.954038	3.155002
9.343341926735997	8.691381	2.9481149
9.360927205843916	8.51132	2.9174166
9.378512705897327	8.363392	2.891953
9.396098427318728	8.214238	2.8660493
9.413684370530664	8.134071	2.8520293
9.431270535955722	7.9410443	2.8179858
9.448856924016539	7.866059	2.8046496
9.466443535135806	7.7517667	2.7841995
9.484030369736251	7.8619213	2.8039117
9.501617428240658	7.8254967	2.7974088
9.519204711071852	7.8260922	2.7975154
9.536792218652714	7.7362275	2.7814074
9.55437995140617	7.707774	2.7762878
9.571967909755191	7.6904545	2.773167
9.589556094122802	7.7382627	2.7817733
9.60714450493207	7.8711376	2.8055549
9.624733142606116	7.932851	2.8165317
9.642322007568108	7.9406962	2.817924
9.659911100241267	7.903772	2.811365
9.677500421048851	7.9315033	2.8162925
9.695089970414175	8.026936	2.8331847
9.712679748760609	8.057907	2.8386452
9.730269756511557	8.109441	2.847708
9.747859994090492	8.10306	2.8465874
9.765450461920915	8.101638	2.8463376
9.78304116042639	8.147631	2.8544054
9.800632090030527	8.116375	2.848925
9.81822325115699	8.1247425	2.8503933
9.835814644229481	8.077837	2.8421535
9.853406269671762	8.128471	2.8510475
9.870998127907646	8.170877	2.8584747
9.888590219360985	8.23338	2.8693867
9.906182544455698	8.243127	2.8710847
9.923775103615734	8.264381	2.8747838
9.941367897265108	8.254332	2.8730352
9.958960925827878	8.340473	2.8879879
9.97655418972816	8.396967	2.897752
9.994147689390106	8.396365	2.897648
10.011741425237934	8.389067	2.8963885
10.029335397695904	8.401602	2.8985517
10.04692960718833	8.380994	2.8949947
10.06452405413958	8.270933	2.875923
10.082118738974064	8.195161	2.862719
10.099713662116246	8.130068	2.8513274
10.117308823990651	8.24457	2.871336
10.134904225021844	8.274673	2.8765733
10.152499865634445	8.244099	2.871254
10.170095746253125	8.144183	2.8538015
10.18769186730261	8.120016	2.849564
10.205288229207675	8.151577	2.8550966
10.222884832393145	8.194922	2.8626776
10.2404816772839	8.273764	2.876415
10.258078764304868	8.205621	2.8645456
10.275676093881035	8.220061	2.867065
10.293273666437438	8.156225	2.8559105
10.310871482399158	8.191567	2.8620915
10.32846954219134	8.18816	2.8614962
10.346067846239173	8.203417	2.8641608
10.363666394967908	8.120974	2.8497322
10.38126518880283	8.103249	2.8466206
10.398864228169298	8.169325	2.8582032
10.416463513492713	8.245924	2.8715718
10.434063045198531	8.216534	2.8664496
10.451662823712262	8.236341	2.8699026
10.469262849459467	8.278886	2.8773053
10.486863122865758	8.178426	2.8597946
10.504463644356806	8.068291	2.8404737
10.522064414358338	7.8846707	2.8079655
10.539665433296118	7.7575793	2.785243
10.557266701595987	7.6388307	2.7638435
10.574868219683818	7.682132	2.7716658
10.592469987985552	7.6419644	2.7644103
10.610072006927185	7.5950365	2.7559094
10.627674276934751	7.5033035	2.7392159
10.64527679843435	7.3141613	2.7044706
10.662879571852143	7.2030087	2.6838422
10.680482597614331	6.999315	2.6456218
10.698085876147173	6.943796	2.6351085
10.715689407876988	6.9132075	2.629298
10.733293193230146	6.8809357	2.6231537
10.750897232633072	6.770126	2.6019466
10.76850152651225	6.6335654	2.5755708
10.786106075294207	6.562708	2.5617783
10.803710879405534	6.539243	2.5571945
10.821315939272877	6.422522	2.5342696
10.83892125532294	6.285663	2.5071225
10.856526827982472	6.188251	2.4876196
10.874132657678285	6.171684	2.4842873
10.891738744837243	6.1935325	2.4886808
10.909345089886271	6.140959	2.4780958
10.926951693252343	6.0741234	2.4645736
10.944558555362494	5.992399	2.4479377
10.96216567664381	5.9882975	2.4471
10.979773057523436	5.935585	2.4363055
10.997380698428573	5.867554	2.4223034
11.014988599786477	5.7289624	2.3935251
11.032596762024461	5.677236	2.3826952
11.050205185569892	5.561761	2.3583386
11.067813870850198	5.4724855	2.3393345
11.085422818292859	5.3555613	2.3142085
11.10303202832541	5.31606	2.3056583
11.120641501375454	5.3161497	2.3056777
11.138251237870636	5.301538	2.302507
11.155861238238671	5.2592797	2.293312
11.173471502907317	5.2253327	2.2858987
11.191082032304402	5.1568317	2.270866
11.208692826857805	5.123497	2.2635143
11.226303886995465	5.0334873	2.2435434
11.243915213145371	5.0019183	2.236497
11.261526805735578	4.907722	2.215338
11.279138665194196	4.913991	2.2167523
11.296750791949393	4.840097	2.200022
11.314363186429393	4.8439612	2.2009
11.331975849062479	4.7893896	2.1884675
11.34958878027699	4.718421	2.1721926
11.36720198050133	4.635841	2.1531003
11.384815450163948	4.585627	2.1414077
11.402429189693366	4.5469203	2.132351
11.420043199518153	4.465079	2.1130733
11.437657480066942	63.3632	7.9601007
11.455272031768422	85.08375	9.224085
11.472886855051353	107.534424	10.369881
11.490501950344528	99.107574	9.955278
11.508117318076819	84.44378	9.18933
11.52573295867715	45.80414	6.7678757
11.543348872574514	4.10143	2.0251987
11.560965060197946	4.0596175	2.0148492
11.57858152197655	4.045016	2.0112224
11.59619825833949	4.0205503	2.005131
11.613815269715985	4.0218744	2.0054612
11.631432556535323	38.524853	6.206839
11.649050119226837	83.056305	9.1135235
11.666667958219929	93.45854	9.667396
11.68428607394406	107.69449	10.377596
11.701904466828756	82.5263	9.084398
11.719523137303586	65.33528	8.083024
11.737142085798196	4.5403194	2.1308026
11.754761312742286	3.6580386	1.9125999
11.772380818565619	3.6627476	1.9138306
11.790000603698015	3.6649687	1.9144108
11.80762066856935	3.6073523	1.8993031
11.825241013609572	3.566445	1.8885034
11.842861639248683	3.5244272	1.8773458
11.860482545916748	3.495668	1.8696705
11.878103734043883	3.4823983	1.8661186
11.895725204060282	3.4036515	1.8448988
11.91334695639619	3.353932	1.8313743
11.930968991481919	3.3333309	1.8257412
11.948591309747824	3.320461	1.8222132
11.966213911624347	3.3139482	1.8204253
11.98383679754198	3.2591984	1.805325
12.001459967931268	3.288963	1.8135499
12.019083423222835	3.289328	1.8136505
12.036707163847352	3.2964313	1.8156077
12.05433119023556	3.2702403	1.8083806
12.071955502818259	3.2017407	1.7893409
12.089580102026313	3.1682942	1.7799703
12.107204988290643	3.156506	1.7766559
12.12483016204224	3.1541004	1.7759787
12.142455623712152	3.132973	1.7700206
12.16008137373149	3.0839665	1.7561226
12.177707412531431	3.083264	1.7559226
12.19533374054321	3.0283594	1.7402182
12.212960358198126	2.990335	1.7292585
12.230587265927545	2.970074	1.7233902
12.248214464162889	2.9459455	1.7163757
12.265841953335649	2.9627988	1.7212783
12.283469733877375	2.9456232	1.7162818
12.301097806219685	2.9747567	1.7247483
12.31872617079425	2.9671865	1.7225523
12.336354828032825	2.9841077	1.727457
12.353983778367205	2.9673285	1.7225935
12.371613022229262	2.931822	1.7122564
12.389242560050928	2.8711348	1.6944423
12.406872392264201	2.851689	1.6886945
12.424502519301143	2.8395975	1.6851106
12.442132941593874	2.8262448	1.6811439
12.459763659574586	2.8126426	1.6770935
12.477394673675532	2.8214974	1.6797314
12.49502598432903	2.81439	1.6776143
12.51265759196746	2.8195767	1.6791595
12.530289497023267	2.8152728	1.6778774
12.547921699928967	2.82493	1.6807528
12.565554201117134	2.8209116	1.679557
12.583187001020404	2.809849	1.6762605
12.600820100071486	2.7731595	1.6652806
12.618453498703152	2.7600625	1.6613436
12.636087197348235	2.7349935	1.6537815
12.65372119643964	2.7311506	1.6526194
12.671355496410326	2.7638216	1.6624745
12.68899009769333	2.7983902	1.6728389
12.706625000721749	2.835636	1.6839347
12.724260205928752	2.8773334	1.6962705
12.741895713747551	2.914343	1.7071447
12.759531524611454	2.9661431	1.7222494
12.777167638953818	2.9781806	1.7257406
12.794804057208072	2.96964	1.7232643
12.812440779807702	2.9959915	1.7308933
12.830077807186271	3.2111635	1.7919719
12.847715139777405	3.2606585	1.8057294
12.865352778014795	3.4471595	1.8566527
12.882990722332197	3.510642	1.8736707
12.90062897316344	3.610598	1.9001573
12.918267530942412	3.717533	1.9280906
12.935906396103071	3.6049237	1.8986636
12.953545569079449	3.7305048	1.9314514
12.971185050305628	3.5330114	1.8796307
12.988824840215775	3.5688553	1.8891414
13.006464939244115	3.5975118	1.8967108
13.024105347824943	3.4687636	1.8624617
13.041746066392617	3.4981792	1.870342
13.05938709538157	3.2824705	1.811759
13.077028435226296	3.3137112	1.8203602
13.094670086361363	3.2097983	1.791591
13.112312049221401	3.1180792	1.7658083
13.129954324241112	3.0193117	1.7376167
13.147596911855258	2.8579721	1.6905538
13.165239812498685	2.8676302	1.6934079
13.182883026606293	2.8358784	1.6840067
13.200526554613058	2.7493591	1.6581192
13.218170396954017	2.7134626	1.6472591
13.235814554064284	2.674085	1.635263
13.253459026379034	2.6868901	1.6391736
13.271103814333523	2.6644926	1.6323273
13.288748918363058	2.6669805	1.6330893
13.306394338903031	2.6500456	1.6278961
13.32404007638889	2.6584973	1.63049
13.341686131256164	2.6794882	1.6369143
13.359332503940449	2.6546469	1.6293087
13.376979194877402	2.6353486	1.6233757
13.394626204502751	2.6600978	1.6309806
13.412273533252307	2.6818504	1.6376356
13.429921181561937	2.7206688	1.6494449
13.447569149867581	2.6715555	1.6344894
13.465217438605247	2.6746805	1.635445
13.482866048211022	2.6567488	1.6299536
13.500514979121052	2.7277153	1.6515796
13.518164231771568	2.7270184	1.6513686
13.535813806598844	2.6666863	1.6329992
13.553463704039254	2.6332588	1.6227319
13.571113924529229	2.6780598	1.6364778
13.588764468505275	2.7208133	1.6494888
13.606415336403956	2.7588427	1.6609764
13.624066528661917	2.727894	1.6516337
13.641718045715882	2.780319	1.6674289
13.659369888002635	2.8238084	1.6804191
13.67702205595903	2.8964226	1.701888
13.694674550021993	2.946836	1.7166351
13.712327370628532	2.9861898	1.7280595
13.729980518215713	3.0558858	1.7481092
13.747633993220681	3.0953486	1.7593603
13.765287796080647	3.1723516	1.7811097
13.7829419272329	3.2132068	1.792542
13.800596387114801	3.2721784	1.8089163
13.818251176163775	3.259234	1.8053348
13.835906294817324	3.373294	1.836653
13.853561743513023	3.4216027	1.8497574
13.871217522688525	3.4802146	1.8655334
13.888873632781538	3.471537	1.8632061
13.906530074229858	3.5132253	1.87436
13.92418684747135	3.5386214	1.8811224
13.941843952943948	3.5495336	1.8840206
13.959501391085665	3.5354207	1.8802714
13.977159162334578	3.4837072	1.8664691
13.994817267128846	3.3903089	1.8412791
14.012475705906693	3.24029	1.8000805
14.030134479106424	3.1202857	1.766433
14.047793587166414	3.0796676	1.7548982
14.065453030525108	3.0335424	1.7417067
14.083112809621026	2.965231	1.7219846
14.100772924892766	2.8672266	1.6932887
14.118433376778997	2.8217404	1.6798037
14.136094165718458	2.7735665	1.6654028
14.153755292149969	2.7255375	1.6509202
14.171416756512416	2.6818984	1.6376503
14.189078559244768	2.5947182	1.6108129
14.20674070078606	2.5437582	1.5949163
14.224403181575408	2.5141838	1.5856178
14.242066002051999	2.5116208	1.5848094
14.259729162655093	2.4962459	1.5799512
14.277392663824022	2.4685683	1.5711678
14.295056505998208	2.4292893	1.5586177
14.312720689617128	2.4260094	1.5575652
14.330385215120348	2.420833	1.5559027
14.348050082947497	2.386826	1.5449356
14.3657152935383	2.3661628	1.5382336
14.383380847332528	2.355627	1.5348052
14.401046744770051	2.3874702	1.5451441
14.418712986290798	2.4210563	1.5559744
14.436379572334793	2.4052258	1.550879
14.454046503342123	2.3768191	1.5416936
14.471713779752946	2.3444467	1.5311586
14.489381402007504	2.3557565	1.5348474
14.507049370546113	2.3664932	1.538341
14.524717685809168	2.360555	1.5364097
14.542386348237134	2.3874097	1.5451245
14.560055358270553	2.405993	1.5511264
14.577724716350051	2.4571567	1.5675321
14.595394422916325	2.433542	1.5599815
14.61306447841015	2.440133	1.5620925
14.63073488327237	2.448138	1.5646527
14.648405637943917	2.4910755	1.5783142
14.6660767428658	2.5058062	1.5829738
14.683748198479094	2.5130923	1.5852736
14.701420005224954	2.5622315	1.6006972
14.719092163544628	2.614097	1.616817
14.73676467387942	2.635601	1.6234534
14.754437536670727	2.63869	1.6244045
14.772110752360014	2.6619706	1.6315546
14.78978432138882	2.6872065	1.6392701
14.807458244198777	2.7217596	1.6497756
14.82513252123159	2.7011888	1.6435294
14.842807152929028	2.713336	1.6472207
14.860482139732962	2.6568935	1.629998
14.87815748208531	2.6056666	1.6142077
14.8958331804281	2.60662	1.614503
14.91350923520342	2.6178157	1.6179665
14.931185646853438	2.6931484	1.6410815
14.948862415820408	2.6748626	1.6355007
14.966539542546656	2.6650605	1.6325014
14.98421702747459	2.618222	1.6180921
15.001894871046696	2.5947287	1.6108161
15.019573073705542	2.6112876	1.6159478
15.037251635893766	2.656365	1.6298358
15.054930558054092	2.6982222	1.6426266
15.072609840629323	2.7577934	1.6606605
15.090289484062351	2.8952947	1.7015566
15.107969488796124	3.2086535	1.7912714
15.125649855273691	3.6187932	1.9023126
15.14333058393817	4.1451154	2.0359557
15.161011675232768	5.0806847	2.2540374
15.17869312960076	6.449551	2.5395966
15.196374947485506	8.317624	2.8840292
15.214057129330447	11.366167	3.3713746
15.231739675579114	15.888625	3.986054
15.249422586675102	20.684877	4.548063
15.267105863062092	23.669952	4.8651776
15.284789505183847	23.995592	4.8985295
15.302473513484218	21.937193	4.683716
15.320157888407127	18.402763	4.289844
15.337842630396578	14.288984	3.7800772
15.355527739896656	11.139447	3.3375812
15.37321321735153	8.719924	2.9529517
15.39089906320545	6.3723493	2.5243514
15.408585277902748	4.8213525	2.1957579
15.42627186188783	3.7322936	1.9319144
15.443958815605198	3.2584033	1.8051047
15.461646139499424	2.9453073	1.7161897
15.479333834015168	2.8088179	1.6759528
15.497021899597165	2.7373211	1.6544851
15.514710336690234	2.7121263	1.6468534
15.53239914573928	2.617591	1.617897
15.550088327189297	2.5452461	1.5953828
15.567777881485336	2.4829357	1.5757334
15.58546780907256	2.4665716	1.5705322
15.6031581103962	2.4758544	1.5734848
15.620848785901568	2.444775	1.5635777
15.638539836034063	2.4342697	1.5602146
15.656231261239173	2.4411297	1.5624115
15.673923061962451	2.4660974	1.5703813
15.691615238649552	2.473266	1.572662
15.709307791746202	2.4405513	1.5622264
15.727000721698221	2.4416661	1.5625832
15.744694028951498	2.396657	1.5481141
15.76238771395202	2.38422	1.5440919
15.780081777145844	2.3597991	1.5361638
15.797776218979125	2.3340309	1.5277536
15.815471039898094	2.3124597	1.5206773
15.833166240349064	2.283684	1.5111862
15.850861820778437	2.300165	1.5166295
15.868557781632699	2.3335795	1.5276058
15.886254123358412	2.3844118	1.544154
15.903950846402232	2.4131856	1.5534432
15.921647951210897	2.4075055	1.5516138
15.939345438231225	2.3618631	1.5368354
15.957043307910133	2.3291457	1.5261539
15.974741560694602	2.3374007	1.528856
15.992440197031714	2.3857124	1.5445751
16.01013921736862	2.4108617	1.552695
16.02783862215259	2.4091225	1.5521348
16.045538411830933	2.3833015	1.5437945
16.06323858685107	2.3809505	1.5430329
16.080939147660512	2.380917	1.543022
16.09864009470684	2.3770676	1.5417742
16.11634142843774	2.3858824	1.5446302
16.134043149300954	2.3931508	1.5469812
16.15174525774433	2.3995202	1.5490384
16.169447754215817	2.3659208	1.538155
16.18715063916342	2.3215945	1.523678
16.204853913035244	2.3174279	1.52231
16.222557576279478	2.3221123	1.5238478
16.240261629344403	22.340576	4.726582
16.257966072678386	42.946743	6.5533767
16.275670906729868	38.10685	6.1730747
16.293376131947387	2.535171	1.5922221
16.31108174877957	2.5168407	1.5864553
16.328787757675133	2.53411	1.5918888
16.34649415908287	2.5706468	1.6033237
16.364200953451657	2.5995033	1.6122975
16.38190814123048	2.6363332	1.6236789
16.39961572286839	2.6500273	1.6278905
16.41732369881455	2.6781218	1.6364968
16.43503206951817	2.6997764	1.6430997
16.45274083542859	2.7222195	1.649915
16.47044999699522	2.7700667	1.6643517
16.488159554667558	2.8218331	1.6798313
16.505869508895184	2.866684	1.6931285
16.523579860127786	2.9261506	1.7105994
16.541290608815117	2.9743423	1.7246282
16.559001755407035	2.9621127	1.7210789
16.57671330035348	2.9825244	1.7269987
16.59442524410448	3.0806963	1.7551912
16.61213758711015	3.1947856	1.7873963
16.629850329820705	3.252384	1.8034368
16.647563472686436	3.3307555	1.8250357
16.665277016157724	3.3734236	1.8366882
16.682990960685053	3.394956	1.8425406
16.70070530671898	3.4051938	1.8453168
16.718420054710155	3.4756052	1.8642975
16.736135205109335	3.532697	1.879547
16.753850758367335	3.603252	1.8982234
16.771566714935087	3.6247058	1.903866
16.789283075263597	3.659537	1.9129916
16.80699983980398	3.7473152	1.9357983
16.82471700900741	3.8196554	1.9543939
16.84243458332518	3.8583734	1.9642743
16.860152563208665	3.8955467	1.9737139
16.87787094910932	4.011077	2.0027673
16.89558974147871	4.081145	2.0201843
16.913308940768466	4.1368523	2.0339253
16.931028547430333	4.1988144	2.0491009
16.94874856191613	4.243063	2.0598698
16.966468984677785	4.3058567	2.0750558
16.98418981616729	4.3607974	2.0882523
17.00191105683676	4.421535	2.1027446
17.019632707138374	4.522447	2.1266046
17.03735476752442	4.550244	2.13313
17.05507723844728	4.5813746	2.1404147
17.072800120359403	4.592346	2.142976
17.090523413713353	4.63785	2.1535668
17.108247118961785	4.6547337	2.157483
17.125971236557437	4.641986	2.154527
17.143695766953133	4.603148	2.1454947
17.161420710601806	4.585673	2.1414185
17.179146067956477	4.612739	2.147729
17.19687183947025	4.6774244	2.1627355
17.21459802559634	4.694924	2.1667774
17.232324626788028	4.666032	2.1601
17.25005164349871	4.604914	2.1459064
17.267779076181863	4.5808997	2.1403036
17.285506925291074	4.5843945	2.14112
17.30323519127999	4.6054363	2.146028
17.320963874602384	4.5679865	2.1372848
17.33869297571211	4.5833206	2.1408691
17.356422495063114	4.5568995	2.1346896
17.37415243310944	4.563223	2.1361701
17.391882790305218	4.5691357	2.1375537
17.40961356710468	4.5230417	2.1267445
17.42734476396215	4.4991364	2.1211169
17.445076381332044	4.467168	2.1135676
17.462808419668868	4.5210843	2.1262841
17.48054087942723	4.6751328	2.1622055
17.498273761061835	4.9804754	2.2316978
17.51600706502747	5.453747	2.335326
17.533740791779024	6.1725154	2.4844546
17.551474941771485	7.6212687	2.7606645
17.56920951545993	8.730997	2.954826
17.586944513299528	10.821327	3.2895787
17.60467993574556	12.3103895	3.5086164
17.622415783253373	13.871944	3.724506
17.64015205627843	15.106013	3.8866456
17.657888755276293	16.215378	4.026832
17.675625880702604	16.661766	4.0818825
17.69336343301311	16.480743	4.059648
17.71110141266366	15.781261	3.9725635
17.728839820110178	14.9922	3.8719761
17.746578655808705	14.224576	3.7715483
17.764317920215372	12.879447	3.5887947
17.7820576137864	11.498599	3.3909583
17.79979773697811	9.555191	3.0911472
17.81753829024692	7.654013	2.7665887
17.835279274049356	5.927864	2.4347205
17.85302068884201	4.9164424	2.2173052
17.870762535081607	4.219922	2.054245
17.888504813224934	3.8943205	1.9734033
17.90624752372891	3.6930354	1.9217272
17.923990667050536	3.6060615	1.8989632
17.941734243646895	3.5217452	1.8766314
17.959478253975185	3.4882336	1.8676814
17.9772226984927	3.4616387	1.8605479
17.994967577656833	3.464746	1.8613828
18.01271289192506	3.4694269	1.8626398
18.030458641754965	3.4009843	1.8441758
18.04820482760425	3.3600433	1.8330421
18.06595144993067	3.2939277	1.814918
18.083698509192125	3.264164	1.8066998
18.101446005846576	3.240784	1.8002177
18.119193940352105	3.2328649	1.7980169
18.136942313166887	3.2259505	1.7960931
18.1546911247492	3.2000709	1.7888741
18.1724403755574	3.1808639	1.7834977
18.19019006604997	3.1836522	1.7842792
18.207940196685467	3.161246	1.7779894
18.225690767922575	3.1560502	1.7765275
18.243441780220046	3.1026678	1.7614391
18.261193234036764	3.0571218	1.7484627
18.278945129831676	3.0325086	1.7414099
18.29669746806386	3.0413625	1.7439502
18.314450249192483	3.0716505	1.7526125
18.3322034736768	3.052991	1.747281
18.349957141976184	3.0416667	1.7440375
18.3677112545501	3.0307276	1.7408985
18.385465811858108	3.0344014	1.7419534
18.403220814359884	3.072076	1.752734
18.420976262515172	3.0517523	1.7469265
18.43873215678387	3.0419977	1.7441324
18.456488497625923	3.059153	1.7490435
18.474245285501407	3.159946	1.7776237
18.492002520870486	3.19386	1.7871374
18.50976020419343	3.2948043	1.8151596
18.527518335930615	3.6513681	1.9108553
18.545276916542516	4.29523	2.0724936
18.563035946489688	4.434345	2.1057885
18.580795426232832	4.8258433	2.1967802
18.598555356232698	4.6938105	2.1665204
18.616315736950185	5.026784	2.242049
18.63407656884626	4.7472496	2.1788185
18.65183785238201	4.962749	2.227723
18.669599588018617	4.681779	2.1637418
18.68736177621737	4.6270494	2.1510577
18.705124417439652	4.6564894	2.15789
18.72288751214696	4.493102	2.1196938
18.740651060800886	4.623411	2.1502118
18.758415063863115	4.2801213	2.0688455
18.77617952179546	4.4179764	2.1018982
18.793944435059814	4.1685705	2.0417078
18.811709804118184	4.187089	2.0462377
18.829475629432675	4.1931095	2.0477083
18.8472419114655	4.0061297	2.0015318
18.86500865067897	4.093766	2.0233057
18.88277584753551	3.757441	1.938412
18.90054350249763	3.8123255	1.9525177
18.918311616027957	3.5559027	1.8857101
18.936080188589226	3.3880236	1.8406584
18.953849220644265	3.0493762	1.7462463
18.971618712656007	2.870019	1.694113
18.9893886650875	2.8363914	1.6841589
19.007159078401887	7.9689207	2.8229277
19.024929953062408	32.861	5.7324514
19.042701289532435	32.8067	5.7277136
19.060473088275405	25.369877	5.036852
19.07824534975489	2.6161695	1.6174577
19.096018074434568	2.6215525	1.6191208
19.113791262778197	2.6230848	1.619594
19.13156491524966	2.6187494	1.618255
19.149339032312945	2.592516	1.6101291
19.167113614432136	2.5713549	1.6035445
19.184888662071433	2.5310075	1.590914
19.202664175695123	2.520536	1.5876195
19.220440155767623	2.505979	1.5830284
19.238216602753447	2.4934306	1.5790601
19.2559935171172	2.4999514	1.5811235
19.27377089932361	2.5229235	1.5883713
19.291548749837514	2.5085917	1.5838534
19.309327069123835	2.497859	1.5804616
19.32710585764763	2.446326	1.5640736
19.344885115874032	2.4354873	1.5606048
19.362664844268313	2.4509516	1.5655515
19.380445043295822	2.484982	1.5763825
19.39822571342203	2.491737	1.5785236
19.41600685511252	2.5056596	1.5829276
19.43378846883297	2.4916244	1.578488
19.451570555049173	2.4875917	1.5772101
19.469353114227037	2.491121	1.5783286
19.48713614683254	2.4926577	1.5788152
19.50491965333182	2.4628549	1.5693486
19.52270363419109	2.4751427	1.5732586
19.540488089876686	2.5102508	1.584377
19.55827302085503	2.531733	1.591142
19.576058427592674	2.531691	1.5911288
19.593844310556282	2.5093784	1.5841018
19.611630670212598	2.5026598	1.5819798
19.629417507028506	2.4793808	1.574605
19.64720482147098	2.4415524	1.5625467
19.6649926140071	2.4413574	1.5624844
19.682780885104084	2.4721532	1.5723082
19.70056963522921	2.4976704	1.580402
19.718358864849908	2.532219	1.5912948
19.7361485744337	2.5280974	1.5899992
19.753938764448215	2.512607	1.5851206
19.771729435361202	2.4959052	1.5798434
19.789520587640506	2.44199	1.5626868
19.807312221754092	2.4188201	1.5552557
19.825104338170043	2.4053776	1.550928
19.842896937356517	2.4557688	1.5670893
19.860690019781824	2.4786046	1.5743585
19.87848358591436	2.5004036	1.5812665
19.896277636222635	2.531626	1.5911084
19.914072171175278	2.5599587	1.5999871
19.931867191241015	2.56043	1.6001344
19.94966269688869	2.536795	1.592732
19.967458688587264	2.4922185	1.5786762
19.985255166805807	2.476562	1.5737096
20.00305213201348	2.4590724	1.568143
20.020849584679578	2.4181724	1.5550474
20.038647525273507	2.4195073	1.5554765
20.05644595426477	2.407164	1.5515038
20.07424487212299	2.4271119	1.557919
20.092044279317903	2.4453478	1.5637608
20.109844176319353	2.4473088	1.5643877
20.127644563597304	2.464151	1.5697614
20.145445441621817	2.4418936	1.5626559
20.16324681086307	2.4217439	1.5561953
20.181048671791373	2.407398	1.5515792
20.198851024877122	2.3884468	1.5454601
20.216653870590836	2.3867295	1.5449044
20.234457209403146	2.3463526	1.5317808
20.252261041784802	2.3640673	1.5375524
20.270065368206662	2.3736022	1.5406499
20.287870189139685	2.3720262	1.5401384
20.305675505054968	2.3474057	1.5321245
20.323481316423702	2.372528	1.5403013
20.341287623717207	2.3736265	1.5406578
20.359094427406884	2.3687406	1.5390713
20.376901727964288	2.321132	1.5235262
20.39470952586107	2.3067048	1.5187839
20.41251782156899	2.289905	1.5132432
20.430326615559935	2.3192005	1.5228921
20.448135908305886	2.309179	1.5195984
20.465945700278965	2.3030117	1.5175676
20.483755991951384	2.317934	1.5224763
20.50156678379548	2.3119824	1.5205204
20.519378076283708	2.3305674	1.5266196
20.537189869888635	2.3094397	1.5196841
20.55500216508294	2.3067915	1.5188125
20.572814962339415	2.3014164	1.517042
20.59062826213098	2.3374	1.5288558
20.60844206493066	2.338127	1.5290935
20.626256371211593	2.3407583	1.5299537
20.644071181447032	2.3374891	1.5288849
20.66188649611036	2.350455	1.5331194
20.67970231567506	2.3267272	1.5253613
20.697518640614742	2.3111954	1.5202616
20.715335471403122	2.322503	1.5239761
20.73315280851404	2.3191931	1.5228897
20.750970652421447	2.328286	1.5258722
20.768789003599412	2.3122218	1.5205991
20.786607862522136	2.303413	1.5176998
20.8044272296639	2.2961414	1.5153024
20.82224710549913	2.2937534	1.5145142
20.84006749050237	2.2636378	1.504539
20.857888385148268	3.8065975	1.9510504
20.8757097899116	45.93534	6.7775617
20.893531705267254	64.80574	8.050201
20.911354131690224	83.82786	9.155755
20.92917706965566	69.06349	8.310445
20.94700051963877	50.151108	7.0817447
20.96482448211493	29.426367	5.4246078
20.982648957559622	4.1767035	2.0436985
21.00047394644843	2.2640305	1.5046695
21.01829944925707	2.2236652	1.4911959
21.036125466461375	2.2155185	1.4884617
21.053951998537297	2.236257	1.495412
21.071779045960906	2.2118387	1.4872252
21.089606609208378	2.174106	1.4744849
21.10743468875603	2.17188	1.47373
21.12526328508028	2.2063072	1.4853643
21.143092398657675	2.2246368	1.4915216
21.16092202996488	2.203431	1.4843957
21.17875217947867	2.206444	1.4854103
21.19658284767596	2.211292	1.4870414
21.21441403503377	2.206679	1.4854895
21.232245742029225	2.171839	1.473716
21.2500779691396	2.144154	1.464293
21.26791071684227	2.1461616	1.4649783
21.28574398561475	2.1582658	1.4691037
21.30357777593465	2.1669378	1.4720522
21.321412088279704	2.173406	1.4742476
21.339246923127792	2.1837056	1.4777366
21.357082280956888	2.1757178	1.4750315
21.3749181622451	2.1592584	1.4694415
21.392754567470647	2.143884	1.4642007
21.41059149711187	2.1675372	1.4722558
21.42842895164726	2.1738632	1.4744027
21.446266931555378	2.183898	1.4778017
21.464105437314945	2.167771	1.4723352
21.481944469404798	2.1348662	1.4611181
21.49978402830388	2.1173456	1.4551102
21.51762411449127	2.0883434	1.4451102
21.53546472844617	2.0823298	1.443028
21.553305870647876	2.0939841	1.4470605
21.571147541575865	2.111387	1.4530612
21.58898974170967	2.1115887	1.4531306
21.60683247152899	2.0732934	1.4398936
21.62467573151363	2.0444615	1.4298466
21.642519522143523	2.0465515	1.4305773
21.660363843898722	2.0582004	1.4346429
21.6782086972594	2.0591145	1.4349614
21.696054082705864	2.0297453	1.4246913
21.713900000718535	2.0198305	1.4212074
21.73174645177795	2.0253713	1.4231554
21.749593436364794	2.054066	1.4332013
21.767440954959845	2.0166545	1.4200896
21.785289008044032	1.9702466	1.4036547
21.803137596098388	1.9707507	1.4038342
21.820986719604086	2.0174065	1.4203544
21.838836379042412	2.0775166	1.4413593
21.85668657489478	2.0566218	1.4340926
21.87453730764273	2.002233	1.4150028
21.892388577767914	1.965287	1.4018869
21.91024038575213	1.9723982	1.404421
21.928092732077285	1.9937245	1.411993
21.945945617225426	2.0039952	1.4156253
21.963799041678694	1.9780116	1.406418
21.981653005919398	31.269985	5.591957
21.999507510429943	78.09215	8.836976
22.01736255569286	73.07509	8.548397
22.035218142190818	4.191844	2.0473993
22.05307427040661	2.019955	1.4212512
22.07093094082315	2.011925	1.4184234
22.088788153923474	2.0115423	1.4182885
22.106645910190746	1.9934204	1.4118854
22.12450421010827	2.0039666	1.4156153
22.142363054159464	1.9508015	1.396711
22.16022244282787	1.9646245	1.4016507
22.178082376597164	1.931716	1.3898618
22.195942855951145	1.9423473	1.3936812
22.213803881373742	1.9248589	1.3873929
22.231665453349002	1.9599825	1.3999938
22.24952757236111	2.0021868	1.4149865
22.26739023889438	1.9913006	1.4111345
22.28525345343323	2.0057058	1.4162295
22.30311721646225	2.0444138	1.42983
22.320981528466113	2.0507035	1.4320278
22.33884638992964	2.0066023	1.4165459
22.356711801337788	1.9673603	1.4026262
22.37457776317561	1.9247518	1.3873543
22.392444275928337	1.8997865	1.3783274
22.410311340081282	1.9106531	1.3822638
22.428178956119904	1.9364148	1.3915513
22.446047124529805	1.9643086	1.4015379
22.46391584579669	1.9494203	1.3962164
22.481785120406414	1.9652514	1.4018743
22.49965494884496	1.9656527	1.4020174
22.51752533159841	1.9583192	1.3993996
22.53539626915302	1.9555048	1.3983936
22.553267761995137	1.9641324	1.4014751
22.571139810611264	1.9621298	1.4007604
22.589012415488025	1.9419485	1.3935381
22.60688557711216	1.9232341	1.3868072
22.624759295970566	1.9049778	1.3802093
22.642633572550263	1.9231396	1.3867731
22.660508407338362	1.9249768	1.3874353
22.67838380082217	1.9188643	1.3852308
22.696259753489077	1.9134732	1.3832835
22.714136265826614	1.9239179	1.3870537
22.73201333832246	1.936173	1.3914644
22.74989097146439	1.9468873	1.395309
22.76776916574035	1.9946479	1.41232
22.785647921638393	1.9903066	1.4107822
22.803527239646712	1.998799	1.4137889
22.82140712025363	1.9607456	1.4002663
22.839287563947593	1.9242272	1.3871652
22.85716857121719	1.8958262	1.3768901
22.875050142551135	1.8896499	1.3746454
22.892932278438277	1.9086425	1.3815362
22.910814979367604	1.8937172	1.376124
22.928698245828222	1.9048294	1.3801556
22.946582078309387	1.8913226	1.3752537
22.96446647730047	1.8547072	1.3618764
22.98235144329098	1.8212489	1.3495365
23.000236976770562	1.8690249	1.3671229
23.018123078229	1.8933753	1.3759997
23.03600974815619	1.9096097	1.3818862
23.053896987042194	1.8989584	1.378027
23.071784795377173	1.859273	1.3635516
23.08967317365145	1.8350441	1.354638
23.10756212235546	1.824413	1.3507084
23.125451641979787	1.8844229	1.3727429
23.143341733015134	1.8906693	1.3750161
23.161232395952357	1.893229	1.3759466
23.179123631282426	1.8963616	1.3770845
23.197015439496468	1.9308407	1.389547
23.214907821085717	1.9515897	1.396993
23.23280077654157	1.9898859	1.4106332
23.250694306355538	1.9747	1.4052402
23.268588411019277	1.9770393	1.4060723
23.28648309102458	1.9452536	1.3947235
23.304378346863356	1.967634	1.4027238
23.322274179027676	1.9693573	1.403338
23.340170588009723	1.9668003	1.4024266
23.358067574301852	1.9229223	1.3866947
23.37596513839651	1.930428	1.3893985
23.39386328078629	1.9134179	1.3832635
23.411762001963947	1.8792964	1.3708743
23.429661302422353	1.8770757	1.3700641
23.4475611826545	1.8931996	1.3759359
23.46546164315356	1.9025515	1.3793302
23.48336268441279	1.925666	1.3876836
23.501264306925638	1.907427	1.3810962
23.51916651118564	1.914354	1.3836018
23.537069297686497	1.9419153	1.3935262
23.554972666922037	1.9766463	1.4059325
23.57287661938623	1.951671	1.3970222
23.59078115557318	1.9046085	1.3800756
23.608686275977128	1.917084	1.384588
23.62659198109246	1.8894604	1.3745764
23.6444982714137	1.8942801	1.3763285
23.66240514743549	1.8532118	1.3613272
23.68031260965263	1.8836305	1.3724542
23.698220658560068	1.8790448	1.3707825
23.716129294652845	1.8889166	1.3743787
23.7340385184262	1.8873786	1.373819
23.75194833037546	1.9156487	1.3840696
23.769858730996123	1.9139739	1.3834645
23.78776972078382	1.8905362	1.3749677
23.80568130023431	1.8602355	1.3639045
23.823593469843495	1.8593686	1.3635867
23.841506230107424	1.8656244	1.3658786
23.859419581522275	1.8753389	1.3694302
23.87733352458438	1.8615993	1.3644044
23.89524805979019	1.8608288	1.3641219
23.913163187636318	1.8886745	1.3742906
23.931078908619508	1.9035542	1.3796935
23.948995223236633	1.9468317	1.3952891
23.966912131984735	1.9846541	1.4087775
23.98482963536096	2.0130384	1.4188159
24.002747733862616	2.0198045	1.4211982
24.020666427987155	2.0098333	1.4176859
24.038585718232156	2.0221703	1.4220303
24.056505605095353	2.0210233	1.4216269
24.074426089074617	2.0346186	1.4264005
24.092347170667946	2.0386455	1.4278114
24.110268850373515	2.0658393	1.4373028
24.128191128689586	2.0750701	1.4405104
24.146114006114626	2.082456	1.4430717
24.164037483147187	2.076658	1.4410614
24.181961560286005	2.0021222	1.4149636
24.199886238029926	1.9542401	1.3979414
24.21781151687797	1.9532262	1.3975787
24.235737397329274	1.9759406	1.4056815
24.253663879883135	1.9789131	1.4067384
24.271590965038975	2.010179	1.4178078
24.289518653296376	2.0277069	1.4239757
24.30744694515505	2.008777	1.4173132
24.32537584111486	2.0028415	1.4152179
24.34330534167581	2.0162826	1.4199586
24.361235447338046	2.0330935	1.4258659
24.379166158601876	2.0893176	1.4454472
24.39709747596772	2.0505629	1.4319787
24.41502939993615	2.0405722	1.428486
24.432961931007917	2.010503	1.4179221
24.450895069683856	2.0189161	1.4208857
24.468828816465	1.9966856	1.4130412
24.4867631718525	1.9833257	1.408306
24.504698136347656	1.9678202	1.4027902
24.52263371045192	1.9599037	1.3999656
24.540569894666874	1.9208584	1.3859503
24.558506689494266	1.9549229	1.3981856
24.57644409543597	1.9891967	1.4103888
24.594382112994012	1.9814335	1.407634
24.61232074267057	1.9600782	1.400028
24.630259984967953	1.90486	1.3801666
24.64819984038863	1.87534	1.3694305
24.66614030943522	1.8712988	1.3679543
24.684081392610462	1.922589	1.3865745
24.702023090417274	1.9045863	1.3800675
24.7199654033587	1.9325312	1.3901551
24.737908331937927	1.9375194	1.3919481
24.755851876658305	1.9530768	1.3975253
24.773796038023324	1.968742	1.4031187
24.79174081653661	2.0602484	1.4353565
24.809686212701962	2.0784502	1.4416832
24.827632227023294	2.0934005	1.4468589
24.8455788600047	2.0964642	1.4479172
24.8635261121504	2.1084516	1.4520508
24.88147398396475	2.0525727	1.4326802
24.899422475952303	1.9808234	1.4074173
24.917371588617698	1.9782904	1.4065171
24.935321322465768	2.0876322	1.444864
24.953271678001478	2.2628527	1.5042781
24.97122265572994	2.4600244	1.5684465
24.989174256156414	2.72171	1.6497606
25.00712647978632	3.1461964	1.7737521
25.02507932712521	3.6751313	1.9170632
25.043032798678798	4.1909084	2.0471709
25.060986894952933	4.860137	2.2045717
25.078941616453637	5.5751114	2.3611674
25.096896963687055	6.512812	2.5520213
25.114852937159508	7.6264915	2.7616103
25.132809537377444	8.055565	2.8382328
25.150766764847468	8.125334	2.850497
25.168724620076347	7.6160893	2.7597263
25.186683103570985	6.703425	2.5890973
25.204642215838426	5.6197557	2.3706024
25.222601957385894	4.2618666	2.0644288
25.24056232872074	3.1829064	1.7840701
25.25852333035048	2.5969899	1.6115179
25.276484962782778	2.2363894	1.4954562
25.294447226525435	2.0713708	1.4392258
25.312410122086423	2.0072532	1.4167756
25.330373649973843	1.9515113	1.396965
25.348337810695988	1.9230226	1.3867309
25.366302604761245	1.9328156	1.3902574
25.384268032678207	1.9193914	1.385421
25.40223409495558	1.8774669	1.3702068
25.420200792102257	1.8114556	1.3459033
25.438168124627246	1.8324902	1.353695
25.45613609303974	1.8728098	1.3685064
25.474104697849057	1.8874015	1.3738273
25.492073939564698	1.8735967	1.3687938
25.510043818696285	1.8626223	1.3647792
25.528014335753614	1.8327852	1.353804
25.54598549124664	1.7829835	1.3352841
25.56395728568544	1.7875721	1.3370012
25.58192971958028	1.8061818	1.3439426
25.59990279344156	1.8276073	1.3518902
25.617876507779833	1.8361232	1.3550363
25.635850863105826	1.8623725	1.3646877
25.653825859930386	1.862163	1.3646109
25.671801498764548	1.8729017	1.3685399
25.68977778011949	1.8614526	1.3643506
25.707754704506524	1.9007652	1.3786824
25.725732272437153	1.9328614	1.3902739
25.743710484423012	1.9503523	1.3965502
25.761689340975888	1.9582973	1.3993918
25.77966884260774	1.9303746	1.3893793
25.797648989830662	1.8921084	1.3755393
25.815629783156922	1.8459897	1.358672
25.83361122309895	1.8059341	1.3438505
25.85159331016929	1.7987071	1.3411589
25.869576044880695	1.8116322	1.3459688
25.887559427746034	1.8032055	1.3428348
25.90554345927836	1.8085269	1.3448148
25.92352813999086	1.8183839	1.3484746
25.94151347039689	1.8647193	1.3655473
25.959499451009965	1.8419704	1.3571922
25.97748608234374	1.8230988	1.3502218
25.995473364912062	1.7999763	1.341632
26.013461299228904	1.7912933	1.338392
26.03144988580839	1.809076	1.345019
26.04943912516483	1.8470818	1.3590739
26.067429017812675	1.8434182	1.3577254
26.085419564266537	1.8197767	1.3489909
26.103410765041186	1.7824683	1.3350911
26.12140262065155	1.7578049	1.3258224
26.139395131612723	1.750469	1.3230529
26.157388298439948	1.8056768	1.3437548
26.17538212164861	1.8576677	1.3629628
26.193376601754295	1.8527764	1.3611673
26.211371739272714	1.8029484	1.3427391
26.229367534719746	1.8223617	1.3499488
26.247363988611433	1.8141804	1.3469151
26.26536110146397	1.7791091	1.3338325
26.283358873793727	1.7496041	1.322726
26.301357306117204	1.7927431	1.3389336
26.319356398951104	1.7992214	1.3413506
26.33735615281224	1.7902396	1.3379984
26.35535656821762	1.7577347	1.3257959
26.373357645684404	1.746165	1.3214254
26.39135938572991	1.7372109	1.318033
26.409361788871614	1.7972665	1.3406217
26.427364855627165	1.8206364	1.3493096
26.445368586514352	1.8149269	1.3471922
26.46337298205115	1.7888906	1.3374941
26.48137804275568	1.8002633	1.3417389
26.499383769146217	1.7973666	1.340659
26.517390161741215	1.8092762	1.3450934
26.53539722105928	1.8144475	1.3470143
26.553404947619182	1.78622	1.3364954
26.571413341939856	1.7961588	1.3402085
26.589422404540397	1.84918	1.3598455
26.60743213594006	1.8445373	1.3581374
26.62544253665827	1.810605	1.3455873
26.64345360721459	1.79165	1.3385253
26.66146534812879	1.8183304	1.3484548
26.679477759920758	1.8301678	1.352837
26.69749084311057	1.8086491	1.3448602
26.71550459821847	1.7868675	1.3367376
26.733519025764842	1.7914369	1.3384457
26.751534126270258	1.7944145	1.3395575
26.769549900255434	1.752426	1.3237923
26.787566348241267	1.7374661	1.3181298
26.80558347074881	1.7998807	1.3415964
26.823601268299267	1.7850407	1.3360542
26.841619741414036	1.7653278	1.3286564
26.85963889061465	1.7789443	1.3337706
26.877658716422832	1.7829846	1.3352845
26.89567921936045	1.777112	1.3330836
26.913700399949544	1.7257516	1.3136786
26.93172225871233	1.7577404	1.325798
26.949744796171174	1.761151	1.3270836
26.967768012848605	1.7790039	1.333793
26.98579190926733	1.7736462	1.331783
27.003816485950225	1.781315	1.3346591
27.021841743420318	1.7956337	1.3400126
27.039867682200814	1.8112395	1.3458229
27.057894302815072	1.8163625	1.3477249
27.07592160578664	1.8326747	1.3537632
27.0939495916392	1.8355138	1.3548113
27.111978260896635	1.794328	1.3395252
27.13000761408296	1.7841641	1.335726
27.148037651722397	1.8100224	1.3453708
27.166068374339304	1.8467734	1.3589604
27.184099782458215	1.8033969	1.3429061
27.20213187660384	1.7994026	1.3414181
27.22016465730105	1.833128	1.3539306
27.23819812507487	1.792651	1.3388993
27.256232280450533	1.7468011	1.321666
27.274267123953383	1.7778252	1.3333511
27.292302656108987	1.7806312	1.3344029
27.31033887744306	1.7675056	1.3294758
27.32837578848146	1.783271	1.3353916
27.34641338975026	1.8205456	1.349276
27.364451681775673	1.8310585	1.3531661
27.382490665084074	1.8398203	1.3563998
27.400530340202046	1.8379991	1.3557283
27.41857070765629	1.8494247	1.3599355
27.436611767973726	1.803954	1.3431135
27.454653521681404	1.7489829	1.3224912
27.472695969306564	1.720959	1.3118533
27.490739111376627	1.7615563	1.3272363
27.508782948419153	1.8182532	1.3484262
27.526827480961902	1.8034215	1.3429153
27.54487270953279	1.7950968	1.3398122
27.562918634659898	1.7840809	1.3356949
27.580965256871508	1.8231621	1.3502452
27.599012576696026	1.7950103	1.33978
27.617060594662068	1.7575252	1.3257169
27.63510931129842	1.7662799	1.3290147
27.65315872713401	1.8259165	1.3512648
27.67120884269797	1.882172	1.3719227
27.68925965851958	1.8815844	1.3717085
27.707311175128307	1.877822	1.3703364
27.725363393053787	1.8561761	1.3624156
27.74341631282583	1.8264372	1.3514575
27.7614699349744	1.8138862	1.3468059
27.77952426002968	2.042092	1.4290179
27.797579288521973	2.106185	1.4512701
27.815635020981784	2.55239	1.5976201
27.83369145793979	2.6334276	1.6227839
27.85174859992682	2.4590342	1.5681309
27.869806447473923	2.2849295	1.5115983
27.887865001112267	1.9064368	1.3807378
27.905924261373233	1.7768403	1.3329817
27.92398422878836	1.8320178	1.3535205
27.94204490388936	1.9066865	1.3808283
27.96010628720813	1.9166834	1.3844434
27.978168379276728	1.8659157	1.3659853
27.9962311806274	1.8561976	1.3624234
28.014294691792568	1.8557174	1.3622472
28.0323589133048	1.870222	1.3675606
28.050423845696887	1.8315998	1.3533661
28.068489489501758	1.8218423	1.3497564
28.086555845252523	1.8362746	1.3550922
28.104622913482487	1.8463143	1.3587915
28.122690694725115	1.8775654	1.3702428
28.14075918951405	1.9022413	1.3792176
28.15882839838312	1.8701476	1.3675334
28.176898321866304	1.8150004	1.3472195
28.1949689604978	1.8615205	1.3643755
28.213040314811945	1.9113519	1.3825165
28.23111238534327	1.9316165	1.389826
28.249185172626493	1.8345351	1.3544501
28.267258677196473	1.7955754	1.3399909
28.285332899588294	1.8508775	1.3604696
28.303407840337172	1.8770317	1.370048
28.321483499978545	1.903861	1.3798047
28.33955987904799	1.9440744	1.3943007
28.357636978081285	1.9806935	1.4073712
28.37571479761439	1.9725246	1.4044659
28.393793338183425	1.9075128	1.3811274
28.41187260032469	1.8630269	1.3649274
28.429952584574686	1.9191836	1.385346
28.448033291470065	1.942021	1.3935641
28.46611472154769	1.9473386	1.3954707
28.484196875344566	1.9192015	1.3853525
28.502279753397914	1.8840969	1.372624
28.52036335624511	1.8954048	1.376737
28.538447684423716	1.9305892	1.3894564
28.556532738471482	1.9301629	1.3893031
28.574618518926325	1.9603184	1.4001137
28.59270502632635	2.018745	1.4208255
28.61079226120985	2.0098147	1.4176793
28.628880224115274	2.0086722	1.4172764
28.646968915581287	2.009989	1.4177408
28.66505833614671	2.0160573	1.4198793
28.68314848635055	1.9964521	1.4129586
28.701239366732004	1.9833307	1.4083078
28.71933097783044	1.998375	1.413639
28.737423320185403	2.0036194	1.4154927
28.75551639433665	2.0409596	1.4286215
28.773610200824074	2.0528767	1.4327863
28.791704740187793	2.0357168	1.4267855
28.80980001296809	2.0978985	1.4484124
28.827896019705413	2.1626472	1.4705942
28.845992760940433	2.1940176	1.4812217
28.86409023721397	2.1740007	1.4744493
28.88218844906704	2.1550279	1.4680014
28.900287397040845	2.154527	1.4678307
28.918387081676755	2.1991048	1.4829379
28.936487503516343	2.2762964	1.50874
28.954588663101365	2.2650206	1.5049986
28.97269056097374	2.2591445	1.5030451
28.990793197675597	2.3102636	1.5199552
29.00889657374923	2.3099282	1.5198448
29.027000689737125	2.317178	1.522228
29.04510554618196	2.33772	1.5289603
29.06321114362659	2.3523965	1.5337524
29.08131748261405	2.4047906	1.5507387
29.099424563687567	2.4353182	1.5605506
29.11753238739057	2.3766377	1.5416348
29.13564095426663	2.433393	1.5599337
29.15375026485954	2.5475652	1.5961094
29.171860319713275	2.5688033	1.6027486
29.18997111937199	2.611513	1.6160176
29.20808266438002	2.748462	1.6578486
29.226194955281898	2.7935493	1.6713914
29.244307992622335	2.8119314	1.6768814
29.26242177694624	2.8323786	1.6829672
29.2805363087987	2.82388	1.6804404
29.29865158872498	2.8885186	1.6995642
29.316767617270557	2.9800766	1.7262899
29.334884394981064	3.008194	1.7344146
29.353001922402367	2.9383671	1.7141666
29.37112020008047	2.956291	1.7193868
29.389239228561596	3.095422	1.7593812
29.407359008392152	3.3148324	1.8206681
29.42547954011872	3.678046	1.9178232
29.44360082428809	4.353038	2.0863936
29.46172286144722	5.371779	2.31771
29.479845652143283	6.9545054	2.6371396
29.497969196923606	8.803041	2.966992
29.516093496335728	11.075124	3.327931
29.5342185509274	13.732378	3.7057223
29.55234436124651	15.857849	3.9821916
29.570470927841175	17.19814	4.1470637
29.588598251259686	17.058235	4.130162
29.60672633205055	15.968099	3.9960103
29.624855170762405	13.925978	3.7317526
29.642984767944146	11.147234	3.3387473
29.66111512414481	8.498294	2.9151833
29.67924623991366	6.317668	2.513497
29.697378115800138	4.926064	2.2194738
29.71551075235387	4.1831355	2.0452714
29.733644150124675	3.8151507	1.9532411
29.751778309662576	3.4688616	1.862488
29.769913231517766	3.352383	1.8309513
29.78804891624066	3.3629212	1.8338269
29.806185364381818	3.3410373	1.8278505
29.82432257649206	3.334576	1.8260821
29.842460553122333	3.2980487	1.816053
29.86059929482382	3.3042965	1.8177724
29.878738802147872	3.278944	1.8107854
29.896879075646048	3.2195702	1.794316
29.915020115870114	3.2274032	1.7964975
29.933161923371976	3.273008	1.8091457
29.951304498703777	3.305364	1.818066
29.969447842417857	3.2559583	1.8044274
29.987591955066733	3.1769166	1.7823907
30.005736837203123	3.1209266	1.7666144
30.023882489379943	3.214858	1.7930025
30.04202891215028	3.2924457	1.8145097
30.060176106067455	3.235419	1.798727
30.078324071684946	3.1113114	1.763891
30.09647280955646	3.0749476	1.7535528
30.114622320235863	3.0817769	1.755499
30.132772604277257	2.9951077	1.7306379
30.1509236622349	3.0355272	1.7422764
30.16907549466328	3.0537236	1.7474906
30.18722810211705	3.0347922	1.7420655
30.205381485151097	2.980314	1.7263587
30.22353564432045	2.949651	1.7174548
30.241690580180403	2.983807	1.72737
30.25984629328638	2.9365401	1.7136337
30.278002784194037	2.9270127	1.7108514
30.296160053459246	2.9688177	1.7230258
30.314318101638033	2.9428487	1.7154733
30.332476929286646	2.942495	1.7153703
30.35063653696153	2.885396	1.6986454
30.368796925219307	2.8605843	1.6913261
30.386958094616844	2.8963635	1.7018706
30.40512004571115	2.8981645	1.7023996
30.423282779059463	2.8570278	1.6902745
30.441446295219233	2.8746064	1.6954664
30.459610594748067	2.8921087	1.70062
30.47777567820382	2.8748388	1.695535
30.495941546144504	2.8806121	1.6972367
30.51410819912835	2.8766267	1.6960621
30.532275637713795	2.794922	1.671802
30.55044386245946	2.792043	1.6709408
30.56861287392416	2.817747	1.6786146
30.586782672666956	2.8553717	1.6897845
30.604953259247047	2.8492575	1.6879743
30.623124634223885	2.756183	1.6601756
30.641296798157075	2.721135	1.6495863
30.659469751606462	2.7154596	1.6478652
30.677643495132074	2.61849	1.6181749
30.695818029294152	2.6078749	1.6148916
30.713993354653116	2.6377394	1.6241119
30.73216947176962	2.63842	1.6243215
30.75034638120448	2.5918815	1.6099322
30.768524083518756	2.6722944	1.6347154
30.786702579273673	2.7386084	1.6548741
30.80488186903069	2.8068585	1.6753682
30.82306195335144	2.9576523	1.7197826
30.841242832797782	3.1713228	1.7808208
30.85942450793176	3.4163191	1.8483287
30.877606979315637	3.688587	1.9205694
30.895790247511883	3.966524	1.9916134
30.913974313083134	4.416909	2.1016445
30.932159176592283	4.7670712	2.1833625
30.95034483860237	4.803306	2.1916447
30.968531299676698	4.62078	2.1496
30.98671856037873	4.28319	2.0695868
31.00490662127215	3.8267128	1.9561986
31.023095482920848	3.397376	1.8431972
31.04128514588892	3.0765026	1.7539961
31.059475610740662	2.7787313	1.6669527
31.07766687804056	2.554017	1.5981293
31.09585894835335	2.4350066	1.5604508
31.11405182224393	2.367532	1.5386786
31.132245500277417	2.393717	1.5471642
31.15043998301914	2.4161837	1.5544078
31.168635271034628	2.396921	1.5481993
31.18683136488964	2.3780591	1.5420957
31.20502826515008	2.4206276	1.5558367
31.223225972382135	2.407562	1.551632
31.241424487152155	2.4589813	1.5681139
31.259623810026692	2.450589	1.5654356
31.27782394157253	2.4587913	1.5680534
31.296024882356644	2.442436	1.5628295
31.314226632946237	2.4604006	1.5685664
31.332429193908684	2.505737	1.582952
31.350632565811598	2.4564168	1.567296
31.368836749222787	2.4420395	1.5627027
31.387041744710295	2.5330923	1.5915691
31.40524755284232	2.6148453	1.6170483
31.423454174187317	2.659293	1.6307338
31.441661609313922	2.6179178	1.6179981
31.459869858791002	2.5683224	1.6025987
31.478078923187628	2.495681	1.5797725
31.496288803073064	2.409605	1.5522902
31.514499499016807	2.3845603	1.5442022
31.532711011588546	2.3186412	1.5227085
31.550923341358178	2.2602954	1.5034279
31.56913648889584	2.2647598	1.5049119
31.587350454771844	2.2793512	1.509752
31.605565239556732	2.3122525	1.5206093
31.62378084382127	2.3200316	1.523165
31.641997268136382	2.3737974	1.5407133
31.660214513073274	2.347885	1.5322809
31.67843257920331	2.2673345	1.5057671
31.6966514670981	2.2506766	1.5002255
31.71487117732944	2.249799	1.499933
31.733091710469346	2.224055	1.4913266
31.751313067090052	2.2304163	1.4934578
31.769535247764008	2.2452579	1.4984185
31.787758253063878	2.2891474	1.5129929
31.805982083562526	2.2588797	1.502957
31.824206739833024	2.2108724	1.4869002
31.84243222244869	2.2858734	1.5119106
31.860658531983013	2.3042588	1.5179785
31.878885669009737	2.2411685	1.4970533
31.897113634102784	2.17936	1.4762655
31.91534242783632	2.1610897	1.4700645
31.933572050784694	2.1437726	1.4641627
31.951802503522508	2.106249	1.4512922
31.970033786624548	2.068772	1.4383227
31.988265900665834	2.086511	1.444476
32.006498846221575	2.1027794	1.4500964
32.02473262386724	2.1682253	1.4724895
32.04296723417845	2.2102616	1.4866948
32.0612026777311	2.2110996	1.4869766
32.07943895510129	2.185466	1.4783322
32.097676066865304	2.1422386	1.4636388
32.115914013599685	2.1059208	1.4511791
32.13415279588115	2.0973868	1.4482358
32.152392414286666	2.1163175	1.4547569
32.1706328693934	2.16043	1.4698402
32.18887416177875	2.1923237	1.4806497
32.20711629202032	2.183815	1.4777737
32.225359260695924	2.1121883	1.453337
32.243603068383614	2.1352155	1.4612377
32.26184771566166	2.2159264	1.4885988
32.28009320310852	2.1779883	1.4758009
32.2983395313029	2.0989738	1.4487835
32.31658670082372	2.0820236	1.4429219
32.33483471225012	2.0932171	1.4467955
32.35308356616143	2.016045	1.419875
32.371333263137245	1.9830734	1.4082164
32.38958380375734	1.9962294	1.4128798
32.407835188601744	2.0650272	1.4370203
32.42608741825067	2.1199834	1.4560163
32.444340493284585	2.0310352	1.425144
32.46259441428416	2.0532727	1.4329245
32.48084918183028	2.1024013	1.449966
32.49910479650405	2.0443647	1.4298128
32.51736125888683	1.942026	1.3935659
32.53561856956014	1.8725865	1.3684248
32.5538767291058	1.8985304	1.3778716
32.572135738105764	1.978541	1.4066062
32.59039559714228	2.060551	1.4354619
32.608656306797776	2.0666184	1.4375738
32.62691786765491	2.0815072	1.442743
32.645180280296586	2.0968764	1.4480596
32.663443545305896	2.1789162	1.4761152
32.68170766326619	2.1816423	1.4770384
32.69997263476099	2.0731392	1.43984
32.7182384603741	1.916588	1.3844088
32.7365051406895	1.8722411	1.3682986
32.75477267629144	1.9105408	1.3822231
32.77304106776434	2.0215733	1.4218204
32.79131031569289	2.0208576	1.4215688
32.809580420661966	1.9238602	1.3870329
32.827851383256714	1.8946171	1.3764509
32.84612320406245	1.9930922	1.4117692
32.86439588366476	2.043488	1.4295062
32.88266942264945	2.036142	1.4269345
32.9009438216025	2.0049446	1.4159607
32.9192190811102	2.0539541	1.4331623
32.937495201758985	2.095322	1.4475226
32.95577218413556	2.0205364	1.4214557
32.974050028826866	1.9727771	1.4045558
32.992328736420035	1.9688349	1.4031518
33.010608307502444	1.9161806	1.3842617
33.02888874266169	1.8635118	1.365105
33.047170042485604	1.7764586	1.3328385
33.06545220756225	1.835233	1.3547077
33.083735238479896	1.9749743	1.4053378
33.10201913582707	2.0535185	1.4330103
33.12030390019248	1.9961373	1.4128472
33.138589532165135	1.9814789	1.4076501
33.15687603233419	1.9012105	1.3788439
33.17516340128909	1.8961308	1.3770007
33.19345163961947	1.9748574	1.4052962
33.211740747915215	2.0021994	1.4149909
33.23003072676643	1.9016256	1.3789945
33.248321576763466	1.8087958	1.3449148
33.266613298496885	1.9036912	1.3797431
33.28490589255747	1.9856466	1.4091297
33.30319935953626	2.0403075	1.4283934
33.32149370002451	2.0878713	1.4449468
33.339788914613706	2.121365	1.4564906
33.358085003895575	2.008012	1.4170434
33.376381968462034	1.9571637	1.3989867
33.39467980890529	1.9152514	1.383926
33.41297852581774	1.9314588	1.3897693
33.43127811979204	1.9915876	1.4112362
33.44957859142105	2.041313	1.4287453
33.467879941297866	1.9869231	1.4095826
33.486182170015844	2.0068479	1.4166325
33.50448527816853	2.0368974	1.4271991
33.522789266349754	1.8756597	1.3695472
33.541094135153514	1.8590435	1.3634675
33.55939988517411	1.8386252	1.3559592
33.57770651700602	1.807292	1.3443556
33.59601403124398	1.8924215	1.3756531
33.61432242848296	1.854374	1.3617541
33.632631709318154	1.7847552	1.3359473
33.650941874344994	1.8548691	1.3619359
33.66925292415916	2.0057144	1.4162325
33.68756485935654	1.9862207	1.4093335
33.70587768053328	2.020653	1.4214967
33.724191388285746	1.9636774	1.4013127
33.74250598321054	1.8659488	1.3659973
33.760821465904506	1.9128691	1.3830651
33.77913783696474	1.9684535	1.4030159
33.79745509698852	1.9814105	1.4076258
33.815773246573414	1.920672	1.3858831
33.8340922863172	1.9418075	1.3934876
33.852412216817896	1.9788395	1.4067123
33.87073303867377	1.9287747	1.3888034
33.889054752483304	1.877963	1.3703879
33.907377358845245	1.7912009	1.3383576
33.92570085835853	1.8500073	1.3601497
33.94402525162239	1.909321	1.3817818
33.96235053923627	1.9398043	1.3927686
33.980676721799824	1.9338835	1.3906415
33.999003799912984	1.8352045	1.3546972
34.01733177417592	1.8360876	1.3550231
34.03566064518901	1.7687087	1.329928
34.0539904135529	1.7234001	1.3127834
34.07232107986846	1.8136594	1.3467218
34.090652644736785	1.9755942	1.4055583
34.108985108759235	2.0401049	1.4283224
34.12731847253742	2.0250304	1.4230356
34.14565273667313	1.9597678	1.3999171
34.16398790176847	1.831717	1.3534094
34.18232396842574	1.9041241	1.3799001
34.20066093724749	2.0003295	1.41433
34.21899880883651	1.8666129	1.3662404
34.23733758379583	1.829533	1.3526022
34.25567726272874	2.0041747	1.4156888
34.27401784623872	2.1528573	1.4672618
34.29235933492957	2.1098304	1.4525255
34.31070172940526	2.0509	1.4320964
34.32904503027003	2.0250738	1.4230509
34.347389238128386	1.9134202	1.3832643
34.36573435358502	1.804219	1.3432122
34.38408037724492	1.9075552	1.3811427
34.402427309713296	2.0304685	1.4249451
34.42077515159559	1.9890928	1.410352
34.43912390349752	1.7800579	1.3341881
34.45747356602499	1.8496594	1.3600218
34.47582413978423	1.9154971	1.3840148
34.49417562538163	1.8268225	1.3515999
34.51252802342388	1.7726185	1.3313972
34.53088133451789	1.9230225	1.3867309
34.54923555927084	1.9290519	1.3889031
34.567590698290104	2.0308006	1.4250616
34.58594675218336	2.1590087	1.4693565
34.6043037215585	2.1966794	1.4821199
34.62266160702365	2.071001	1.4390973
34.641020409187234	1.9228613	1.3866727
34.65938012865785	1.8439099	1.3579065
34.677740766044394	1.9755887	1.4055563
34.69610232195598	1.9993234	1.4139743
34.714464797002016	1.827471	1.3518399
34.73282819179208	1.8139315	1.3468227
34.751192506936064	1.9662014	1.4022131
34.76955774304408	2.0062814	1.4164326
34.7879239007265	1.833934	1.3542281
34.80629098059391	1.7782582	1.3335135
34.824658983257194	1.7801318	1.3342158
34.843027909327446	1.8036345	1.3429946
34.86139775941603	1.8754785	1.3694811
34.879768534134534	1.9897649	1.4105903
34.89814023409483	2.0437596	1.4296012
34.91651285990901	2.049398	1.4315718
34.93488641218944	2.059407	1.4350634
34.95326089154871	2.022682	1.4222102
34.97163629859967	1.9849089	1.408868
34.99001263395542	1.9169426	1.384537
35.00838989822934	1.8256613	1.3511703
35.02676809203499	1.8847637	1.372867
35.04514721598624	1.942215	1.3936337
35.063527270697215	1.8618617	1.3645005
35.081908256782256	1.7570254	1.3255284
35.10029017485597	1.8959353	1.3769296
35.11867302553321	2.0736027	1.4400009
35.137056809429104	2.0262597	1.4234675
35.155441527159006	2.0786386	1.4417484
35.173827179338524	2.1515906	1.4668301
35.19221376658354	2.090337	1.4457998
35.21060128951017	1.8473533	1.3591738
35.2289897487348	1.5806221	1.2572279
35.24737914487405	1.603974	1.2664809
35.26576947854479	1.855981	1.3623439
35.28416075036418	2.09452	1.4472457
35.30255296094958	2.098294	1.4485489
35.32094611091867	1.9607086	1.400253
35.33934020088932	1.8306386	1.353011
35.35773523147969	1.7350307	1.3172057
35.3761312033082	1.655686	1.2867346
35.394528116993506	1.9515727	1.396987
35.41292597315452	2.3466833	1.5318888
35.431324772410434	2.3436222	1.5308894
35.449724515380666	1.9414824	1.3933709
35.46812520268491	1.7197613	1.3113967
35.486526834943106	2.152104	1.4670051
35.504929412775454	2.4404469	1.5621929
35.52333293680242	2.1489234	1.4659207
35.54173740764471	1.8020761	1.3424143
35.560142825923286	1.645866	1.2829131
35.5785491922594	1.8611766	1.3642495
35.59695650727454	1.9326414	1.3901948
35.61536477159042	0.7646945	0.87446815
