0.008763373481513119	0.3822274	0.6182454
0.026290120649546365	0.3087619	0.55566347
0.043816868432600686	0.25309098	0.5030815
0.06134361724069026	0.18756437	0.43308702
0.07887036748382949	0.19774517	0.4446855
0.0963971195720331	0.1700315	0.41234878
0.11392387391531617	0.1739174	0.41703406
0.1314506309236943	0.12312826	0.35089636
0.1489773910071836	0.10902386	0.33018762
0.16650415457580078	0.06960774	0.26383278
0.18403092203956356	0.11464523	0.338593
0.20155769380849	0.102966435	0.32088384
0.2190844702925996	0.08490978	0.29139283
0.2366112519019124	0.08402384	0.28986865
0.2541380390464497	0.11614146	0.34079534
0.27166483213623416	0.21432431	0.46295175
0.28919163158128947	0.2332733	0.48298374
0.3067184377916406	0.226377	0.47579092
0.324245251177314	0.1781042	0.42202395
0.34177207214833777	0.15554462	0.39439145
0.3592989011147415	0.19882646	0.4458996
0.37682573848655654	0.23029159	0.47988707
0.39435258467381573	0.24155991	0.49148744
0.41187944008655414	0.23379919	0.48352787
0.42940630513480854	0.20887978	0.4570337
0.446933180228618	0.18037568	0.42470658
0.4644600657780234	0.21489255	0.46356505
0.48198696219306775	0.22110465	0.47021767
0.49951386988379676	0.17176229	0.41444215
0.5170407892602581	0.15146323	0.38918278
0.5345677207325025	0.12719147	0.35663912
0.5520946647105822	0.13440752	0.3666163
0.5696216216045534	0.16281503	0.40350345
0.5871485918244737	0.17082465	0.4133094
0.6046755757804043	0.16521792	0.40647006
0.6222025738824094	0.11908847	0.34509197
0.6397295865405557	0.115155876	0.33934626
0.6572566141649129	0.15218984	0.39011517
0.6747836571655547	0.18397917	0.42892793
0.6923107159525568	0.17166875	0.4143293
0.7098377909359992	0.14348097	0.37878883
0.7273648825259653	0.12307696	0.35082325
0.7448919911325411	0.14317806	0.37838876
0.762419117165817	0.16109417	0.4013654
0.7799462610358868	0.17460106	0.4178529
0.7974734231528482	0.18259671	0.42731336
0.8150006039268024	0.18477227	0.42985144
0.8325278037678551	0.18655914	0.43192494
0.8500550230861152	0.22428405	0.47358638
0.8675822622916969	0.23585898	0.48565313
0.8851095217947171	0.20272464	0.45024952
0.9026368020052984	0.17511983	0.4184732
0.9201641033335665	0.2037024	0.45133403
0.9376914261896523	0.25117207	0.5011707
0.9552187709836915	0.26290193	0.51273966
0.9727461381258234	0.2362558	0.4860615
0.990273528026193	0.23355566	0.48327598
1.0078009410949496	0.2313268	0.48096445
1.0253283777422473	0.22718047	0.47663453
1.0428558383782454	0.27718174	0.52648056
1.0603833234131086	0.2976384	0.54556245
1.0779108332570058	0.3242767	0.56945294
1.0954383683201119	0.29857418	0.54641944
1.112965929012607	0.29640907	0.5444346
1.1304935157446763	0.39657447	0.6297416
1.1480211289265108	0.4893498	0.6995354
1.1655487689683062	1.4277567	1.1948878
1.1830764362802655	1.7697307	1.3303123
1.200604131272596	2.1745768	1.4746447
1.2181318543555117	2.4682124	1.5710546
1.235659605939232	2.4969182	1.580164
1.253187386433982	3.878902	1.9694928
1.270715196249994	6.0914474	2.4680858
1.2882430357975057	11.718119	3.4231737
1.3057709054867608	16.598145	4.074082
1.3232988057280106	22.23071	4.7149453
1.3408267369315112	27.085121	5.2043366
1.358354699507526	30.518621	5.5243664
1.3758826938663256	34.66199	5.8874435
1.3934107204181858	36.77881	6.0645533
1.410938779573391	37.40996	6.1163683
1.4284668717422309	38.049206	6.1684036
1.4459949973350033	37.394554	6.1151085
1.4635231567620117	37.242474	6.102661
1.4810513504335687	36.294563	6.024497
1.4985795787599925	35.845318	5.987096
1.5161078421516088	35.352066	5.9457603
1.5336361410187505	34.76106	5.895851
1.5511644757717598	34.745655	5.8945446
1.5686928468209842	35.32422	5.943418
1.58622125457678	36.375942	6.031247
1.6037496994495108	37.609913	6.1326923
1.621278181849548	37.02696	6.084978
1.6388067021872719	37.56213	6.128795
1.6563352608730693	36.734776	6.060922
1.673863858317336	35.898113	5.9915032
1.6913924949304753	35.401276	5.9498973
1.7089211711228998	34.0876	5.8384585
1.7264498873050296	33.43768	5.782532
1.7439786438872935	32.474884	5.6986737
1.7615074412801288	31.624727	5.6235867
1.779036279893981	30.83528	5.5529523
1.796565160139305	29.745388	5.4539332
1.814094082426564	29.107841	5.3951683
1.8316230471662298	28.489403	5.3375463
1.849152054768784	27.978312	5.289453
1.8666811056447168	27.9621	5.28792
1.8842102002045273	27.174582	5.2129245
1.901739338858724	26.690224	5.1662583
1.9192685220178245	25.99908	5.0989294
1.9367977500923557	25.02853	5.002852
1.9543270234928547	24.458027	4.9455056
1.971856342629867	23.88992	4.8877316
1.9893857079139496	23.493492	4.8470087
2.006915119755667	22.95574	4.791215
2.0244445785655945	22.299522	4.722237
2.0419740847543175	21.947628	4.6848297
2.0595036387324317	21.569832	4.6443334
2.0770332409105414	21.017107	4.5844417
2.094562891699263	20.51788	4.5296664
2.1120925915092217	19.94166	4.4656086
2.129622340751053	19.68504	4.4367824
2.1471521398354043	187.71619	13.700955
2.1646819891729323	444.0373	21.072193
2.182211889174303	440.40848	20.985912
2.1997418402501974	452.94153	21.282423
2.2172718428113023	432.72516	20.802048
2.234801897268317	320.49417	17.902351
2.2523320040319548	16.786982	4.097192
2.269862163512935	16.66848	4.082705
2.287392376121992	16.527012	4.065343
2.304922642269869	16.344486	4.0428314
2.322452962367322	16.052382	4.006542
2.3399833368251164	15.704129	3.9628437
2.357513766054032	15.417673	3.9265344
2.3750442504648586	15.017757	3.8752751
2.3925747904683963	14.644621	3.8268292
2.410105386475459	14.35477	3.788769
2.4276360388968707	14.185101	3.7663112
2.445166748143469	13.963763	3.7368119
2.4626975146261025	13.696652	3.700899
2.4802283387556323	13.571196	3.6839104
2.4977592209429305	13.504871	3.6748974
2.5152901615988825	13.161903	3.6279337
2.5328211611343865	12.8538	3.5852196
2.5503522199603523	12.545028	3.541896
2.5678833384877024	12.474862	3.5319772
2.5854145171273712	12.288197	3.5054524
2.6029457562903064	12.064049	3.473334
2.620477056387469	11.89015	3.4482098
2.6380084178298326	11.813105	3.4370198
2.655539841028383	11.686406	3.4185386
2.673071326394119	11.556948	3.3995512
2.6906028743380523	11.391295	3.3750994
2.708134485271211	11.198744	3.3464525
2.7256661596046325	10.941251	3.3077562
2.743197897749369	10.6378765	3.2615757
2.760729700116486	10.370816	3.220375
2.778261567117063	10.107776	3.179273
2.795793499162193	10.031368	3.1672335
2.8133254966629817	9.886484	3.144278
2.830857560030551	9.761971	3.1244154
2.8483896896760337	9.670102	3.1096787
2.865921886010578	9.634523	3.103953
2.883454149445347	9.550129	3.0903282
2.9009864803915177	9.40527	3.0668013
2.91851887926028	9.225692	3.0373824
2.9360513464628384	9.164271	3.0272548
2.953583882410413	8.960668	2.9934375
2.9711164875142373	8.785133	2.9639726
2.9886491621855606	8.615866	2.9352796
3.0061819068356455	8.491773	2.9140646
3.023714721875769	8.454481	2.907659
3.041247607717225	8.362245	2.8917546
3.0587805647713213	8.347618	2.8892245
3.0763135934493806	8.229004	2.868624
3.0938466941627407	8.186022	2.8611224
3.1113798673227544	8.09234	2.844704
3.1289131133407904	7.955871	2.8206153
3.1464464326282315	7.733311	2.780883
3.1639798255964786	7.577832	2.7527862
3.1815132926569443	7.438913	2.727437
3.1990468342210603	7.3773937	2.7161357
3.216580450700272	7.4349875	2.7267175
3.2341141425060416	7.383493	2.7172585
3.251647910049847	7.309572	2.703622
3.2691817537431813	7.29687	2.701272
3.286715673997555	7.161208	2.6760433
3.3042496712244938	7.0255423	2.650574
3.32178374583554	6.955624	2.6373518
3.339317898242251	6.8445506	2.6162093
3.3568521288562034	6.788494	2.6054738
3.3743864380889876	6.661895	2.5810647
3.3919208263522127	6.6695113	2.5825398
3.4094552940575023	6.5667977	2.5625763
3.4269898416164972	6.4149776	2.5327806
3.444524469440858	6.1760564	2.4851673
3.4620591779422587	6.0425053	2.4581509
3.479593967532391	6.0746784	2.4646862
3.4971288386229658	6.131683	2.4762235
3.5146637916257086	6.1984396	2.4896665
3.5321988269523628	6.3083243	2.5116377
3.5497339450146903	6.379606	2.525788
3.5672691462244708	6.376964	2.5252652
3.5848044309934988	6.2995863	2.5098977
3.60233979973359	6.3104806	2.512067
3.619875252856575	6.2658772	2.5031734
3.6374107907743034	6.2753334	2.5050616
3.6549464138986427	6.2105174	2.492091
3.6724821226414788	6.1475496	2.4794252
3.690017917414714	6.170988	2.4841473
3.7075537986302702	6.2449293	2.4989858
3.7250897667000857	6.349224	2.5197666
3.7426258220361235	6.589526	2.5670073
3.7601619650503553	6.8987803	2.626553
3.777698196154779	7.401077	2.7204921
3.7952345157614067	8.473575	2.9109404
3.8127709242822716	9.231951	3.0384126
3.830307422129425	11.547727	3.3981946
3.847844009714936	30.339558	5.508136
3.8653806874508954	97.796196	9.889196
3.882917455749409	96.97221	9.847447
3.900454315022606	96.66293	9.831731
3.917991265682631	41.26383	6.4236927
3.9355283081416506	10.949267	3.3089678
3.9530654428118495	8.737131	2.955864
3.970602670105433	7.3652415	2.713898
3.9881399904346244	6.4846354	2.5464947
4.005677404211669	6.403698	2.5305529
4.023214911848827	6.4387445	2.5374682
4.0407525137583855	6.498067	2.5491307
4.058290210352644	6.4898615	2.5475206
4.075828002043927	6.4675355	2.543135
4.0933658892445814	6.436487	2.5370233
4.110903872366966	6.373452	2.5245697
4.128441951823468	6.3131795	2.5126042
4.145980128026488	6.202196	2.4904208
4.163518401388452	6.091287	2.4680533
4.181056772321807	6.054903	2.4606712
4.1985952412390155	6.090768	2.4679482
4.216133808552567	6.117254	2.4733083
4.233672474674966	6.1849775	2.4869616
4.251211240018741	6.3873453	2.5273197
4.268750104996445	6.5292053	2.5552309
4.286289070020643	7.5267715	2.7434962
4.303828135503928	9.145118	3.0240896
4.3213673018589125	29.523335	5.433538
4.3389065694982305	90.7436	9.525944
4.356445938834537	165.94356	12.881908
4.3739854102805085	171.12668	13.081539
4.391524984248844	171.8818	13.11037
4.409064661152262	135.92172	11.658547
4.426604441403504	96.235245	9.809957
4.444144325415337	75.541046	8.691435
4.461684313600543	21.549532	4.6421475
4.47922440637193	22.206635	4.7123914
4.496764604142329	20.596663	4.5383544
4.5143049073245916	18.80621	4.3366127
4.531845316331589	16.562086	4.0696545
4.5493858315762195	13.51423	3.6761706
4.566926453471405	11.3364935	3.366971
4.584467182430081	9.288298	3.0476708
4.602008018865218	8.248666	2.872049
4.619548963189798	7.551227	2.7479496
4.637090015816834	7.0258102	2.6506245
4.654631177159353	6.707493	2.5898829
4.672172447630417	6.411628	2.5321193
4.689713827643102	6.2472234	2.4994447
4.7072553176105085	6.087622	2.4673107
4.724796917945764	5.9221	2.4335365
4.742338629062015	5.8498125	2.4186385
4.759880451372434	5.7315516	2.3940659
4.777422385290215	5.646499	2.3762364
4.794964431228581	5.643776	2.3756633
4.812506589600768	5.6967444	2.3867853
4.830048860820047	5.7252016	2.3927393
4.847591245299709	5.707812	2.3891027
4.8651337434530655	5.602138	2.3668835
4.882676355693457	5.475836	2.3400505
4.900219082434242	5.384495	2.3204515
4.917761924088813	5.450563	2.334644
4.935304881070575	5.478329	2.340583
4.952847953792969	5.4991937	2.345036
4.970391142669449	5.4840064	2.3417954
4.9879344481135055	5.4481535	2.334128
5.005477870538642	5.418028	2.3276658
5.023021410358394	5.3625216	2.315712
5.040565067986324	5.3500404	2.3130155
5.05810884383601	5.300147	2.3022048
5.075652738321066	5.280403	2.2979128
5.09319675185512	5.259948	2.2934575
5.110740884851836	5.224537	2.2857246
5.128285137724894	5.2730846	2.2963197
5.145829510888007	5.283661	2.2986214
5.163374004754908	5.2989345	2.3019414
5.1809186197393595	5.276739	2.2971153
5.198463356255145	5.3454237	2.3120172
5.216008214716077	5.340137	2.3108737
5.233553195535998	5.3391223	2.3106542
5.251098299128764	5.2714486	2.2959635
5.268643525908272	5.290448	2.3000975
5.286188876288432	5.302042	2.3026164
5.3037343506831895	5.283285	2.2985399
5.32127994950651	5.2877417	2.299509
5.3388256731723915	5.2358747	2.2882035
5.356371522094851	5.1874204	2.277591
5.373917496687938	5.1518965	2.269779
5.391463597365729	5.1386185	2.2668521
5.40900982454232	5.0671954	2.251043
5.426556178631843	5.045839	2.2462945
5.444102660048449	5.0745544	2.2526772
5.4616492692063225	5.094577	2.257117
5.479196006519669	5.1847687	2.2770088
5.496742872402727	5.0916314	2.2564642
5.514289867269756	5.0825114	2.2544427
5.531836991535049	5.045531	2.2462258
5.549384245612924	5.039838	2.2449584
5.566931629917724	5.1108546	2.26072
5.584479144863822	5.099097	2.258118
5.6020267908656205	5.1428847	2.267793
5.619574568337545	5.1121635	2.2610095
5.637122477694054	5.143564	2.2679427
5.654670519349629	5.178254	2.2755778
5.672218693718784	5.170828	2.2739453
5.689767001216059	5.1598268	2.2715251
5.707315442256021	5.0605407	2.2495646
5.724864017253266	5.0420594	2.2454531
5.7424127266224225	5.0672154	2.2510476
5.75996157077814	5.049788	2.2471733
5.777510550135105	5.0548325	2.2482955
5.795059665108022	5.0790715	2.2536795
5.812608916111639	5.1284113	2.2645996
5.830158303560715	5.248953	2.2910593
5.847707827870055	5.3219056	2.3069255
5.86525748945448	5.486071	2.3422363
5.8828072887288485	5.6512637	2.3772388
5.900357226108044	5.6855984	2.3844492
5.917907302006979	5.6636066	2.3798332
5.9354575168406	6.2360463	2.4972076
5.9530078710238765	6.8656535	2.6202393
5.970558364971812	7.5586147	2.7492936
5.988108999099438	7.916408	2.8136113
6.005659773821818	8.427817	2.9030704
6.023210689554039	8.132943	2.8518314
6.040761746711227	8.59586	2.9318697
6.058312945708531	7.923597	2.8148885
6.075864286961132	7.4177294	2.7235508
6.093415770884244	6.6452775	2.5778437
6.1109673978931065	6.0705156	2.4638417
6.128519168402993	5.468591	2.338502
6.146071082829204	5.3062606	2.3035321
6.163623141587075	5.175296	2.2749276
6.181175345091969	5.177144	2.275334
6.198727693759281	5.201948	2.280778
6.216280188004435	5.1378803	2.2666893
6.233832828242885	5.0557313	2.2484953
6.251385614890126	5.029094	2.2425642
6.268938548361669	5.0650086	2.2505574
6.286491629073067	5.026202	2.2419193
6.304044857439898	5.017797	2.2400439
6.321598233877777	4.961942	2.2275417
6.339151758802344	4.93264	2.2209547
6.356705432629277	4.952494	2.22542
6.37425925577428	4.961348	2.2274084
6.391813228653095	4.9215813	2.2184637
6.409367351681486	5.01014	2.2383342
6.426921625275259	4.9570746	2.2264488
6.44447604985025	4.9569883	2.2264295
6.46203062582232	4.9140654	2.2167692
6.47958535360737	4.9466453	2.2241056
6.497140233621328	5.0171566	2.239901
6.514695266280161	4.990795	2.2340088
6.532250451999859	4.997278	2.2354593
6.549805791196454	4.935997	2.2217104
6.567361284286002	4.9402933	2.222677
6.584916931684597	4.9461565	2.2239957
6.602472733808367	4.992043	2.234288
6.6200286910734665	4.940612	2.2227488
6.637584803896092	4.9783792	2.231228
6.655141072692462	4.9722524	2.2298548
6.672697497878842	4.947209	2.2242322
6.690254079871514	4.9318156	2.2207692
6.707810819086808	4.938076	2.2221782
6.725367715941078	4.9310417	2.220595
6.742924770850719	4.970066	2.2293644
6.760481984232151	5.04117	2.245255
6.778039356501836	5.0371804	2.2443664
6.795596888076266	5.009584	2.23821
6.813154579371963	4.9787583	2.2313132
6.830712430805492	4.939216	2.2224348
6.84827044279344	4.968081	2.2289193
6.865828615752445	4.9392962	2.2224526
6.883386950099159	5.0181546	2.2401237
6.900945446250287	5.1076865	2.260019
6.918504104622553	5.0853367	2.255069
6.936062925632727	5.1028185	2.258942
6.953621909697607	5.0095696	2.2382069
6.971181057234028	4.9937096	2.2346609
6.988740368658859	4.9724536	2.2299
7.006299844389007	5.01726	2.2399242
7.023859484841407	5.130198	2.2649941
7.041419290433036	5.2871146	2.2993727
7.058979261580902	5.410217	2.3259873
7.0765393987020495	5.635012	2.3738182
7.094099702213559	6.0233965	2.4542608
7.111660172532549	6.3802695	2.5259194
7.129220810076164	6.722535	2.5927851
7.146781615261595	7.2147593	2.6860304
7.16434258850606	7.4828835	2.735486
7.181903730226821	7.88547	2.8081079
7.1994650408411704	8.039977	2.8354852
7.217026520766437	8.151801	2.855136
7.234588170419983	8.380196	2.8948567
7.252149990219215	8.397766	2.8978899
7.269711980581568	8.357076	2.8908608
7.2872741419245175	8.122064	2.8499234
7.304836474665574	7.7070847	2.7761636
7.322398979222286	7.3645897	2.7137778
7.339961656012233	7.148509	2.6736696
7.357524505453039	6.8283644	2.6131139
7.375087527962357	6.4963036	2.5487847
7.392650723957886	6.153884	2.4807024
7.410214093857353	5.822286	2.4129415
7.427777638078528	5.646181	2.3761694
7.445341357039213	5.562416	2.3584776
7.4629052511572525	5.388239	2.321258
7.480469320850524	5.2612014	2.293731
7.498033566536948	5.173696	2.274576
7.5155979886344735	5.1342344	2.2658849
7.5331625875610975	5.1209116	2.262943
7.550727363734844	5.0754313	2.2528718
7.568292317573788	5.1198306	2.2627044
7.585857449496025	5.152937	2.270008
7.603422759919705	5.1501427	2.2693925
7.620988249263007	5.145699	2.2684133
7.638553917944147	5.1413813	2.2674613
7.656119766381391	5.222616	2.2853043
7.673685794993023	5.242479	2.289646
7.691252004197388	5.248436	2.2909465
7.70881839441285	5.181314	2.27625
7.726384966057826	5.209523	2.282438
7.743951719550762	5.1755347	2.27498
7.761518655310149	5.200538	2.280469
7.779085773754511	5.2443748	2.29006
7.796653075302419	5.198902	2.2801101
7.814220560372475	5.2662005	2.2948203
7.831788229383323	5.279187	2.2976482
7.8493560827536495	5.3093596	2.3042047
7.866924120902174	5.281734	2.2982023
7.884492344247663	5.180482	2.2760673
7.9020607532089135	5.2224083	2.285259
7.919629348204771	5.3015237	2.3025038
7.937198129654115	5.3735776	2.3180978
7.954767097975865	5.3931365	2.3223128
7.972336253588986	5.385127	2.3205876
7.989905596912472	5.3824706	2.3200152
8.007475128365371	5.367947	2.316883
8.025044848366756	5.397162	2.3231792
8.042614757335754	5.514454	2.3482873
8.060184855691523	5.589734	2.3642619
8.07775514385327	5.760168	2.400035
8.095325622240228	5.8321376	2.4149818
8.112896291271687	5.852749	2.4192455
8.130467151366968	5.835547	2.4156878
8.148038202945436	5.79986	2.40829
8.165609446426497	5.710581	2.389682
8.183180882229594	5.6989594	2.3872492
8.200752510774217	5.736991	2.3952017
8.218324332479893	5.8613906	2.421031
8.235896347766193	5.901869	2.4293761
8.253468557052724	5.90312	2.4296336
8.27104096075914	5.8304396	2.4146304
8.288613559305137	5.970504	2.4434614
8.306186353110448	6.0686746	2.463468
8.32375934259485	6.2296042	2.4959176
8.341332528178162	6.2471237	2.4994247
8.358905910280246	6.234972	2.4969926
8.376479489321003	6.164551	2.4828513
8.394053265720377	6.218676	2.4937274
8.411627239898356	6.2266974	2.495335
8.42920141227497	6.209157	2.491818
8.44677578327029	6.1588554	2.4817042
8.464350353304427	6.1915383	2.4882803
8.48192512279754	6.322779	2.5145137
8.499500092169827	6.3011546	2.51021
8.51707526184153	6.3050356	2.510983
8.534650632232934	6.1604357	2.4820225
8.552226203764365	6.0748506	2.4647212
8.569801976856192	6.061833	2.462079
8.587377951928834	6.0951304	2.4688318
8.60495412940274	6.136861	2.477269
8.622530509698416	6.1200423	2.473872
8.6401070932364	6.221989	2.4943914
8.657683880437283	6.306657	2.5113058
8.675260871721695	6.5577526	2.560811
8.692838067510303	6.755932	2.5992177
8.710415468223834	6.9707227	2.6402125
8.727993074283043	7.1195865	2.6682553
8.745570886108737	7.0584598	2.6567762
8.763148904121765	7.101693	2.6649003
8.78072712874302	7.141634	2.6723835
8.798305560393441	7.40458	2.7211359
8.815884199494006	7.534751	2.74495
8.833463046465745	7.6693316	2.7693558
8.851042101729728	7.7535095	2.7845125
8.86862136570707	8.033058	2.834265
8.886200838818924	8.102569	2.846501
8.903780521486505	8.138608	2.8528244
8.921360414131055	8.243838	2.8712084
8.938940517173874	8.358758	2.8911517
8.956520831036297	8.5893345	2.9307566
8.97410135613971	8.854952	2.975727
8.99168209290554	9.061777	3.0102785
9.009263041755265	9.304102	3.0502627
9.026844203110405	9.532832	3.0875285
9.044425577392525	9.687422	3.1124623
9.062007165023239	9.818013	3.1333709
9.079588966424197	10.172373	3.1894157
9.097170982017108	10.28503	3.2070284
9.11475321222372	11.317865	3.3642035
9.132335657465825	12.148268	3.4854364
9.149918318165264	12.33938	3.5127454
9.167501194743924	12.981386	3.6029692
9.18508428762374	12.640098	3.5552914
9.202667597226693	12.607394	3.5506892
9.220251123974803	12.254203	3.5006003
9.237834868290143	11.869696	3.4452424
9.255418830594836	11.726103	3.4243398
9.273003011311046	11.262851	3.356017
9.290587410860985	11.047836	3.3238285
9.308172029666911	10.428232	3.2292774
9.32575686815113	10.147534	3.1855195
9.343341926735997	8.800728	2.966602
9.360927205843916	8.540573	2.922426
9.378512705897327	8.345495	2.8888571
9.396098427318728	8.182859	2.8605697
9.413684370530664	8.107112	2.847299
9.431270535955722	7.955145	2.8204865
9.448856924016539	7.8213124	2.796661
9.466443535135806	7.7156134	2.7776992
9.484030369736251	7.806809	2.7940667
9.501617428240658	7.76077	2.7858157
9.519204711071852	7.763343	2.7862775
9.536792218652714	7.724445	2.7792885
9.55437995140617	7.708702	2.776455
9.571967909755191	7.7220383	2.7788556
9.589556094122802	7.755661	2.7848988
9.60714450493207	7.8648267	2.8044298
9.624733142606116	7.8952537	2.8098495
9.642322007568108	7.9184046	2.813966
9.659911100241267	7.993798	2.8273306
9.677500421048851	8.067894	2.8404038
9.695089970414175	8.149682	2.8547647
9.712679748760609	8.135484	2.852277
9.730269756511557	8.046936	2.8367121
9.747859994090492	8.012416	2.830621
9.765450461920915	8.034436	2.8345082
9.78304116042639	8.110292	2.8478575
9.800632090030527	8.153437	2.8554223
9.81822325115699	8.211345	2.8655443
9.835814644229481	8.300131	2.8809948
9.853406269671762	8.330807	2.8863137
9.870998127907646	8.269714	2.8757112
9.888590219360985	8.146479	2.8542037
9.906182544455698	8.177981	2.859717
9.923775103615734	8.223704	2.8677
9.941367897265108	8.219882	2.8670337
9.958960925827878	8.292404	2.8796535
9.97655418972816	8.303206	2.8815284
9.994147689390106	8.257977	2.8736696
10.011741425237934	8.253947	2.8729684
10.029335397695904	8.276242	2.8768458
10.04692960718833	8.301363	2.8812087
10.06452405413958	8.256007	2.8733268
10.082118738974064	8.179631	2.8600054
10.099713662116246	8.170295	2.8583727
10.117308823990651	8.163515	2.8571866
10.134904225021844	8.180999	2.8602445
10.152499865634445	8.200148	2.86359
10.170095746253125	8.219238	2.8669214
10.18769186730261	8.225695	2.8680472
10.205288229207675	8.179883	2.8600495
10.222884832393145	8.15881	2.856363
10.2404816772839	8.09164	2.844581
10.258078764304868	8.061745	2.8393211
10.275676093881035	8.032977	2.8342507
10.293273666437438	8.039514	2.8354037
10.310871482399158	8.11897	2.8493807
10.32846954219134	8.167258	2.8578415
10.346067846239173	8.140985	2.853241
10.363666394967908	8.122152	2.849939
10.38126518880283	8.111587	2.8480847
10.398864228169298	8.078596	2.842287
10.416463513492713	8.122219	2.8499508
10.434063045198531	7.9661856	2.8224432
10.451662823712262	7.9333105	2.8166132
10.469262849459467	8.001122	2.8286254
10.486863122865758	8.00491	2.8292952
10.504463644356806	8.047825	2.8368688
10.522064414358338	7.9266663	2.8154335
10.539665433296118	7.8865967	2.8083086
10.557266701595987	7.8278246	2.7978249
10.574868219683818	7.7546215	2.784712
10.592469987985552	7.6577764	2.7672687
10.610072006927185	7.560163	2.7495751
10.627674276934751	7.390259	2.718503
10.64527679843435	7.2121296	2.685541
10.662879571852143	7.051476	2.6554615
10.680482597614331	7.021168	2.6497488
10.698085876147173	7.04529	2.6542964
10.715689407876988	6.902728	2.6273043
10.733293193230146	6.78432	2.6046727
10.750897232633072	6.6872253	2.585967
10.76850152651225	6.6361594	2.5760744
10.786106075294207	6.6045766	2.569937
10.803710879405534	6.530497	2.5554838
10.821315939272877	6.493428	2.5482206
10.83892125532294	6.430997	2.5359411
10.856526827982472	6.300329	2.5100458
10.874132657678285	6.250781	2.5001562
10.891738744837243	6.262858	2.5025702
10.909345089886271	6.239429	2.497885
10.926951693252343	6.18978	2.487927
10.944558555362494	6.068417	2.4634156
10.96216567664381	5.973063	2.443985
10.979773057523436	5.8696494	2.422736
10.997380698428573	5.813069	2.4110308
11.014988599786477	5.76621	2.4012935
11.032596762024461	5.694552	2.386326
11.050205185569892	5.610168	2.3685794
11.067813870850198	5.5876093	2.3638124
11.085422818292859	5.562667	2.3585308
11.10303202832541	5.499184	2.345034
11.120641501375454	5.3933992	2.3223693
11.138251237870636	5.289723	2.2999399
11.155861238238671	5.25096	2.2914972
11.173471502907317	5.2286267	2.286619
11.191082032304402	5.205211	2.2814932
11.208692826857805	5.123749	2.2635698
11.226303886995465	4.988096	2.2334046
11.243915213145371	4.8912997	2.2116282
11.261526805735578	4.8621144	2.2050202
11.279138665194196	4.8253694	2.1966724
11.296750791949393	4.8369365	2.1993036
11.314363186429393	4.7984495	2.1905363
11.331975849062479	4.760169	2.181781
11.34958878027699	4.636977	2.1533642
11.36720198050133	4.574097	2.1387138
11.384815450163948	4.5534554	2.1338828
11.402429189693366	4.539566	2.1306257
11.420043199518153	4.522033	2.1265073
11.437657480066942	63.45197	7.9656744
11.455272031768422	85.08749	9.224288
11.472886855051353	107.45196	10.365904
11.490501950344528	99.03602	9.951684
11.508117318076819	84.412834	9.187646
11.52573295867715	45.804523	6.767904
11.543348872574514	4.072559	2.0180583
11.560965060197946	4.0293555	2.0073254
11.57858152197655	3.9986556	1.9996638
11.59619825833949	3.98698	1.9967424
11.613815269715985	3.9698505	1.9924483
11.631432556535323	38.48975	6.204011
11.649050119226837	83.048965	9.11312
11.666667958219929	93.451065	9.667009
11.68428607394406	107.71632	10.378647
11.701904466828756	82.53457	9.084854
11.719523137303586	65.39859	8.08694
11.737142085798196	4.6258965	2.1507897
11.754761312742286	3.7156174	1.9275937
11.772380818565619	3.6553164	1.9118881
11.790000603698015	3.5651464	1.8881595
11.80762066856935	3.539745	1.8814211
11.825241013609572	3.5210736	1.8764524
11.842861639248683	3.5245824	1.8773872
11.860482545916748	3.5049064	1.8721396
11.878103734043883	3.4931383	1.8689939
11.895725204060282	3.4608858	1.8603456
11.91334695639619	3.4459264	1.8563206
11.930968991481919	3.4014707	1.8443077
11.948591309747824	3.413541	1.8475771
11.966213911624347	3.353869	1.8313571
11.98383679754198	3.2939065	1.8149122
12.001459967931268	3.2822125	1.8116877
12.019083423222835	3.2639642	1.8066444
12.036707163847352	3.2252522	1.7958987
12.05433119023556	3.1940985	1.7872041
12.071955502818259	3.1668825	1.7795737
12.089580102026313	3.19427	1.7872521
12.107204988290643	3.1520054	1.7753888
12.12483016204224	3.0834925	1.7559876
12.142455623712152	3.0411792	1.7438977
12.16008137373149	3.0793848	1.7548176
12.177707412531431	3.09013	1.7578766
12.19533374054321	3.103259	1.7616069
12.212960358198126	3.070337	1.7522377
12.230587265927545	3.0252588	1.7393271
12.248214464162889	2.9812248	1.7266223
12.265841953335649	2.9754312	1.7249439
12.283469733877375	2.9943626	1.7304226
12.301097806219685	2.963182	1.7213895
12.31872617079425	2.9206898	1.7090026
12.336354828032825	2.885163	1.6985768
12.353983778367205	2.8576627	1.6904622
12.371613022229262	2.8702443	1.6941795
12.389242560050928	2.8707933	1.6943415
12.406872392264201	2.8770278	1.6961803
12.424502519301143	2.8282225	1.6817319
12.442132941593874	2.8184853	1.6788344
12.459763659574586	2.8265653	1.6812392
12.477394673675532	2.8084416	1.6758406
12.49502598432903	2.84826	1.6876788
12.51265759196746	2.8627596	1.6919692
12.530289497023267	2.8373463	1.6844424
12.547921699928967	2.7969625	1.6724122
12.565554201117134	2.7434788	1.656345
12.583187001020404	2.732254	1.6529531
12.600820100071486	2.7381325	1.6547303
12.618453498703152	2.7692778	1.6641147
12.636087197348235	2.780731	1.6675524
12.65372119643964	2.7570446	1.6604351
12.671355496410326	2.7812269	1.6677011
12.68899009769333	2.8094761	1.6761492
12.706625000721749	2.8273742	1.6814798
12.724260205928752	2.877209	1.6962337
12.741895713747551	2.9287786	1.7113675
12.759531524611454	3.0084598	1.7344912
12.777167638953818	2.988042	1.7285954
12.794804057208072	2.9762943	1.725194
12.812440779807702	3.028431	1.7402388
12.830077807186271	3.2710621	1.8086078
12.847715139777405	3.2565224	1.8045837
12.865352778014795	3.4417584	1.8551977
12.882990722332197	3.516473	1.8752261
12.90062897316344	3.615092	1.9013395
12.918267530942412	3.7114851	1.9265215
12.935906396103071	3.6029942	1.8981555
12.953545569079449	3.757705	1.93848
12.971185050305628	3.5641365	1.8878921
12.988824840215775	3.5386767	1.8811371
13.006464939244115	3.5844522	1.8932649
13.024105347824943	3.4361854	1.853695
13.041746066392617	3.5680337	1.888924
13.05938709538157	3.3657298	1.8345926
13.077028435226296	3.365197	1.8344473
13.094670086361363	3.2540495	1.8038985
13.112312049221401	3.154033	1.7759597
13.129954324241112	3.0542598	1.7476441
13.147596911855258	2.8510258	1.6884981
13.165239812498685	2.8118916	1.6768695
13.182883026606293	2.7714517	1.6647677
13.200526554613058	2.7305124	1.6524262
13.218170396954017	2.688443	1.6396472
13.235814554064284	2.653219	1.6288705
13.253459026379034	2.6386142	1.6243812
13.271103814333523	2.6425004	1.625577
13.288748918363058	2.640263	1.6248887
13.306394338903031	2.6620128	1.6315676
13.32404007638889	2.6642315	1.6322474
13.341686131256164	2.6897824	1.6400557
13.359332503940449	2.6692455	1.6337826
13.376979194877402	2.671071	1.6343411
13.394626204502751	2.689155	1.6398643
13.412273533252307	2.6751199	1.6355793
13.429921181561937	2.6109886	1.6158553
13.447569149867581	2.6411386	1.625158
13.465217438605247	2.700154	1.6432146
13.482866048211022	2.7075045	1.6454496
13.500514979121052	2.7091088	1.6459371
13.518164231771568	2.6380553	1.6242092
13.535813806598844	2.6025927	1.6132553
13.553463704039254	2.6022809	1.6131587
13.571113924529229	2.6123617	1.6162802
13.588764468505275	2.6269357	1.6207825
13.606415336403956	2.6614265	1.631388
13.624066528661917	2.6975873	1.6424333
13.641718045715882	2.7752194	1.665899
13.659369888002635	2.8348806	1.6837103
13.67702205595903	2.896284	1.7018473
13.694674550021993	2.9328399	1.7125536
13.712327370628532	2.9903522	1.7292634
13.729980518215713	3.0504134	1.7465433
13.747633993220681	3.1459777	1.7736905
13.765287796080647	3.1965451	1.7878884
13.7829419272329	3.2626483	1.8062803
13.800596387114801	3.2997468	1.8165205
13.818251176163775	3.3045864	1.8178521
13.835906294817324	3.3625538	1.8337268
13.853561743513023	3.3994129	1.8437496
13.871217522688525	3.4418902	1.8552332
13.888873632781538	3.4461303	1.8563756
13.906530074229858	3.4646032	1.8613445
13.92418684747135	3.4525826	1.8581127
13.941843952943948	3.433769	1.8530432
13.959501391085665	3.4252892	1.8507537
13.977159162334578	3.3805673	1.8386319
13.994817267128846	3.348915	1.8300041
14.012475705906693	3.2544858	1.8040193
14.030134479106424	3.1523974	1.7754992
14.047793587166414	3.0902638	1.7579147
14.065453030525108	3.0323994	1.7413785
14.083112809621026	3.0042298	1.7332714
14.100772924892766	2.9454217	1.7162231
14.118433376778997	2.9090438	1.7055919
14.136094165718458	2.8461041	1.6870401
14.153755292149969	2.7546191	1.6597046
14.171416756512416	2.6707547	1.6342443
14.189078559244768	2.580034	1.6062484
14.20674070078606	2.5329013	1.5915091
14.224403181575408	2.4760072	1.5735334
14.242066002051999	2.425906	1.557532
14.259729162655093	2.3850267	1.5443531
14.277392663824022	2.372287	1.540223
14.295056505998208	2.3886075	1.5455121
14.312720689617128	2.4022682	1.5499252
14.330385215120348	2.426776	1.5578113
14.348050082947497	2.439337	1.5618377
14.3657152935383	2.4315927	1.5593565
14.383380847332528	2.390041	1.5459758
14.401046744770051	2.3374147	1.5288606
14.418712986290798	2.3312833	1.526854
14.436379572334793	2.3280468	1.5257938
14.454046503342123	2.343586	1.5308775
14.471713779752946	2.341593	1.5302265
14.489381402007504	2.3535197	1.5341185
14.507049370546113	2.3681922	1.5388932
14.524717685809168	2.3795671	1.5425845
14.542386348237134	2.4055169	1.5509728
14.560055358270553	2.3927133	1.5468398
14.577724716350051	2.4059215	1.5511034
14.595394422916325	2.3842208	1.5440922
14.61306447841015	2.4456081	1.5638441
14.63073488327237	2.4706233	1.5718217
14.648405637943917	2.4836564	1.5759621
14.6660767428658	2.453618	1.5664029
14.683748198479094	2.4900227	1.5779805
14.701420005224954	2.5389664	1.5934135
14.719092163544628	2.618932	1.6183115
14.73676467387942	2.635434	1.623402
14.754437536670727	2.6383479	1.6242992
14.772110752360014	2.6412125	1.6251807
14.78978432138882	2.6389148	1.6244737
14.807458244198777	2.645377	1.6264615
14.82513252123159	2.6628132	1.6318128
14.842807152929028	2.6655831	1.6326613
14.860482139732962	2.6421926	1.6254823
14.87815748208531	2.5828424	1.6071224
14.8958331804281	2.6398864	1.6247727
14.91350923520342	2.604917	1.6139755
14.931185646853438	2.6205165	1.618801
14.948862415820408	2.5694063	1.6029367
14.966539542546656	2.5879724	1.6087177
14.98421702747459	2.5848722	1.6077538
15.001894871046696	2.5747392	1.6045994
15.019573073705542	2.60142	1.6128918
15.037251635893766	2.5934858	1.6104304
15.054930558054092	2.6648307	1.6324309
15.072609840629323	2.669306	1.6338011
15.090289484062351	2.8046515	1.6747093
15.107969488796124	3.13266	1.7699322
15.125649855273691	3.5541036	1.885233
15.14333058393817	4.0203524	2.0050817
15.161011675232768	4.9350333	2.2214935
15.17869312960076	6.2901917	2.5080254
15.196374947485506	8.180594	2.860174
15.214057129330447	11.285227	3.3593493
15.231739675579114	16.022505	4.002812
15.249422586675102	21.304922	4.6157255
15.267105863062092	24.580435	4.9578657
15.284789505183847	24.995571	4.999557
15.302473513484218	22.965652	4.792249
15.320157888407127	19.38872	4.403262
15.337842630396578	15.066564	3.8815672
15.355527739896656	11.642906	3.4121704
15.37321321735153	8.954859	2.992467
15.39089906320545	6.481221	2.5458243
15.408585277902748	4.848767	2.2019916
15.42627186188783	3.7163782	1.927791
15.443958815605198	3.1514287	1.7752264
15.461646139499424	2.8411696	1.6855769
15.479333834015168	2.694932	1.6416248
15.497021899597165	2.6319642	1.6223329
15.514710336690234	2.6260982	1.620524
15.53239914573928	2.5896153	1.6092281
15.550088327189297	2.5577261	1.5992893
15.567777881485336	2.5063355	1.583141
15.58546780907256	2.4455116	1.5638132
15.6031581103962	2.434269	1.5602144
15.620848785901568	2.4544525	1.5666692
15.638539836034063	2.4511878	1.565627
15.656231261239173	2.4330297	1.5598172
15.673923061962451	2.3769426	1.5417336
15.691615238649552	2.3933403	1.5470425
15.709307791746202	2.379028	1.5424098
15.727000721698221	2.3916016	1.5464804
15.744694028951498	2.3825996	1.5435672
15.76238771395202	2.3591013	1.5359366
15.780081777145844	2.3632283	1.5372795
15.797776218979125	2.3374796	1.5288818
15.815471039898094	2.339123	1.5294192
15.833166240349064	2.3298166	1.5263736
15.850861820778437	2.335227	1.528145
15.868557781632699	2.3587873	1.5358344
15.886254123358412	2.3668444	1.5384552
15.903950846402232	2.3883758	1.5454371
15.921647951210897	2.3943486	1.5473683
15.939345438231225	2.370179	1.5395385
15.957043307910133	2.3582153	1.5356482
15.974741560694602	2.3437912	1.5309446
15.992440197031714	2.4101124	1.5524536
16.01013921736862	2.4083493	1.5518857
16.02783862215259	2.4046388	1.5506898
16.045538411830933	2.410158	1.5524683
16.06323858685107	2.3851788	1.5444024
16.080939147660512	2.392339	1.5467188
16.09864009470684	2.3649175	1.5378288
16.11634142843774	2.3533247	1.534055
16.134043149300954	2.3500514	1.5329877
16.15174525774433	2.3922923	1.5467037
16.169447754215817	2.408825	1.5520389
16.18715063916342	2.4022403	1.5499163
16.204853913035244	2.396618	1.5481014
16.222557576279478	2.395863	1.5478575
16.240261629344403	22.355206	4.7281294
16.257966072678386	42.88082	6.548345
16.275670906729868	37.979836	6.1627784
16.293376131947387	2.4390078	1.5617323
16.31108174877957	2.4905264	1.5781401
16.328787757675133	2.5692093	1.6028754
16.34649415908287	2.6060262	1.6143191
16.364200953451657	2.6283731	1.6212258
16.38190814123048	2.6255403	1.6203519
16.39961572286839	2.654309	1.629205
16.41732369881455	2.7104297	1.6463382
16.43503206951817	2.7223792	1.6499634
16.45274083542859	2.7254357	1.6508894
16.47044999699522	2.7130377	1.6471301
16.488159554667558	2.7632484	1.6623021
16.505869508895184	2.8213892	1.6796992
16.523579860127786	2.8987591	1.7025743
16.541290608815117	2.9597895	1.7204039
16.559001755407035	3.0056522	1.7336817
16.57671330035348	3.0403066	1.7436475
16.59442524410448	3.115368	1.7650405
16.61213758711015	3.1863875	1.7850455
16.629850329820705	3.2317498	1.7977068
16.647563472686436	3.2999547	1.8165777
16.665277016157724	3.3700929	1.8357812
16.682990960685053	3.431939	1.8525493
16.70070530671898	3.464361	1.8612794
16.718420054710155	3.4997659	1.8707662
16.736135205109335	3.5279348	1.8782797
16.753850758367335	3.5722892	1.89005
16.771566714935087	3.6058083	1.8988966
16.789283075263597	3.7053127	1.9249189
16.80699983980398	3.7403347	1.9339945
16.82471700900741	3.8074198	1.951261
16.84243458332518	3.8818247	1.9702346
16.860152563208665	3.9654994	1.9913561
16.87787094910932	4.047582	2.0118604
16.89558974147871	4.0682693	2.0169952
16.913308940768466	4.1128964	2.0280278
16.931028547430333	4.208585	2.0514836
16.94874856191613	4.2964993	2.0728
16.966468984677785	4.37063	2.090605
16.98418981616729	4.4055967	2.0989513
17.00191105683676	4.4343815	2.105797
17.019632707138374	4.466385	2.1133823
17.03735476752442	4.4976625	2.1207693
17.05507723844728	4.5475197	2.1324914
17.072800120359403	4.57212	2.1382518
17.090523413713353	4.5641723	2.1363924
17.108247118961785	4.5708337	2.137951
17.125971236557437	4.614755	2.1481981
17.143695766953133	4.6181045	2.1489775
17.161420710601806	4.664768	2.1598074
17.179146067956477	4.6657515	2.1600351
17.19687183947025	4.679598	2.1632378
17.21459802559634	4.632016	2.152212
17.232324626788028	4.580915	2.1403072
17.25005164349871	4.5714183	2.1380875
17.267779076181863	4.630428	2.1518428
17.285506925291074	4.7066326	2.1694775
17.30323519127999	4.6929436	2.1663203
17.320963874602384	4.6417894	2.1544812
17.33869297571211	4.567046	2.137065
17.356422495063114	4.527676	2.1278336
17.37415243310944	4.4829116	2.1172888
17.391882790305218	4.4568005	2.1111135
17.40961356710468	4.4040174	2.098575
17.42734476396215	4.3731594	2.0912101
17.445076381332044	4.4125576	2.1006088
17.462808419668868	4.51756	2.1254551
17.48054087942723	4.6250696	2.1505976
17.498273761061835	4.8828273	2.209712
17.51600706502747	5.3425975	2.311406
17.533740791779024	6.101032	2.4700267
17.551474941771485	7.4738407	2.7338326
17.56920951545993	8.644228	2.9401069
17.586944513299528	10.967399	3.3117063
17.60467993574556	12.673904	3.5600429
17.622415783253373	14.441429	3.800188
17.64015205627843	15.968932	3.9961147
17.657888755276293	17.2501	4.1533237
17.675625880702604	17.899958	4.230834
17.69336343301311	17.745392	4.2125278
17.71110141266366	16.81095	4.100116
17.728839820110178	15.627482	3.953161
17.746578655808705	14.587555	3.8193657
17.764317920215372	12.990452	3.6042268
17.7820576137864	11.319355	3.364425
17.79979773697811	9.238075	3.0394201
17.81753829024692	7.325976	2.706654
17.835279274049356	5.7075815	2.3890545
17.85302068884201	4.719734	2.172495
17.870762535081607	4.1376123	2.0341122
17.888504813224934	3.8774934	1.9691352
17.90624752372891	3.6991396	1.9233147
17.923990667050536	3.5804083	1.8921967
17.941734243646895	3.4981534	1.8703351
17.959478253975185	3.443925	1.8557814
17.9772226984927	3.430635	1.8521973
17.994967577656833	3.4283497	1.8515804
18.01271289192506	3.4248147	1.8506255
18.030458641754965	3.3948429	1.84251
18.04820482760425	3.3655646	1.8345475
18.06595144993067	3.3038027	1.8176366
18.083698509192125	3.225922	1.7960852
18.101446005846576	3.1783707	1.7827985
18.119193940352105	3.1431942	1.7729056
18.136942313166887	3.1413443	1.7723838
18.1546911247492	3.1410387	1.7722976
18.1724403755574	3.1555872	1.7763972
18.19019006604997	3.149729	1.7747476
18.207940196685467	3.1152325	1.7650021
18.225690767922575	3.0961862	1.7595983
18.243441780220046	3.0826907	1.7557594
18.261193234036764	3.0537422	1.747496
18.278945129831676	3.0262656	1.7396165
18.29669746806386	3.026344	1.739639
18.314450249192483	3.0543168	1.7476604
18.3322034736768	3.07061	1.7523156
18.349957141976184	3.037233	1.7427659
18.3677112545501	3.0145845	1.7362559
18.385465811858108	3.0207543	1.7380317
18.403220814359884	3.0461771	1.7453301
18.420976262515172	3.0865915	1.7568698
18.43873215678387	3.1049924	1.7620989
18.456488497625923	3.159473	1.7774906
18.474245285501407	3.256114	1.8044705
18.492002520870486	3.2788851	1.8107692
18.50976020419343	3.3024879	1.8172748
18.527518335930615	3.552838	1.8848974
18.545276916542516	4.13742	2.034065
18.563035946489688	4.3409977	2.083506
18.580795426232832	4.820034	2.1954577
18.598555356232698	4.7661867	2.1831598
18.616315736950185	5.0707235	2.2518268
18.63407656884626	4.7094703	2.1701314
18.65183785238201	4.8467274	2.2015283
18.669599588018617	4.595068	2.143611
18.68736177621737	4.5590405	2.135191
18.705124417439652	4.5634356	2.13622
18.72288751214696	4.457517	2.1112833
18.740651060800886	4.5806756	2.1402514
18.758415063863115	4.307625	2.075482
18.77617952179546	4.42309	2.1031144
18.793944435059814	4.1909723	2.0471864
18.811709804118184	4.1976137	2.0488079
18.829475629432675	4.1925783	2.0475786
18.8472419114655	3.998476	1.999619
18.86500865067897	4.05605	2.0139637
18.88277584753551	3.7077303	1.9255468
18.90054350249763	3.6855705	1.919784
18.918311616027957	3.3928466	1.8419682
18.936080188589226	3.324381	1.8232886
18.953849220644265	3.0666828	1.7511947
18.971618712656007	2.893941	1.7011586
18.9893886650875	2.8152711	1.677877
19.007159078401887	7.9635644	2.8219788
19.024929953062408	32.824917	5.7293034
19.042701289532435	32.76731	5.7242737
19.060473088275405	25.366549	5.0365214
19.07824534975489	2.6378527	1.6241467
19.096018074434568	2.6146317	1.6169822
19.113791262778197	2.6013312	1.6128643
19.13156491524966	2.6006563	1.612655
19.149339032312945	2.5869367	1.6083957
19.167113614432136	2.5483048	1.596341
19.184888662071433	2.5285711	1.5901481
19.202664175695123	2.500217	1.5812074
19.220440155767623	2.5047739	1.5826477
19.238216602753447	2.4855466	1.5765617
19.2559935171172	2.478923	1.5744597
19.27377089932361	2.5107586	1.5845374
19.291548749837514	2.5252726	1.5891106
19.309327069123835	2.551599	1.5973725
19.32710585764763	2.5580053	1.5993766
19.344885115874032	2.5310886	1.5909395
19.362664844268313	2.4773626	1.573964
19.380445043295822	2.4590304	1.5681295
19.39822571342203	2.4347842	1.5603795
19.41600685511252	2.4171543	1.55472
19.43378846883297	2.3783376	1.542186
19.451570555049173	2.4116406	1.5529459
19.469353114227037	2.440314	1.5621505
19.48713614683254	2.4456813	1.5638674
19.50491965333182	2.4555874	1.5670314
19.52270363419109	2.476771	1.5737761
19.540488089876686	2.4694092	1.5714355
19.55827302085503	2.4608219	1.5687007
19.576058427592674	2.4387612	1.5616534
19.593844310556282	2.4763916	1.5736555
19.611630670212598	2.4984102	1.580636
19.629417507028506	2.4904277	1.5781089
19.64720482147098	2.4709685	1.5719315
19.6649926140071	2.4775481	1.5740229
19.682780885104084	2.4697518	1.5715444
19.70056963522921	2.4628944	1.5693612
19.718358864849908	2.4751804	1.5732706
19.7361485744337	2.47302	1.5725839
19.753938764448215	2.4838207	1.5760142
19.771729435361202	2.4843683	1.576188
19.789520587640506	2.5022936	1.581864
19.807312221754092	2.4713838	1.5720636
19.825104338170043	2.447518	1.5644546
19.842896937356517	2.4647934	1.5699661
19.860690019781824	2.4983447	1.5806153
19.87848358591436	2.5182755	1.5869075
19.896277636222635	2.5052	1.5827824
19.914072171175278	2.5202835	1.58754
19.931867191241015	2.5037916	1.5823374
19.94966269688869	2.5051727	1.5827738
19.967458688587264	2.4979184	1.5804805
19.985255166805807	2.4855316	1.5765569
20.00305213201348	2.4385536	1.5615869
20.020849584679578	2.4161584	1.5543997
20.038647525273507	2.4201763	1.5556916
20.05644595426477	2.4402711	1.5621368
20.07424487212299	2.4240363	1.5569317
20.092044279317903	2.39963	1.5490739
20.109844176319353	2.3818338	1.5433191
20.127644563597304	2.384887	1.544308
20.145445441621817	2.397845	1.5484977
20.16324681086307	2.3950913	1.5476083
20.181048671791373	2.4008014	1.549452
20.198851024877122	2.4021044	1.5498724
20.216653870590836	2.3872316	1.5450668
20.234457209403146	2.38603	1.544678
20.252261041784802	2.3648026	1.5377915
20.270065368206662	2.373438	1.5405966
20.287870189139685	2.384329	1.5441273
20.305675505054968	2.3956552	1.5477904
20.323481316423702	2.3760428	1.5414418
20.341287623717207	2.3648245	1.5377986
20.359094427406884	2.355481	1.5347576
20.376901727964288	2.3250678	1.5248172
20.39470952586107	2.2987173	1.5161521
20.41251782156899	2.29364	1.5144768
20.430326615559935	2.2913148	1.513709
20.448135908305886	2.3100135	1.5198729
20.465945700278965	2.3202891	1.5232495
20.483755991951384	2.3215706	1.5236701
20.50156678379548	2.3345816	1.5279337
20.519378076283708	2.3149667	1.5215014
20.537189869888635	2.3242943	1.5245637
20.55500216508294	2.332881	1.5273771
20.572814962339415	2.363697	1.537432
20.59062826213098	2.3343594	1.527861
20.60844206493066	2.3016183	1.5171086
20.626256371211593	2.2741985	1.5080446
20.644071181447032	2.3089533	1.519524
20.66188649611036	2.3412132	1.5301024
20.67970231567506	2.3328357	1.5273623
20.697518640614742	2.3014233	1.5170443
20.715335471403122	2.2870026	1.5122839
20.73315280851404	2.2566285	1.5022079
20.750970652421447	2.2676122	1.5058593
20.768789003599412	2.2691913	1.5063835
20.786607862522136	2.2983694	1.5160373
20.8044272296639	2.2740123	1.5079829
20.82224710549913	2.2791514	1.5096859
20.84006749050237	2.26592	1.5052973
20.857888385148268	3.79991	1.9493358
20.8757097899116	45.89561	6.77463
20.893531705267254	64.79368	8.049452
20.911354131690224	83.86269	9.157658
20.92917706965566	69.12523	8.314158
20.94700051963877	50.164536	7.0826926
20.96482448211493	29.349115	5.4174824
20.982648957559622	4.0581975	2.0144968
21.00047394644843	2.197739	1.4824773
21.01829944925707	2.2184455	1.4894447
21.036125466461375	2.2342255	1.4947326
21.053951998537297	2.2423582	1.4974506
21.071779045960906	2.219156	1.4896832
21.089606609208378	2.1550965	1.4680247
21.10743468875603	2.1269002	1.4583896
21.12526328508028	2.165566	1.4715862
21.143092398657675	2.2086048	1.4861375
21.16092202996488	2.193183	1.4809399
21.17875217947867	2.1679544	1.4723976
21.19658284767596	2.157502	1.4688437
21.21441403503377	2.1431167	1.4639387
21.232245742029225	2.1073208	1.4516613
21.2500779691396	2.1202593	1.4561111
21.26791071684227	2.1521716	1.4670281
21.28574398561475	2.1450078	1.4645846
21.30357777593465	2.1552746	1.4680854
21.321412088279704	2.17851	1.4759777
21.339246923127792	2.174709	1.4746895
21.357082280956888	2.1715374	1.4736137
21.3749181622451	2.2036228	1.4844605
21.392754567470647	2.1822674	1.47725
21.41059149711187	2.157234	1.4687525
21.42842895164726	2.137057	1.4618677
21.446266931555378	2.1295753	1.4593065
21.464105437314945	2.097477	1.4482669
21.481944469404798	2.1111007	1.4529628
21.49978402830388	2.1001856	1.4492017
21.51762411449127	2.0633576	1.4364392
21.53546472844617	2.0645695	1.436861
21.553305870647876	2.1011171	1.4495231
21.571147541575865	2.09895	1.4487753
21.58898974170967	2.0870879	1.4446757
21.60683247152899	2.0764868	1.441002
21.62467573151363	2.054742	1.4334371
21.642519522143523	2.0413384	1.4287542
21.660363843898722	2.0291524	1.4244832
21.6782086972594	2.035817	1.4268205
21.696054082705864	2.0481796	1.4311463
21.713900000718535	2.0696118	1.4386145
21.73174645177795	2.0928578	1.4466712
21.749593436364794	2.0768924	1.4411427
21.767440954959845	2.0499134	1.4317518
21.785289008044032	2.0327628	1.4257499
21.803137596098388	2.0335617	1.42603
21.820986719604086	1.9838511	1.4084924
21.838836379042412	1.9404547	1.393002
21.85668657489478	1.9372709	1.3918588
21.87453730764273	1.9800532	1.4071436
21.892388577767914	2.0015554	1.4147633
21.91024038575213	2.0068395	1.4166297
21.928092732077285	1.9922112	1.4114572
21.945945617225426	1.959126	1.3996878
21.963799041678694	1.9522443	1.3972274
21.981653005919398	31.27701	5.592585
21.999507510429943	78.084785	8.836559
22.01736255569286	73.04604	8.546698
22.035218142190818	4.16641	2.0411785
22.05307427040661	2.018531	1.4207501
22.07093094082315	2.016363	1.419987
22.088788153923474	2.0123312	1.4185666
22.106645910190746	2.0183594	1.4206898
22.12450421010827	2.0364664	1.4270481
22.142363054159464	2.0115073	1.4182762
22.16022244282787	1.9541068	1.3978937
22.178082376597164	1.9261681	1.3878646
22.195942855951145	1.9229892	1.3867189
22.213803881373742	1.9564064	1.398716
22.231665453349002	2.0012205	1.414645
22.24952757236111	2.0086455	1.417267
22.26739023889438	1.9895564	1.4105164
22.28525345343323	1.9532864	1.3976002
22.30311721646225	1.9550618	1.3982352
22.320981528466113	1.972179	1.4043429
22.33884638992964	1.9863123	1.4093659
22.356711801337788	1.993515	1.4119189
22.37457776317561	1.9769301	1.4060335
22.392444275928337	1.9634058	1.4012158
22.410311340081282	1.9406276	1.3930641
22.428178956119904	1.9531856	1.3975642
22.446047124529805	1.9527019	1.3973911
22.46391584579669	1.9345133	1.3908678
22.481785120406414	1.9278708	1.3884778
22.49965494884496	1.9192291	1.3853625
22.51752533159841	1.938603	1.3923372
22.53539626915302	1.9437605	1.3941882
22.553267761995137	1.9701627	1.4036249
22.571139810611264	1.9670326	1.4025093
22.589012415488025	1.9447733	1.3945513
22.60688557711216	1.9006408	1.3786373
22.624759295970566	1.8706439	1.3677149
22.642633572550263	1.8555328	1.3621794
22.660508407338362	1.880847	1.3714397
22.67838380082217	1.9304862	1.3894193
22.696259753489077	1.9786539	1.4066464
22.714136265826614	1.9830933	1.4082234
22.73201333832246	1.9559896	1.398567
22.74989097146439	1.9516346	1.3970091
22.76776916574035	1.9411526	1.3932525
22.785647921638393	1.949445	1.3962252
22.803527239646712	1.901767	1.3790457
22.82140712025363	1.925386	1.3875828
22.839287563947593	1.9454166	1.394782
22.85716857121719	1.9246598	1.3873211
22.875050142551135	1.8679457	1.3667281
22.892932278438277	1.8724774	1.368385
22.910814979367604	1.8727401	1.3684809
22.928698245828222	1.8861905	1.3733865
22.946582078309387	1.8842233	1.3726702
22.96446647730047	1.894849	1.3765352
22.98235144329098	1.9287609	1.3887984
23.000236976770562	1.9184663	1.3850871
23.018123078229	1.9100063	1.3820298
23.03600974815619	1.9025444	1.3793275
23.053896987042194	1.9174745	1.384729
23.071784795377173	1.9137369	1.3833789
23.08967317365145	1.888291	1.374151
23.10756212235546	1.8703696	1.3676145
23.125451641979787	1.8622673	1.3646492
23.143341733015134	1.9116116	1.3826104
23.161232395952357	1.9235942	1.386937
23.179123631282426	1.8728418	1.3685181
23.197015439496468	1.8261359	1.3513459
23.214907821085717	1.8130009	1.3464773
23.23280077654157	1.8367429	1.3552649
23.250694306355538	1.8617442	1.3644575
23.268588411019277	1.9143461	1.3835989
23.28648309102458	1.9197785	1.3855608
23.304378346863356	1.9247369	1.3873489
23.322274179027676	1.9170729	1.3845841
23.340170588009723	1.9221666	1.3864223
23.358067574301852	1.9079633	1.3812904
23.37596513839651	1.8744446	1.3691036
23.39386328078629	1.8641992	1.3653568
23.411762001963947	1.8708758	1.3677996
23.429661302422353	1.902949	1.3794742
23.4475611826545	1.8968607	1.3772657
23.46546164315356	1.9199641	1.3856276
23.48336268441279	1.913857	1.3834223
23.501264306925638	1.952756	1.3974105
23.51916651118564	1.9773628	1.4061873
23.537069297686497	1.9442544	1.3943652
23.554972666922037	1.9030147	1.379498
23.57287661938623	1.8816862	1.3717457
23.59078115557318	1.9126679	1.3829924
23.608686275977128	1.9134389	1.3832711
23.62659198109246	1.9001311	1.3784524
23.6444982714137	1.888599	1.374263
23.66240514743549	1.9096912	1.3819158
23.68031260965263	1.9395989	1.3926948
23.698220658560068	1.936295	1.3915082
23.716129294652845	1.9103044	1.3821377
23.7340385184262	1.8826498	1.3720969
23.75194833037546	1.8790779	1.3707947
23.769858730996123	1.9051622	1.3802761
23.78776972078382	1.9176339	1.3847866
23.80568130023431	1.8930516	1.3758821
23.823593469843495	1.8701549	1.3675361
23.841506230107424	1.8811496	1.3715501
23.859419581522275	1.8872045	1.3737556
23.87733352458438	1.9100779	1.3820556
23.89524805979019	1.9300735	1.3892709
23.913163187636318	1.9006017	1.3786231
23.931078908619508	1.928663	1.3887631
23.948995223236633	1.9405483	1.3930357
23.966912131984735	1.9465884	1.3952019
23.98482963536096	2.0084705	1.4172052
24.002747733862616	2.0219283	1.4219452
24.020666427987155	2.0047872	1.4159051
24.038585718232156	1.977859	1.4063637
24.056505605095353	2.0236073	1.4225355
24.074426089074617	2.0456102	1.4302483
24.092347170667946	2.0206807	1.4215065
24.110268850373515	2.0142148	1.4192303
24.128191128689586	2.0740025	1.4401398
24.146114006114626	2.0314014	1.4252723
24.164037483147187	2.0640628	1.4366846
24.181961560286005	2.051733	1.4323872
24.199886238029926	2.0350306	1.426545
24.21781151687797	2.0189824	1.420909
24.235737397329274	2.0097625	1.417661
24.253663879883135	2.028862	1.4243813
24.271590965038975	2.048252	1.4311715
24.289518653296376	2.0726676	1.4396762
24.30744694515505	2.0837061	1.4435048
24.32537584111486	2.056645	1.4341007
24.34330534167581	2.0628824	1.4362738
24.361235447338046	2.108258	1.4519842
24.379166158601876	2.1094825	1.4524058
24.39709747596772	2.0636349	1.4365357
24.41502939993615	2.015855	1.4198081
24.432961931007917	1.9752922	1.4054509
24.450895069683856	1.9385537	1.3923196
24.468828816465	1.9312027	1.3896772
24.4867631718525	1.9453914	1.3947729
24.504698136347656	1.9546818	1.3980993
24.52263371045192	1.9627143	1.400969
24.540569894666874	1.9714006	1.4040657
24.558506689494266	1.9753909	1.405486
24.57644409543597	1.9629346	1.4010477
24.594382112994012	1.9488765	1.3960217
24.61232074267057	1.9154086	1.3839829
24.630259984967953	1.9208965	1.3859642
24.64819984038863	1.9368254	1.3916987
24.66614030943522	1.9483552	1.3958349
24.684081392610462	1.9465779	1.3951981
24.702023090417274	1.9452466	1.3947209
24.7199654033587	1.9900172	1.4106797
24.737908331937927	2.020079	1.4212948
24.755851876658305	2.053363	1.4329561
24.773796038023324	2.0761244	1.4408762
24.79174081653661	2.056618	1.4340913
24.809686212701962	2.0541806	1.4332412
24.827632227023294	2.0401099	1.4283241
24.8455788600047	2.046016	1.4303901
24.8635261121504	2.0567126	1.4341244
24.88147398396475	2.0668263	1.4376462
24.899422475952303	2.107343	1.451669
24.917371588617698	2.1832407	1.4775794
24.935321322465768	2.2234662	1.4911292
24.953271678001478	2.2475572	1.4991854
24.97122265572994	2.4280443	1.5582184
24.989174256156414	2.7644763	1.6626714
25.00712647978632	3.235989	1.7988855
25.02507932712521	3.7944624	1.947938
25.043032798678798	4.383742	2.0937388
25.060986894952933	5.0684505	2.251322
25.078941616453637	5.8678865	2.422372
25.096896963687055	6.867896	2.6206672
25.114852937159508	8.040678	2.835609
25.132809537377444	8.5382595	2.92203
25.150766764847468	8.506847	2.91665
25.168724620076347	7.892301	2.809324
25.186683103570985	6.754538	2.5989494
25.204642215838426	5.501057	2.3454332
25.222601957385894	4.0989094	2.0245764
25.24056232872074	3.0947967	1.7592034
25.25852333035048	2.574296	1.6044613
25.276484962782778	2.2441509	1.498049
25.294447226525435	2.0569763	1.4342163
25.312410122086423	1.9953645	1.4125737
25.330373649973843	1.9561636	1.3986292
25.348337810695988	1.9426595	1.3937932
25.366302604761245	1.9337487	1.3905929
25.384268032678207	1.9209979	1.3860006
25.40223409495558	1.9015818	1.3789785
25.420200792102257	1.9160243	1.3842053
25.438168124627246	1.9176081	1.3847773
25.45613609303974	1.8657455	1.3659229
25.474104697849057	1.8239504	1.3505371
25.492073939564698	1.8445975	1.3581595
25.510043818696285	1.8505882	1.3603632
25.528014335753614	1.8803803	1.3712696
25.54598549124664	1.8898813	1.3747295
25.56395728568544	1.9070338	1.3809539
25.58192971958028	1.9263401	1.3879266
25.59990279344156	1.9150195	1.3838423
25.617876507779833	1.8664563	1.3661832
25.635850863105826	1.8067954	1.3441709
25.653825859930386	1.817085	1.347993
25.671801498764548	1.8395344	1.3562944
25.68977778011949	1.8136989	1.3467364
25.707754704506524	1.7604512	1.32682
25.725732272437153	1.7576238	1.325754
25.743710484423012	1.7484921	1.3223056
25.761689340975888	1.7645677	1.3283703
25.77966884260774	1.8005786	1.3418564
25.797648989830662	1.8577102	1.3629785
25.815629783156922	1.854923	1.3619555
25.83361122309895	1.8450845	1.358339
25.85159331016929	1.7839197	1.3356346
25.869576044880695	1.7861152	1.3364562
25.887559427746034	1.8277862	1.3519565
25.90554345927836	1.9058363	1.3805203
25.92352813999086	1.9004042	1.3785515
25.94151347039689	1.859552	1.3636539
25.959499451009965	1.8171755	1.3480265
25.97748608234374	1.7961925	1.340221
25.995473364912062	1.814012	1.3468527
26.013461299228904	1.8002261	1.341725
26.03144988580839	1.7984233	1.341053
26.04943912516483	1.8176843	1.3482152
26.067429017812675	1.8248048	1.3508533
26.085419564266537	1.8322489	1.3536059
26.103410765041186	1.7940686	1.3394284
26.12140262065155	1.7655232	1.3287299
26.139395131612723	1.7869248	1.3367591
26.157388298439948	1.8157427	1.347495
26.17538212164861	1.8387309	1.3559982
26.193376601754295	1.7957851	1.340069
26.211371739272714	1.7788564	1.3337377
26.229367534719746	1.7493019	1.3226118
26.247363988611433	1.8234483	1.3503512
26.26536110146397	1.8547014	1.3618742
26.283358873793727	1.8795707	1.3709744
26.301357306117204	1.8552766	1.3620853
26.319356398951104	1.8471256	1.35909
26.33735615281224	1.8340762	1.3542807
26.35535656821762	1.7724181	1.331322
26.373357645684404	1.7158531	1.3099058
26.39135938572991	1.7656054	1.3287609
26.409361788871614	1.7926148	1.3388857
26.427364855627165	1.8145872	1.3470662
26.445368586514352	1.8219057	1.3497798
26.46337298205115	1.8224293	1.3499738
26.48137804275568	1.8149397	1.3471969
26.499383769146217	1.7766818	1.3329222
26.517390161741215	1.7692742	1.3301407
26.53539722105928	1.8181878	1.3484019
26.553404947619182	1.8691117	1.3671546
26.571413341939856	1.8215209	1.3496374
26.589422404540397	1.7832085	1.3353683
26.60743213594006	1.7734424	1.3317065
26.62544253665827	1.7853658	1.3361758
26.64345360721459	1.7640257	1.3281662
26.66146534812879	1.7638497	1.3281001
26.679477759920758	1.7760453	1.3326836
26.69749084311057	1.7798508	1.3341105
26.71550459821847	1.7856139	1.3362687
26.733519025764842	1.7941703	1.3394665
26.751534126270258	1.8143368	1.3469732
26.769549900255434	1.8032866	1.3428651
26.787566348241267	1.8236763	1.3504356
26.80558347074881	1.7712263	1.3308742
26.823601268299267	1.747322	1.321863
26.841619741414036	1.8127784	1.3463945
26.85963889061465	1.8711916	1.367915
26.877658716422832	1.8340954	1.3542877
26.89567921936045	1.7733095	1.3316567
26.913700399949544	1.7540609	1.3244096
26.93172225871233	1.7590803	1.3263032
26.949744796171174	1.7792866	1.333899
26.967768012848605	1.7845616	1.3358749
26.98579190926733	1.7955295	1.3399737
27.003816485950225	1.7649667	1.3285205
27.021841743420318	1.7657139	1.3288016
27.039867682200814	1.7658216	1.3288422
27.057894302815072	1.7587699	1.3261862
27.07592160578664	1.8035276	1.3429548
27.0939495916392	1.8175683	1.3481722
27.111978260896635	1.7973329	1.3406464
27.13000761408296	1.8110234	1.3457427
27.148037651722397	1.8500434	1.360163
27.166068374339304	1.7645961	1.3283811
27.184099782458215	1.7655823	1.3287522
27.20213187660384	1.7564752	1.3253208
27.22016465730105	1.7528696	1.3239598
27.23819812507487	1.7886952	1.3374211
27.256232280450533	1.8645822	1.365497
27.274267123953383	1.831351	1.3532742
27.292302656108987	1.814762	1.347131
27.31033887744306	1.7729969	1.3315393
27.32837578848146	1.7895601	1.3377444
27.34641338975026	1.7982764	1.3409983
27.364451681775673	1.8004105	1.3417938
27.382490665084074	1.7699957	1.3304118
27.400530340202046	1.7595682	1.3264872
27.41857070765629	1.7699223	1.3303843
27.436611767973726	1.8334682	1.3540562
27.454653521681404	1.8725572	1.3684142
27.472695969306564	1.8763233	1.3697895
27.490739111376627	1.8458316	1.3586138
27.508782948419153	1.7900797	1.3379385
27.526827480961902	1.7866809	1.3366679
27.54487270953279	1.7896391	1.3377739
27.562918634659898	1.767234	1.3293735
27.580965256871508	1.8004913	1.3418239
27.599012576696026	1.8212517	1.3495376
27.617060594662068	1.7936265	1.3392634
27.63510931129842	1.7836783	1.3355442
27.65315872713401	1.7833273	1.3354127
27.67120884269797	1.7792643	1.3338907
27.68925965851958	1.8031638	1.3428193
27.707311175128307	1.8641406	1.3653353
27.725363393053787	1.893585	1.376076
27.74341631282583	1.9034911	1.3796706
27.7614699349744	1.9187652	1.385195
27.77952426002968	2.0883887	1.4451258
27.797579288521973	2.098352	1.4485689
27.815635020981784	2.4422026	1.5627548
27.83369145793979	2.4830458	1.5757684
27.85174859992682	2.309486	1.5196993
27.869806447473923	2.1974735	1.4823878
27.887865001112267	2.018036	1.4205759
27.905924261373233	1.9083133	1.3814172
27.92398422878836	1.8413297	1.356956
27.94204490388936	1.8185471	1.3485352
27.96010628720813	1.8138901	1.3468074
27.978168379276728	1.8358222	1.3549252
27.9962311806274	1.8392404	1.356186
28.014294691792568	1.863301	1.3650279
28.0323589133048	1.8449636	1.3582944
28.050423845696887	1.8216746	1.3496943
28.068489489501758	1.8233954	1.3503315
28.086555845252523	1.8648674	1.3656015
28.104622913482487	1.8375989	1.3555807
28.122690694725115	1.815146	1.3472736
28.14075918951405	1.8266182	1.3515244
28.15882839838312	1.8981589	1.3777369
28.176898321866304	1.9152993	1.3839434
28.1949689604978	1.8724697	1.3683821
28.213040314811945	1.8615109	1.364372
28.23111238534327	1.8510078	1.3605175
28.249185172626493	1.8720555	1.3682308
28.267258677196473	1.9382292	1.392203
28.285332899588294	1.9287285	1.3887867
28.303407840337172	1.8918177	1.3754337
28.321483499978545	1.8899215	1.3747442
28.33955987904799	1.9870051	1.4096117
28.357636978081285	1.9685372	1.4030457
28.37571479761439	1.9317151	1.3898616
28.393793338183425	1.9163145	1.3843101
28.41187260032469	1.964536	1.4016191
28.429952584574686	1.9940794	1.4121188
28.448033291470065	2.0046732	1.4158648
28.46611472154769	1.9867017	1.409504
28.484196875344566	1.9981033	1.4135427
28.502279753397914	2.0095809	1.4175968
28.52036335624511	1.947284	1.3954512
28.538447684423716	1.9626323	1.4009398
28.556532738471482	1.9724194	1.4044285
28.574618518926325	1.9976486	1.4133819
28.59270502632635	2.0003626	1.4143418
28.61079226120985	2.0041943	1.4156957
28.628880224115274	1.9781866	1.4064802
28.646968915581287	1.9992181	1.4139371
28.66505833614671	1.9930722	1.4117621
28.68314848635055	2.0192592	1.4210064
28.701239366732004	2.0897512	1.4455972
28.71933097783044	2.0928433	1.4466662
28.737423320185403	2.0864556	1.4444568
28.75551639433665	2.0612388	1.4357015
28.773610200824074	2.1366146	1.4617163
28.791704740187793	2.174207	1.4745193
28.80980001296809	2.1595492	1.4695405
28.827896019705413	2.1182184	1.45541
28.845992760940433	2.0693638	1.4385283
28.86409023721397	2.1006615	1.4493659
28.88218844906704	2.1427078	1.4637991
28.900287397040845	2.2085984	1.4861354
28.918387081676755	2.2714257	1.507125
28.936487503516343	2.3323567	1.5272055
28.954588663101365	2.3517668	1.5335472
28.97269056097374	2.3647573	1.5377767
28.990793197675597	2.36605	1.538197
29.00889657374923	2.329421	1.526244
29.027000689737125	2.3851962	1.5444081
29.04510554618196	2.4550214	1.5668508
29.06321114362659	2.4000216	1.5492003
29.08131748261405	2.369002	1.5391563
29.099424563687567	2.3850172	1.54435
29.11753238739057	2.440515	1.5622147
29.13564095426663	2.3944504	1.5474012
29.15375026485954	2.4172559	1.5547527
29.171860319713275	2.540315	1.5938365
29.18997111937199	2.6145988	1.6169721
29.20808266438002	2.6290698	1.6214406
29.226194955281898	2.721332	1.649646
29.244307992622335	2.767602	1.6636112
29.26242177694624	2.752156	1.6589624
29.2805363087987	2.8406599	1.6854258
29.29865158872498	2.8607836	1.6913851
29.316767617270557	2.908484	1.7054278
29.334884394981064	2.922055	1.709402
29.353001922402367	2.9750187	1.7248243
29.37112020008047	3.0031717	1.7329662
29.389239228561596	3.105437	1.762225
29.407359008392152	3.2802646	1.8111501
29.42547954011872	3.6196032	1.9025254
29.44360082428809	4.272496	2.0670018
29.46172286144722	5.4264617	2.3294766
29.479845652143283	7.0562973	2.6563692
29.497969196923606	9.313993	3.0518837
29.516093496335728	12.061962	3.4730337
29.5342185509274	14.886707	3.8583295
29.55234436124651	17.22009	4.1497097
29.570470927841175	18.88032	4.345149
29.588598251259686	18.651161	4.318699
29.60672633205055	17.089527	4.1339483
29.624855170762405	14.828772	3.8508143
29.642984767944146	12.13856	3.4840436
29.66111512414481	9.180914	3.0300024
29.67924623991366	6.721619	2.5926085
29.697378115800138	5.0770745	2.2532365
29.71551075235387	4.152428	2.0377507
29.733644150124675	3.7282045	1.9308559
29.751778309662576	3.491073	1.8684413
29.769913231517766	3.2800667	1.8110955
29.78804891624066	3.2498293	1.8027283
29.806185364381818	3.248245	1.8022888
29.82432257649206	3.2584994	1.8051314
29.842460553122333	3.2760787	1.8099941
29.86059929482382	3.3314133	1.8252159
29.878738802147872	3.3254607	1.8235846
29.896879075646048	3.2793612	1.8109007
29.915020115870114	3.186384	1.7850446
29.933161923371976	3.1919196	1.7865944
29.951304498703777	3.2410207	1.8002836
29.969447842417857	3.253837	1.8038396
29.987591955066733	3.189843	1.7860131
30.005736837203123	3.1959164	1.7877126
30.023882489379943	3.1938624	1.7871381
30.04202891215028	3.1941547	1.7872199
30.060176106067455	3.1741142	1.7816044
30.078324071684946	3.139826	1.7719555
30.09647280955646	3.1116881	1.7639978
30.114622320235863	3.1279993	1.7686151
30.132772604277257	3.1396646	1.7719098
30.1509236622349	3.1117275	1.7640089
30.16907549466328	3.0768173	1.7540859
30.18722810211705	3.0434697	1.7445543
30.205381485151097	3.1376088	1.7713296
30.22353564432045	3.1579232	1.7770547
30.241690580180403	3.059867	1.7492476
30.25984629328638	2.9503782	1.7176665
30.278002784194037	2.9288275	1.7113818
30.296160053459246	2.9648142	1.7218636
30.314318101638033	2.9862213	1.7280687
30.332476929286646	2.9458883	1.716359
30.35063653696153	2.9242003	1.7100294
30.368796925219307	2.920785	1.7090304
30.386958094616844	2.8739824	1.6952825
30.40512004571115	2.9361422	1.7135175
30.423282779059463	2.9554548	1.7191436
30.441446295219233	2.9117613	1.7063884
30.459610594748067	2.860805	1.6913915
30.47777567820382	2.837176	1.6843919
30.495941546144504	2.810768	1.6765345
30.51410819912835	2.8359432	1.6840259
30.532275637713795	2.8306532	1.6824545
30.55044386245946	2.8269455	1.6813523
30.56861287392416	2.8215127	1.6797359
30.586782672666956	2.7631443	1.6622708
30.604953259247047	2.7473667	1.6575183
30.623124634223885	2.8305824	1.6824335
30.641296798157075	2.8267882	1.6813055
30.659469751606462	2.8042474	1.6745887
30.677643495132074	2.8116722	1.6768042
30.695818029294152	2.813861	1.6774566
30.713993354653116	2.7552054	1.6598811
30.73216947176962	2.751108	1.6586465
30.75034638120448	2.7249837	1.6507524
30.768524083518756	2.6992638	1.6429436
30.786702579273673	2.6994667	1.6430054
30.80488186903069	2.8030422	1.6742288
30.82306195335144	2.9218047	1.7093288
30.841242832797782	3.0592337	1.7490665
30.85942450793176	3.325504	1.8235965
30.877606979315637	3.7671444	1.9409133
30.895790247511883	4.260499	2.0640976
30.913974313083134	4.7231884	2.1732898
30.932159176592283	5.009041	2.2380886
30.95034483860237	5.0732756	2.2523932
30.968531299676698	4.8988395	2.2133322
30.98671856037873	4.4912405	2.1192546
31.00490662127215	3.977991	1.9944901
31.023095482920848	3.5651348	1.8881564
31.04128514588892	3.2206986	1.7946305
31.059475610740662	2.8432353	1.6861895
31.07766687804056	2.6363163	1.6236737
31.09585894835335	2.5336661	1.5917494
31.11405182224393	2.503223	1.5821577
31.132245500277417	2.5190318	1.5871458
31.15043998301914	2.4968672	1.5801479
31.168635271034628	2.5163	1.586285
31.18683136488964	2.4370983	1.5611209
31.20502826515008	2.4071689	1.5515053
31.223225972382135	2.3955343	1.5477513
31.241424487152155	2.472732	1.5724924
31.259623810026692	2.440164	1.5621024
31.27782394157253	2.342547	1.5305381
31.296024882356644	2.3004777	1.5167326
31.314226632946237	2.3519514	1.5336072
31.332429193908684	2.4186594	1.555204
31.350632565811598	2.437727	1.5613222
31.368836749222787	2.419056	1.5553315
31.387041744710295	2.4913626	1.578405
31.40524755284232	2.5732136	1.604124
31.423454174187317	2.5559797	1.5987432
31.441661609313922	2.5172186	1.5865744
31.459869858791002	2.5543232	1.598225
31.478078923187628	2.500279	1.5812271
31.496288803073064	2.3970025	1.5482256
31.514499499016807	2.343036	1.5306978
31.532711011588546	2.322622	1.5240151
31.550923341358178	2.2264397	1.4921259
31.56913648889584	2.1764905	1.4752934
31.587350454771844	2.2152314	1.4883653
31.605565239556732	2.3215218	1.5236541
31.62378084382127	2.374502	1.540942
31.641997268136382	2.339889	1.5296696
31.660214513073274	2.2836719	1.5111823
31.67843257920331	2.2606127	1.5035334
31.6966514670981	2.2591434	1.5030447
31.71487117732944	2.2697268	1.5065613
31.733091710469346	2.3181696	1.5225537
31.751313067090052	2.331559	1.5269443
31.769535247764008	2.3025055	1.5174009
31.787758253063878	2.299839	1.516522
31.805982083562526	2.2588954	1.5029622
31.824206739833024	2.2323449	1.4941033
31.84243222244869	2.1947687	1.4814751
31.860658531983013	2.180751	1.4767367
31.878885669009737	2.1844563	1.4779906
31.897113634102784	2.2432914	1.4977621
31.91534242783632	2.287634	1.5124927
31.933572050784694	2.2926521	1.5141506
31.951802503522508	2.2496433	1.4998811
31.970033786624548	2.1954935	1.4817197
31.988265900665834	2.2039397	1.4845672
32.006498846221575	2.2019882	1.4839097
32.02473262386724	2.2186952	1.4895285
32.04296723417845	2.1971207	1.4822688
32.0612026777311	2.0622306	1.4360468
32.07943895510129	2.0557082	1.4337741
32.097676066865304	2.1049178	1.4508334
32.115914013599685	2.135405	1.4613025
32.13415279588115	2.1172724	1.455085
32.152392414286666	2.104188	1.4505819
32.1706328693934	2.1312497	1.45988
32.18887416177875	2.1964123	1.4820298
32.20711629202032	2.207673	1.485824
32.225359260695924	2.1641152	1.4710932
32.243603068383614	2.1894097	1.4796654
32.26184771566166	2.2716157	1.5071881
32.28009320310852	2.3054905	1.5183842
32.2983395313029	2.2082908	1.4860319
32.31658670082372	2.1747541	1.4747047
32.33483471225012	2.1980047	1.482567
32.35308356616143	2.2395089	1.4964988
32.371333263137245	2.1956675	1.4817785
32.38958380375734	2.1338904	1.4607842
32.407835188601744	2.1680841	1.4724416
32.42608741825067	2.2039323	1.4845647
32.444340493284585	2.1240387	1.4574082
32.46259441428416	2.073879	1.4400969
32.48084918183028	2.0661988	1.4374279
32.49910479650405	2.0686896	1.4382939
32.51736125888683	2.0761137	1.4408726
32.53561856956014	2.0896804	1.4455727
32.5538767291058	2.0640075	1.4366654
32.572135738105764	2.047762	1.4310004
32.59039559714228	1.9849356	1.4088775
32.608656306797776	1.9584767	1.3994558
32.62691786765491	1.9779325	1.4063898
32.645180280296586	2.0240424	1.4226885
32.663443545305896	2.0962076	1.4478285
32.68170766326619	2.1298876	1.4594134
32.69997263476099	2.0244915	1.4228463
32.7182384603741	1.9674586	1.4026612
32.7365051406895	2.0012572	1.414658
32.75477267629144	1.9909652	1.4110156
32.77304106776434	1.9811363	1.4075284
32.79131031569289	1.987941	1.4099436
32.809580420661966	2.0130239	1.4188107
32.827851383256714	1.9988327	1.4138008
32.84612320406245	1.9828534	1.4081383
32.86439588366476	1.934333	1.390803
32.88266942264945	2.003196	1.415343
32.9009438216025	1.9947524	1.4123571
32.9192190811102	1.9694625	1.4033754
32.937495201758985	1.9797237	1.4070265
32.95577218413556	1.9731622	1.4046929
32.974050028826866	1.9255911	1.3876567
32.992328736420035	1.9993913	1.4139984
33.010608307502444	1.9908259	1.4109663
33.02888874266169	1.8366282	1.3552226
33.047170042485604	1.7534796	1.3241901
33.06545220756225	1.8494653	1.3599504
33.083735238479896	1.9325826	1.3901736
33.10201913582707	1.9300569	1.389265
33.12030390019248	1.8049886	1.3434987
33.138589532165135	1.7285118	1.3147289
33.15687603233419	1.805483	1.3436826
33.17516340128909	1.9061676	1.3806403
33.19345163961947	1.9484924	1.395884
33.211740747915215	1.9331774	1.3903875
33.23003072676643	1.9503245	1.3965402
33.248321576763466	1.9929105	1.4117048
33.266613298496885	2.0036168	1.4154917
33.28490589255747	1.9669304	1.402473
33.30319935953626	1.9906304	1.410897
33.32149370002451	2.0052214	1.4160584
33.339788914613706	1.9904805	1.410844
33.358085003895575	1.9414183	1.3933479
33.376381968462034	1.8716167	1.3680705
33.39467980890529	1.9439542	1.3942575
33.41297852581774	1.9690046	1.4032123
33.43127811979204	2.014674	1.4193921
33.44957859142105	2.0520313	1.4324913
33.467879941297866	2.0137703	1.4190738
33.486182170015844	1.9592547	1.3997338
33.50448527816853	1.9125819	1.3829613
33.522789266349754	1.9839003	1.40851
33.541094135153514	2.0120065	1.4184521
33.55939988517411	1.9837162	1.4084446
33.57770651700602	1.8922274	1.3755826
33.59601403124398	1.912454	1.382915
33.61432242848296	1.9282215	1.3886042
33.632631709318154	1.9623376	1.4008346
33.650941874344994	1.9306121	1.3894647
33.66925292415916	1.9098723	1.3819813
33.68756485935654	1.8915464	1.375335
33.70587768053328	1.8536823	1.3615
33.724191388285746	1.7754738	1.3324691
33.74250598321054	1.8588791	1.3634071
33.760821465904506	1.9998729	1.4141686
33.77913783696474	2.0274	1.423868
33.79745509698852	1.9277284	1.3884265
33.815773246573414	1.8246262	1.3507873
33.8340922863172	1.8490331	1.3597915
33.852412216817896	1.9676442	1.4027274
33.87073303867377	2.1109078	1.4528964
33.889054752483304	2.1047668	1.4507815
33.907377358845245	1.9728919	1.4045967
33.92570085835853	1.877181	1.3701025
33.94402525162239	1.8605859	1.364033
33.96235053923627	1.8876462	1.3739164
33.980676721799824	1.8657384	1.3659203
33.999003799912984	1.9044851	1.3800309
34.01733177417592	1.9609954	1.4003555
34.03566064518901	1.978529	1.4066019
34.0539904135529	1.8667779	1.3663008
34.07232107986846	1.9364152	1.3915514
34.090652644736785	1.8400443	1.3564823
34.108985108759235	1.8106214	1.3455933
34.12731847253742	1.8747174	1.3692032
34.14565273667313	1.938568	1.3923247
34.16398790176847	1.8903787	1.3749105
34.18232396842574	2.017261	1.4203031
34.20066093724749	1.982966	1.4081782
34.21899880883651	1.8745109	1.3691278
34.23733758379583	1.8728222	1.368511
34.25567726272874	1.9593285	1.3997601
34.27401784623872	1.9877005	1.4098583
34.29235933492957	2.0014253	1.4147174
34.31070172940526	1.9663948	1.402282
34.32904503027003	1.9697996	1.4034956
34.347389238128386	1.9689685	1.4031994
34.36573435358502	1.9639577	1.4014127
34.38408037724492	1.9389921	1.392477
34.402427309713296	2.003249	1.4153618
34.42077515159559	1.8918473	1.3754444
34.43912390349752	1.8117143	1.3459994
34.45747356602499	1.9431584	1.3939722
34.47582413978423	2.0869622	1.4446322
34.49417562538163	1.9928892	1.4116973
34.51252802342388	1.932118	1.3900065
34.53088133451789	1.9186358	1.3851483
34.54923555927084	1.8585272	1.3632782
34.567590698290104	1.8266901	1.3515509
34.58594675218336	1.8469824	1.3590373
34.6043037215585	1.7654194	1.3286909
34.62266160702365	1.7334538	1.3166069
34.641020409187234	1.8538824	1.3615735
34.65938012865785	1.9610381	1.4003707
34.677740766044394	1.8955784	1.3768001
34.69610232195598	1.7966446	1.3403897
34.714464797002016	1.9039134	1.3798237
34.73282819179208	2.0096314	1.4176147
34.751192506936064	1.9815205	1.4076649
34.76955774304408	1.8883828	1.3741844
34.7879239007265	1.8606691	1.3640635
34.80629098059391	1.8265972	1.3515166
34.824658983257194	1.8227272	1.3500842
34.843027909327446	1.6817675	1.2968298
34.86139775941603	1.7537794	1.3243034
34.879768534134534	1.8910136	1.3751413
34.89814023409483	2.0108838	1.4180564
34.91651285990901	2.0444787	1.4298527
34.93488641218944	1.8775102	1.3702227
34.95326089154871	1.649678	1.284398
34.97163629859967	1.5896013	1.2607939
34.99001263395542	1.5586795	1.2484709
35.00838989822934	1.5996932	1.2647898
35.02676809203499	1.9343495	1.3908089
35.04514721598624	2.0446372	1.4299082
35.063527270697215	2.0108345	1.418039
35.081908256782256	1.8410307	1.3568459
35.10029017485597	1.6523299	1.2854298
35.11867302553321	1.6480283	1.2837555
35.137056809429104	1.6775278	1.2951941
35.155441527159006	1.7072371	1.3066128
35.173827179338524	1.8588938	1.3634125
35.19221376658354	2.0147743	1.4194275
35.21060128951017	1.8054072	1.3436544
35.2289897487348	1.5613317	1.2495326
35.24737914487405	1.6417663	1.2813143
35.26576947854479	1.7252158	1.3134747
35.28416075036418	1.7850294	1.3360499
35.30255296094958	1.8940623	1.3762493
35.32094611091867	1.8128403	1.3464175
35.33934020088932	1.7388567	1.3186572
35.35773523147969	1.7338238	1.3167474
35.3761312033082	1.8576461	1.362955
35.394528116993506	1.8765528	1.3698733
35.41292597315452	1.5549494	1.2469761
35.431324772410434	1.782919	1.3352599
35.449724515380666	2.2776835	1.5091996
35.46812520268491	2.37148	1.539961
35.486526834943106	2.1058092	1.4511406
35.504929412775454	2.2325304	1.4941654
35.52333293680242	2.3329334	1.5273943
35.54173740764471	2.070907	1.4390646
35.560142825923286	1.5628288	1.2501315
35.5785491922594	1.5068492	1.2275379
35.59695650727454	1.3441783	1.159387
35.61536477159042	1.5075935	1.227841
