0.008763373481513119	0.0	0.0
0.026290120649546365	0.3180582	0.56396645
0.043816868432600686	0.30040255	0.5480899
0.06134361724069026	0.39394215	0.6276481
0.07887036748382949	0.36714196	0.6059224
0.0963971195720331	0.2705288	0.52012384
0.11392387391531617	0.25626874	0.50622994
0.1314506309236943	0.1868019	0.43220586
0.1489773910071836	0.15959053	0.39948782
0.16650415457580078	0.13010918	0.3607065
0.18403092203956356	0.21761224	0.46648926
0.20155769380849	0.19433405	0.44083336
0.2190844702925996	0.16395728	0.40491638
0.2366112519019124	0.12080123	0.34756473
0.2541380390464497	0.14386898	0.37930065
0.27166483213623416	0.20050073	0.44777307
0.28919163158128947	0.15595658	0.39491338
0.3067184377916406	0.16290618	0.40361637
0.324245251177314	0.11599642	0.34058246
0.34177207214833777	0.13417925	0.36630484
0.3592989011147415	0.14699201	0.38339537
0.37682573848655654	0.1233137	0.3511605
0.39435258467381573	0.121709555	0.34886897
0.41187944008655414	0.12980431	0.36028364
0.42940630513480854	0.13671082	0.36974427
0.446933180228618	0.1720183	0.4147509
0.4644600657780234	0.19289888	0.43920255
0.48198696219306775	0.18514416	0.4302838
0.49951386988379676	0.1638191	0.40474573
0.5170407892602581	0.10900357	0.3301569
0.5345677207325025	0.1040041	0.32249665
0.5520946647105822	0.12233106	0.34975857
0.5696216216045534	0.18998176	0.43586898
0.5871485918244737	0.20004728	0.44726646
0.6046755757804043	0.21566242	0.4643947
0.6222025738824094	0.20024383	0.44748613
0.6397295865405557	0.16922632	0.41137126
0.6572566141649129	0.18450657	0.42954227
0.6747836571655547	0.1849547	0.4300636
0.6923107159525568	0.19423012	0.44071546
0.7098377909359992	0.22858289	0.47810343
0.7273648825259653	0.1969141	0.44375005
0.7448919911325411	0.23908286	0.488961
0.762419117165817	0.1874514	0.43295658
0.7799462610358868	0.19086224	0.43687782
0.7974734231528482	0.19688307	0.44371507
0.8150006039268024	0.24639687	0.4963838
0.8325278037678551	0.25867072	0.50859684
0.8500550230861152	0.26574588	0.51550543
0.8675822622916969	0.26990446	0.5195233
0.8851095217947171	0.2576443	0.5075867
0.9026368020052984	0.22872481	0.4782518
0.9201641033335665	0.2237491	0.47302124
0.9376914261896523	0.22894788	0.478485
0.9552187709836915	0.26167953	0.5115462
0.9727461381258234	0.2652065	0.51498204
0.990273528026193	0.25459418	0.5045733
1.0078009410949496	0.24045144	0.49035847
1.0253283777422473	0.22202234	0.47119248
1.0428558383782454	0.26352736	0.5133492
1.0603833234131086	0.3083091	0.5552559
1.0779108332570058	0.34167224	0.5845274
1.0954383683201119	0.34799585	0.5899117
1.112965929012607	0.3569345	0.59743994
1.1304935157446763	0.48794577	0.69853115
1.1480211289265108	0.51143515	0.71514696
1.1655487689683062	1.3600544	1.1662138
1.1830764362802655	1.6408218	1.2809457
1.200604131272596	2.0481715	1.4311434
1.2181318543555117	2.372326	1.5402356
1.235659605939232	2.3868537	1.5449445
1.253187386433982	3.9637108	1.9909071
1.270715196249994	6.26924	2.503845
1.2882430357975057	11.650108	3.4132254
1.3057709054867608	16.302185	4.037596
1.3232988057280106	22.244713	4.71643
1.3408267369315112	27.62942	5.2563696
1.358354699507526	31.301207	5.594748
1.3758826938663256	35.307274	5.9419923
1.3934107204181858	36.722263	6.05989
1.410938779573391	36.79746	6.066091
1.4284668717422309	37.46834	6.121139
1.4459949973350033	37.342567	6.1108565
1.4635231567620117	37.697414	6.139822
1.4810513504335687	37.02283	6.084639
1.4985795787599925	36.238514	6.0198436
1.5161078421516088	35.47884	5.956412
1.5336361410187505	34.57993	5.8804703
1.5511644757717598	34.5763	5.880162
1.5686928468209842	35.596333	5.966266
1.58622125457678	36.211903	6.0176325
1.6037496994495108	37.350544	6.1115093
1.621278181849548	37.105568	6.091434
1.6388067021872719	37.759098	6.144843
1.6563352608730693	37.17026	6.0967417
1.673863858317336	35.86036	5.988352
1.6913924949304753	35.3285	5.943778
1.7089211711228998	34.361393	5.8618593
1.7264498873050296	33.85886	5.8188367
1.7439786438872935	32.885967	5.7346287
1.7615074412801288	31.698929	5.6301804
1.779036279893981	30.927519	5.5612516
1.796565160139305	30.335484	5.507766
1.814094082426564	29.560837	5.436988
1.8316230471662298	29.112926	5.3956394
1.849152054768784	27.995407	5.2910686
1.8666811056447168	27.218979	5.217181
1.8842102002045273	26.272556	5.125676
1.901739338858724	25.482342	5.0480037
1.9192685220178245	25.091291	5.009121
1.9367977500923557	24.645933	4.964467
1.9543270234928547	24.66743	4.966632
1.971856342629867	24.197191	4.919064
1.9893857079139496	23.50464	4.8481584
2.006915119755667	22.79274	4.774174
2.0244445785655945	22.049965	4.695739
2.0419740847543175	21.52021	4.638988
2.0595036387324317	21.132019	4.5969577
2.0770332409105414	20.645584	4.543741
2.094562891699263	20.238615	4.498735
2.1120925915092217	19.709616	4.4395514
2.129622340751053	19.382881	4.4025993
2.1471521398354043	187.52542	13.693993
2.1646819891729323	443.94196	21.069931
2.182211889174303	440.1042	20.97866
2.1997418402501974	452.58664	21.274084
2.2172718428113023	432.50537	20.796764
2.234801897268317	320.62585	17.906029
2.2523320040319548	17.180971	4.1449933
2.269862163512935	16.94414	4.116326
2.287392376121992	16.45407	4.0563617
2.304922642269869	15.992656	3.9990819
2.322452962367322	15.734012	3.966612
2.3399833368251164	15.473565	3.9336452
2.357513766054032	15.307106	3.9124296
2.3750442504648586	15.00256	3.8733137
2.3925747904683963	14.655765	3.8282847
2.410105386475459	14.220282	3.770979
2.4276360388968707	14.054659	3.7489543
2.445166748143469	14.09257	3.7540073
2.4626975146261025	13.79456	3.714103
2.4802283387556323	13.645169	3.6939368
2.4977592209429305	13.236898	3.638255
2.5152901615988825	12.9578085	3.5996957
2.5328211611343865	12.831964	3.582173
2.5503522199603523	12.262541	3.501791
2.5678833384877024	12.09955	3.4784408
2.5854145171273712	11.954685	3.4575548
2.6029457562903064	11.893076	3.448634
2.620477056387469	11.94885	3.4567108
2.6380084178298326	11.824312	3.4386497
2.655539841028383	11.618405	3.4085782
2.673071326394119	11.480724	3.3883219
2.6906028743380523	11.137323	3.3372629
2.708134485271211	11.028073	3.3208542
2.7256661596046325	10.812694	3.288266
2.743197897749369	10.595687	3.2551017
2.760729700116486	10.531137	3.2451713
2.778261567117063	10.221388	3.1970906
2.795793499162193	10.161294	3.1876786
2.8133254966629817	9.883798	3.1438508
2.830857560030551	9.788005	3.1285787
2.8483896896760337	9.557623	3.0915406
2.865921886010578	9.445334	3.0733263
2.883454149445347	9.5195	3.0853686
2.9009864803915177	9.523645	3.0860405
2.91851887926028	9.406671	3.0670297
2.9360513464628384	9.076084	3.012654
2.953583882410413	8.834988	2.9723706
2.9711164875142373	8.738661	2.9561226
2.9886491621855606	8.747118	2.9575527
3.0061819068356455	8.706887	2.9507434
3.023714721875769	8.502232	2.9158587
3.041247607717225	8.315966	2.8837416
3.0587805647713213	8.182279	2.8604681
3.0763135934493806	8.153184	2.8553782
3.0938466941627407	8.198124	2.8632367
3.1113798673227544	8.164566	2.8573704
3.1289131133407904	8.166555	2.8577185
3.1464464326282315	7.99506	2.8275537
3.1639798255964786	7.8347144	2.799056
3.1815132926569443	7.6436987	2.764724
3.1990468342210603	7.541826	2.7462385
3.216580450700272	7.481421	2.7352185
3.2341141425060416	7.4059424	2.7213862
3.251647910049847	7.2783203	2.6978362
3.2691817537431813	7.2378006	2.690316
3.286715673997555	7.2070556	2.684596
3.3042496712244938	7.1858974	2.6806524
3.32178374583554	6.9879336	2.64347
3.339317898242251	6.8839684	2.6237319
3.3568521288562034	6.7500157	2.5980792
3.3743864380889876	6.6854334	2.5856204
3.3919208263522127	6.637183	2.5762732
3.4094552940575023	6.62335	2.573587
3.4269898416164972	6.5982943	2.5687146
3.444524469440858	6.5975676	2.568573
3.4620591779422587	6.522483	2.5539153
3.479593967532391	6.4123487	2.5322616
3.4971288386229658	6.35221	2.520359
3.5146637916257086	6.3271646	2.5153856
3.5321988269523628	6.5234284	2.5541003
3.5497339450146903	6.4922414	2.5479877
3.5672691462244708	6.3815675	2.5261765
3.5848044309934988	6.2171993	2.4934313
3.60233979973359	6.177347	2.485427
3.619875252856575	6.2779007	2.505574
3.6374107907743034	6.2817454	2.506341
3.6549464138986427	6.3716154	2.524206
3.6724821226414788	6.4734244	2.5442924
3.690017917414714	6.417865	2.5333505
3.7075537986302702	6.306958	2.511366
3.7250897667000857	6.1631627	2.4825718
3.7426258220361235	6.28028	2.5060487
3.7601619650503553	6.5686717	2.562942
3.777698196154779	7.094596	2.6635683
3.7952345157614067	8.285687	2.878487
3.8127709242822716	9.169587	3.0281327
3.830307422129425	11.217689	3.3492818
3.847844009714936	12.570205	3.5454485
3.8653806874508954	15.922127	3.990254
3.882917455749409	15.406384	3.9250968
3.900454315022606	15.442012	3.9296324
3.917991265682631	12.33181	3.5116677
3.9355283081416506	10.530947	3.245142
3.9530654428118495	8.6711445	2.9446807
3.970602670105433	7.4469967	2.7289186
3.9881399904346244	6.5701766	2.5632355
4.005677404211669	6.4422646	2.5381618
4.023214911848827	6.419908	2.5337536
4.0407525137583855	6.3875647	2.5273633
4.058290210352644	6.3686256	2.5236137
4.075828002043927	6.3092175	2.5118155
4.0933658892445814	6.175433	2.4850419
4.110903872366966	6.1031375	2.4704528
4.128441951823468	6.031912	2.455995
4.145980128026488	6.0533667	2.460359
4.163518401388452	6.050216	2.4597187
4.181056772321807	6.0640545	2.4625301
4.1985952412390155	6.003552	2.4502146
4.216133808552567	6.1326385	2.4764163
4.233672474674966	6.2715793	2.504312
4.251211240018741	6.56222	2.5616832
4.268750104996445	6.8592544	2.6190178
4.286289070020643	7.778212	2.7889447
4.303828135503928	9.562339	3.0923033
4.3213673018589125	29.75618	5.4549227
4.3389065694982305	90.84589	9.531311
4.356445938834537	165.91202	12.880684
4.3739854102805085	171.48602	13.095267
4.391524984248844	172.33315	13.127572
4.409064661152262	136.55363	11.6856165
4.426604441403504	96.98091	9.847889
4.444144325415337	76.05413	8.7209015
4.461684313600543	21.911879	4.6810126
4.47922440637193	22.163237	4.7077847
4.496764604142329	20.458055	4.5230584
4.5143049073245916	18.755821	4.330799
4.531845316331589	16.57475	4.07121
4.5493858315762195	13.584348	3.685695
4.566926453471405	11.173887	3.3427365
4.584467182430081	9.001482	3.000247
4.602008018865218	7.957161	2.820844
4.619548963189798	7.253705	2.6932702
4.637090015816834	6.874337	2.6218958
4.654631177159353	6.642539	2.5773125
4.672172447630417	6.4125824	2.5323076
4.689713827643102	6.303391	2.5106554
4.7072553176105085	6.123614	2.4745936
4.724796917945764	6.0076017	2.451041
4.742338629062015	5.788831	2.405999
4.759880451372434	5.646447	2.3762255
4.777422385290215	5.6093245	2.3684013
4.794964431228581	5.58338	2.3629177
4.812506589600768	5.6100516	2.3685548
4.830048860820047	5.5703545	2.3601599
4.847591245299709	5.568343	2.3597338
4.8651337434530655	5.5542865	2.3567533
4.882676355693457	5.5092006	2.3471687
4.900219082434242	5.5110292	2.3475583
4.917761924088813	5.5013824	2.3455026
4.935304881070575	5.5230265	2.350112
4.952847953792969	5.4566236	2.3359418
4.970391142669449	5.462195	2.337134
4.9879344481135055	5.4333706	2.330959
5.005477870538642	5.4213295	2.3283749
5.023021410358394	5.3887687	2.3213723
5.040565067986324	5.387335	2.3210633
5.05810884383601	5.3405795	2.3109694
5.075652738321066	5.382002	2.319914
5.09319675185512	5.3829274	2.3201137
5.110740884851836	5.4247437	2.329108
5.128285137724894	5.3300843	2.3086975
5.145829510888007	5.284166	2.2987313
5.163374004754908	5.2883506	2.2996414
5.1809186197393595	5.281014	2.2980456
5.198463356255145	5.290967	2.3002102
5.216008214716077	5.3148174	2.3053887
5.233553195535998	5.2941117	2.3008938
5.251098299128764	5.291045	2.3002272
5.268643525908272	5.2282524	2.2865372
5.286188876288432	5.1606717	2.271711
5.3037343506831895	5.1166587	2.2620032
5.32127994950651	5.0821342	2.254359
5.3388256731723915	5.166607	2.2730172
5.356371522094851	5.228084	2.2865005
5.373917496687938	5.314674	2.3053577
5.391463597365729	5.328772	2.3084133
5.40900982454232	5.2482285	2.2909012
5.426556178631843	5.238567	2.2887917
5.444102660048449	5.190574	2.278283
5.4616492692063225	5.1678233	2.2732847
5.479196006519669	5.2073665	2.2819655
5.496742872402727	5.246669	2.2905607
5.514289867269756	5.241387	2.2894075
5.531836991535049	5.1687055	2.2734787
5.549384245612924	5.1690426	2.273553
5.566931629917724	5.1193266	2.2625928
5.584479144863822	5.135597	2.2661855
5.6020267908656205	5.0742545	2.2526107
5.619574568337545	5.0122294	2.238801
5.637122477694054	4.9821186	2.232066
5.654670519349629	4.941164	2.222873
5.672218693718784	5.024298	2.2414947
5.689767001216059	5.112406	2.2610629
5.707315442256021	5.165216	2.272711
5.724864017253266	5.1454983	2.268369
5.7424127266224225	5.09346	2.2568696
5.75996157077814	5.0583124	2.2490692
5.777510550135105	5.0545564	2.248234
5.795059665108022	5.078266	2.253501
5.812608916111639	5.161295	2.2718484
5.830158303560715	5.3338647	2.3095162
5.847707827870055	5.396008	2.3229308
5.86525748945448	5.4646535	2.3376598
5.8828072887288485	5.484795	2.341964
5.900357226108044	5.520476	2.3495693
5.917907302006979	5.5133185	2.3480456
5.9354575168406	6.1124125	2.4723294
5.9530078710238765	6.7002354	2.5884812
5.970558364971812	7.342749	2.7097507
5.988108999099438	7.701089	2.7750835
6.005659773821818	8.268617	2.8755202
6.023210689554039	8.08824	2.8439832
6.040761746711227	8.485051	2.9129112
6.058312945708531	7.802234	2.793248
6.075864286961132	7.308143	2.7033577
6.093415770884244	6.642023	2.5772123
6.1109673978931065	6.2050276	2.4909892
6.128519168402993	5.6233363	2.3713574
6.146071082829204	5.412132	2.3263988
6.163623141587075	5.1957765	2.2794247
6.181175345091969	5.1049767	2.2594194
6.198727693759281	5.082204	2.2543743
6.216280188004435	5.069792	2.2516198
6.233832828242885	5.0622616	2.249947
6.251385614890126	5.043638	2.2458045
6.268938548361669	5.121917	2.2631652
6.286491629073067	5.167218	2.2731516
6.304044857439898	5.149363	2.2692208
6.321598233877777	5.038021	2.2445536
6.339151758802344	4.903275	2.214334
6.356705432629277	4.8858767	2.210402
6.37425925577428	4.9599075	2.2270849
6.391813228653095	4.9662266	2.2285032
6.409367351681486	5.0152736	2.2394807
6.426921625275259	4.977385	2.2310054
6.44447604985025	4.985175	2.2327507
6.46203062582232	5.0263844	2.24196
6.47958535360737	5.028128	2.242349
6.497140233621328	4.966208	2.228499
6.514695266280161	4.9718757	2.2297704
6.532250451999859	4.921002	2.2183332
6.549805791196454	4.9795628	2.2314935
6.567361284286002	4.971801	2.2297535
6.584916931684597	4.9770455	2.2309294
6.602472733808367	4.9888935	2.2335832
6.6200286910734665	4.978646	2.231288
6.637584803896092	4.911178	2.2161179
6.655141072692462	4.904146	2.2145307
6.672697497878842	4.8790545	2.2088583
6.690254079871514	4.881118	2.2093253
6.707810819086808	4.898568	2.213271
6.725367715941078	4.8929048	2.211991
6.742924770850719	4.8849616	2.2101948
6.760481984232151	4.8957767	2.2126403
6.778039356501836	4.8871493	2.2106898
6.795596888076266	5.006975	2.237627
6.813154579371963	5.0302544	2.242823
6.830712430805492	5.1106753	2.2606802
6.84827044279344	5.0742097	2.2526007
6.865828615752445	5.0728335	2.2522953
6.883386950099159	5.0397773	2.2449448
6.900945446250287	5.001819	2.2364748
6.918504104622553	4.9992146	2.2358923
6.936062925632727	4.9562826	2.226271
6.953621909697607	4.993809	2.2346833
6.971181057234028	5.001723	2.2364533
6.988740368658859	5.071846	2.252076
7.006299844389007	5.197342	2.279768
7.023859484841407	5.2998867	2.3021483
7.041419290433036	5.368241	2.3169465
7.058979261580902	5.458968	2.3364434
7.0765393987020495	5.6157174	2.3697505
7.094099702213559	6.0205617	2.4536834
7.111660172532549	6.4062834	2.5310638
7.129220810076164	6.7791014	2.6036708
7.146781615261595	7.305455	2.7028606
7.16434258850606	7.50073	2.7387462
7.181903730226821	7.893806	2.8095918
7.1994650408411704	8.070541	2.84087
7.217026520766437	8.257818	2.873642
7.234588170419983	8.515243	2.918089
7.252149990219215	8.470647	2.9104376
7.269711980581568	8.319179	2.8842986
7.2872741419245175	8.140156	2.8530958
7.304836474665574	7.8015685	2.7931287
7.322398979222286	7.529689	2.7440279
7.339961656012233	7.240451	2.6908085
7.357524505453039	6.850868	2.6174164
7.375087527962357	6.4986296	2.549241
7.392650723957886	6.1482167	2.47956
7.410214093857353	5.8084803	2.410079
7.427777638078528	5.630273	2.3728197
7.445341357039213	5.525232	2.3505812
7.4629052511572525	5.3970485	2.323155
7.480469320850524	5.290811	2.3001764
7.498033566536948	5.223111	2.2854128
7.5155979886344735	5.193963	2.2790267
7.5331625875610975	5.134197	2.2658768
7.550727363734844	5.0299006	2.242744
7.568292317573788	5.015646	2.2395637
7.585857449496025	5.0068793	2.2376058
7.603422759919705	5.0865498	2.255338
7.620988249263007	5.1288548	2.2646976
7.638553917944147	5.1390047	2.2669373
7.656119766381391	5.1861734	2.277317
7.673685794993023	5.188398	2.2778056
7.691252004197388	5.164046	2.2724538
7.70881839441285	5.131716	2.2653291
7.726384966057826	5.12119	2.2630045
7.743951719550762	5.195374	2.2793362
7.761518655310149	5.2221346	2.285199
7.779085773754511	5.2541084	2.292184
7.796653075302419	5.2740326	2.2965262
7.814220560372475	5.279876	2.2977982
7.831788229383323	5.2814755	2.298146
7.8493560827536495	5.3272257	2.3080783
7.866924120902174	5.343954	2.3116994
7.884492344247663	5.368716	2.317049
7.9020607532089135	5.381625	2.319833
7.919629348204771	5.3051276	2.3032863
7.937198129654115	5.2463145	2.2904835
7.954767097975865	5.2322993	2.287422
7.972336253588986	5.3155828	2.3055549
7.989905596912472	5.4037185	2.32459
8.007475128365371	5.4335566	2.3309991
8.025044848366756	5.508772	2.3470774
8.042614757335754	5.6374	2.374321
8.060184855691523	5.718063	2.391247
8.07775514385327	5.8564477	2.4200099
8.095325622240228	5.8874593	2.4264088
8.112896291271687	5.9173	2.4325502
8.130467151366968	5.9292574	2.4350066
8.148038202945436	5.901812	2.4293644
8.165609446426497	5.8786035	2.4245832
8.183180882229594	5.9669394	2.4427319
8.200752510774217	6.001556	2.4498074
8.218324332479893	6.0716944	2.4640808
8.235896347766193	6.0595207	2.4616094
8.253468557052724	5.9947906	2.4484262
8.27104096075914	5.931414	2.4354494
8.288613559305137	5.9484954	2.4389536
8.306186353110448	6.0235386	2.45429
8.32375934259485	6.1208463	2.4740343
8.341332528178162	6.1860433	2.4871757
8.358905910280246	6.21366	2.4927213
8.376479489321003	6.250412	2.5000825
8.394053265720377	6.3044076	2.510858
8.411627239898356	6.3010287	2.510185
8.42920141227497	6.2227883	2.4945517
8.44677578327029	6.153482	2.4806213
8.464350353304427	6.107268	2.4712887
8.48192512279754	6.1236415	2.4745994
8.499500092169827	6.142583	2.4784234
8.51707526184153	6.097768	2.4693658
8.534650632232934	6.112891	2.4724262
8.552226203764365	6.1338086	2.4766526
8.569801976856192	6.1880827	2.4875858
8.587377951928834	6.164864	2.4829144
8.60495412940274	6.1646023	2.4828618
8.622530509698416	6.242186	2.4984367
8.6401070932364	6.424409	2.5346417
8.657683880437283	6.5774336	2.5646508
8.675260871721695	6.692961	2.5870757
8.692838067510303	6.7945924	2.606644
8.710415468223834	6.9404926	2.6344814
8.727993074283043	7.112831	2.666989
8.745570886108737	7.1747913	2.67858
8.763148904121765	7.1289654	2.6700122
8.78072712874302	7.0893903	2.662591
8.798305560393441	7.2957697	2.7010682
8.815884199494006	7.515861	2.741507
8.833463046465745	7.798113	2.79251
8.851042101729728	7.94828	2.8192694
8.86862136570707	8.237172	2.8700473
8.886200838818924	8.357469	2.8909287
8.903780521486505	8.346084	2.888959
8.921360414131055	8.478365	2.9117632
8.938940517173874	8.677922	2.9458313
8.956520831036297	8.918236	2.9863415
8.97410135613971	9.136299	3.0226312
8.99168209290554	9.183237	3.0303857
9.009263041755265	9.3764105	3.0620925
9.026844203110405	9.5392475	3.0885673
9.044425577392525	9.72804	3.1189806
9.062007165023239	9.894497	3.145552
9.079588966424197	10.153551	3.1864638
9.097170982017108	10.225233	3.197692
9.11475321222372	11.167294	3.3417501
9.132335657465825	12.107802	3.4796267
9.149918318165264	12.284376	3.5049074
9.167501194743924	12.894125	3.5908391
9.18508428762374	12.618673	3.552277
9.202667597226693	12.611539	3.5512729
9.220251123974803	12.266004	3.5022855
9.237834868290143	11.852985	3.4428165
9.255418830594836	11.559993	3.399999
9.273003011311046	11.008174	3.3178568
9.290587410860985	10.832942	3.2913435
9.308172029666911	10.284472	3.2069414
9.32575686815113	10.066708	3.1728075
9.343341926735997	8.816739	2.9692993
9.360927205843916	8.539003	2.9221573
9.378512705897327	8.302667	2.881435
9.396098427318728	8.068741	2.8405528
9.413684370530664	7.94892	2.819383
9.431270535955722	7.843464	2.8006184
9.448856924016539	7.792527	2.7915099
9.466443535135806	7.7000856	2.7749028
9.484030369736251	7.7684298	2.7871902
9.501617428240658	7.835864	2.7992613
9.519204711071852	7.8006268	2.7929602
9.536792218652714	7.7866955	2.790465
9.55437995140617	7.739433	2.7819836
9.571967909755191	7.8029013	2.7933674
9.589556094122802	7.85771	2.8031607
9.60714450493207	7.90963	2.8124063
9.624733142606116	7.977489	2.824445
9.642322007568108	7.9946585	2.8274827
9.659911100241267	8.009308	2.8300722
9.677500421048851	8.030219	2.833764
9.695089970414175	8.111968	2.8481517
9.712679748760609	8.19699	2.8630385
9.730269756511557	8.212366	2.8657227
9.747859994090492	8.219568	2.866979
9.765450461920915	8.1917095	2.8621163
9.78304116042639	8.308948	2.8825245
9.800632090030527	8.383957	2.8955064
9.81822325115699	8.379914	2.894808
9.835814644229481	8.333977	2.8868628
9.853406269671762	8.360543	2.8914604
9.870998127907646	8.373275	2.8936613
9.888590219360985	8.382511	2.8952568
9.906182544455698	8.274714	2.8765802
9.923775103615734	8.249087	2.8721225
9.941367897265108	8.298054	2.8806343
9.958960925827878	8.304969	2.8818343
9.97655418972816	8.288818	2.8790307
9.994147689390106	8.26339	2.8746111
10.011741425237934	8.228119	2.8684697
10.029335397695904	8.2135105	2.8659222
10.04692960718833	8.254016	2.8729804
10.06452405413958	8.24528	2.8714597
10.082118738974064	8.209525	2.865227
10.099713662116246	8.234091	2.8695107
10.117308823990651	8.214175	2.8660383
10.134904225021844	8.261409	2.8742666
10.152499865634445	8.20423	2.8643029
10.170095746253125	8.253964	2.8729713
10.18769186730261	8.223193	2.8676112
10.205288229207675	8.268737	2.8755412
10.222884832393145	8.195262	2.8627367
10.2404816772839	8.126132	2.8506372
10.258078764304868	8.118128	2.849233
10.275676093881035	8.179395	2.8599641
10.293273666437438	8.199289	2.86344
10.310871482399158	8.209385	2.8652024
10.32846954219134	8.173747	2.8589766
10.346067846239173	8.211288	2.8655345
10.363666394967908	8.204953	2.864429
10.38126518880283	8.082013	2.842888
10.398864228169298	8.146209	2.8541565
10.416463513492713	8.182392	2.8604882
10.434063045198531	8.145108	2.8539636
10.451662823712262	8.157011	2.856048
10.469262849459467	8.12056	2.8496597
10.486863122865758	8.081797	2.8428502
10.504463644356806	8.101351	2.8462873
10.522064414358338	8.011588	2.8304749
10.539665433296118	7.9083056	2.812171
10.557266701595987	7.8254814	2.7974062
10.574868219683818	7.731219	2.7805068
10.592469987985552	7.661344	2.7679133
10.610072006927185	7.5773983	2.7527075
10.627674276934751	7.4996805	2.7385545
10.64527679843435	7.401764	2.7206182
10.662879571852143	7.3681087	2.714426
10.680482597614331	7.2182403	2.6866784
10.698085876147173	7.1226044	2.6688209
10.715689407876988	7.015352	2.648651
10.733293193230146	6.8791676	2.6228168
10.750897232633072	6.727325	2.5937088
10.76850152651225	6.6874127	2.5860033
10.786106075294207	6.6621647	2.581117
10.803710879405534	6.5980687	2.5686705
10.821315939272877	6.4994507	2.549402
10.83892125532294	6.376735	2.52522
10.856526827982472	6.2797523	2.5059433
10.874132657678285	6.2240076	2.494796
10.891738744837243	6.2285776	2.4957118
10.909345089886271	6.139374	2.477776
10.926951693252343	6.056062	2.4609067
10.944558555362494	5.942797	2.4377854
10.96216567664381	5.898756	2.4287355
10.979773057523436	5.8841605	2.4257288
10.997380698428573	5.819116	2.4122844
11.014988599786477	5.7642617	2.4008877
11.032596762024461	5.673033	2.381813
11.050205185569892	5.6222005	2.371118
11.067813870850198	5.588001	2.3638952
11.085422818292859	5.5388246	2.3534708
11.10303202832541	5.4848814	2.3419824
11.120641501375454	5.4087014	2.3256614
11.138251237870636	5.3545737	2.3139951
11.155861238238671	5.310514	2.3044553
11.173471502907317	5.20025	2.2804058
11.191082032304402	5.092352	2.256624
11.208692826857805	5.0163856	2.239729
11.226303886995465	4.9783974	2.2312322
11.243915213145371	4.9708023	2.2295296
11.261526805735578	4.9988666	2.2358146
11.279138665194196	4.9913287	2.2341282
11.296750791949393	4.9439564	2.223501
11.314363186429393	4.828975	2.1974928
11.331975849062479	4.7298613	2.1748245
11.34958878027699	4.6609936	2.1589334
11.36720198050133	4.64088	2.1542702
11.384815450163948	4.6279483	2.1512666
11.402429189693366	4.571347	2.1380708
11.420043199518153	4.4559164	2.1109042
11.437657480066942	63.403347	7.9626217
11.455272031768422	85.171814	9.228858
11.472886855051353	107.6031	10.373192
11.490501950344528	99.20084	9.959962
11.508117318076819	84.492874	9.192
11.52573295867715	45.82218	6.7692084
11.543348872574514	4.07281	2.0181205
11.560965060197946	4.042502	2.0105975
11.57858152197655	4.0668464	2.0166423
11.59619825833949	4.049358	2.0123017
11.613815269715985	4.0142407	2.003557
11.631432556535323	38.51361	6.2059336
11.649050119226837	83.01657	9.111343
11.666667958219929	93.399635	9.664349
11.68428607394406	107.60841	10.373447
11.701904466828756	82.43072	9.079137
11.719523137303586	65.2835	8.079821
11.737142085798196	4.510261	2.1237376
11.754761312742286	3.655459	1.9119254
11.772380818565619	3.6221974	1.9032072
11.790000603698015	3.6412137	1.9081964
11.80762066856935	3.644391	1.9090288
11.825241013609572	3.5934305	1.8956347
11.842861639248683	3.5766468	1.8912024
11.860482545916748	3.5204875	1.8762963
11.878103734043883	3.4664433	1.8618387
11.895725204060282	3.4081144	1.846108
11.91334695639619	3.359417	1.8328712
11.930968991481919	3.357164	1.8322566
11.948591309747824	3.3505766	1.830458
11.966213911624347	3.3508985	1.8305459
11.98383679754198	3.3209224	1.8223398
12.001459967931268	3.280141	1.811116
12.019083423222835	3.233608	1.7982236
12.036707163847352	3.1672733	1.7796835
12.05433119023556	3.1857362	1.7848631
12.071955502818259	3.1947339	1.7873819
12.089580102026313	3.2226021	1.7951608
12.107204988290643	3.1763964	1.7822448
12.12483016204224	3.1538813	1.775917
12.142455623712152	3.1016514	1.7611506
12.16008137373149	3.0900426	1.7578517
12.177707412531431	3.0803065	1.7550802
12.19533374054321	3.0796428	1.7548912
12.212960358198126	3.0440016	1.7447067
12.230587265927545	3.0239687	1.7389562
12.248214464162889	2.9627573	1.7212662
12.265841953335649	2.9788945	1.7259474
12.283469733877375	2.9446342	1.7159936
12.301097806219685	2.9283977	1.7112561
12.31872617079425	2.9124024	1.7065762
12.336354828032825	2.8975773	1.7022271
12.353983778367205	2.9017928	1.703465
12.371613022229262	2.9205081	1.7089494
12.389242560050928	2.920781	1.7090292
12.406872392264201	2.8898475	1.6999551
12.424502519301143	2.8568692	1.6902275
12.442132941593874	2.8342445	1.6835215
12.459763659574586	2.8319714	1.6828462
12.477394673675532	2.8337555	1.6833762
12.49502598432903	2.83589	1.6840101
12.51265759196746	2.8450913	1.6867398
12.530289497023267	2.8468227	1.687253
12.547921699928967	2.8066769	1.675314
12.565554201117134	2.8007917	1.6735566
12.583187001020404	2.7933075	1.6713191
12.600820100071486	2.7995732	1.6731925
12.618453498703152	2.8070095	1.6754133
12.636087197348235	2.792029	1.6709366
12.65372119643964	2.7798145	1.6672776
12.671355496410326	2.7717872	1.6648685
12.68899009769333	2.816078	1.6781174
12.706625000721749	2.8710506	1.6944175
12.724260205928752	2.926063	1.7105739
12.741895713747551	2.9314544	1.712149
12.759531524611454	2.9532819	1.7185116
12.777167638953818	2.9665053	1.7223545
12.794804057208072	2.9871957	1.7283506
12.812440779807702	3.0588915	1.7489687
12.830077807186271	3.2530675	1.8036262
12.847715139777405	3.28357	1.8120624
12.865352778014795	3.4559321	1.8590138
12.882990722332197	3.5468752	1.883315
12.90062897316344	3.6075804	1.8993632
12.918267530942412	3.672004	1.9162474
12.935906396103071	3.5316854	1.8792778
12.953545569079449	3.6839762	1.9193687
12.971185050305628	3.5327237	1.8795542
12.988824840215775	3.5462432	1.8831471
13.006464939244115	3.570281	1.8895187
13.024105347824943	3.4411547	1.855035
13.041746066392617	3.5484877	1.883743
13.05938709538157	3.3696425	1.8356586
13.077028435226296	3.3559103	1.8319144
13.094670086361363	3.2428846	1.8008012
13.112312049221401	3.172496	1.7811502
13.129954324241112	3.0925343	1.7585603
13.147596911855258	2.892146	1.7006311
13.165239812498685	2.8336728	1.6833516
13.182883026606293	2.783728	1.6684507
13.200526554613058	2.740022	1.6553012
13.218170396954017	2.7569678	1.660412
13.235814554064284	2.7420115	1.655902
13.253459026379034	2.7340782	1.6535048
13.271103814333523	2.716407	1.6481526
13.288748918363058	2.699976	1.6431603
13.306394338903031	2.6910315	1.6404364
13.32404007638889	2.6935198	1.6411946
13.341686131256164	2.709413	1.6460295
13.359332503940449	2.6903756	1.6402364
13.376979194877402	2.6444156	1.6261659
13.394626204502751	2.675451	1.6356806
13.412273533252307	2.7234704	1.6502941
13.429921181561937	2.7344332	1.6536121
13.447569149867581	2.6909463	1.6404104
13.465217438605247	2.658637	1.6305327
13.482866048211022	2.6678975	1.6333699
13.500514979121052	2.7254226	1.6508855
13.518164231771568	2.7295525	1.6521357
13.535813806598844	2.6749794	1.6355364
13.553463704039254	2.642431	1.6255556
13.571113924529229	2.6557662	1.6296521
13.588764468505275	2.6882517	1.6395888
13.606415336403956	2.7090008	1.6459043
13.624066528661917	2.7158823	1.6479934
13.641718045715882	2.7770934	1.6664613
13.659369888002635	2.8278625	1.681625
13.67702205595903	2.8955324	1.7016264
13.694674550021993	2.9777644	1.72562
13.712327370628532	3.0430665	1.7444388
13.729980518215713	3.1205647	1.766512
13.747633993220681	3.1554317	1.7763535
13.765287796080647	3.1776133	1.7825861
13.7829419272329	3.2323983	1.7978872
13.800596387114801	3.2704856	1.8084484
13.818251176163775	3.3550804	1.8316878
13.835906294817324	3.4338129	1.853055
13.853561743513023	3.466722	1.8619136
13.871217522688525	3.46718	1.8620365
13.888873632781538	3.4787536	1.8651417
13.906530074229858	3.4956238	1.8696587
13.92418684747135	3.5079923	1.8729635
13.941843952943948	3.478042	1.8649509
13.959501391085665	3.4519374	1.857939
13.977159162334578	3.4008188	1.8441309
13.994817267128846	3.364737	1.834322
14.012475705906693	3.2742815	1.8094976
14.030134479106424	3.1971552	1.7880591
14.047793587166414	3.0967677	1.7597635
14.065453030525108	3.018605	1.7374133
14.083112809621026	2.9936767	1.7302245
14.100772924892766	2.9561117	1.7193346
14.118433376778997	2.9615772	1.7209233
14.136094165718458	2.8949628	1.701459
14.153755292149969	2.8541503	1.6894231
14.171416756512416	2.762211	1.66199
14.189078559244768	2.6826637	1.6378839
14.20674070078606	2.5841787	1.6075381
14.224403181575408	2.5404234	1.5938705
14.242066002051999	2.5015926	1.5816424
14.259729162655093	2.447209	1.5643557
14.277392663824022	2.4288192	1.5584669
14.295056505998208	2.42798	1.5581976
14.312720689617128	2.4466383	1.5641733
14.330385215120348	2.4343514	1.5602409
14.348050082947497	2.4433138	1.5631104
14.3657152935383	2.4330032	1.5598087
14.383380847332528	2.428289	1.5582968
14.401046744770051	2.3916304	1.5464897
14.418712986290798	2.3630133	1.5372096
14.436379572334793	2.362836	1.5371519
14.454046503342123	2.399324	1.5489751
14.471713779752946	2.4080784	1.5517985
14.489381402007504	2.4212282	1.5560296
14.507049370546113	2.4350302	1.5604583
14.524717685809168	2.4285133	1.5583688
14.542386348237134	2.4473176	1.5643905
14.560055358270553	2.4324324	1.5596257
14.577724716350051	2.426353	1.5576755
14.595394422916325	2.4163232	1.5544527
14.61306447841015	2.4665062	1.5705115
14.63073488327237	2.4924903	1.5787623
14.648405637943917	2.5283191	1.5900689
14.6660767428658	2.5209725	1.5877571
14.683748198479094	2.5248973	1.5889926
14.701420005224954	2.5501456	1.5969175
14.719092163544628	2.6240685	1.6198977
14.73676467387942	2.658178	1.630392
14.754437536670727	2.6937604	1.6412679
14.772110752360014	2.6587656	1.6305722
14.78978432138882	2.6391077	1.624533
14.807458244198777	2.6276813	1.6210124
14.82513252123159	2.6098354	1.6154985
14.842807152929028	2.6359668	1.623566
14.860482139732962	2.648859	1.6275315
14.87815748208531	2.6359944	1.6235746
14.8958331804281	2.6447346	1.626264
14.91350923520342	2.6025226	1.6132336
14.931185646853438	2.6146805	1.6169974
14.948862415820408	2.6447368	1.6262647
14.966539542546656	2.6881874	1.6395693
14.98421702747459	2.658128	1.6303767
15.001894871046696	2.6674464	1.6332319
15.019573073705542	2.7009168	1.6434466
15.037251635893766	2.7270033	1.6513641
15.054930558054092	2.7118506	1.6467698
15.072609840629323	2.678448	1.6365964
15.090289484062351	2.7612543	1.6617023
15.107969488796124	2.9404037	1.7147605
15.125649855273691	3.1538389	1.7759051
15.14333058393817	3.5012906	1.8711736
15.161011675232768	4.0432925	2.010794
15.17869312960076	4.6967177	2.1671913
15.196374947485506	5.3947196	2.3226535
15.214057129330447	6.8035893	2.608369
15.231739675579114	8.952196	2.992022
15.249422586675102	13.665105	3.6966343
15.267105863062092	18.171883	4.2628493
15.284789505183847	25.392593	5.0391064
15.302473513484218	30.37043	5.510937
15.320157888407127	34.611023	5.8831134
15.337842630396578	33.412575	5.780361
15.355527739896656	30.486876	5.521492
15.37321321735153	23.724354	4.870765
15.39089906320545	16.132671	4.0165496
15.408585277902748	10.255717	3.2024548
15.42627186188783	6.2950335	2.5089905
15.443958815605198	4.5272765	2.1277397
15.461646139499424	3.7618356	1.9395452
15.479333834015168	3.36519	1.8344455
15.497021899597165	3.0895798	1.7577201
15.514710336690234	2.858133	1.6906013
15.53239914573928	2.7135704	1.6472918
15.550088327189297	2.57439	1.6044905
15.567777881485336	2.5661042	1.6019064
15.58546780907256	2.55992	1.599975
15.6031581103962	2.5754242	1.6048129
15.620848785901568	2.5790057	1.6059283
15.638539836034063	2.5549698	1.5984273
15.656231261239173	2.4891663	1.5777092
15.673923061962451	2.4502513	1.5653279
15.691615238649552	2.4377713	1.5613364
15.709307791746202	2.4387176	1.5616394
15.727000721698221	2.3969772	1.5482174
15.744694028951498	2.3929539	1.5469176
15.76238771395202	2.3608744	1.5365137
15.780081777145844	2.38912	1.5456779
15.797776218979125	2.408127	1.5518141
15.815471039898094	2.3995676	1.5490538
15.833166240349064	2.3855953	1.5445373
15.850861820778437	2.3869898	1.5449886
15.868557781632699	2.3619542	1.5368651
15.886254123358412	2.3888795	1.5456
15.903950846402232	2.422122	1.5563169
15.921647951210897	2.4656837	1.5702496
15.939345438231225	2.5027447	1.5820066
15.957043307910133	2.5421426	1.5944098
15.974741560694602	2.5648897	1.6015273
15.992440197031714	2.548756	1.5964824
16.01013921736862	2.5647223	1.601475
16.02783862215259	2.5238864	1.5886744
16.045538411830933	2.4861777	1.5767617
16.06323858685107	2.4604943	1.5685962
16.080939147660512	2.4653308	1.5701373
16.09864009470684	2.432129	1.5595285
16.11634142843774	2.4183252	1.5550965
16.134043149300954	2.4105372	1.5525905
16.15174525774433	2.423217	1.5566685
16.169447754215817	2.4612062	1.5688232
16.18715063916342	2.5170703	1.5865277
16.204853913035244	2.508717	1.5838931
16.222557576279478	2.469391	1.5714296
16.240261629344403	22.391682	4.731985
16.257966072678386	42.917625	6.5511546
16.275670906729868	38.073994	6.1704125
16.293376131947387	2.5471842	1.5959901
16.31108174877957	2.5444245	1.5951252
16.328787757675133	2.566352	1.6019838
16.34649415908287	2.5787063	1.6058351
16.364200953451657	2.64153	1.6252785
16.38190814123048	2.6798985	1.6370395
16.39961572286839	2.6925755	1.6409069
16.41732369881455	2.6686625	1.6336042
16.43503206951817	2.7004488	1.6433042
16.45274083542859	2.7702756	1.6644145
16.47044999699522	2.8126256	1.6770885
16.488159554667558	2.8443723	1.6865267
16.505869508895184	2.8460677	1.6870292
16.523579860127786	2.9230816	1.7097023
16.541290608815117	3.0266778	1.739735
16.559001755407035	3.1401162	1.7720373
16.57671330035348	3.2046025	1.7901404
16.59442524410448	3.2616677	1.8060088
16.61213758711015	3.4520352	1.8579654
16.629850329820705	3.5030997	1.8716569
16.647563472686436	3.5266209	1.8779299
16.665277016157724	3.4570959	1.8593267
16.682990960685053	3.491589	1.8685794
16.70070530671898	3.5234363	1.8770819
16.718420054710155	3.5596957	1.8867155
16.736135205109335	3.5889504	1.8944526
16.753850758367335	3.6126702	1.9007026
16.771566714935087	3.6473403	1.9098011
16.789283075263597	3.6959236	1.9224784
16.80699983980398	3.7987025	1.949026
16.82471700900741	3.8674357	1.9665797
16.84243458332518	3.9311683	1.9827174
16.860152563208665	3.9757879	1.9939377
16.87787094910932	4.0845757	2.0210333
16.89558974147871	4.1487646	2.0368516
16.913308940768466	4.187276	2.0462835
16.931028547430333	4.2285767	2.0563502
16.94874856191613	4.31275	2.0767162
16.966468984677785	4.394409	2.0962846
16.98418981616729	4.422445	2.102961
17.00191105683676	4.422646	2.1030087
17.019632707138374	4.4316134	2.1051397
17.03735476752442	4.4462214	2.1086066
17.05507723844728	4.5084305	2.1233065
17.072800120359403	4.5516024	2.1334484
17.090523413713353	4.6312346	2.1520305
17.108247118961785	4.7289815	2.174622
17.125971236557437	4.7693133	2.1838758
17.143695766953133	4.7492886	2.1792862
17.161420710601806	4.6975913	2.1673927
17.179146067956477	4.6694756	2.160897
17.19687183947025	4.6381893	2.1536455
17.21459802559634	4.6373067	2.1534407
17.232324626788028	4.6393466	2.1539142
17.25005164349871	4.642255	2.1545892
17.267779076181863	4.5729575	2.1384475
17.285506925291074	4.55697	2.134706
17.30323519127999	4.586437	2.1415968
17.320963874602384	4.5738974	2.138667
17.33869297571211	4.5357037	2.1297193
17.356422495063114	4.5066123	2.1228783
17.37415243310944	4.540246	2.1307852
17.391882790305218	4.5733542	2.1385403
17.40961356710468	4.5936823	2.1432877
17.42734476396215	4.5828447	2.140758
17.445076381332044	4.61464	2.1481714
17.462808419668868	4.7256904	2.1738653
17.48054087942723	4.7869844	2.187918
17.498273761061835	4.8733544	2.2075675
17.51600706502747	5.1263638	2.2641475
17.533740791779024	5.7140236	2.3904023
17.551474941771485	6.691128	2.5867214
17.56920951545993	8.734014	2.9553366
17.586944513299528	10.045942	3.1695335
17.60467993574556	13.021727	3.608563
17.622415783253373	15.669594	3.9584837
17.64015205627843	18.478537	4.298667
17.657888755276293	20.827967	4.563767
17.675625880702604	22.464443	4.739667
17.69336343301311	21.008612	4.583515
17.71110141266366	18.81856	4.3380365
17.728839820110178	15.95584	3.9944763
17.746578655808705	12.646558	3.5562
17.764317920215372	10.427093	3.229101
17.7820576137864	8.729217	2.9545248
17.79979773697811	7.4040647	2.7210412
17.81753829024692	6.1007895	2.4699776
17.835279274049356	5.2590494	2.2932618
17.85302068884201	4.5301237	2.1284087
17.870762535081607	4.163684	2.0405107
17.888504813224934	3.8789399	1.9695024
17.90624752372891	3.7404742	1.9340305
17.923990667050536	3.6228213	1.9033711
17.941734243646895	3.5282884	1.8783739
17.959478253975185	3.4919698	1.8686813
17.9772226984927	3.4736917	1.8637842
17.994967577656833	3.4712253	1.8631225
18.01271289192506	3.4393358	1.8545446
18.030458641754965	3.4246488	1.8505807
18.04820482760425	3.4186423	1.8489571
18.06595144993067	3.3686202	1.8353801
18.083698509192125	3.303228	1.8174784
18.101446005846576	3.2473514	1.8020409
18.119193940352105	3.2331035	1.7980833
18.136942313166887	3.1947603	1.7873893
18.1546911247492	3.1563764	1.7766193
18.1724403755574	3.1284285	1.7687364
18.19019006604997	3.1526399	1.7755675
18.207940196685467	3.133527	1.7701771
18.225690767922575	3.116693	1.7654158
18.243441780220046	3.0883963	1.7573833
18.261193234036764	3.0836694	1.756038
18.278945129831676	3.0686216	1.7517482
18.29669746806386	3.0747852	1.7535065
18.314450249192483	3.092523	1.7585571
18.3322034736768	3.1083047	1.7630385
18.349957141976184	3.0641336	1.7504667
18.3677112545501	3.036406	1.7425287
18.385465811858108	3.016417	1.7367835
18.403220814359884	3.0193155	1.7376177
18.420976262515172	3.0253205	1.7393448
18.43873215678387	3.0883467	1.7573693
18.456488497625923	3.122598	1.7670875
18.474245285501407	3.2045197	1.7901173
18.492002520870486	3.297414	1.8158783
18.50976020419343	3.3980877	1.8433902
18.527518335930615	3.6805189	1.9184679
18.545276916542516	4.202593	2.0500226
18.563035946489688	4.3652577	2.08932
18.580795426232832	4.8261905	2.1968591
18.598555356232698	4.758194	2.1813285
18.616315736950185	5.08437	2.2548547
18.63407656884626	4.733108	2.1755707
18.65183785238201	4.845922	2.2013454
18.669599588018617	4.6333222	2.1525154
18.68736177621737	4.657242	2.1580644
18.705124417439652	4.6976986	2.1674175
18.72288751214696	4.49373	2.119842
18.740651060800886	4.6437774	2.1549425
18.758415063863115	4.3754964	2.0917687
18.77617952179546	4.544766	2.1318457
18.793944435059814	4.296135	2.072712
18.811709804118184	4.259631	2.0638874
18.829475629432675	4.2312913	2.0570102
18.8472419114655	4.0187607	2.0046847
18.86500865067897	4.1311426	2.0325212
18.88277584753551	3.814298	1.9530227
18.90054350249763	3.8611326	1.9649765
18.918311616027957	3.5224802	1.8768271
18.936080188589226	3.3766186	1.8375578
18.953849220644265	3.038953	1.7432593
18.971618712656007	2.9060998	1.7047286
18.9893886650875	2.8616145	1.6916307
19.007159078401887	8.031694	2.8340244
19.024929953062408	32.891445	5.7351065
19.042701289532435	32.860157	5.732378
19.060473088275405	25.467936	5.0465765
19.07824534975489	2.7230926	1.6501795
19.096018074434568	2.6675036	1.6332494
19.113791262778197	2.607205	1.6146841
19.13156491524966	2.5901978	1.6094091
19.149339032312945	2.5853245	1.6078944
19.167113614432136	2.582502	1.6070164
19.184888662071433	2.5674062	1.6023128
19.202664175695123	2.5670776	1.6022103
19.220440155767623	2.5676317	1.6023831
19.238216602753447	2.5525315	1.5976644
19.2559935171172	2.5415716	1.5942308
19.27377089932361	2.5347264	1.5920824
19.291548749837514	2.5753164	1.6047792
19.309327069123835	2.5578425	1.5993257
19.32710585764763	2.5408723	1.5940114
19.344885115874032	2.5334911	1.5916945
19.362664844268313	2.5284054	1.590096
19.380445043295822	2.528397	1.5900934
19.39822571342203	2.4863472	1.5768155
19.41600685511252	2.4671903	1.5707293
19.43378846883297	2.4840195	1.5760772
19.451570555049173	2.5340185	1.59186
19.469353114227037	2.5543315	1.5982276
19.48713614683254	2.5660024	1.6018746
19.50491965333182	2.5048468	1.5826708
19.52270363419109	2.4526734	1.5661013
19.540488089876686	2.4358478	1.5607203
19.55827302085503	2.4572299	1.5675554
19.576058427592674	2.4719458	1.5722423
19.593844310556282	2.4520402	1.5658991
19.611630670212598	2.450212	1.5653152
19.629417507028506	2.4728527	1.5725306
19.64720482147098	2.4633613	1.5695099
19.6649926140071	2.4508724	1.5655262
19.682780885104084	2.4691532	1.5713539
19.70056963522921	2.486387	1.5768281
19.718358864849908	2.5136845	1.5854603
19.7361485744337	2.5585573	1.599549
19.753938764448215	2.5884502	1.6088661
19.771729435361202	2.5769374	1.6052842
19.789520587640506	2.5476646	1.5961405
19.807312221754092	2.514364	1.5856746
19.825104338170043	2.498857	1.5807774
19.842896937356517	2.4671419	1.5707138
19.860690019781824	2.4730523	1.5725942
19.87848358591436	2.4995146	1.5809853
19.896277636222635	2.5395057	1.5935826
19.914072171175278	2.5269146	1.5896271
19.931867191241015	2.536644	1.5926845
19.94966269688869	2.5222588	1.5881621
19.967458688587264	2.4838593	1.5760264
19.985255166805807	2.4449852	1.5636449
20.00305213201348	2.4636285	1.569595
20.020849584679578	2.4931939	1.5789851
20.038647525273507	2.4843547	1.5761836
20.05644595426477	2.4747498	1.5731337
20.07424487212299	2.4385028	1.5615706
20.092044279317903	2.4098473	1.5523683
20.109844176319353	2.4189494	1.5552971
20.127644563597304	2.471718	1.5721699
20.145445441621817	2.5070374	1.5833627
20.16324681086307	2.5037456	1.5823228
20.181048671791373	2.449332	1.5650342
20.198851024877122	2.4425743	1.5628737
20.216653870590836	2.408966	1.5520844
20.234457209403146	2.38228	1.5434637
20.252261041784802	2.349584	1.5328354
20.270065368206662	2.3657277	1.5380923
20.287870189139685	2.3819385	1.543353
20.305675505054968	2.3906324	1.546167
20.323481316423702	2.3727138	1.5403615
20.341287623717207	2.3608346	1.5365008
20.359094427406884	2.3475833	1.5321826
20.376901727964288	2.3073092	1.5189829
20.39470952586107	2.2906003	1.5134729
20.41251782156899	2.2971768	1.5156441
20.430326615559935	2.3257256	1.525033
20.448135908305886	2.3720403	1.5401429
20.465945700278965	2.397096	1.5482558
20.483755991951384	2.3915553	1.5464654
20.50156678379548	2.3578002	1.535513
20.519378076283708	2.3682404	1.5389088
20.537189869888635	2.4122775	1.5531508
20.55500216508294	2.412635	1.5532659
20.572814962339415	2.3514454	1.5334424
20.59062826213098	2.3173187	1.5222741
20.60844206493066	2.3023126	1.5173373
20.626256371211593	2.3515847	1.5334878
20.644071181447032	2.3758173	1.5413686
20.66188649611036	2.3876803	1.545212
20.67970231567506	2.3879042	1.5452845
20.697518640614742	2.3888988	1.5456063
20.715335471403122	2.373795	1.5407125
20.73315280851404	2.3539212	1.5342494
20.750970652421447	2.333079	1.527442
20.768789003599412	2.3522942	1.5337191
20.786607862522136	2.3581092	1.5356137
20.8044272296639	2.3725202	1.5402987
20.82224710549913	2.3291495	1.5261551
20.84006749050237	2.296799	1.5155194
20.857888385148268	3.8296075	1.9569383
20.8757097899116	45.940594	6.777949
20.893531705267254	64.81089	8.050521
20.911354131690224	83.86402	9.15773
20.92917706965566	69.11013	8.313251
20.94700051963877	50.190147	7.0845003
20.96482448211493	29.46656	5.428311
20.982648957559622	4.1917744	2.0473824
21.00047394644843	2.254919	1.5016388
21.01829944925707	2.2282352	1.4927274
21.036125466461375	2.2247534	1.4915607
21.053951998537297	2.2321475	1.4940373
21.071779045960906	2.2215643	1.4904913
21.089606609208378	2.2291946	1.4930488
21.10743468875603	2.2307715	1.4935768
21.12526328508028	2.2323499	1.494105
21.143092398657675	2.2179632	1.4892827
21.16092202996488	2.2173495	1.4890767
21.17875217947867	2.2225914	1.4908358
21.19658284767596	2.2070801	1.4856244
21.21441403503377	2.2041054	1.484623
21.232245742029225	2.1938014	1.4811487
21.2500779691396	2.222494	1.4908031
21.26791071684227	2.2041898	1.4846514
21.28574398561475	2.1609583	1.4700198
21.30357777593465	2.155916	1.4683038
21.321412088279704	2.1689265	1.4727275
21.339246923127792	2.185471	1.4783338
21.357082280956888	2.1867716	1.4787737
21.3749181622451	2.170558	1.4732814
21.392754567470647	2.1792817	1.4762391
21.41059149711187	2.1751566	1.4748412
21.42842895164726	2.145204	1.4646515
21.446266931555378	2.1180546	1.4553537
21.464105437314945	2.1171992	1.4550599
21.481944469404798	2.0858989	1.4442642
21.49978402830388	2.086198	1.4443678
21.51762411449127	2.0730164	1.4397974
21.53546472844617	2.0771246	1.4412233
21.553305870647876	2.0998468	1.4490849
21.571147541575865	2.0970182	1.4481086
21.58898974170967	2.1089032	1.4522063
21.60683247152899	2.1093888	1.4523735
21.62467573151363	2.0999546	1.4491221
21.642519522143523	2.073004	1.439793
21.660363843898722	2.0673883	1.4378415
21.6782086972594	2.0499778	1.4317744
21.696054082705864	2.0444667	1.4298486
21.713900000718535	2.0639553	1.4366473
21.73174645177795	2.1054423	1.4510143
21.749593436364794	2.0955756	1.4476103
21.767440954959845	2.0836537	1.4434867
21.785289008044032	2.076583	1.4410354
21.803137596098388	2.0757217	1.4407365
21.820986719604086	2.0751495	1.4405379
21.838836379042412	2.0948215	1.4473498
21.85668657489478	2.066812	1.4376411
21.87453730764273	2.0201955	1.4213358
21.892388577767914	1.979926	1.4070984
21.91024038575213	2.0014164	1.4147142
21.928092732077285	2.003005	1.4152756
21.945945617225426	1.9950875	1.4124757
21.963799041678694	2.0221343	1.4220177
21.981653005919398	31.351904	5.599277
21.999507510429943	78.13793	8.839566
22.01736255569286	73.06522	8.54782
22.035218142190818	4.168091	2.0415902
22.05307427040661	2.0006793	1.4144537
22.07093094082315	2.0029192	1.4152453
22.088788153923474	2.0390506	1.4279532
22.106645910190746	2.073034	1.4398035
22.12450421010827	2.0676334	1.4379268
22.142363054159464	2.0150363	1.4195198
22.16022244282787	1.9966366	1.413024
22.178082376597164	2.0134487	1.4189605
22.195942855951145	1.970866	1.4038754
22.213803881373742	1.9574553	1.3990909
22.231665453349002	1.9823538	1.4079609
22.24952757236111	1.9977343	1.4134123
22.26739023889438	2.0178924	1.4205254
22.28525345343323	2.0086637	1.4172733
22.30311721646225	2.0150924	1.4195395
22.320981528466113	1.9689441	1.4031907
22.33884638992964	1.9782863	1.4065156
22.356711801337788	1.9774489	1.4062179
22.37457776317561	1.9908019	1.4109578
22.392444275928337	1.9862976	1.4093608
22.410311340081282	2.0085218	1.4172232
22.428178956119904	1.9985301	1.4136938
22.446047124529805	1.9752052	1.40542
22.46391584579669	1.9243642	1.3872145
22.481785120406414	1.8911855	1.3752038
22.49965494884496	1.9164519	1.3843597
22.51752533159841	1.9044864	1.3800313
22.53539626915302	1.9198436	1.3855842
22.553267761995137	1.9060818	1.3806092
22.571139810611264	1.9234262	1.3868763
22.589012415488025	1.9305047	1.389426
22.60688557711216	1.9290098	1.388888
22.624759295970566	1.95421	1.3979306
22.642633572550263	1.988172	1.4100256
22.660508407338362	2.019666	1.4211495
22.67838380082217	2.006842	1.4166305
22.696259753489077	1.97663	1.4059267
22.714136265826614	1.9530532	1.3975168
22.73201333832246	1.9436506	1.3941487
22.74989097146439	1.9358495	1.3913481
22.76776916574035	1.9298804	1.3892014
22.785647921638393	1.9432405	1.3940016
22.803527239646712	1.9529471	1.3974788
22.82140712025363	1.9575579	1.3991276
22.839287563947593	1.9347714	1.3909606
22.85716857121719	1.8968059	1.3772458
22.875050142551135	1.8983911	1.3778212
22.892932278438277	1.9166062	1.3844155
22.910814979367604	1.9682975	1.4029603
22.928698245828222	1.9882569	1.4100556
22.946582078309387	1.9685985	1.4030675
22.96446647730047	1.9428406	1.3938582
22.98235144329098	1.9118254	1.3826878
23.000236976770562	1.8978984	1.3776424
23.018123078229	1.8962297	1.3770366
23.03600974815619	1.9078659	1.3812551
23.053896987042194	1.9254915	1.3876208
23.071784795377173	1.9320092	1.3899673
23.08967317365145	1.9077787	1.3812237
23.10756212235546	1.8976394	1.3775483
23.125451641979787	1.8727577	1.3684874
23.143341733015134	1.888807	1.3743387
23.161232395952357	1.9165537	1.3843966
23.179123631282426	1.9080327	1.3813156
23.197015439496468	1.9579172	1.399256
23.214907821085717	1.9252366	1.3875289
23.23280077654157	1.9151524	1.3838903
23.250694306355538	1.9233497	1.3868488
23.268588411019277	1.9212327	1.3860854
23.28648309102458	1.9618235	1.4006511
23.304378346863356	1.980057	1.407145
23.322274179027676	1.9806175	1.4073441
23.340170588009723	1.9627892	1.4009957
23.358067574301852	1.9571205	1.3989712
23.37596513839651	1.9782284	1.4064951
23.39386328078629	1.9596792	1.3998854
23.411762001963947	1.9501615	1.3964819
23.429661302422353	1.9683828	1.4029907
23.4475611826545	1.9861212	1.4092981
23.46546164315356	1.932806	1.3902539
23.48336268441279	1.9466875	1.3952374
23.501264306925638	1.9450963	1.394667
23.51916651118564	1.9623135	1.400826
23.537069297686497	1.9517573	1.3970531
23.554972666922037	1.9397372	1.3927445
23.57287661938623	1.9534183	1.3976474
23.59078115557318	1.9856765	1.4091403
23.608686275977128	1.9246634	1.3873224
23.62659198109246	1.9175377	1.3847518
23.6444982714137	1.9230647	1.386746
23.66240514743549	1.9626901	1.4009604
23.68031260965263	1.9269415	1.3881432
23.698220658560068	1.8988158	1.3779752
23.716129294652845	1.8940824	1.3762567
23.7340385184262	1.8999104	1.3783724
23.75194833037546	1.9431186	1.3939579
23.769858730996123	1.9228194	1.3866576
23.78776972078382	1.9201437	1.3856925
23.80568130023431	1.906149	1.3806336
23.823593469843495	1.9307176	1.3895026
23.841506230107424	1.8932055	1.375938
23.859419581522275	1.9004728	1.3785764
23.87733352458438	1.9005191	1.3785932
23.89524805979019	1.8917174	1.3753972
23.913163187636318	1.8815851	1.3717089
23.931078908619508	1.889472	1.3745806
23.948995223236633	1.9237986	1.3870107
23.966912131984735	1.9644676	1.4015946
23.98482963536096	2.030183	1.424845
24.002747733862616	2.0639534	1.4366466
24.020666427987155	2.0823638	1.4430398
24.038585718232156	2.0792994	1.4419776
24.056505605095353	2.062768	1.436234
24.074426089074617	2.0685303	1.4382386
24.092347170667946	2.05721	1.4342977
24.110268850373515	2.0973063	1.448208
24.128191128689586	2.1148765	1.4542615
24.146114006114626	2.0763893	1.4409682
24.164037483147187	2.0814588	1.4427261
24.181961560286005	2.0973153	1.4482111
24.199886238029926	2.1168764	1.4549489
24.21781151687797	2.1432114	1.4639711
24.235737397329274	2.1646764	1.4712839
24.253663879883135	2.1313632	1.4599189
24.271590965038975	2.0725937	1.4396505
24.289518653296376	2.0152452	1.4195933
24.30744694515505	2.0446124	1.4298995
24.32537584111486	2.0526185	1.4326962
24.34330534167581	2.0440295	1.4296956
24.361235447338046	2.0052135	1.4160556
24.379166158601876	2.0035253	1.4154594
24.39709747596772	2.0096242	1.4176122
24.41502939993615	2.0037565	1.415541
24.432961931007917	1.9846357	1.408771
24.450895069683856	1.9895694	1.410521
24.468828816465	1.9925461	1.4115758
24.4867631718525	1.9339898	1.3906796
24.504698136347656	1.9087065	1.3815595
24.52263371045192	1.9440687	1.3942987
24.540569894666874	1.9876559	1.4098425
24.558506689494266	1.9992712	1.4139558
24.57644409543597	1.9843295	1.4086623
24.594382112994012	1.9946114	1.4123071
24.61232074267057	1.9971082	1.4131908
24.630259984967953	2.0017338	1.4148264
24.64819984038863	1.9775157	1.4062417
24.66614030943522	1.9859291	1.40923
24.684081392610462	1.9957219	1.4127002
24.702023090417274	2.0230308	1.4223329
24.7199654033587	2.0785937	1.4417329
24.737908331937927	2.134578	1.4610195
24.755851876658305	2.1849616	1.4781616
24.773796038023324	2.137024	1.4618564
24.79174081653661	2.0984955	1.4486185
24.809686212701962	2.0751276	1.4405303
24.827632227023294	2.0485418	1.4312727
24.8455788600047	2.0119138	1.4184195
24.8635261121504	2.0267355	1.4236346
24.88147398396475	2.0761192	1.4408745
24.899422475952303	2.109847	1.4525312
24.917371588617698	2.1400528	1.4628919
24.935321322465768	2.1980824	1.4825932
24.953271678001478	2.261935	1.5039731
24.97122265572994	2.4306715	1.559061
24.989174256156414	2.7823067	1.6680248
25.00712647978632	3.4471433	1.8566484
25.02507932712521	4.46765	2.1136816
25.043032798678798	6.035452	2.4567156
25.060986894952933	7.7253976	2.77946
25.078941616453637	9.229419	3.0379958
25.096896963687055	10.070578	3.1734173
25.114852937159508	10.734586	3.2763677
25.132809537377444	10.563659	3.2501783
25.150766764847468	9.956191	3.1553433
25.168724620076347	8.627352	2.9372354
25.186683103570985	7.3888717	2.718248
25.204642215838426	5.868596	2.4225185
25.222601957385894	4.671772	2.1614282
25.24056232872074	3.6291375	1.9050295
25.25852333035048	2.95121	1.7179086
25.276484962782778	2.4660597	1.5703692
25.294447226525435	2.2147102	1.4881903
25.312410122086423	2.1160772	1.4546742
25.330373649973843	2.0272107	1.4238015
25.348337810695988	1.9611541	1.4004121
25.366302604761245	1.9366045	1.3916193
25.384268032678207	1.9307891	1.3895284
25.40223409495558	1.9573947	1.3990692
25.420200792102257	1.9300343	1.3892567
25.438168124627246	1.9308825	1.389562
25.45613609303974	1.913564	1.3833163
25.474104697849057	1.9106618	1.3822669
25.492073939564698	1.9131523	1.3831675
25.510043818696285	1.9187839	1.3852018
25.528014335753614	1.8970315	1.3773277
25.54598549124664	1.8975376	1.3775114
25.56395728568544	1.9144787	1.3836468
25.58192971958028	1.9036245	1.379719
25.59990279344156	1.8885968	1.3742622
25.617876507779833	1.8872027	1.373755
25.635850863105826	1.8833427	1.3723494
25.653825859930386	1.864209	1.3653604
25.671801498764548	1.852063	1.3609052
25.68977778011949	1.8290524	1.3524246
25.707754704506524	1.8357562	1.3549008
25.725732272437153	1.8475846	1.3592589
25.743710484423012	1.8605349	1.3640143
25.761689340975888	1.8134134	1.3466303
25.77966884260774	1.8074852	1.3444275
25.797648989830662	1.892464	1.3756685
25.815629783156922	1.9411721	1.3932595
25.83361122309895	1.9089667	1.3816535
25.85159331016929	1.8539016	1.3615806
25.869576044880695	1.8696935	1.3673674
25.887559427746034	1.8964183	1.377105
25.90554345927836	1.8968642	1.3772669
25.92352813999086	1.8854398	1.3731132
25.94151347039689	1.865194	1.365721
25.959499451009965	1.8431484	1.357626
25.97748608234374	1.8361968	1.3550634
25.995473364912062	1.8077085	1.3445106
26.013461299228904	1.843924	1.3579117
26.03144988580839	1.8727921	1.3685
26.04943912516483	1.8368534	1.3553057
26.067429017812675	1.8304595	1.3529447
26.085419564266537	1.8444473	1.3581042
26.103410765041186	1.8588231	1.3633866
26.12140262065155	1.8825227	1.3720505
26.139395131612723	1.8509492	1.3604959
26.157388298439948	1.788571	1.3373747
26.17538212164861	1.7882183	1.3372428
26.193376601754295	1.8539882	1.3616123
26.211371739272714	1.8291589	1.352464
26.229367534719746	1.8208067	1.3493727
26.247363988611433	1.757566	1.3257322
26.26536110146397	1.7955925	1.3399972
26.283358873793727	1.792934	1.3390049
26.301357306117204	1.8452278	1.3583916
26.319356398951104	1.8864487	1.3734806
26.33735615281224	1.8763357	1.369794
26.35535656821762	1.8177704	1.3482472
26.373357645684404	1.8220829	1.3498455
26.39135938572991	1.8555751	1.3621949
26.409361788871614	1.85966	1.3636935
26.427364855627165	1.845764	1.3585889
26.445368586514352	1.856075	1.3623785
26.46337298205115	1.8331271	1.3539302
26.48137804275568	1.8134147	1.3466308
26.499383769146217	1.8077552	1.3445278
26.517390161741215	1.8335583	1.3540895
26.53539722105928	1.8449858	1.3583026
26.553404947619182	1.8568325	1.3626565
26.571413341939856	1.8810043	1.3714972
26.589422404540397	1.8939992	1.3762264
26.60743213594006	1.8744478	1.3691047
26.62544253665827	1.8395674	1.3563066
26.64345360721459	1.8040308	1.3431422
26.66146534812879	1.8239032	1.3505197
26.679477759920758	1.8437372	1.3578429
26.69749084311057	1.8499277	1.3601204
26.71550459821847	1.8206306	1.3493074
26.733519025764842	1.7721441	1.3312191
26.751534126270258	1.7488606	1.3224449
26.769549900255434	1.7472799	1.3218472
26.787566348241267	1.8117563	1.346015
26.80558347074881	1.8415974	1.3570547
26.823601268299267	1.8885062	1.3742293
26.841619741414036	1.9252145	1.387521
26.85963889061465	1.9027145	1.3793892
26.877658716422832	1.8370833	1.3553904
26.89567921936045	1.8314056	1.3532944
26.913700399949544	1.8342797	1.3543558
26.93172225871233	1.8569087	1.3626844
26.949744796171174	1.8676412	1.3666167
26.967768012848605	1.8560228	1.3623593
26.98579190926733	1.8196275	1.3489357
27.003816485950225	1.8144749	1.3470244
27.021841743420318	1.8337898	1.354175
27.039867682200814	1.8515487	1.3607162
27.057894302815072	1.8234814	1.3503635
27.07592160578664	1.7653766	1.3286748
27.0939495916392	1.7436442	1.3204712
27.111978260896635	1.7949905	1.3397726
27.13000761408296	1.8467249	1.3589425
27.148037651722397	1.8574512	1.3628834
27.166068374339304	1.8506942	1.3604022
27.184099782458215	1.8260614	1.3513184
27.20213187660384	1.8173852	1.3481042
27.22016465730105	1.8382286	1.3558129
27.23819812507487	1.8452309	1.3583928
27.256232280450533	1.8301609	1.3528343
27.274267123953383	1.7748946	1.3322517
27.292302656108987	1.7903211	1.3380288
27.31033887744306	1.8345869	1.3544692
27.32837578848146	1.8730936	1.3686101
27.34641338975026	1.8520834	1.3609127
27.364451681775673	1.8352922	1.3547295
27.382490665084074	1.8113502	1.3458642
27.400530340202046	1.7893964	1.3376832
27.41857070765629	1.7655834	1.3287525
27.436611767973726	1.7756658	1.3325411
27.454653521681404	1.7518164	1.323562
27.472695969306564	1.7637198	1.3280511
27.490739111376627	1.7859099	1.3363794
27.508782948419153	1.8100127	1.3453671
27.526827480961902	1.7792689	1.3338923
27.54487270953279	1.7944846	1.3395838
27.562918634659898	1.8090804	1.3450205
27.580965256871508	1.8360525	1.3550102
27.599012576696026	1.8709486	1.3678262
27.617060594662068	1.873117	1.3686186
27.63510931129842	1.846418	1.3588296
27.65315872713401	1.8507042	1.3604059
27.67120884269797	1.878332	1.3705225
27.68925965851958	1.8837558	1.3724998
27.707311175128307	1.9028574	1.379441
27.725363393053787	1.9270425	1.3881795
27.74341631282583	1.9312274	1.3896861
27.7614699349744	1.9376895	1.3920091
27.77952426002968	2.113489	1.4537843
27.797579288521973	2.171088	1.4734613
27.815635020981784	2.6240718	1.6198987
27.83369145793979	2.7324255	1.653005
27.85174859992682	2.595344	1.6110072
27.869806447473923	2.4621956	1.5691385
27.887865001112267	2.1261196	1.4581219
27.905924261373233	1.9820595	1.4078563
27.92398422878836	1.90536	1.3803477
27.94204490388936	1.899899	1.3783683
27.96010628720813	1.8994919	1.3782206
27.978168379276728	1.8505003	1.3603309
27.9962311806274	1.8569411	1.3626963
28.014294691792568	1.8777574	1.3703129
28.0323589133048	1.9020228	1.3791385
28.050423845696887	1.9166723	1.3844393
28.068489489501758	1.9261762	1.3878675
28.086555845252523	1.9223877	1.386502
28.104622913482487	1.8765028	1.369855
28.122690694725115	1.8743805	1.3690802
28.14075918951405	1.9033314	1.3796128
28.15882839838312	1.9206856	1.385888
28.176898321866304	1.9220079	1.386365
28.1949689604978	1.9136617	1.3833517
28.213040314811945	1.8947154	1.3764867
28.23111238534327	1.9146671	1.383715
28.249185172626493	1.9377184	1.3920195
28.267258677196473	1.9447405	1.3945396
28.285332899588294	1.9699953	1.4035652
28.303407840337172	1.981725	1.4077375
28.321483499978545	1.9911638	1.4110861
28.33955987904799	1.9568753	1.3988836
28.357636978081285	1.9434874	1.3940902
28.37571479761439	1.9674883	1.4026718
28.393793338183425	2.0439367	1.4296632
28.41187260032469	2.0810232	1.4425752
28.429952584574686	2.0644352	1.4368143
28.448033291470065	2.061392	1.4357549
28.46611472154769	2.0417097	1.428884
28.484196875344566	2.0747504	1.4403994
28.502279753397914	2.1263852	1.458213
28.52036335624511	2.0621946	1.4360343
28.538447684423716	1.9476482	1.3955816
28.556532738471482	1.9162376	1.3842824
28.574618518926325	1.9848406	1.4088438
28.59270502632635	2.0152364	1.4195902
28.61079226120985	1.9923965	1.4115227
28.628880224115274	1.983441	1.4083469
28.646968915581287	1.9978139	1.4134405
28.66505833614671	2.0483294	1.4311986
28.68314848635055	2.0342631	1.426276
28.701239366732004	2.0612254	1.4356968
28.71933097783044	2.0875387	1.4448317
28.737423320185403	2.1182644	1.4554259
28.75551639433665	2.1320794	1.4601642
28.773610200824074	2.149609	1.4661546
28.791704740187793	2.1219983	1.4567081
28.80980001296809	2.0907762	1.4459517
28.827896019705413	2.135368	1.4612899
28.845992760940433	2.2297895	1.493248
28.86409023721397	2.232159	1.4940411
28.88218844906704	2.2047298	1.4848332
28.900287397040845	2.1887214	1.4794328
28.918387081676755	2.233419	1.4944627
28.936487503516343	2.2623355	1.5041063
28.954588663101365	2.27487	1.5082672
28.97269056097374	2.3109028	1.5201654
28.990793197675597	2.3552878	1.5346947
29.00889657374923	2.3930905	1.5469617
29.027000689737125	2.3508976	1.5332637
29.04510554618196	2.410163	1.55247
29.06321114362659	2.4411685	1.562424
29.08131748261405	2.4532475	1.5662847
29.099424563687567	2.4679227	1.5709623
29.11753238739057	2.542072	1.5943877
29.13564095426663	2.5739148	1.6043425
29.15375026485954	2.5961962	1.6112716
29.171860319713275	2.5811498	1.6065958
29.18997111937199	2.6202118	1.6187068
29.20808266438002	2.7046993	1.644597
29.226194955281898	2.7787168	1.6669483
29.244307992622335	2.78985	1.6702844
29.26242177694624	2.850803	1.6884321
29.2805363087987	2.9151855	1.7073914
29.29865158872498	2.9358523	1.7134329
29.316767617270557	2.867246	1.6932944
29.334884394981064	2.8994217	1.7027688
29.353001922402367	3.0423467	1.7442324
29.37112020008047	3.135151	1.7706357
29.389239228561596	3.195758	1.7876683
29.407359008392152	3.3400052	1.827568
29.42547954011872	3.635377	1.9066664
29.44360082428809	4.0474343	2.0118237
29.46172286144722	4.917348	2.2175095
29.479845652143283	6.576258	2.5644217
29.497969196923606	9.2599	3.0430083
29.516093496335728	12.965404	3.6007504
29.5342185509274	16.674603	4.0834546
29.55234436124651	20.039518	4.476552
29.570470927841175	21.448473	4.6312494
29.588598251259686	20.990328	4.58152
29.60672633205055	19.198019	4.3815546
29.624855170762405	16.301744	4.037542
29.642984767944146	13.007969	3.6066563
29.66111512414481	9.667169	3.1092072
29.67924623991366	7.1628947	2.6763585
29.697378115800138	5.360123	2.315194
29.71551075235387	4.281044	2.0690684
29.733644150124675	3.7213387	1.9290771
29.751778309662576	3.5446417	1.8827219
29.769913231517766	3.5177305	1.8755614
29.78804891624066	3.4084566	1.8462006
29.806185364381818	3.361338	1.8333952
29.82432257649206	3.3858986	1.8400811
29.842460553122333	3.4466727	1.8565216
29.86059929482382	3.4079456	1.8460622
29.878738802147872	3.3863373	1.8402003
29.896879075646048	3.300826	1.8168175
29.915020115870114	3.1680658	1.7799062
29.933161923371976	3.197081	1.7880384
29.951304498703777	3.2634988	1.8065157
29.969447842417857	3.266368	1.8073096
29.987591955066733	3.2676218	1.8076564
30.005736837203123	3.2478778	1.802187
30.023882489379943	3.2209258	1.7946938
30.04202891215028	3.1955206	1.787602
30.060176106067455	3.1576138	1.7769675
30.078324071684946	3.153943	1.7759345
30.09647280955646	3.2292945	1.7970238
30.114622320235863	3.3179128	1.8215139
30.132772604277257	3.2755318	1.8098431
30.1509236622349	3.2691388	1.808076
30.16907549466328	3.191936	1.786599
30.18722810211705	3.1589904	1.7773548
30.205381485151097	3.0959501	1.7595313
30.22353564432045	3.0262127	1.7396013
30.241690580180403	3.005719	1.733701
30.25984629328638	3.0514822	1.7468492
30.278002784194037	3.0442407	1.7447753
30.296160053459246	3.0109084	1.735197
30.314318101638033	2.9104764	1.7060119
30.332476929286646	2.8573546	1.6903712
30.35063653696153	2.8723247	1.6947935
30.368796925219307	2.8875997	1.6992939
30.386958094616844	2.8953152	1.7015625
30.40512004571115	2.9075453	1.7051526
30.423282779059463	2.9296324	1.7116169
30.441446295219233	2.931667	1.7122111
30.459610594748067	2.8850656	1.6985481
30.47777567820382	2.8346803	1.6836509
30.495941546144504	2.881094	1.6973785
30.51410819912835	2.8993127	1.7027369
30.532275637713795	2.8446195	1.6866
30.55044386245946	2.8359673	1.684033
30.56861287392416	2.784668	1.6687324
30.586782672666956	2.7780747	1.6667558
30.604953259247047	2.8009446	1.6736022
30.623124634223885	2.7882366	1.6698014
30.641296798157075	2.7607644	1.6615548
30.659469751606462	2.776025	1.6661408
30.677643495132074	2.7712834	1.6647172
30.695818029294152	2.7796183	1.6672187
30.713993354653116	2.7756307	1.6660224
30.73216947176962	2.7787771	1.6669664
30.75034638120448	2.8011446	1.6736621
30.768524083518756	2.8491492	1.6879423
30.786702579273673	2.9062388	1.7047694
30.80488186903069	2.9371164	1.7138017
30.82306195335144	3.00412	1.7332398
30.841242832797782	3.306033	1.81825
30.85942450793176	3.6844068	1.9194808
30.877606979315637	4.043195	2.0107696
30.895790247511883	4.355878	2.087074
30.913974313083134	4.794164	2.189558
30.932159176592283	5.3833966	2.3202147
30.95034483860237	5.8367867	2.4159443
30.968531299676698	5.7676725	2.401598
30.98671856037873	5.541669	2.354075
31.00490662127215	5.0649524	2.250545
31.023095482920848	4.4494333	2.109368
31.04128514588892	3.8222988	1.95507
31.059475610740662	3.3716109	1.8361946
31.07766687804056	2.9803193	1.7263601
31.09585894835335	2.7060254	1.6450001
31.11405182224393	2.6150959	1.6171257
31.132245500277417	2.5407715	1.5939797
31.15043998301914	2.489597	1.5778457
31.168635271034628	2.4567285	1.5673954
31.18683136488964	2.4781103	1.5742015
31.20502826515008	2.5914924	1.6098113
31.223225972382135	2.562693	1.6008414
31.241424487152155	2.5190911	1.5871645
31.259623810026692	2.4555917	1.5670328
31.27782394157253	2.4455066	1.5638115
31.296024882356644	2.4563718	1.5672816
31.314226632946237	2.5061412	1.5830797
31.332429193908684	2.5110621	1.5846331
31.350632565811598	2.4319527	1.559472
31.368836749222787	2.450867	1.5655245
31.387041744710295	2.5198948	1.5874177
31.40524755284232	2.6296523	1.6216203
31.423454174187317	2.7122025	1.6468766
31.441661609313922	2.7598844	1.6612899
31.459869858791002	2.69685	1.6422089
31.478078923187628	2.5399115	1.59371
31.496288803073064	2.4162347	1.5544243
31.514499499016807	2.412601	1.553255
31.532711011588546	2.3690908	1.5391852
31.550923341358178	2.3621898	1.5369416
31.56913648889584	2.3608253	1.5364977
31.587350454771844	2.3905637	1.5461448
31.605565239556732	2.34502	1.5313458
31.62378084382127	2.3238707	1.5244247
31.641997268136382	2.3074288	1.5190223
31.660214513073274	2.3616347	1.5367612
31.67843257920331	2.381515	1.5432158
31.6966514670981	2.3253388	1.5249062
31.71487117732944	2.2907782	1.5135317
31.733091710469346	2.25564	1.5018789
31.751313067090052	2.2851636	1.5116757
31.769535247764008	2.2763996	1.5087742
31.787758253063878	2.305802	1.5184867
31.805982083562526	2.2968931	1.5155505
31.824206739833024	2.320927	1.5234588
31.84243222244869	2.2833717	1.511083
31.860658531983013	2.278431	1.5094472
31.878885669009737	2.2487612	1.499587
31.897113634102784	2.2043188	1.4846948
31.91534242783632	2.2553575	1.5017848
31.933572050784694	2.3380277	1.5290611
31.951802503522508	2.3370621	1.5287453
31.970033786624548	2.266449	1.505473
31.988265900665834	2.2488582	1.4996194
32.006498846221575	2.3142245	1.5212575
32.02473262386724	2.285021	1.5116286
32.04296723417845	2.2268536	1.4922646
32.0612026777311	2.181728	1.4770674
32.07943895510129	2.3086853	1.5194359
32.097676066865304	2.3624454	1.5370249
32.115914013599685	2.2622027	1.504062
32.13415279588115	2.1774654	1.4756237
32.152392414286666	2.2247844	1.4915711
32.1706328693934	2.2354085	1.4951283
32.18887416177875	2.227864	1.4926031
32.20711629202032	2.2190406	1.4896444
32.225359260695924	2.1618376	1.4703189
32.243603068383614	2.149378	1.4660758
32.26184771566166	2.09372	1.4469693
32.28009320310852	2.0978487	1.4483953
32.2983395313029	2.1710331	1.4734427
32.31658670082372	2.2261596	1.492032
32.33483471225012	2.2247267	1.4915518
32.35308356616143	2.2767897	1.5089035
32.371333263137245	2.2958422	1.5152037
32.38958380375734	2.1547682	1.4679129
32.407835188601744	2.0869622	1.4446322
32.42608741825067	2.1921704	1.480598
32.444340493284585	2.2320008	1.4939883
32.46259441428416	2.169508	1.472925
32.48084918183028	2.1675687	1.4722666
32.49910479650405	2.1229422	1.457032
32.51736125888683	2.1150584	1.454324
32.53561856956014	2.1372728	1.4619415
32.5538767291058	2.144814	1.4645183
32.572135738105764	2.0321379	1.4255308
32.59039559714228	1.9035811	1.3797033
32.608656306797776	1.9172333	1.384642
32.62691786765491	2.0132818	1.4189017
32.645180280296586	1.9840964	1.4085796
32.663443545305896	1.9153903	1.3839762
32.68170766326619	1.8826704	1.3721044
32.69997263476099	1.974501	1.4051694
32.7182384603741	2.052807	1.432762
32.7365051406895	2.0294046	1.4245718
32.75477267629144	2.1500313	1.4662985
32.77304106776434	2.1938174	1.4811541
32.79131031569289	2.068819	1.438339
32.809580420661966	2.0528264	1.4327688
32.827851383256714	2.0974593	1.4482608
32.84612320406245	2.0509791	1.432124
32.86439588366476	1.977925	1.4063872
32.88266942264945	1.9421945	1.3936263
32.9009438216025	1.9664136	1.4022887
32.9192190811102	1.9832443	1.408277
32.937495201758985	1.9693962	1.4033518
32.95577218413556	1.9498174	1.3963586
32.974050028826866	1.9742374	1.4050756
32.992328736420035	1.8994579	1.3782083
33.010608307502444	1.9231402	1.3867733
33.02888874266169	1.9718087	1.404211
33.047170042485604	1.9939137	1.41206
33.06545220756225	1.9805686	1.4073268
33.083735238479896	1.9985065	1.4136854
33.10201913582707	1.9677355	1.4027599
33.12030390019248	1.9866225	1.4094759
33.138589532165135	2.0511727	1.4321916
33.15687603233419	2.0601258	1.4353138
33.17516340128909	1.9889606	1.4103051
33.19345163961947	1.9133081	1.3832238
33.211740747915215	1.9240388	1.3870972
33.23003072676643	1.8696593	1.3673549
33.248321576763466	1.8942405	1.376314
33.266613298496885	1.9644604	1.4015921
33.28490589255747	2.0842142	1.4436808
33.30319935953626	2.1596873	1.4695874
33.32149370002451	2.1150262	1.4543129
33.339788914613706	1.9926867	1.4116256
33.358085003895575	1.9454833	1.3948058
33.376381968462034	1.9458185	1.394926
33.39467980890529	1.9528558	1.3974462
33.41297852581774	1.9850388	1.4089141
33.43127811979204	1.9999094	1.4141815
33.44957859142105	1.9647238	1.4016861
33.467879941297866	1.9136266	1.3833389
33.486182170015844	1.9718665	1.4042317
33.50448527816853	2.0339057	1.4261507
33.522789266349754	1.9861481	1.4093077
33.541094135153514	1.9739308	1.4049665
33.55939988517411	2.0340621	1.4262055
33.57770651700602	1.9715825	1.4041306
33.59601403124398	1.9438528	1.3942212
33.61432242848296	1.9999623	1.4142002
33.632631709318154	2.0469353	1.4307115
33.650941874344994	2.0077674	1.4169571
33.66925292415916	1.9463599	1.39512
33.68756485935654	1.9682132	1.4029303
33.70587768053328	2.0353715	1.4266645
33.724191388285746	2.1098983	1.4525489
33.74250598321054	2.1050823	1.4508902
33.760821465904506	1.9675568	1.4026963
33.77913783696474	1.9331671	1.3903838
33.79745509698852	2.029416	1.4245758
33.815773246573414	1.9495776	1.3962728
33.8340922863172	1.8769923	1.3700337
33.852412216817896	1.9456162	1.3948535
33.87073303867377	2.050744	1.4320419
33.889054752483304	2.0267503	1.4236398
33.907377358845245	2.0003712	1.4143448
33.92570085835853	1.9706023	1.4037814
33.94402525162239	2.0043755	1.4157597
33.96235053923627	1.9529433	1.3974775
33.980676721799824	1.9846288	1.4087685
33.999003799912984	1.9991934	1.4139284
34.01733177417592	1.9081817	1.3813695
34.03566064518901	1.903873	1.379809
34.0539904135529	1.9090468	1.3816826
34.07232107986846	1.9467428	1.3952572
34.090652644736785	1.9653475	1.4019085
34.108985108759235	1.9040446	1.3798712
34.12731847253742	1.9150198	1.3838423
34.14565273667313	1.876676	1.3699182
34.16398790176847	1.9579465	1.3992665
34.18232396842574	2.0973616	1.448227
34.20066093724749	2.1814811	1.4769838
34.21899880883651	2.1613786	1.4701627
34.23733758379583	2.1008785	1.4494407
34.25567726272874	1.9623595	1.4008424
34.27401784623872	1.8452004	1.3583815
34.29235933492957	1.8472078	1.3591202
34.31070172940526	1.805925	1.343847
34.32904503027003	1.8117119	1.3459985
34.347389238128386	1.9145243	1.3836634
34.36573435358502	2.0434577	1.4294956
34.38408037724492	2.1660593	1.4717538
34.402427309713296	2.2204823	1.4901283
34.42077515159559	2.07622	1.4409095
34.43912390349752	1.9345797	1.3908917
34.45747356602499	1.9543594	1.397984
34.47582413978423	2.115501	1.4544761
34.49417562538163	2.0959816	1.4477506
34.51252802342388	1.9904085	1.4108183
34.53088133451789	2.054322	1.4332906
34.54923555927084	2.0479126	1.4310529
34.567590698290104	2.003941	1.4156063
34.58594675218336	1.9597476	1.3999099
34.6043037215585	1.8666315	1.3662472
34.62266160702365	1.7993227	1.3413883
34.641020409187234	1.8704792	1.3676547
34.65938012865785	1.9118708	1.3827041
34.677740766044394	1.9462628	1.3950852
34.69610232195598	2.105276	1.450957
34.714464797002016	2.178465	1.4759624
34.73282819179208	2.136558	1.461697
34.751192506936064	2.0917351	1.4462832
34.76955774304408	1.9597129	1.3998975
34.7879239007265	1.99695	1.4131348
34.80629098059391	2.0053613	1.4161078
34.824658983257194	1.9423428	1.3936796
34.843027909327446	2.0564418	1.4340299
34.86139775941603	2.1456277	1.4647962
34.879768534134534	2.1294217	1.4592538
34.89814023409483	2.2031991	1.4843178
34.91651285990901	2.2194128	1.4897693
34.93488641218944	2.1683793	1.4725418
34.95326089154871	2.017333	1.4203285
34.97163629859967	2.0105953	1.4179547
34.99001263395542	2.0654645	1.4371724
35.00838989822934	1.8887326	1.3743117
35.02676809203499	1.8474815	1.3592209
35.04514721598624	1.9724131	1.4044262
35.063527270697215	1.8984146	1.3778297
35.081908256782256	1.8877317	1.3739475
35.10029017485597	2.0494108	1.4315764
35.11867302553321	2.0310988	1.4251662
35.137056809429104	2.0186384	1.4207879
35.155441527159006	1.8381724	1.3557922
35.173827179338524	1.7899166	1.3378776
35.19221376658354	2.1302805	1.459548
35.21060128951017	2.0578916	1.4345354
35.2289897487348	1.9244189	1.3872343
35.24737914487405	1.8582966	1.3631935
35.26576947854479	1.7702457	1.3305058
35.28416075036418	1.750658	1.3231243
35.30255296094958	1.9366164	1.3916236
35.32094611091867	2.2581387	1.5027105
35.33934020088932	2.3297005	1.5263356
35.35773523147969	2.2231643	1.491028
35.3761312033082	1.9448533	1.39458
35.394528116993506	1.8070878	1.3442796
35.41292597315452	2.2884462	1.5127611
35.431324772410434	2.6494336	1.6277081
35.449724515380666	2.3862202	1.5447395
35.46812520268491	2.0746667	1.4403703
35.486526834943106	2.2418075	1.4972667
35.504929412775454	2.2816746	1.5105213
35.52333293680242	2.3852143	1.5444139
35.54173740764471	2.4517434	1.5658044
35.560142825923286	2.3210158	1.523488
35.5785491922594	2.1108375	1.4528722
35.59695650727454	1.9848684	1.4088535
35.61536477159042	2.5249293	1.5890026
