0.008763373481513119	0.3822274	0.6182454
0.026290120649546365	0.19633481	0.44309685
0.043816868432600686	0.22200462	0.47117367
0.06134361724069026	0.19811054	0.4450961
0.07887036748382949	0.19355348	0.43994713
0.0963971195720331	0.30124044	0.54885375
0.11392387391531617	0.30033195	0.5480255
0.1314506309236943	0.35001567	0.5916212
0.1489773910071836	0.2394618	0.48934832
0.16650415457580078	0.22685687	0.47629493
0.18403092203956356	0.22383189	0.47310874
0.20155769380849	0.27914834	0.5283449
0.2190844702925996	0.3317683	0.5759933
0.2366112519019124	0.26765743	0.5173562
0.2541380390464497	0.18330982	0.42814696
0.27166483213623416	0.08317663	0.28840357
0.28919163158128947	0.06576677	0.25645033
0.3067184377916406	0.09682175	0.31116194
0.324245251177314	0.09822301	0.3134055
0.34177207214833777	0.10627596	0.32599995
0.3592989011147415	0.18078528	0.42518854
0.37682573848655654	0.17093271	0.41344008
0.39435258467381573	0.15109856	0.388714
0.41187944008655414	0.098044775	0.31312102
0.42940630513480854	0.15073247	0.3882428
0.446933180228618	0.17478994	0.41807887
0.4644600657780234	0.14838745	0.3852109
0.48198696219306775	0.13172927	0.3629453
0.49951386988379676	0.149898	0.38716662
0.5170407892602581	0.16173936	0.40216833
0.5345677207325025	0.17286135	0.41576597
0.5520946647105822	0.18061987	0.42499396
0.5696216216045534	0.18867895	0.4343719
0.5871485918244737	0.1781271	0.42205107
0.6046755757804043	0.15586695	0.3947999
0.6222025738824094	0.17220025	0.4149702
0.6397295865405557	0.16553046	0.40685433
0.6572566141649129	0.19461644	0.44115353
0.6747836571655547	0.18977842	0.43563566
0.6923107159525568	0.18694031	0.43236595
0.7098377909359992	0.16539158	0.40668362
0.7273648825259653	0.17558934	0.41903383
0.7448919911325411	0.2036768	0.45130566
0.762419117165817	0.22617987	0.4755837
0.7799462610358868	0.24682428	0.49681413
0.7974734231528482	0.24589321	0.4958762
0.8150006039268024	0.20548832	0.4533082
0.8325278037678551	0.19525394	0.4418755
0.8500550230861152	0.19871336	0.44577277
0.8675822622916969	0.20253699	0.4500411
0.8851095217947171	0.21689165	0.46571627
0.9026368020052984	0.18775767	0.43331012
0.9201641033335665	0.19735935	0.44425145
0.9376914261896523	0.20159052	0.44898832
0.9552187709836915	0.22480586	0.47413698
0.9727461381258234	0.22733767	0.4767994
0.990273528026193	0.20692599	0.45489118
1.0078009410949496	0.18498752	0.43010175
1.0253283777422473	0.18496174	0.43007177
1.0428558383782454	0.23774005	0.48758593
1.0603833234131086	0.22376227	0.4730352
1.0779108332570058	0.27912644	0.5283242
1.0954383683201119	0.31856817	0.56441844
1.112965929012607	0.40376392	0.6354242
1.1304935157446763	0.60134923	0.7754671
1.1480211289265108	0.63099015	0.7943489
1.1655487689683062	1.442397	1.2009983
1.1830764362802655	1.6311952	1.2771825
1.200604131272596	2.0117671	1.4183677
1.2181318543555117	2.452457	1.5660323
1.235659605939232	2.4919202	1.5785817
1.253187386433982	4.0895896	2.0222733
1.270715196249994	6.3452606	2.51898
1.2882430357975057	11.931236	3.4541621
1.3057709054867608	16.780954	4.0964565
1.3232988057280106	22.578665	4.7517014
1.3408267369315112	27.64484	5.257836
1.358354699507526	31.12216	5.578724
1.3758826938663256	35.569122	5.9639854
1.3934107204181858	37.816257	6.1494923
1.410938779573391	38.06684	6.169833
1.4284668717422309	38.32269	6.190532
1.4459949973350033	37.80626	6.1486793
1.4635231567620117	37.856243	6.152743
1.4810513504335687	37.618603	6.1334004
1.4985795787599925	36.58599	6.0486355
1.5161078421516088	36.060204	6.005015
1.5336361410187505	35.277122	5.9394546
1.5511644757717598	35.465992	5.955333
1.5686928468209842	35.903084	5.991918
1.58622125457678	36.400074	6.0332475
1.6037496994495108	37.84089	6.151495
1.621278181849548	37.97177	6.162124
1.6388067021872719	38.745655	6.224601
1.6563352608730693	38.05699	6.169035
1.673863858317336	36.959835	6.07946
1.6913924949304753	36.127666	6.0106297
1.7089211711228998	35.20988	5.9337916
1.7264498873050296	34.20848	5.8488016
1.7439786438872935	33.184315	5.760583
1.7615074412801288	32.223446	5.67657
1.779036279893981	31.926111	5.6503196
1.796565160139305	31.055574	5.572753
1.814094082426564	30.287498	5.503408
1.8316230471662298	29.577541	5.438524
1.849152054768784	28.635946	5.3512564
1.8666811056447168	27.970398	5.288705
1.8842102002045273	26.969122	5.1931806
1.901739338858724	26.159748	5.1146603
1.9192685220178245	25.673351	5.066888
1.9367977500923557	25.248436	5.024782
1.9543270234928547	24.72648	4.972573
1.971856342629867	24.005001	4.89949
1.9893857079139496	23.312412	4.828293
2.006915119755667	22.66265	4.7605305
2.0244445785655945	22.345043	4.7270546
2.0419740847543175	22.103827	4.701471
2.0595036387324317	21.615967	4.649297
2.0770332409105414	20.791016	4.5597167
2.094562891699263	20.476814	4.525131
2.1120925915092217	20.017399	4.4740806
2.129622340751053	20.12908	4.486544
2.1471521398354043	188.422	13.726689
2.1646819891729323	444.78586	21.089947
2.182211889174303	440.9125	20.997917
2.1997418402501974	453.24164	21.289473
2.2172718428113023	433.05597	20.809998
2.234801897268317	320.90802	17.913906
2.2523320040319548	17.32728	4.162605
2.269862163512935	17.04092	4.128065
2.287392376121992	16.559303	4.0693126
2.304922642269869	16.247982	4.0308785
2.322452962367322	16.053667	4.006703
2.3399833368251164	15.639343	3.954661
2.357513766054032	15.506865	3.9378757
2.3750442504648586	15.139164	3.8909078
2.3925747904683963	14.910554	3.8614187
2.410105386475459	14.698463	3.8338575
2.4276360388968707	14.402735	3.7950935
2.445166748143469	14.106514	3.755864
2.4626975146261025	13.989869	3.7403033
2.4802283387556323	13.858983	3.7227654
2.4977592209429305	13.480063	3.6715205
2.5152901615988825	13.085302	3.6173613
2.5328211611343865	12.929813	3.595805
2.5503522199603523	12.834504	3.5825276
2.5678833384877024	12.806173	3.5785713
2.5854145171273712	12.505399	3.5362973
2.6029457562903064	12.305843	3.5079687
2.620477056387469	12.062491	3.4731097
2.6380084178298326	11.863153	3.4442928
2.655539841028383	11.630262	3.410317
2.673071326394119	11.459005	3.3851151
2.6906028743380523	11.170998	3.3423042
2.708134485271211	11.140816	3.337786
2.7256661596046325	10.995636	3.3159668
2.743197897749369	10.968805	3.3119187
2.760729700116486	10.835245	3.2916934
2.778261567117063	10.500169	3.2403965
2.795793499162193	10.363822	3.219289
2.8133254966629817	10.181171	3.1907947
2.830857560030551	10.075721	3.1742275
2.8483896896760337	9.833527	3.1358454
2.865921886010578	9.675512	3.1105485
2.883454149445347	9.601806	3.098678
2.9009864803915177	9.487083	3.080111
2.91851887926028	9.45294	3.0745633
2.9360513464628384	9.327604	3.0541127
2.953583882410413	9.202203	3.0335133
2.9711164875142373	9.0488615	3.0081325
2.9886491621855606	8.861928	2.9768991
3.0061819068356455	8.671339	2.9447138
3.023714721875769	8.634682	2.938483
3.041247607717225	8.613445	2.9348671
3.0587805647713213	8.538959	2.9221497
3.0763135934493806	8.41857	2.901477
3.0938466941627407	8.187731	2.861421
3.1113798673227544	8.126937	2.8507783
3.1289131133407904	8.036669	2.8349018
3.1464464326282315	7.947167	2.819072
3.1639798255964786	7.8279996	2.7978563
3.1815132926569443	7.629195	2.7620997
3.1990468342210603	7.599304	2.7566836
3.216580450700272	7.587158	2.7544796
3.2341141425060416	7.5958133	2.7560503
3.251647910049847	7.4851227	2.7358952
3.2691817537431813	7.361488	2.7132063
3.286715673997555	7.3110633	2.7038977
3.3042496712244938	7.2598624	2.6944132
3.32178374583554	7.1116743	2.6667724
3.339317898242251	6.9687014	2.6398299
3.3568521288562034	6.841744	2.6156728
3.3743864380889876	6.919144	2.6304266
3.3919208263522127	6.939822	2.634354
3.4094552940575023	6.899375	2.626666
3.4269898416164972	6.838597	2.615071
3.444524469440858	6.6515083	2.5790517
3.4620591779422587	6.610248	2.5710404
3.479593967532391	6.480408	2.5456645
3.4971288386229658	6.449933	2.539672
3.5146637916257086	6.4617476	2.5419967
3.5321988269523628	6.404	2.5306125
3.5497339450146903	6.4488463	2.5394578
3.5672691462244708	6.3906307	2.5279696
3.5848044309934988	6.430939	2.5359297
3.60233979973359	6.390781	2.5279994
3.619875252856575	6.3306236	2.516073
3.6374107907743034	6.2897983	2.507947
3.6549464138986427	6.2596126	2.501922
3.6724821226414788	6.2821956	2.5064309
3.690017917414714	6.289271	2.5078418
3.7075537986302702	6.38749	2.5273483
3.7250897667000857	6.420903	2.53395
3.7426258220361235	6.5478716	2.558881
3.7601619650503553	6.794681	2.6066608
3.777698196154779	7.2963734	2.70118
3.7952345157614067	8.350371	2.889701
3.8127709242822716	9.181833	3.030154
3.830307422129425	11.32769	3.3656633
3.847844009714936	30.140226	5.4900117
3.8653806874508954	97.585594	9.878542
3.882917455749409	96.96867	9.847267
3.900454315022606	96.82925	9.840185
3.917991265682631	41.366524	6.431681
3.9355283081416506	11.002317	3.3169742
3.9530654428118495	8.802169	2.966845
3.970602670105433	7.602976	2.7573495
3.9881399904346244	6.6713767	2.5829008
4.005677404211669	6.5527105	2.5598264
4.023214911848827	6.427124	2.5351772
4.0407525137583855	6.48068	2.545718
4.058290210352644	6.5435457	2.5580356
4.075828002043927	6.4952397	2.548576
4.0933658892445814	6.4565606	2.5409763
4.110903872366966	6.3393583	2.5178082
4.128441951823468	6.2298193	2.4959607
4.145980128026488	6.27637	2.5052686
4.163518401388452	6.286546	2.5072987
4.181056772321807	6.350567	2.5200331
4.1985952412390155	6.257885	2.5015764
4.216133808552567	6.1766405	2.4852848
4.233672474674966	6.19425	2.488825
4.251211240018741	6.350496	2.520019
4.268750104996445	6.6146994	2.5719059
4.286289070020643	7.5292797	2.7439532
4.303828135503928	9.149005	3.024732
4.3213673018589125	29.531668	5.4343047
4.3389065694982305	90.66934	9.522045
4.356445938834537	165.9712	12.882981
4.3739854102805085	171.58986	13.099231
4.391524984248844	172.35117	13.128259
4.409064661152262	136.42783	11.680232
4.426604441403504	96.72853	9.835067
4.444144325415337	75.783005	8.705343
4.461684313600543	21.852644	4.674681
4.47922440637193	22.120089	4.7032
4.496764604142329	20.466368	4.523977
4.5143049073245916	18.736721	4.3285933
4.531845316331589	16.638382	4.079017
4.5493858315762195	13.814006	3.7167199
4.566926453471405	11.353721	3.3695283
4.584467182430081	9.377701	3.0623033
4.602008018865218	8.267274	2.8752868
4.619548963189798	7.488475	2.736508
4.637090015816834	7.0138617	2.6483696
4.654631177159353	6.7455454	2.5972188
4.672172447630417	6.5144596	2.5523438
4.689713827643102	6.3583717	2.5215812
4.7072553176105085	6.1187077	2.473602
4.724796917945764	5.9762235	2.4446316
4.742338629062015	5.899966	2.4289844
4.759880451372434	5.821923	2.412866
4.777422385290215	5.7252274	2.3927448
4.794964431228581	5.7245145	2.3925958
4.812506589600768	5.7216806	2.3920035
4.830048860820047	5.679038	2.3830733
4.847591245299709	5.6976504	2.386975
4.8651337434530655	5.7229443	2.3922677
4.882676355693457	5.7183733	2.3913121
4.900219082434242	5.687391	2.384825
4.917761924088813	5.593683	2.3650968
4.935304881070575	5.4868994	2.3424132
4.952847953792969	5.5081387	2.3469424
4.970391142669449	5.535129	2.3526855
4.9879344481135055	5.5790477	2.3620007
5.005477870538642	5.5846925	2.3631954
5.023021410358394	5.543409	2.3544445
5.040565067986324	5.546052	2.3550057
5.05810884383601	5.451822	2.3349137
5.075652738321066	5.42991	2.330217
5.09319675185512	5.437598	2.3318658
5.110740884851836	5.475831	2.3400493
5.128285137724894	5.4205403	2.3282053
5.145829510888007	5.342104	2.311299
5.163374004754908	5.2605987	2.2935996
5.1809186197393595	5.2476234	2.290769
5.198463356255145	5.2650385	2.294567
5.216008214716077	5.2771535	2.2972057
5.233553195535998	5.364654	2.3161724
5.251098299128764	5.3968396	2.3231099
5.268643525908272	5.332935	2.3093147
5.286188876288432	5.254346	2.292236
5.3037343506831895	5.250493	2.2913954
5.32127994950651	5.27672	2.2971113
5.3388256731723915	5.3298507	2.308647
5.356371522094851	5.297284	2.301583
5.373917496687938	5.223772	2.2855573
5.391463597365729	5.180635	2.2761009
5.40900982454232	5.1367507	2.2664402
5.426556178631843	5.173072	2.2744389
5.444102660048449	5.224148	2.2856395
5.4616492692063225	5.218467	2.2843964
5.479196006519669	5.258322	2.293103
5.496742872402727	5.1821933	2.276443
5.514289867269756	5.176938	2.2752886
5.531836991535049	5.1454344	2.268355
5.549384245612924	5.1686006	2.2734556
5.566931629917724	5.168157	2.273358
5.584479144863822	5.148158	2.2689552
5.6020267908656205	5.106883	2.2598414
5.619574568337545	5.1517324	2.2697427
5.637122477694054	5.193052	2.278827
5.654670519349629	5.224009	2.285609
5.672218693718784	5.2399907	2.2891026
5.689767001216059	5.18403	2.2768464
5.707315442256021	5.142427	2.267692
5.724864017253266	5.140143	2.2671883
5.7424127266224225	5.1727977	2.2743785
5.75996157077814	5.21742	2.2841673
5.777510550135105	5.225773	2.285995
5.795059665108022	5.233925	2.2877772
5.812608916111639	5.2323227	2.2874272
5.830158303560715	5.280899	2.2980206
5.847707827870055	5.193353	2.278893
5.86525748945448	5.195964	2.2794657
5.8828072887288485	5.350228	2.313056
5.900357226108044	5.459919	2.336647
5.917907302006979	5.546842	2.3551736
5.9354575168406	6.127648	2.4754086
5.9530078710238765	6.747971	2.5976858
5.970558364971812	7.2984505	2.7015646
5.988108999099438	7.647781	2.7654622
6.005659773821818	8.167739	2.8579257
6.023210689554039	7.980502	2.8249784
6.040761746711227	8.413353	2.900578
6.058312945708531	7.8057075	2.7938697
6.075864286961132	7.3245316	2.7063873
6.093415770884244	6.6967883	2.5878153
6.1109673978931065	6.1701994	2.4839885
6.128519168402993	5.582677	2.362769
6.146071082829204	5.4949417	2.344129
6.163623141587075	5.410015	2.325944
6.181175345091969	5.3100157	2.304347
6.198727693759281	5.190313	2.278226
6.216280188004435	5.13439	2.2659192
6.233832828242885	5.0878477	2.2556257
6.251385614890126	5.17454	2.2747614
6.268938548361669	5.2207184	2.2848892
6.286491629073067	5.164522	2.2725585
6.304044857439898	5.184429	2.2769341
6.321598233877777	5.0828004	2.2545066
6.339151758802344	5.040639	2.2451367
6.356705432629277	5.0572505	2.2488332
6.37425925577428	4.9764233	2.23079
6.391813228653095	5.002609	2.2366512
6.409367351681486	5.029398	2.242632
6.426921625275259	5.054825	2.2482939
6.44447604985025	5.0124044	2.2388399
6.46203062582232	4.975843	2.2306597
6.47958535360737	4.9276385	2.2198286
6.497140233621328	4.9783497	2.2312217
6.514695266280161	4.986956	2.2331493
6.532250451999859	4.993601	2.2346365
6.549805791196454	5.055798	2.2485101
6.567361284286002	5.0843635	2.2548532
6.584916931684597	5.155651	2.2706058
6.602472733808367	5.167792	2.2732778
6.6200286910734665	5.1360083	2.2662764
6.637584803896092	5.0424113	2.2455313
6.655141072692462	4.9552426	2.2260375
6.672697497878842	4.930055	2.2203727
6.690254079871514	4.98145	2.2319162
6.707810819086808	5.013631	2.2391138
6.725367715941078	5.103056	2.2589943
6.742924770850719	5.1402154	2.2672043
6.760481984232151	5.1810412	2.27619
6.778039356501836	5.1414814	2.2674835
6.795596888076266	5.0913143	2.2563941
6.813154579371963	5.041559	2.2453418
6.830712430805492	4.9944167	2.2348192
6.84827044279344	5.0056515	2.2373314
6.865828615752445	4.9714017	2.229664
6.883386950099159	5.020884	2.240733
6.900945446250287	5.045879	2.2463033
6.918504104622553	5.04335	2.2457404
6.936062925632727	5.0131726	2.2390115
6.953621909697607	4.961539	2.227451
6.971181057234028	5.02537	2.2417338
6.988740368658859	5.1392436	2.26699
7.006299844389007	5.261342	2.2937615
7.023859484841407	5.3523393	2.3135123
7.041419290433036	5.4011135	2.3240297
7.058979261580902	5.506082	2.3465042
7.0765393987020495	5.7317786	2.3941133
7.094099702213559	6.0788126	2.465525
7.111660172532549	6.462627	2.5421698
7.129220810076164	6.790888	2.6059332
7.146781615261595	7.404769	2.7211704
7.16434258850606	7.59897	2.756623
7.181903730226821	8.084812	2.8433805
7.1994650408411704	8.221301	2.8672812
7.217026520766437	8.421415	2.9019675
7.234588170419983	8.620166	2.9360118
7.252149990219215	8.54117	2.922528
7.269711980581568	8.427815	2.90307
7.2872741419245175	8.177223	2.8595843
7.304836474665574	7.7887945	2.790841
7.322398979222286	7.471857	2.7334697
7.339961656012233	7.217764	2.6865897
7.357524505453039	6.8648105	2.6200783
7.375087527962357	6.622826	2.5734851
7.392650723957886	6.4330316	2.5363421
7.410214093857353	6.1118193	2.4722095
7.427777638078528	5.8647857	2.421732
7.445341357039213	5.6609273	2.3792703
7.4629052511572525	5.464611	2.3376508
7.480469320850524	5.3605285	2.3152814
7.498033566536948	5.2928495	2.3006194
7.5155979886344735	5.2765384	2.2970717
7.5331625875610975	5.262332	2.2939773
7.550727363734844	5.261333	2.2937596
7.568292317573788	5.2810473	2.298053
7.585857449496025	5.290287	2.3000624
7.603422759919705	5.245665	2.2903416
7.620988249263007	5.2417116	2.2894785
7.638553917944147	5.2787104	2.2975445
7.656119766381391	5.321061	2.3067424
7.673685794993023	5.279735	2.2977674
7.691252004197388	5.298625	2.3018742
7.70881839441285	5.33551	2.3098722
7.726384966057826	5.4164696	2.327331
7.743951719550762	5.3650694	2.316262
7.761518655310149	5.3676972	2.3168292
7.779085773754511	5.3110814	2.3045783
7.796653075302419	5.3577633	2.3146844
7.814220560372475	5.422341	2.328592
7.831788229383323	5.356865	2.3144903
7.8493560827536495	5.335607	2.3098934
7.866924120902174	5.3185525	2.3061986
7.884492344247663	5.396533	2.3230438
7.9020607532089135	5.4297867	2.3301902
7.919629348204771	5.4472823	2.3339415
7.937198129654115	5.414126	2.3268275
7.954767097975865	5.4160385	2.3272383
7.972336253588986	5.4872894	2.3424964
7.989905596912472	5.506305	2.3465517
8.007475128365371	5.506687	2.3466332
8.025044848366756	5.534564	2.3525655
8.042614757335754	5.6739244	2.3820002
8.060184855691523	5.7474146	2.3973765
8.07775514385327	5.8932147	2.4275944
8.095325622240228	5.948396	2.4389334
8.112896291271687	5.9790187	2.4452033
8.130467151366968	5.969353	2.443226
8.148038202945436	5.9452405	2.4382863
8.165609446426497	5.9964237	2.4487596
8.183180882229594	6.052177	2.4601173
8.200752510774217	5.9911146	2.4476755
8.218324332479893	5.932429	2.4356577
8.235896347766193	5.986942	2.446823
8.253468557052724	6.0328865	2.4561934
8.27104096075914	6.0507326	2.4598236
8.288613559305137	6.0828557	2.4663446
8.306186353110448	6.0658197	2.4628885
8.32375934259485	6.1416674	2.4782388
8.341332528178162	6.139065	2.4777136
8.358905910280246	6.198991	2.4897773
8.376479489321003	6.225158	2.4950266
8.394053265720377	6.2973046	2.509443
8.411627239898356	6.2655888	2.503116
8.42920141227497	6.237487	2.4974961
8.44677578327029	6.2080183	2.4915895
8.464350353304427	6.2056627	2.4911168
8.48192512279754	6.196504	2.4892778
8.499500092169827	6.159376	2.4818091
8.51707526184153	6.174217	2.4847972
8.534650632232934	6.2419057	2.4983807
8.552226203764365	6.266454	2.5032887
8.569801976856192	6.207403	2.491466
8.587377951928834	6.1660347	2.4831502
8.60495412940274	6.189566	2.4878838
8.622530509698416	6.286629	2.5073152
8.6401070932364	6.4084783	2.5314972
8.657683880437283	6.502374	2.5499754
8.675260871721695	6.646713	2.578122
8.692838067510303	6.8409452	2.61552
8.710415468223834	7.034371	2.6522388
8.727993074283043	7.1622853	2.6762447
8.745570886108737	7.2614965	2.6947165
8.763148904121765	7.3595543	2.7128499
8.78072712874302	7.3184047	2.705255
8.798305560393441	7.427877	2.725413
8.815884199494006	7.4921217	2.737174
8.833463046465745	7.7500057	2.783883
8.851042101729728	7.9601526	2.8213742
8.86862136570707	8.292114	2.8796031
8.886200838818924	8.391845	2.896868
8.903780521486505	8.324289	2.8851845
8.921360414131055	8.430872	2.9035964
8.938940517173874	8.64987	2.941066
8.956520831036297	8.8737755	2.9788883
8.97410135613971	9.145989	3.0242336
8.99168209290554	9.309281	3.0511115
9.009263041755265	9.616157	3.100993
9.026844203110405	9.875467	3.1425257
9.044425577392525	10.004538	3.162995
9.062007165023239	10.048712	3.1699703
9.079588966424197	10.366462	3.219699
9.097170982017108	10.541881	3.2468262
9.11475321222372	11.465788	3.386117
9.132335657465825	12.318653	3.509794
9.149918318165264	12.344158	3.5134254
9.167501194743924	12.871205	3.5876462
9.18508428762374	12.654376	3.557299
9.202667597226693	12.639286	3.5551775
9.220251123974803	12.322988	3.5104113
9.237834868290143	12.028394	3.4681976
9.255418830594836	11.747284	3.427431
9.273003011311046	11.296111	3.3609688
9.290587410860985	11.107427	3.3327806
9.308172029666911	10.448856	3.232469
9.32575686815113	10.185689	3.1915026
9.343341926735997	8.898375	2.9830143
9.360927205843916	8.729997	2.9546568
9.378512705897327	8.659722	2.9427407
9.396098427318728	8.436693	2.9045987
9.413684370530664	8.25608	2.8733394
9.431270535955722	8.020499	2.8320487
9.448856924016539	7.8044524	2.793645
9.466443535135806	7.637705	2.7636397
9.484030369736251	7.70821	2.7763662
9.501617428240658	7.7672544	2.7869794
9.519204711071852	7.818648	2.7961845
9.536792218652714	7.799256	2.7927148
9.55437995140617	7.792407	2.7914884
9.571967909755191	7.8896055	2.808844
9.589556094122802	7.885495	2.8081124
9.60714450493207	7.919393	2.8141415
9.624733142606116	7.9285913	2.8157754
9.642322007568108	7.9391427	2.8176484
9.659911100241267	7.998793	2.8282137
9.677500421048851	8.017704	2.8315551
9.695089970414175	8.096837	2.8454943
9.712679748760609	8.065943	2.8400602
9.730269756511557	8.133221	2.8518803
9.747859994090492	8.180362	2.8601332
9.765450461920915	8.280232	2.8775394
9.78304116042639	8.32397	2.885129
9.800632090030527	8.263463	2.874624
9.81822325115699	8.298453	2.8807037
9.835814644229481	8.274944	2.8766203
9.853406269671762	8.265858	2.8750405
9.870998127907646	8.247979	2.8719294
9.888590219360985	8.305936	2.882002
9.906182544455698	8.410756	2.9001303
9.923775103615734	8.450342	2.9069471
9.941367897265108	8.379661	2.8947644
9.958960925827878	8.318331	2.8841517
9.97655418972816	8.3078	2.8823254
9.994147689390106	8.355199	2.890536
10.011741425237934	8.321191	2.8846474
10.029335397695904	8.332718	2.8866448
10.04692960718833	8.348618	2.8893974
10.06452405413958	8.394652	2.8973527
10.082118738974064	8.470508	2.9104137
10.099713662116246	8.417686	2.901325
10.117308823990651	8.33656	2.8873103
10.134904225021844	8.2255745	2.8680263
10.152499865634445	8.176284	2.8594203
10.170095746253125	8.175728	2.859323
10.18769186730261	8.125091	2.8504546
10.205288229207675	8.2354355	2.8697448
10.222884832393145	8.242079	2.870902
10.2404816772839	8.227706	2.8683977
10.258078764304868	8.080755	2.8426669
10.275676093881035	7.945966	2.8188589
10.293273666437438	7.953153	2.8201334
10.310871482399158	8.134767	2.8521512
10.32846954219134	8.216869	2.8665082
10.346067846239173	8.247342	2.8718185
10.363666394967908	8.206414	2.8646839
10.38126518880283	8.205833	2.8645825
10.398864228169298	8.241738	2.8708427
10.416463513492713	8.232003	2.8691468
10.434063045198531	8.17208	2.858685
10.451662823712262	8.149118	2.854666
10.469262849459467	8.167861	2.8579469
10.486863122865758	8.153662	2.8554618
10.504463644356806	8.110161	2.8478343
10.522064414358338	8.034656	2.8345468
10.539665433296118	7.936696	2.8172143
10.557266701595987	7.9004574	2.8107753
10.574868219683818	7.8177705	2.7960277
10.592469987985552	7.743308	2.78268
10.610072006927185	7.686745	2.772498
10.627674276934751	7.5764356	2.7525325
10.64527679843435	7.3772426	2.716108
10.662879571852143	7.2701416	2.69632
10.680482597614331	7.183699	2.6802423
10.698085876147173	7.1006355	2.6647017
10.715689407876988	7.009679	2.64758
10.733293193230146	6.928148	2.6321375
10.750897232633072	6.8800015	2.6229756
10.76850152651225	6.811732	2.6099296
10.786106075294207	6.7238674	2.5930421
10.803710879405534	6.661263	2.5809422
10.821315939272877	6.547481	2.5588045
10.83892125532294	6.5019364	2.5498896
10.856526827982472	6.354212	2.5207562
10.874132657678285	6.340689	2.5180726
10.891738744837243	6.353221	2.5205595
10.909345089886271	6.336533	2.5172472
10.926951693252343	6.306629	2.5113003
10.944558555362494	6.19947	2.4898734
10.96216567664381	6.0847635	2.4667313
10.979773057523436	5.9539056	2.4400625
10.997380698428573	5.8087687	2.4101388
11.014988599786477	5.7422304	2.396295
11.032596762024461	5.7096133	2.3894796
11.050205185569892	5.698689	2.3871927
11.067813870850198	5.700996	2.3876758
11.085422818292859	5.6301284	2.3727891
11.10303202832541	5.5151253	2.3484304
11.120641501375454	5.3901157	2.3216622
11.138251237870636	5.2909446	2.3002052
11.155861238238671	5.254665	2.2923055
11.173471502907317	5.254299	2.2922258
11.191082032304402	5.1647477	2.272608
11.208692826857805	5.1140575	2.261428
11.226303886995465	5.062148	2.2499218
11.243915213145371	5.086809	2.2553957
11.261526805735578	5.0298195	2.2427258
11.279138665194196	4.9822955	2.2321057
11.296750791949393	4.926361	2.2195408
11.314363186429393	4.8887506	2.211052
11.331975849062479	4.806397	2.1923497
11.34958878027699	4.758079	2.181302
11.36720198050133	4.7418995	2.1775904
11.384815450163948	4.751181	2.1797204
11.402429189693366	4.6472993	2.1557596
11.420043199518153	4.548277	2.132669
11.437657480066942	63.43681	7.9647226
11.455272031768422	85.12901	9.226539
11.472886855051353	107.52603	10.369476
11.490501950344528	99.12706	9.956257
11.508117318076819	84.52826	9.193925
11.52573295867715	45.899513	6.774918
11.543348872574514	4.128427	2.0318532
11.560965060197946	4.0149755	2.0037403
11.57858152197655	4.053622	2.0133607
11.59619825833949	4.0664105	2.0165343
11.613815269715985	4.1007814	2.0250387
11.631432556535323	38.53431	6.207601
11.649050119226837	83.0693	9.114236
11.666667958219929	93.409164	9.664842
11.68428607394406	107.68163	10.376976
11.701904466828756	82.508415	9.083414
11.719523137303586	65.43189	8.088998
11.737142085798196	4.642543	2.1546562
11.754761312742286	3.7129543	1.9269028
11.772380818565619	3.633914	1.9062828
11.790000603698015	3.590802	1.8949411
11.80762066856935	3.5771158	1.8913264
11.825241013609572	3.5351238	1.8801925
11.842861639248683	3.4974792	1.8701549
11.860482545916748	3.4812245	1.865804
11.878103734043883	3.4645886	1.8613405
11.895725204060282	3.4091272	1.8463823
11.91334695639619	3.4128058	1.8473781
11.930968991481919	3.4120803	1.8471817
11.948591309747824	3.4274523	1.851338
11.966213911624347	3.4173641	1.8486114
11.98383679754198	3.3229349	1.822892
12.001459967931268	3.2844918	1.8123167
12.019083423222835	3.29739	1.8158717
12.036707163847352	3.3057728	1.8181784
12.05433119023556	3.2999308	1.8165711
12.071955502818259	3.251629	1.8032274
12.089580102026313	3.2069159	1.7907864
12.107204988290643	3.209632	1.7915446
12.12483016204224	3.245921	1.801644
12.142455623712152	3.252518	1.8034738
12.16008137373149	3.2022069	1.7894711
12.177707412531431	3.1631787	1.7785327
12.19533374054321	3.1216538	1.7668202
12.212960358198126	3.1013978	1.7610786
12.230587265927545	3.058029	1.7487221
12.248214464162889	3.0574489	1.7485563
12.265841953335649	3.0532286	1.747349
12.283469733877375	3.037768	1.7429193
12.301097806219685	3.0242496	1.7390369
12.31872617079425	3.0113988	1.7353382
12.336354828032825	2.9664447	1.722337
12.353983778367205	2.9340098	1.7128952
12.371613022229262	2.9323268	1.7124038
12.389242560050928	2.934786	1.7131218
12.406872392264201	2.9477816	1.7169105
12.424502519301143	2.9051352	1.7044457
12.442132941593874	2.8947804	1.7014054
12.459763659574586	2.842936	1.6861008
12.477394673675532	2.8403456	1.6853325
12.49502598432903	2.8188117	1.6789317
12.51265759196746	2.8561096	1.6900028
12.530289497023267	2.8284929	1.6818124
12.547921699928967	2.8198984	1.6792552
12.565554201117134	2.7899728	1.6703211
12.583187001020404	2.791833	1.6708779
12.600820100071486	2.7871468	1.669475
12.618453498703152	2.7575057	1.6605738
12.636087197348235	2.7437947	1.6564404
12.65372119643964	2.7331645	1.6532285
12.671355496410326	2.7571082	1.6604543
12.68899009769333	2.7758138	1.6660774
12.706625000721749	2.8239858	1.6804719
12.724260205928752	2.897036	1.7020682
12.741895713747551	2.9711215	1.7236942
12.759531524611454	3.02585	1.7394971
12.777167638953818	3.0172954	1.7370363
12.794804057208072	3.0104566	1.7350668
12.812440779807702	3.0432765	1.744499
12.830077807186271	3.179808	1.7832016
12.847715139777405	3.20973	1.7915719
12.865352778014795	3.4326518	1.8527417
12.882990722332197	3.5805552	1.8922355
12.90062897316344	3.6629615	1.9138864
12.918267530942412	3.735039	1.9326249
12.935906396103071	3.6147046	1.9012376
12.953545569079449	3.8271677	1.9563148
12.971185050305628	3.634439	1.9064205
12.988824840215775	3.635762	1.9067674
13.006464939244115	3.6309075	1.9054941
13.024105347824943	3.45809	1.8595941
13.041746066392617	3.5459018	1.8830565
13.05938709538157	3.344536	1.8288072
13.077028435226296	3.3799446	1.8384626
13.094670086361363	3.2843792	1.8122857
13.112312049221401	3.1832724	1.7841728
13.129954324241112	3.0549307	1.747836
13.147596911855258	2.873376	1.6951035
13.165239812498685	2.8479135	1.6875762
13.182883026606293	2.8236544	1.6803733
13.200526554613058	2.7771716	1.6664848
13.218170396954017	2.7076287	1.6454874
13.235814554064284	2.662463	1.6317055
13.253459026379034	2.6563623	1.629835
13.271103814333523	2.6398907	1.624774
13.288748918363058	2.6657097	1.6327001
13.306394338903031	2.6857119	1.6388142
13.32404007638889	2.7080739	1.6456226
13.341686131256164	2.693251	1.6411127
13.359332503940449	2.699142	1.6429065
13.376979194877402	2.6985912	1.6427389
13.394626204502751	2.7665348	1.6632904
13.412273533252307	2.7317722	1.6528074
13.429921181561937	2.6975296	1.6424158
13.447569149867581	2.6621435	1.6316077
13.465217438605247	2.6400661	1.624828
13.482866048211022	2.6694467	1.6338441
13.500514979121052	2.7256837	1.6509645
13.518164231771568	2.730053	1.6522872
13.535813806598844	2.733895	1.6534494
13.553463704039254	2.7080255	1.645608
13.571113924529229	2.6890235	1.6398243
13.588764468505275	2.697671	1.6424588
13.606415336403956	2.7058587	1.6449494
13.624066528661917	2.7330344	1.6531892
13.641718045715882	2.7907655	1.6705585
13.659369888002635	2.8527844	1.6890187
13.67702205595903	2.8957047	1.7016771
13.694674550021993	2.9930649	1.7300477
13.712327370628532	3.039615	1.7434491
13.729980518215713	3.110359	1.763621
13.747633993220681	3.171189	1.7807833
13.765287796080647	3.2234855	1.7954068
13.7829419272329	3.3082361	1.8188558
13.800596387114801	3.3394208	1.8274082
13.818251176163775	3.3701386	1.8357937
13.835906294817324	3.3880093	1.8406546
13.853561743513023	3.4412174	1.8550519
13.871217522688525	3.5091448	1.8732711
13.888873632781538	3.5577648	1.8862038
13.906530074229858	3.56143	1.8871751
13.92418684747135	3.53293	1.879609
13.941843952943948	3.4975939	1.8701855
13.959501391085665	3.4885387	1.867763
13.977159162334578	3.4210947	1.8496201
13.994817267128846	3.4090195	1.846353
14.012475705906693	3.32568	1.8236448
14.030134479106424	3.2286046	1.7968318
14.047793587166414	3.12635	1.7681488
14.065453030525108	3.0567315	1.7483511
14.083112809621026	3.0019612	1.7326169
14.100772924892766	2.947837	1.7169267
14.118433376778997	2.928391	1.7112542
14.136094165718458	2.9122424	1.7065294
14.153755292149969	2.8764474	1.6960093
14.171416756512416	2.7805588	1.6675007
14.189078559244768	2.6882477	1.6395876
14.20674070078606	2.6004982	1.612606
14.224403181575408	2.5583265	1.5994769
14.242066002051999	2.53748	1.592947
14.259729162655093	2.5073552	1.5834631
14.277392663824022	2.4948585	1.5795121
14.295056505998208	2.4571931	1.5675436
14.312720689617128	2.441874	1.5626497
14.330385215120348	2.4270513	1.5578996
14.348050082947497	2.4199073	1.5556052
14.3657152935383	2.4297848	1.5587767
14.383380847332528	2.4108412	1.5526884
14.401046744770051	2.4010825	1.5495427
14.418712986290798	2.3681548	1.5388811
14.436379572334793	2.373748	1.5406972
14.454046503342123	2.3856194	1.544545
14.471713779752946	2.3963327	1.5480093
14.489381402007504	2.418182	1.5550505
14.507049370546113	2.417344	1.5547811
14.524717685809168	2.4273608	1.557999
14.542386348237134	2.3986506	1.5487578
14.560055358270553	2.4101596	1.5524689
14.577724716350051	2.4120622	1.5530815
14.595394422916325	2.4189582	1.5553
14.61306447841015	2.4379735	1.5614011
14.63073488327237	2.4692147	1.5713735
14.648405637943917	2.5061495	1.5830823
14.6660767428658	2.472988	1.5725737
14.683748198479094	2.4960794	1.5798986
14.701420005224954	2.5349336	1.5921475
14.719092163544628	2.627669	1.6210086
14.73676467387942	2.6485538	1.6274378
14.754437536670727	2.6893742	1.6399312
14.772110752360014	2.6992972	1.6429538
14.78978432138882	2.7379653	1.6546798
14.807458244198777	2.7313716	1.6526862
14.82513252123159	2.675657	1.6357436
14.842807152929028	2.6571681	1.6300822
14.860482139732962	2.6280763	1.6211343
14.87815748208531	2.6099489	1.6155336
14.8958331804281	2.6516905	1.6284012
14.91350923520342	2.6446135	1.6262268
14.931185646853438	2.7031715	1.6441325
14.948862415820408	2.6922283	1.6408011
14.966539542546656	2.6838431	1.6382439
14.98421702747459	2.6663754	1.6329039
15.001894871046696	2.637649	1.6240841
15.019573073705542	2.627709	1.6210209
15.037251635893766	2.5717573	1.60367
15.054930558054092	2.5994616	1.6122845
15.072609840629323	2.6745007	1.63539
15.090289484062351	2.8510754	1.6885128
15.107969488796124	3.1567852	1.7767345
15.125649855273691	3.5975862	1.8967304
15.14333058393817	4.096985	2.024101
15.161011675232768	5.118683	2.2624507
15.17869312960076	6.49654	2.5488312
15.196374947485506	8.351246	2.8898523
15.214057129330447	11.368321	3.371694
15.231739675579114	15.972779	3.9965959
15.249422586675102	20.959734	4.5781803
15.267105863062092	23.9743	4.8963556
15.284789505183847	24.237118	4.9231205
15.302473513484218	22.26545	4.718628
15.320157888407127	18.844341	4.3410068
15.337842630396578	14.775182	3.84385
15.355527739896656	11.463094	3.385719
15.37321321735153	8.892208	2.9819806
15.39089906320545	6.538002	2.5569518
15.408585277902748	4.9162927	2.2172713
15.42627186188783	3.7798839	1.9441923
15.443958815605198	3.2458303	1.8016188
15.461646139499424	2.9233153	1.7097706
15.479333834015168	2.784141	1.6685746
15.497021899597165	2.737346	1.6544926
15.514710336690234	2.7298412	1.6522231
15.53239914573928	2.6743476	1.6353433
15.550088327189297	2.5984247	1.611963
15.567777881485336	2.4887784	1.5775863
15.58546780907256	2.4996948	1.5810423
15.6031581103962	2.4691336	1.5713477
15.620848785901568	2.49491	1.5795285
15.638539836034063	2.4560914	1.5671922
15.656231261239173	2.435022	1.5604558
15.673923061962451	2.4137518	1.5536253
15.691615238649552	2.3953612	1.5476954
15.709307791746202	2.3853552	1.5444596
15.727000721698221	2.369956	1.5394661
15.744694028951498	2.356364	1.5350453
15.76238771395202	2.3649921	1.5378531
15.780081777145844	2.353922	1.5342497
15.797776218979125	2.3855023	1.5445071
15.815471039898094	2.3838158	1.543961
15.833166240349064	2.4009278	1.5494927
15.850861820778437	2.3710072	1.5398076
15.868557781632699	2.369425	1.5392936
15.886254123358412	2.3324637	1.5272405
15.903950846402232	2.3374898	1.5288851
15.921647951210897	2.3302956	1.5265306
15.939345438231225	2.3712754	1.5398946
15.957043307910133	2.3675482	1.5386839
15.974741560694602	2.3880749	1.5453397
15.992440197031714	2.434136	1.5601717
16.01013921736862	2.4598453	1.5683894
16.02783862215259	2.4312181	1.5592364
16.045538411830933	2.4025977	1.5500315
16.06323858685107	2.400106	1.5492275
16.080939147660512	2.3959713	1.5478926
16.09864009470684	2.3867002	1.5448948
16.11634142843774	2.410512	1.5525824
16.134043149300954	2.430487	1.5590019
16.15174525774433	2.4551876	1.5669038
16.169447754215817	2.443392	1.5631353
16.18715063916342	2.4452167	1.5637188
16.204853913035244	2.447647	1.5644958
16.222557576279478	2.4644184	1.5698466
16.240261629344403	22.432213	4.7362657
16.257966072678386	42.98175	6.556047
16.275670906729868	38.103	6.172763
16.293376131947387	2.5567648	1.5989887
16.31108174877957	2.54779	1.5961798
16.328787757675133	2.5540047	1.5981253
16.34649415908287	2.5537431	1.5980436
16.364200953451657	2.5652132	1.6016283
16.38190814123048	2.565595	1.6017475
16.39961572286839	2.6110775	1.6158829
16.41732369881455	2.6391704	1.6245524
16.43503206951817	2.688295	1.6396021
16.45274083542859	2.720593	1.649422
16.47044999699522	2.7670212	1.6634365
16.488159554667558	2.8380134	1.6846404
16.505869508895184	2.8813524	1.6974547
16.523579860127786	2.9135377	1.7069088
16.541290608815117	2.9482687	1.7170523
16.559001755407035	2.9909503	1.7294364
16.57671330035348	3.0393891	1.7433844
16.59442524410448	3.086353	1.756802
16.61213758711015	3.1523707	1.7754917
16.629850329820705	3.2802634	1.8111497
16.647563472686436	3.4064443	1.8456556
16.665277016157724	3.4656425	1.8616236
16.682990960685053	3.4577365	1.859499
16.70070530671898	3.4770699	1.8646903
16.718420054710155	3.5158424	1.8750579
16.736135205109335	3.6105032	1.9001324
16.753850758367335	3.6641512	1.9141973
16.771566714935087	3.6670496	1.9149542
16.789283075263597	3.6537724	1.9114844
16.80699983980398	3.7596056	1.9389702
16.82471700900741	3.8945003	1.9734489
16.84243458332518	3.9758956	1.9939648
16.860152563208665	4.020585	2.0051396
16.87787094910932	4.11474	2.0284822
16.89558974147871	4.2089243	2.0515664
16.913308940768466	4.2306952	2.0568655
16.931028547430333	4.247902	2.061044
16.94874856191613	4.288963	2.070981
16.966468984677785	4.35345	2.0864923
16.98418981616729	4.4039774	2.0985656
17.00191105683676	4.3995814	2.097518
17.019632707138374	4.448063	2.1090431
17.03735476752442	4.494636	2.1200557
17.05507723844728	4.546854	2.1323354
17.072800120359403	4.5709605	2.1379805
17.090523413713353	4.5359106	2.1297677
17.108247118961785	4.5762115	2.139208
17.125971236557437	4.640317	2.1541395
17.143695766953133	4.681	2.1635618
17.161420710601806	4.6927752	2.1662815
17.179146067956477	4.733949	2.175764
17.19687183947025	4.729449	2.1747296
17.21459802559634	4.7112083	2.1705317
17.232324626788028	4.650444	2.156489
17.25005164349871	4.64053	2.1541889
17.267779076181863	4.6731577	2.1617486
17.285506925291074	4.670539	2.161143
17.30323519127999	4.6512594	2.156678
17.320963874602384	4.6034007	2.1455536
17.33869297571211	4.5719576	2.1382136
17.356422495063114	4.5520763	2.1335595
17.37415243310944	4.5397053	2.1306584
17.391882790305218	4.503657	2.1221821
17.40961356710468	4.467187	2.1135721
17.42734476396215	4.478686	2.1162906
17.445076381332044	4.5051723	2.122539
17.462808419668868	4.622628	2.15003
17.48054087942723	4.8124614	2.1937323
17.498273761061835	5.1212926	2.2630272
17.51600706502747	5.5761824	2.3613942
17.533740791779024	6.3391323	2.5177634
17.551474941771485	7.780089	2.7892811
17.56920951545993	8.8235655	2.9704487
17.586944513299528	10.87666	3.2979782
17.60467993574556	12.433659	3.5261393
17.622415783253373	14.100204	3.755024
17.64015205627843	15.439808	3.929352
17.657888755276293	16.618832	4.07662
17.675625880702604	17.227331	4.150582
17.69336343301311	17.12573	4.1383247
17.71110141266366	16.296886	4.03694
17.728839820110178	15.284867	3.9095867
17.746578655808705	14.346748	3.7877102
17.764317920215372	12.849369	3.5846016
17.7820576137864	11.429293	3.3807237
17.79979773697811	9.461057	3.0758832
17.81753829024692	7.590788	2.7551384
17.835279274049356	5.932518	2.435676
17.85302068884201	4.9054947	2.2148352
17.870762535081607	4.2814636	2.0691698
17.888504813224934	3.9674578	1.9918479
17.90624752372891	3.7954907	1.9482019
17.923990667050536	3.671954	1.9162343
17.941734243646895	3.5713053	1.8897897
17.959478253975185	3.4805632	1.8656267
17.9772226984927	3.4561741	1.8590789
17.994967577656833	3.4430919	1.855557
18.01271289192506	3.4368556	1.8538759
18.030458641754965	3.4107869	1.8468316
18.04820482760425	3.3908718	1.841432
18.06595144993067	3.3343956	1.8260328
18.083698509192125	3.2984588	1.8161659
18.101446005846576	3.2238066	1.7954962
18.119193940352105	3.1729977	1.781291
18.136942313166887	3.1451283	1.773451
18.1546911247492	3.147673	1.7741683
18.1724403755574	3.1836052	1.784266
18.19019006604997	3.2289116	1.7969173
18.207940196685467	3.2364407	1.799011
18.225690767922575	3.1985524	1.7884498
18.243441780220046	3.146932	1.7739594
18.261193234036764	3.110583	1.7636845
18.278945129831676	3.0971165	1.7598627
18.29669746806386	3.0855103	1.7565621
18.314450249192483	3.091937	1.7583904
18.3322034736768	3.0862727	1.7567791
18.349957141976184	3.0688953	1.7518263
18.3677112545501	3.0521662	1.747045
18.385465811858108	3.0477812	1.7457895
18.403220814359884	3.0302715	1.7407675
18.420976262515172	3.0316381	1.74116
18.43873215678387	3.1037562	1.7617481
18.456488497625923	3.1533704	1.7757732
18.474245285501407	3.256077	1.8044603
18.492002520870486	3.2954936	1.8153495
18.50976020419343	3.3981142	1.8433975
18.527518335930615	3.7002718	1.923609
18.545276916542516	4.3132024	2.0768251
18.563035946489688	4.4562697	2.110988
18.580795426232832	4.934356	2.2213411
18.598555356232698	4.7986655	2.1905856
18.616315736950185	5.120192	2.2627842
18.63407656884626	4.7749715	2.185171
18.65183785238201	4.9988856	2.2358189
18.669599588018617	4.732856	2.1755128
18.68736177621737	4.7171254	2.1718943
18.705124417439652	4.670815	2.1612067
18.72288751214696	4.5087566	2.1233833
18.740651060800886	4.6971297	2.1672862
18.758415063863115	4.41191	2.1004548
18.77617952179546	4.557127	2.1347427
18.793944435059814	4.2275925	2.056111
18.811709804118184	4.228081	2.0562298
18.829475629432675	4.194911	2.0481482
18.8472419114655	3.9905264	1.9976302
18.86500865067897	4.086123	2.0214162
18.88277584753551	3.751187	1.9367981
18.90054350249763	3.8093817	1.9517637
18.918311616027957	3.465975	1.8617129
18.936080188589226	3.362104	1.8336041
18.953849220644265	3.0589395	1.7489824
18.971618712656007	2.9234402	1.709807
18.9893886650875	2.854868	1.6896354
19.007159078401887	8.045778	2.836508
19.024929953062408	32.897068	5.7355967
19.042701289532435	32.869034	5.7331524
19.060473088275405	25.409399	5.040774
19.07824534975489	2.6792667	1.6368465
19.096018074434568	2.6071827	1.6146773
19.113791262778197	2.627193	1.6208618
19.13156491524966	2.597137	1.6115636
19.149339032312945	2.608292	1.6150208
19.167113614432136	2.5945737	1.6107681
19.184888662071433	2.5649958	1.6015605
19.202664175695123	2.5476668	1.5961412
19.220440155767623	2.5515556	1.597359
19.238216602753447	2.608199	1.6149919
19.2559935171172	2.5809088	1.6065207
19.27377089932361	2.5703876	1.6032429
19.291548749837514	2.5740864	1.604396
19.309327069123835	2.5638247	1.6011947
19.32710585764763	2.5301383	1.5906408
19.344885115874032	2.4854	1.5765151
19.362664844268313	2.4936488	1.5791291
19.380445043295822	2.4897428	1.5778918
19.39822571342203	2.50315	1.5821346
19.41600685511252	2.4941833	1.5792984
19.43378846883297	2.5103207	1.5843991
19.451570555049173	2.5084362	1.5838044
19.469353114227037	2.524268	1.5887945
19.48713614683254	2.4939573	1.5792269
19.50491965333182	2.4921815	1.5786644
19.52270363419109	2.5013673	1.5815711
19.540488089876686	2.5007713	1.5813828
19.55827302085503	2.5009696	1.5814455
19.576058427592674	2.469988	1.5716196
19.593844310556282	2.4817207	1.5753478
19.611630670212598	2.4955878	1.5797429
19.629417507028506	2.5031621	1.5821384
19.64720482147098	2.4803748	1.5749205
19.6649926140071	2.4690511	1.5713215
19.682780885104084	2.4977381	1.5804234
19.70056963522921	2.4756165	1.5734092
19.718358864849908	2.4746609	1.5731055
19.7361485744337	2.4877858	1.5772716
19.753938764448215	2.5119045	1.5848988
19.771729435361202	2.5449235	1.5952816
19.789520587640506	2.5082545	1.583747
19.807312221754092	2.4710903	1.5719702
19.825104338170043	2.471153	1.5719901
19.842896937356517	2.4831727	1.5758085
19.860690019781824	2.50467	1.5826149
19.87848358591436	2.4965155	1.5800365
19.896277636222635	2.4937305	1.579155
19.914072171175278	2.5187993	1.5870726
19.931867191241015	2.5378718	1.5930699
19.94966269688869	2.5320213	1.5912327
19.967458688587264	2.4816597	1.5753285
19.985255166805807	2.4523969	1.5660131
20.00305213201348	2.4345756	1.5603126
20.020849584679578	2.4273088	1.5579823
20.038647525273507	2.4362242	1.5608408
20.05644595426477	2.4467204	1.5641996
20.07424487212299	2.4637868	1.5696454
20.092044279317903	2.4382305	1.5614834
20.109844176319353	2.4195	1.5554743
20.127644563597304	2.4080925	1.551803
20.145445441621817	2.4263883	1.5576868
20.16324681086307	2.413796	1.5536395
20.181048671791373	2.3946533	1.5474668
20.198851024877122	2.3969378	1.5482047
20.216653870590836	2.4000068	1.5491955
20.234457209403146	2.4125946	1.5532529
20.252261041784802	2.3986049	1.548743
20.270065368206662	2.37662	1.5416291
20.287870189139685	2.3772352	1.5418285
20.305675505054968	2.3906295	1.5461661
20.323481316423702	2.3718216	1.540072
20.341287623717207	2.315449	1.52166
20.359094427406884	2.3201509	1.5232041
20.376901727964288	2.314931	1.5214897
20.39470952586107	2.3327954	1.5273491
20.41251782156899	2.3294766	1.5262623
20.430326615559935	2.3276827	1.5256745
20.448135908305886	2.3329842	1.527411
20.465945700278965	2.3918452	1.5465592
20.483755991951384	2.384861	1.5442995
20.50156678379548	2.3415806	1.5302224
20.519378076283708	2.2964346	1.5153992
20.537189869888635	2.3100243	1.5198764
20.55500216508294	2.312516	1.5206959
20.572814962339415	2.2923286	1.5140438
20.59062826213098	2.297611	1.5157872
20.60844206493066	2.3485029	1.5324826
20.626256371211593	2.337849	1.5290025
20.644071181447032	2.3288865	1.5260689
20.66188649611036	2.3510375	1.5333093
20.67970231567506	2.3878598	1.5452702
20.697518640614742	2.3620596	1.5368993
20.715335471403122	2.3499787	1.532964
20.73315280851404	2.317713	1.5224037
20.750970652421447	2.3199024	1.5231225
20.768789003599412	2.289872	1.5132322
20.786607862522136	2.2996984	1.5164757
20.8044272296639	2.3015563	1.517088
20.82224710549913	2.3183885	1.5226256
20.84006749050237	2.294763	1.5148475
20.857888385148268	3.8482141	1.9616866
20.8757097899116	45.954792	6.7789965
20.893531705267254	64.823944	8.0513315
20.911354131690224	83.8741	9.15828
20.92917706965566	69.14998	8.315646
20.94700051963877	50.200314	7.085218
20.96482448211493	29.46245	5.4279323
20.982648957559622	4.180044	2.0445156
21.00047394644843	2.2879238	1.5125885
21.01829944925707	2.2380593	1.4960145
21.036125466461375	2.2508943	1.500298
21.053951998537297	2.2631621	1.504381
21.071779045960906	2.246086	1.4986948
21.089606609208378	2.2044134	1.4847267
21.10743468875603	2.2057328	1.485171
21.12526328508028	2.2338753	1.4946154
21.143092398657675	2.2318506	1.493938
21.16092202996488	2.2220182	1.4906436
21.17875217947867	2.1928713	1.4808347
21.19658284767596	2.1842003	1.477904
21.21441403503377	2.1810255	1.4768295
21.232245742029225	2.1800494	1.4764991
21.2500779691396	2.1570053	1.4686747
21.26791071684227	2.1317654	1.4600567
21.28574398561475	2.1244984	1.4575659
21.30357777593465	2.1409104	1.4631851
21.321412088279704	2.1769118	1.4754361
21.339246923127792	2.1680396	1.4724264
21.357082280956888	2.1550124	1.467996
21.3749181622451	2.1400592	1.4628941
21.392754567470647	2.1288698	1.4590647
21.41059149711187	2.1330683	1.4605027
21.42842895164726	2.1562326	1.4684116
21.446266931555378	2.1431696	1.4639568
21.464105437314945	2.1065195	1.4513854
21.481944469404798	2.074231	1.440219
21.49978402830388	2.077029	1.4411901
21.51762411449127	2.0910642	1.4460512
21.53546472844617	2.1266787	1.4583137
21.553305870647876	2.1300275	1.4594613
21.571147541575865	2.1073787	1.4516814
21.58898974170967	2.0935667	1.4469162
21.60683247152899	2.104573	1.4507147
21.62467573151363	2.1009717	1.4494729
21.642519522143523	2.101884	1.4497875
21.660363843898722	2.0781338	1.4415734
21.6782086972594	2.0423648	1.4291133
21.696054082705864	2.0169551	1.4201955
21.713900000718535	2.0497036	1.4316787
21.73174645177795	2.0414698	1.4288001
21.749593436364794	2.027771	1.4239982
21.767440954959845	2.0219064	1.4219376
21.785289008044032	1.9865748	1.409459
21.803137596098388	1.9537274	1.397758
21.820986719604086	1.9354668	1.3912106
21.838836379042412	1.9716506	1.4041548
21.85668657489478	1.9920164	1.4113882
21.87453730764273	2.0048952	1.4159433
21.892388577767914	2.0108082	1.4180297
21.91024038575213	2.0231605	1.4223784
21.928092732077285	2.0175564	1.4204072
21.945945617225426	1.9822078	1.407909
21.963799041678694	1.982989	1.4081864
21.981653005919398	31.315115	5.595991
21.999507510429943	78.14533	8.839985
22.01736255569286	73.10318	8.550039
22.035218142190818	4.2109404	2.0520575
22.05307427040661	2.040997	1.4286346
22.07093094082315	2.0483656	1.4312112
22.088788153923474	2.044024	1.4296937
22.106645910190746	2.0322204	1.4255596
22.12450421010827	2.0147772	1.4194285
22.142363054159464	1.960349	1.4001247
22.16022244282787	1.9306474	1.3894774
22.178082376597164	1.9318783	1.3899202
22.195942855951145	1.9530321	1.3975092
22.213803881373742	1.9678949	1.4028168
22.231665453349002	1.9964409	1.4129547
22.24952757236111	1.9944649	1.4122553
22.26739023889438	2.0098171	1.4176801
22.28525345343323	1.9901705	1.410734
22.30311721646225	1.9665513	1.4023378
22.320981528466113	1.9466037	1.3952074
22.33884638992964	1.952597	1.3973535
22.356711801337788	1.9598403	1.399943
22.37457776317561	1.977265	1.4061526
22.392444275928337	2.0056496	1.4162096
22.410311340081282	2.0025294	1.4151076
22.428178956119904	1.9715796	1.4041295
22.446047124529805	1.9318354	1.3899049
22.46391584579669	1.9218752	1.3863171
22.481785120406414	1.9129295	1.3830869
22.49965494884496	1.9225065	1.3865448
22.51752533159841	1.9448045	1.3945625
22.53539626915302	1.9639215	1.4013999
22.553267761995137	1.9600133	1.4000047
22.571139810611264	1.9350593	1.391064
22.589012415488025	1.8918234	1.3754357
22.60688557711216	1.9126966	1.3830028
22.624759295970566	1.9574603	1.3990927
22.642633572550263	1.9701896	1.4036344
22.660508407338362	1.9826554	1.408068
22.67838380082217	1.9661987	1.402212
22.696259753489077	1.9505625	1.3966254
22.714136265826614	1.947767	1.3956243
22.73201333832246	1.9665781	1.4023473
22.74989097146439	1.9666467	1.4023718
22.76776916574035	1.9292724	1.3889825
22.785647921638393	1.9143898	1.3836148
22.803527239646712	1.9135815	1.3833226
22.82140712025363	1.9138798	1.3834305
22.839287563947593	1.8914647	1.3753053
22.85716857121719	1.934551	1.3908814
22.875050142551135	1.9969629	1.4131393
22.892932278438277	1.9987648	1.4137768
22.910814979367604	1.9727101	1.404532
22.928698245828222	1.942154	1.3936119
22.946582078309387	1.9196334	1.3855083
22.96446647730047	1.889338	1.374532
22.98235144329098	1.8826168	1.3720849
23.000236976770562	1.8828468	1.3721687
23.018123078229	1.9185654	1.3851229
23.03600974815619	1.8985933	1.3778945
23.053896987042194	1.8961306	1.3770006
23.071784795377173	1.9198645	1.3855917
23.08967317365145	1.967358	1.4026254
23.10756212235546	1.9459401	1.3949696
23.125451641979787	1.9130816	1.383142
23.143341733015134	1.8800377	1.3711447
23.161232395952357	1.900212	1.3784817
23.179123631282426	1.9142318	1.3835577
23.197015439496468	1.9582323	1.3993685
23.214907821085717	1.9556998	1.3984634
23.23280077654157	1.9352022	1.3911154
23.250694306355538	1.9703796	1.4037021
23.268588411019277	1.9652609	1.4018776
23.28648309102458	1.9639647	1.4014152
23.304378346863356	1.9093871	1.3818058
23.322274179027676	1.9348568	1.3909913
23.340170588009723	1.934915	1.3910122
23.358067574301852	1.9315886	1.389816
23.37596513839651	1.924855	1.3873914
23.39386328078629	1.9211284	1.3860477
23.411762001963947	1.9138627	1.3834243
23.429661302422353	1.9031024	1.3795298
23.4475611826545	1.9184382	1.385077
23.46546164315356	1.955039	1.3982271
23.48336268441279	1.9259301	1.3877789
23.501264306925638	1.9011109	1.3788078
23.51916651118564	1.8618884	1.3645103
23.537069297686497	1.8813622	1.3716276
23.554972666922037	1.9077837	1.3812255
23.57287661938623	1.9166819	1.3844428
23.59078115557318	1.9072306	1.3810252
23.608686275977128	1.8895351	1.3746036
23.62659198109246	1.8966027	1.377172
23.6444982714137	1.8864251	1.373472
23.66240514743549	1.9048494	1.3801628
23.68031260965263	1.9170119	1.384562
23.698220658560068	1.9259601	1.3877896
23.716129294652845	1.919602	1.3854971
23.7340385184262	1.9086971	1.381556
23.75194833037546	1.9597249	1.3999017
23.769858730996123	2.0022445	1.4150069
23.78776972078382	1.9667817	1.4024199
23.80568130023431	1.9271464	1.388217
23.823593469843495	1.8842434	1.3726774
23.841506230107424	1.9103168	1.3821421
23.859419581522275	1.9253228	1.38756
23.87733352458438	1.964604	1.4016433
23.89524805979019	1.961605	1.4005731
23.913163187636318	1.9464748	1.3951612
23.931078908619508	1.9643439	1.4015505
23.948995223236633	1.9805268	1.4073119
23.966912131984735	1.9971651	1.4132109
23.98482963536096	2.0473363	1.4308516
24.002747733862616	2.001581	1.4147724
24.020666427987155	2.0056033	1.4161932
24.038585718232156	2.0455508	1.4302275
24.056505605095353	2.1004808	1.4493035
24.074426089074617	2.116161	1.4547031
24.092347170667946	2.1009474	1.4494646
24.110268850373515	2.1257386	1.4579912
24.128191128689586	2.1056085	1.4510715
24.146114006114626	2.0739539	1.4401228
24.164037483147187	2.0800982	1.4422545
24.181961560286005	2.0655735	1.4372103
24.199886238029926	2.0200975	1.4213014
24.21781151687797	2.0253646	1.423153
24.235737397329274	2.0582407	1.434657
24.253663879883135	2.0838494	1.4435544
24.271590965038975	2.0611904	1.4356847
24.289518653296376	2.0323548	1.4256068
24.30744694515505	2.0202646	1.4213601
24.32537584111486	2.034181	1.4262472
24.34330534167581	2.0263557	1.4235013
24.361235447338046	2.019878	1.4212241
24.379166158601876	2.0264754	1.4235432
24.39709747596772	2.0632062	1.4363865
24.41502939993615	2.0359464	1.4268659
24.432961931007917	2.0089562	1.4173765
24.450895069683856	1.9584733	1.3994546
24.468828816465	1.9209405	1.38598
24.4867631718525	1.9499602	1.3964097
24.504698136347656	2.0064132	1.4164791
24.52263371045192	2.0086174	1.417257
24.540569894666874	1.9918635	1.4113339
24.558506689494266	1.981249	1.4075685
24.57644409543597	1.9842601	1.4086376
24.594382112994012	1.9620963	1.4007485
24.61232074267057	1.9518415	1.3970832
24.630259984967953	1.9747432	1.4052556
24.64819984038863	1.9414616	1.3933634
24.66614030943522	1.9463302	1.3951094
24.684081392610462	1.9367528	1.3916726
24.702023090417274	1.985994	1.409253
24.7199654033587	2.0004754	1.4143816
24.737908331937927	2.0052307	1.4160616
24.755851876658305	2.0296583	1.4246608
24.773796038023324	2.0329728	1.4258236
24.79174081653661	2.0578957	1.4345367
24.809686212701962	2.070731	1.4390035
24.827632227023294	2.0913296	1.446143
24.8455788600047	2.0754688	1.4406488
24.8635261121504	2.0570333	1.4342362
24.88147398396475	2.0355844	1.4267391
24.899422475952303	2.0894294	1.4454858
24.917371588617698	2.1307912	1.459723
24.935321322465768	2.2048447	1.484872
24.953271678001478	2.287487	1.512444
24.97122265572994	2.4796917	1.5747037
24.989174256156414	2.757495	1.6605706
25.00712647978632	3.20491	1.7902262
25.02507932712521	3.7432568	1.9347498
25.043032798678798	4.2871203	2.0705361
25.060986894952933	4.85898	2.2043095
25.078941616453637	5.590018	2.364322
25.096896963687055	6.5422206	2.5577765
25.114852937159508	7.723011	2.7790306
25.132809537377444	8.223421	2.8676507
25.150766764847468	8.298716	2.8807492
25.168724620076347	7.7186046	2.7782376
25.186683103570985	6.6466665	2.578113
25.204642215838426	5.5292764	2.3514414
25.222601957385894	4.2990875	2.073424
25.24056232872074	3.2558572	1.8043994
25.25852333035048	2.6207104	1.6188608
25.276484962782778	2.2334478	1.4944724
25.294447226525435	2.1172738	1.4550855
25.312410122086423	2.0980082	1.4484502
25.330373649973843	2.0156116	1.4197224
25.348337810695988	1.905369	1.3803511
25.366302604761245	1.9185885	1.3851312
25.384268032678207	1.9657418	1.4020492
25.40223409495558	2.01372	1.419056
25.420200792102257	1.9783924	1.4065534
25.438168124627246	1.936054	1.3914216
25.45613609303974	1.8746501	1.3691787
25.474104697849057	1.8689967	1.3671125
25.492073939564698	1.8561542	1.3624074
25.510043818696285	1.8582293	1.3631688
25.528014335753614	1.8843923	1.3727317
25.54598549124664	1.8413583	1.3569666
25.56395728568544	1.8368418	1.3553014
25.58192971958028	1.875705	1.3695638
25.59990279344156	1.8699557	1.3674632
25.617876507779833	1.8342053	1.3543284
25.635850863105826	1.8338163	1.3541847
25.653825859930386	1.8943057	1.3763378
25.671801498764548	1.932594	1.3901776
25.68977778011949	1.8804888	1.3713092
25.707754704506524	1.7999151	1.3416091
25.725732272437153	1.8296826	1.3526576
25.743710484423012	1.8311064	1.3531839
25.761689340975888	1.8576691	1.3629633
25.77966884260774	1.8410875	1.3568668
25.797648989830662	1.8451983	1.3583808
25.815629783156922	1.8469847	1.3590381
25.83361122309895	1.8304178	1.3529294
25.85159331016929	1.8315314	1.3533409
25.869576044880695	1.8250893	1.3509587
25.887559427746034	1.8559718	1.3623406
25.90554345927836	1.878855	1.3707134
25.92352813999086	1.8718761	1.3681653
25.94151347039689	1.8420671	1.3572277
25.959499451009965	1.8365752	1.355203
25.97748608234374	1.8464131	1.3588278
25.995473364912062	1.8056206	1.3437338
26.013461299228904	1.8203595	1.3492069
26.03144988580839	1.8725154	1.3683989
26.04943912516483	1.8975134	1.3775026
26.067429017812675	1.8913043	1.375247
26.085419564266537	1.8401912	1.3565365
26.103410765041186	1.8048735	1.3434558
26.12140262065155	1.7896743	1.337787
26.139395131612723	1.8170898	1.3479947
26.157388298439948	1.8514751	1.3606892
26.17538212164861	1.8418952	1.3571644
26.193376601754295	1.8312502	1.3532369
26.211371739272714	1.8465672	1.3588846
26.229367534719746	1.844472	1.3581134
26.247363988611433	1.852697	1.3611381
26.26536110146397	1.8460546	1.3586959
26.283358873793727	1.8337426	1.3541576
26.301357306117204	1.832182	1.3535812
26.319356398951104	1.790075	1.3379369
26.33735615281224	1.7895315	1.3377337
26.35535656821762	1.8004026	1.3417908
26.373357645684404	1.7792091	1.3338699
26.39135938572991	1.7628452	1.3277218
26.409361788871614	1.7606151	1.3268818
26.427364855627165	1.810327	1.3454839
26.445368586514352	1.8205985	1.3492955
26.46337298205115	1.8434749	1.3577462
26.48137804275568	1.8372898	1.3554666
26.499383769146217	1.8071939	1.3443191
26.517390161741215	1.7913666	1.3384194
26.53539722105928	1.7809106	1.3345076
26.553404947619182	1.7636985	1.3280431
26.571413341939856	1.798584	1.341113
26.589422404540397	1.822983	1.3501788
26.60743213594006	1.7884736	1.3373382
26.62544253665827	1.7825305	1.3351145
26.64345360721459	1.7848244	1.3359731
26.66146534812879	1.7626181	1.3276362
26.679477759920758	1.7675002	1.3294736
26.69749084311057	1.7581251	1.3259431
26.71550459821847	1.7492051	1.3225752
26.733519025764842	1.7879106	1.3371277
26.751534126270258	1.8110018	1.3457347
26.769549900255434	1.8329821	1.3538767
26.787566348241267	1.82837	1.3521724
26.80558347074881	1.7911949	1.3383553
26.823601268299267	1.7364467	1.3177431
26.841619741414036	1.7326666	1.3163079
26.85963889061465	1.8175061	1.3481492
26.877658716422832	1.8320018	1.3535147
26.89567921936045	1.7909002	1.3382452
26.913700399949544	1.7605908	1.3268726
26.93172225871233	1.7869018	1.3367505
26.949744796171174	1.8080722	1.3446457
26.967768012848605	1.7861465	1.336468
26.98579190926733	1.7635636	1.3279923
27.003816485950225	1.7954379	1.3399395
27.021841743420318	1.8404192	1.3566206
27.039867682200814	1.8452902	1.3584145
27.057894302815072	1.83427	1.3543522
27.07592160578664	1.8016955	1.3422725
27.0939495916392	1.826744	1.351571
27.111978260896635	1.8565768	1.3625625
27.13000761408296	1.842428	1.3573607
27.148037651722397	1.8029381	1.3427353
27.166068374339304	1.7778193	1.3333489
27.184099782458215	1.8078719	1.3445712
27.20213187660384	1.8454995	1.3584917
27.22016465730105	1.8431711	1.3576344
27.23819812507487	1.8046038	1.3433554
27.256232280450533	1.761232	1.3271142
27.274267123953383	1.778305	1.333531
27.292302656108987	1.8613075	1.3642974
27.31033887744306	1.896762	1.3772298
27.32837578848146	1.8752989	1.3694155
27.34641338975026	1.8040725	1.3431576
27.364451681775673	1.7571478	1.3255745
27.382490665084074	1.7431082	1.3202682
27.400530340202046	1.739659	1.3189613
27.41857070765629	1.7573627	1.3256556
27.436611767973726	1.7773691	1.3331801
27.454653521681404	1.8140738	1.3468755
27.472695969306564	1.7889287	1.3375084
27.490739111376627	1.7791791	1.3338587
27.508782948419153	1.7715344	1.3309901
27.526827480961902	1.7798177	1.3340981
27.54487270953279	1.7860912	1.3364472
27.562918634659898	1.7853003	1.3361512
27.580965256871508	1.8078595	1.3445667
27.599012576696026	1.7957809	1.3400675
27.617060594662068	1.810615	1.345591
27.63510931129842	1.8757269	1.3695718
27.65315872713401	1.877222	1.3701175
27.67120884269797	1.8712201	1.3679255
27.68925965851958	1.9002223	1.3784856
27.707311175128307	1.8924627	1.375668
27.725363393053787	1.8869874	1.3736767
27.74341631282583	1.8762271	1.3697544
27.7614699349744	1.8711894	1.3679142
27.77952426002968	2.0371997	1.4273051
27.797579288521973	2.1145728	1.4541571
27.815635020981784	2.528699	1.5901884
27.83369145793979	2.5741394	1.6044124
27.85174859992682	2.4689975	1.5713044
27.869806447473923	2.323152	1.524189
27.887865001112267	2.0045066	1.4158059
27.905924261373233	1.9204091	1.3857882
27.92398422878836	1.8997105	1.3782998
27.94204490388936	1.8476338	1.359277
27.96010628720813	1.8228112	1.3501153
27.978168379276728	1.8780171	1.3704076
27.9962311806274	1.8933376	1.3759861
28.014294691792568	1.8786399	1.3706349
28.0323589133048	1.8700849	1.3675104
28.050423845696887	1.8693736	1.3672503
28.068489489501758	1.8768376	1.3699772
28.086555845252523	1.8741893	1.3690103
28.104622913482487	1.858991	1.3634483
28.122690694725115	1.865629	1.3658803
28.14075918951405	1.8609328	1.3641601
28.15882839838312	1.8574785	1.3628935
28.176898321866304	1.8662107	1.3660933
28.1949689604978	1.8602487	1.3639094
28.213040314811945	1.8570765	1.362746
28.23111238534327	1.842408	1.3573533
28.249185172626493	1.8412493	1.3569264
28.267258677196473	1.9004034	1.3785512
28.285332899588294	1.9315798	1.3898128
28.303407840337172	1.9288826	1.3888422
28.321483499978545	1.9499346	1.3964006
28.33955987904799	1.9740801	1.4050196
28.357636978081285	2.0061004	1.4163687
28.37571479761439	1.9772184	1.406136
28.393793338183425	1.9560701	1.3985957
28.41187260032469	1.9538325	1.3977956
28.429952584574686	1.965333	1.4019034
28.448033291470065	1.9903634	1.4108024
28.46611472154769	1.9616473	1.4005882
28.484196875344566	1.9593916	1.3997827
28.502279753397914	1.9557399	1.3984777
28.52036335624511	1.9765304	1.4058913
28.538447684423716	1.996513	1.4129802
28.556532738471482	1.9980476	1.4135231
28.574618518926325	1.9896775	1.4105593
28.59270502632635	1.9863913	1.4093939
28.61079226120985	2.0122461	1.4185367
28.628880224115274	2.0076036	1.4168993
28.646968915581287	1.9964646	1.412963
28.66505833614671	2.0476801	1.4309717
28.68314848635055	2.0344152	1.4263293
28.701239366732004	2.083091	1.4432918
28.71933097783044	2.1404445	1.4630258
28.737423320185403	2.1471777	1.4653251
28.75551639433665	2.1078284	1.4518362
28.773610200824074	2.1153502	1.4544244
28.791704740187793	2.1205688	1.4562173
28.80980001296809	2.139394	1.4626667
28.827896019705413	2.1312587	1.4598831
28.845992760940433	2.1629367	1.4706926
28.86409023721397	2.2219434	1.4906185
28.88218844906704	2.2887626	1.5128657
28.900287397040845	2.2578223	1.5026052
28.918387081676755	2.214083	1.4879795
28.936487503516343	2.2197385	1.4898787
28.954588663101365	2.2584648	1.502819
28.97269056097374	2.3343875	1.5278703
28.990793197675597	2.3228633	1.5240942
29.00889657374923	2.2880564	1.5126323
29.027000689737125	2.2823718	1.5107521
29.04510554618196	2.2753522	1.508427
29.06321114362659	2.3482053	1.5323855
29.08131748261405	2.4820023	1.5754372
29.099424563687567	2.5269563	1.5896403
29.11753238739057	2.499055	1.58084
29.13564095426663	2.45677	1.5674087
29.15375026485954	2.4885745	1.5775217
29.171860319713275	2.5762453	1.6050687
29.18997111937199	2.6658518	1.6327436
29.20808266438002	2.7598355	1.6612753
29.226194955281898	2.840668	1.6854281
29.244307992622335	2.901377	1.7033429
29.26242177694624	2.8774917	1.6963171
29.2805363087987	2.8428178	1.6860658
29.29865158872498	2.8928583	1.7008405
29.316767617270557	2.9544556	1.718853
29.334884394981064	2.949208	1.7173258
29.353001922402367	2.930012	1.7117277
29.37112020008047	2.997592	1.7313555
29.389239228561596	3.1436567	1.773036
29.407359008392152	3.3326082	1.8255433
29.42547954011872	3.695902	1.922473
29.44360082428809	4.3440194	2.0842311
29.46172286144722	5.3864236	2.320867
29.479845652143283	6.951534	2.6365762
29.497969196923606	8.936969	2.9894764
29.516093496335728	11.234835	3.3518405
29.5342185509274	13.955961	3.7357678
29.55234436124651	16.287643	4.035795
29.570470927841175	17.769444	4.2153816
29.588598251259686	17.568333	4.1914597
29.60672633205055	16.371168	4.04613
29.624855170762405	14.20089	3.7684069
29.642984767944146	11.557339	3.3996086
29.66111512414481	8.922182	2.9870021
29.67924623991366	6.7325096	2.594708
29.697378115800138	5.170231	2.2738142
29.71551075235387	4.268175	2.065956
29.733644150124675	3.7842646	1.9453186
29.751778309662576	3.5333793	1.8797286
29.769913231517766	3.4078534	1.8460371
29.78804891624066	3.3354423	1.8263193
29.806185364381818	3.3653688	1.8344941
29.82432257649206	3.3648686	1.8343579
29.842460553122333	3.3780997	1.8379607
29.86059929482382	3.3896956	1.8411126
29.878738802147872	3.5053418	1.8722558
29.896879075646048	3.479172	1.8652539
29.915020115870114	3.318864	1.821775
29.933161923371976	3.245325	1.8014786
29.951304498703777	3.2930133	1.8146662
29.969447842417857	3.3649755	1.834387
29.987591955066733	3.3883345	1.840743
30.005736837203123	3.36148	1.833434
30.023882489379943	3.315314	1.8208004
30.04202891215028	3.2260804	1.7961293
30.060176106067455	3.0948548	1.75922
30.078324071684946	3.0359738	1.7424046
30.09647280955646	3.1044214	1.7619368
30.114622320235863	3.1382449	1.7715092
30.132772604277257	3.1683922	1.7799978
30.1509236622349	3.146535	1.7738475
30.16907549466328	3.052431	1.7471209
30.18722810211705	2.987596	1.7284664
30.205381485151097	2.971635	1.7238431
30.22353564432045	2.9943953	1.7304322
30.241690580180403	3.0093315	1.7347425
30.25984629328638	3.0161278	1.7367003
30.278002784194037	2.9865592	1.7281665
30.296160053459246	2.9630747	1.7213584
30.314318101638033	2.919755	1.708729
30.332476929286646	2.891476	1.7004341
30.35063653696153	2.907174	1.7050437
30.368796925219307	2.911801	1.7064
30.386958094616844	2.8703675	1.6942159
30.40512004571115	2.8419352	1.685804
30.423282779059463	2.8616066	1.6916283
30.441446295219233	2.9002912	1.7030241
30.459610594748067	2.8875613	1.6992826
30.47777567820382	2.8577023	1.6904739
30.495941546144504	2.8421412	1.6858652
30.51410819912835	2.8715508	1.694565
30.532275637713795	2.8463802	1.6871219
30.55044386245946	2.7893796	1.6701436
30.56861287392416	2.7481747	1.6577619
30.586782672666956	2.7174406	1.6484661
30.604953259247047	2.750907	1.6585858
30.623124634223885	2.7816694	1.6678337
30.641296798157075	2.7844312	1.6686615
30.659469751606462	2.7379606	1.6546783
30.677643495132074	2.7596283	1.6612129
30.695818029294152	2.7294765	1.6521127
30.713993354653116	2.693195	1.6410958
30.73216947176962	2.7160287	1.6480378
30.75034638120448	2.6997044	1.6430777
30.768524083518756	2.751498	1.658764
30.786702579273673	2.8149827	1.677791
30.80488186903069	2.853877	1.6893421
30.82306195335144	2.9707956	1.7235997
30.841242832797782	3.1913447	1.7864336
30.85942450793176	3.4486666	1.8570585
30.877606979315637	3.71874	1.9284035
30.895790247511883	4.054463	2.0135696
30.913974313083134	4.427559	2.1041765
30.932159176592283	4.736618	2.1763773
30.95034483860237	4.8093367	2.19302
30.968531299676698	4.551604	2.1334488
30.98671856037873	4.249102	2.061335
31.00490662127215	3.8859658	1.9712853
31.023095482920848	3.552492	1.8848056
31.04128514588892	3.1915476	1.7864903
31.059475610740662	2.8382666	1.6847156
31.07766687804056	2.6601005	1.6309814
31.09585894835335	2.5984578	1.6119733
31.11405182224393	2.5262969	1.5894328
31.132245500277417	2.4684424	1.5711278
31.15043998301914	2.425496	1.5574005
31.168635271034628	2.422153	1.5563267
31.18683136488964	2.4704993	1.5717822
31.20502826515008	2.4241781	1.5569773
31.223225972382135	2.3749862	1.5410991
31.241424487152155	2.3618252	1.5368232
31.259623810026692	2.3873076	1.5450915
31.27782394157253	2.3968184	1.5481662
31.296024882356644	2.3531651	1.534003
31.314226632946237	2.4191346	1.5553567
31.332429193908684	2.4684477	1.5711294
31.350632565811598	2.4334676	1.5599576
31.368836749222787	2.4490113	1.5649318
31.387041744710295	2.4482548	1.56469
31.40524755284232	2.4653459	1.570142
31.423454174187317	2.5199187	1.5874252
31.441661609313922	2.5587666	1.5996145
31.459869858791002	2.59008	1.6093725
31.478078923187628	2.5004263	1.5812737
31.496288803073064	2.393982	1.5472498
31.514499499016807	2.26924	1.5063996
31.532711011588546	2.2345068	1.4948267
31.550923341358178	2.2585251	1.502839
31.56913648889584	2.235733	1.4952368
31.587350454771844	2.1654882	1.4715598
31.605565239556732	2.2535698	1.5011895
31.62378084382127	2.2368906	1.4956238
31.641997268136382	2.2518408	1.5006135
31.660214513073274	2.265503	1.5051588
31.67843257920331	2.2793458	1.5097502
31.6966514670981	2.2493827	1.4997942
31.71487117732944	2.252361	1.5007868
31.733091710469346	2.2708714	1.5069411
31.751313067090052	2.259099	1.50303
31.769535247764008	2.2613063	1.503764
31.787758253063878	2.2192483	1.4897141
31.805982083562526	2.1555386	1.4681753
31.824206739833024	2.178671	1.4760321
31.84243222244869	2.268122	1.5060285
31.860658531983013	2.3706553	1.5396932
31.878885669009737	2.3483741	1.5324405
31.897113634102784	2.3370063	1.528727
31.91534242783632	2.3235395	1.5243161
31.933572050784694	2.2817845	1.5105577
31.951802503522508	2.179526	1.4763218
31.970033786624548	2.1634805	1.4708774
31.988265900665834	2.198659	1.4827876
32.006498846221575	2.2860386	1.5119652
32.02473262386724	2.3309665	1.5267503
32.04296723417845	2.3569696	1.5352426
32.0612026777311	2.4301348	1.5588889
32.07943895510129	2.41325	1.5534638
32.097676066865304	2.3042634	1.51798
32.115914013599685	2.205682	1.4851539
32.13415279588115	2.159116	1.4693931
32.152392414286666	2.1457915	1.4648521
32.1706328693934	2.1575878	1.4688729
32.18887416177875	2.1640768	1.4710802
32.20711629202032	2.2431643	1.4977196
32.225359260695924	2.218634	1.4895079
32.243603068383614	2.1341598	1.4608763
32.26184771566166	2.1334894	1.4606469
32.28009320310852	2.1462066	1.4649937
32.2983395313029	2.110418	1.4527278
32.31658670082372	2.0656776	1.4372466
32.33483471225012	2.0655394	1.4371984
32.35308356616143	2.0865614	1.4444935
32.371333263137245	2.0217214	1.4218725
32.38958380375734	1.9877279	1.409868
32.407835188601744	1.9971902	1.4132198
32.42608741825067	1.9984094	1.4136511
32.444340493284585	2.0441568	1.4297401
32.46259441428416	2.0738149	1.4400746
32.48084918183028	2.0057664	1.4162508
32.49910479650405	1.9945031	1.4122688
32.51736125888683	1.9970015	1.413153
32.53561856956014	1.9705037	1.4037462
32.5538767291058	1.9689958	1.4032091
32.572135738105764	2.0624878	1.4361365
32.59039559714228	2.114752	1.4542187
32.608656306797776	2.0754826	1.4406536
32.62691786765491	2.0322175	1.4255587
32.645180280296586	2.0266185	1.4235935
32.663443545305896	2.0165882	1.4200662
32.68170766326619	2.027936	1.4240562
32.69997263476099	2.080131	1.442266
32.7182384603741	2.0936763	1.4469541
32.7365051406895	2.0322034	1.4255537
32.75477267629144	2.0058434	1.416278
32.77304106776434	1.9875466	1.4098037
32.79131031569289	1.9498324	1.396364
32.809580420661966	1.9897169	1.4105732
32.827851383256714	2.1136613	1.4538436
32.84612320406245	2.1421907	1.4636225
32.86439588366476	2.0062993	1.4164389
32.88266942264945	1.9333963	1.3904662
32.9009438216025	1.98623	1.4093367
32.9192190811102	1.9622138	1.4007905
32.937495201758985	1.9386233	1.3923446
32.95577218413556	1.9726031	1.4044939
32.974050028826866	1.9385558	1.3923203
32.992328736420035	1.8832229	1.3723058
33.010608307502444	1.8733704	1.3687112
33.02888874266169	1.9009206	1.3787388
33.047170042485604	1.9234761	1.3868945
33.06545220756225	1.9773322	1.4061764
33.083735238479896	2.0633867	1.4364493
33.10201913582707	2.1134195	1.4537605
33.12030390019248	2.0960577	1.4477768
33.138589532165135	2.0176933	1.4204553
33.15687603233419	1.9447144	1.3945302
33.17516340128909	1.9055965	1.3804334
33.19345163961947	1.9051086	1.3802567
33.211740747915215	1.9958345	1.4127401
33.23003072676643	2.0130944	1.4188356
33.248321576763466	1.9980661	1.4135296
33.266613298496885	2.0147452	1.4194173
33.28490589255747	2.0077114	1.4169374
33.30319935953626	1.9385654	1.3923237
33.32149370002451	1.9271265	1.3882098
33.339788914613706	2.0144606	1.4193169
33.358085003895575	2.0988073	1.448726
33.376381968462034	2.051697	1.4323746
33.39467980890529	1.9659659	1.402129
33.41297852581774	1.933079	1.3903521
33.43127811979204	1.8969369	1.3772933
33.44957859142105	1.8694425	1.3672756
33.467879941297866	1.9933898	1.4118745
33.486182170015844	1.9836233	1.4084116
33.50448527816853	1.9900641	1.4106964
33.522789266349754	1.9168516	1.3845041
33.541094135153514	1.8924657	1.3756692
33.55939988517411	1.9446751	1.3945161
33.57770651700602	2.1043487	1.4506373
33.59601403124398	2.2606468	1.5035448
33.61432242848296	2.2154047	1.4884236
33.632631709318154	2.0097892	1.4176704
33.650941874344994	1.8703357	1.3676022
33.66925292415916	1.8961691	1.3770145
33.68756485935654	1.9002765	1.3785052
33.70587768053328	1.8511522	1.3605705
33.724191388285746	1.8158151	1.3475218
33.74250598321054	1.8633748	1.3650548
33.760821465904506	1.9161202	1.3842399
33.77913783696474	1.9149615	1.3838214
33.79745509698852	1.8236809	1.3504373
33.815773246573414	1.9110125	1.3823937
33.8340922863172	2.0223842	1.4221056
33.852412216817896	2.0619001	1.4359318
33.87073303867377	2.0956683	1.4476423
33.889054752483304	2.088942	1.4453173
33.907377358845245	2.0118937	1.4184124
33.92570085835853	1.977479	1.4062287
33.94402525162239	1.8861177	1.37336
33.96235053923627	1.8048251	1.3434378
33.980676721799824	1.8989795	1.3780347
33.999003799912984	1.9669675	1.4024862
34.01733177417592	1.9425128	1.3937405
34.03566064518901	2.0175622	1.4204092
34.0539904135529	2.0426793	1.4292233
34.07232107986846	2.0246184	1.4228909
34.090652644736785	1.9987825	1.4137831
34.108985108759235	2.0583172	1.4346837
34.12731847253742	1.9884802	1.4101348
34.14565273667313	1.97568	1.4055889
34.16398790176847	1.9394629	1.392646
34.18232396842574	1.9364988	1.3915814
34.20066093724749	1.9284017	1.388669
34.21899880883651	1.9114506	1.3825523
34.23733758379583	1.8443005	1.3580502
34.25567726272874	1.7974709	1.3406979
34.27401784623872	1.8597169	1.3637143
34.29235933492957	1.9380794	1.3921492
34.31070172940526	2.0277994	1.4240083
34.32904503027003	2.0106099	1.4179598
34.347389238128386	2.0020561	1.4149404
34.36573435358502	2.0615315	1.4358034
34.38408037724492	2.0657077	1.437257
34.402427309713296	2.0753644	1.4406124
34.42077515159559	2.0925689	1.4465715
34.43912390349752	2.1125524	1.4534622
34.45747356602499	2.0722318	1.4395249
34.47582413978423	1.9814539	1.4076413
34.49417562538163	2.0203574	1.4213928
34.51252802342388	2.069601	1.4386108
34.53088133451789	1.9530743	1.3975244
34.54923555927084	1.8197901	1.3489959
34.567590698290104	2.000042	1.4142284
34.58594675218336	2.1320486	1.4601536
34.6043037215585	2.129205	1.4591795
34.62266160702365	2.002722	1.4151756
34.641020409187234	2.045886	1.4303447
34.65938012865785	2.142891	1.4638617
34.677740766044394	2.071193	1.439164
34.69610232195598	1.9372687	1.391858
34.714464797002016	1.8958601	1.3769023
34.73282819179208	1.927009	1.3881675
34.751192506936064	1.9306345	1.3894727
34.76955774304408	1.8458673	1.358627
34.7879239007265	1.8753396	1.3694304
34.80629098059391	1.9945904	1.4122996
34.824658983257194	1.9122015	1.3828237
34.843027909327446	1.9536983	1.3977475
34.86139775941603	1.977763	1.4063296
34.879768534134534	1.8061516	1.3439314
34.89814023409483	1.7930126	1.3390342
34.91651285990901	1.9045874	1.380068
34.93488641218944	1.9771359	1.4061066
34.95326089154871	2.0515888	1.4323368
34.97163629859967	2.0762622	1.440924
34.99001263395542	1.9489632	1.3960527
35.00838989822934	2.0940678	1.4470894
35.02676809203499	2.0164979	1.4200344
35.04514721598624	2.0006845	1.4144555
35.063527270697215	2.0705185	1.4389297
35.081908256782256	1.975809	1.4056348
35.10029017485597	2.0244384	1.4228276
35.11867302553321	2.0365412	1.4270743
35.137056809429104	1.9335713	1.3905292
35.155441527159006	1.8713244	1.3679636
35.173827179338524	2.0093808	1.4175262
35.19221376658354	2.1254113	1.4578791
35.21060128951017	2.0780785	1.4415542
35.2289897487348	2.1405907	1.4630758
35.24737914487405	2.2412808	1.4970908
35.26576947854479	2.1444807	1.4644046
35.28416075036418	2.0826192	1.4431282
35.30255296094958	2.1442122	1.4643129
35.32094611091867	2.1165562	1.4548389
35.33934020088932	1.9055429	1.380414
35.35773523147969	2.0217562	1.4218848
35.3761312033082	2.1481838	1.4656684
35.394528116993506	2.1896465	1.4797454
35.41292597315452	2.0512452	1.4322169
35.431324772410434	2.104524	1.4506978
35.449724515380666	2.197608	1.4824331
35.46812520268491	2.528884	1.5902466
35.486526834943106	2.5854914	1.6079463
35.504929412775454	2.2531588	1.5010526
35.52333293680242	1.9996666	1.4140956
35.54173740764471	1.9679183	1.4028251
35.560142825923286	2.063754	1.4365772
35.5785491922594	2.1627991	1.4706458
35.59695650727454	1.736429	1.3177363
35.61536477159042	1.3578206	1.1652557
