0.008763373481513119	0.0	0.0
0.026290120649546365	0.14626539	0.3824466
0.043816868432600686	0.16110043	0.40137318
0.06134361724069026	0.16894832	0.41103324
0.07887036748382949	0.1224627	0.3499467
0.0963971195720331	0.25399202	0.5039762
0.11392387391531617	0.1950419	0.4416355
0.1314506309236943	0.2003429	0.4475968
0.1489773910071836	0.14994468	0.3872269
0.16650415457580078	0.20547396	0.45329237
0.18403092203956356	0.1875054	0.43301892
0.20155769380849	0.17764014	0.42147377
0.2190844702925996	0.12729938	0.3567904
0.2366112519019124	0.16565168	0.40700328
0.2541380390464497	0.19325864	0.4396119
0.27166483213623416	0.26353848	0.51335996
0.28919163158128947	0.25325656	0.503246
0.3067184377916406	0.21942857	0.46843204
0.324245251177314	0.14035222	0.3746361
0.34177207214833777	0.13959938	0.37363002
0.3592989011147415	0.11148392	0.33389208
0.37682573848655654	0.11511162	0.33928102
0.39435258467381573	0.091000974	0.30166367
0.41187944008655414	0.089590944	0.29931745
0.42940630513480854	0.09649067	0.3106295
0.446933180228618	0.09395443	0.30651987
0.4644600657780234	0.08668555	0.29442412
0.48198696219306775	0.07183366	0.26801804
0.49951386988379676	0.06663905	0.2581454
0.5170407892602581	0.06779317	0.2603712
0.5345677207325025	0.09293204	0.30484757
0.5520946647105822	0.12885728	0.35896698
0.5696216216045534	0.12759216	0.35720044
0.5871485918244737	0.123856016	0.35193184
0.6046755757804043	0.08873258	0.29788014
0.6222025738824094	0.08057311	0.28385404
0.6397295865405557	0.08807483	0.29677403
0.6572566141649129	0.13782938	0.3712538
0.6747836571655547	0.14448494	0.38011175
0.6923107159525568	0.19709064	0.44394892
0.7098377909359992	0.20616409	0.45405295
0.7273648825259653	0.20683284	0.45478877
0.7448919911325411	0.17749627	0.42130306
0.762419117165817	0.16261467	0.4032551
0.7799462610358868	0.20799713	0.45606703
0.7974734231528482	0.24789792	0.49789348
0.8150006039268024	0.25834855	0.50828
0.8325278037678551	0.23805623	0.48791006
0.8500550230861152	0.20056659	0.44784662
0.8675822622916969	0.20871843	0.45685712
0.8851095217947171	0.23244114	0.4821215
0.9026368020052984	0.24710083	0.49709237
0.9201641033335665	0.23780233	0.4876498
0.9376914261896523	0.23587564	0.4856703
0.9552187709836915	0.21820429	0.46712342
0.9727461381258234	0.21966156	0.46868065
0.990273528026193	0.21652728	0.4653249
1.0078009410949496	0.21519017	0.46388593
1.0253283777422473	0.24741818	0.4974115
1.0428558383782454	0.258383	0.5083139
1.0603833234131086	0.25234088	0.5023354
1.0779108332570058	0.30503947	0.5523038
1.0954383683201119	0.31018746	0.5569447
1.112965929012607	0.38188112	0.6179653
1.1304935157446763	0.4819367	0.6942166
1.1480211289265108	0.53590673	0.7320565
1.1655487689683062	1.3308185	1.1536111
1.1830764362802655	1.6019969	1.2657001
1.200604131272596	1.9498087	1.3963555
1.2181318543555117	2.283987	1.5112865
1.235659605939232	2.3068333	1.5188262
1.253187386433982	3.9432132	1.9857526
1.270715196249994	6.4361367	2.5369542
1.2882430357975057	11.882841	3.4471498
1.3057709054867608	16.763092	4.0942755
1.3232988057280106	22.592012	4.7531056
1.3408267369315112	27.555485	5.249332
1.358354699507526	31.362434	5.6002173
1.3758826938663256	35.418114	5.951312
1.3934107204181858	37.268806	6.1048183
1.410938779573391	37.482597	6.1223035
1.4284668717422309	37.99316	6.1638594
1.4459949973350033	37.72643	6.1421843
1.4635231567620117	37.97284	6.1622105
1.4810513504335687	37.08085	6.0894046
1.4985795787599925	36.185577	6.0154448
1.5161078421516088	35.414787	5.9510326
1.5336361410187505	34.28707	5.8555164
1.5511644757717598	34.14397	5.843284
1.5686928468209842	34.862503	5.9044476
1.58622125457678	36.050106	6.004174
1.6037496994495108	37.49217	6.123085
1.621278181849548	37.440826	6.118891
1.6388067021872719	38.316948	6.1900687
1.6563352608730693	37.614662	6.1330795
1.673863858317336	36.534565	6.044383
1.6913924949304753	35.516033	5.9595327
1.7089211711228998	34.434895	5.8681254
1.7264498873050296	33.7004	5.805205
1.7439786438872935	32.96109	5.741175
1.7615074412801288	32.10515	5.6661406
1.779036279893981	31.495235	5.6120615
1.796565160139305	30.43874	5.5171313
1.814094082426564	29.779037	5.4570174
1.8316230471662298	28.93202	5.3788495
1.849152054768784	28.34584	5.3240814
1.8666811056447168	28.19671	5.3100576
1.8842102002045273	27.132584	5.2088947
1.901739338858724	26.513603	5.149136
1.9192685220178245	25.965113	5.0955973
1.9367977500923557	25.638567	5.063454
1.9543270234928547	25.261736	5.0261054
1.971856342629867	24.71091	4.971007
1.9893857079139496	24.249046	4.924332
2.006915119755667	23.678988	4.866106
2.0244445785655945	22.876863	4.7829766
2.0419740847543175	22.069405	4.6978083
2.0595036387324317	21.404026	4.6264486
2.0770332409105414	21.023697	4.5851607
2.094562891699263	20.556774	4.533958
2.1120925915092217	20.003363	4.472512
2.129622340751053	19.72091	4.440823
2.1471521398354043	188.08563	13.714432
2.1646819891729323	444.42993	21.081507
2.182211889174303	440.60812	20.990667
2.1997418402501974	453.02313	21.28434
2.2172718428113023	432.99414	20.808512
2.234801897268317	320.85358	17.912386
2.2523320040319548	17.162006	4.142705
2.269862163512935	16.983421	4.1210947
2.287392376121992	16.83793	4.103405
2.304922642269869	16.675835	4.083606
2.322452962367322	16.239202	4.0297894
2.3399833368251164	15.545743	3.942809
2.357513766054032	15.275221	3.9083526
2.3750442504648586	15.167932	3.8946028
2.3925747904683963	15.120967	3.8885686
2.410105386475459	14.832238	3.8512645
2.4276360388968707	14.2769375	3.7784834
2.445166748143469	14.132609	3.7593362
2.4626975146261025	14.078869	3.7521818
2.4802283387556323	13.80297	3.7152348
2.4977592209429305	13.452657	3.6677864
2.5152901615988825	13.166223	3.628529
2.5328211611343865	13.120106	3.6221685
2.5503522199603523	13.087865	3.6177154
2.5678833384877024	12.961424	3.6001978
2.5854145171273712	12.550707	3.5426977
2.6029457562903064	12.197152	3.4924421
2.620477056387469	11.874398	3.4459248
2.6380084178298326	11.78337	3.4326913
2.655539841028383	11.606982	3.406902
2.673071326394119	11.462054	3.3855655
2.6906028743380523	11.179626	3.3435948
2.708134485271211	11.076063	3.328072
2.7256661596046325	10.972812	3.3125234
2.743197897749369	10.858245	3.295185
2.760729700116486	10.739836	3.2771688
2.778261567117063	10.460895	3.2343307
2.795793499162193	10.305825	3.2102687
2.8133254966629817	10.188698	3.191974
2.830857560030551	10.02048	3.1655142
2.8483896896760337	9.789984	3.128895
2.865921886010578	9.622574	3.1020274
2.883454149445347	9.573012	3.0940285
2.9009864803915177	9.560938	3.0920765
2.91851887926028	9.36901	3.0608838
2.9360513464628384	9.162477	3.0269582
2.953583882410413	9.012129	3.0020208
2.9711164875142373	8.8176775	2.9694574
2.9886491621855606	8.824333	2.970578
3.0061819068356455	8.71457	2.952045
3.023714721875769	8.627365	2.9372377
3.041247607717225	8.4555025	2.9078348
3.0587805647713213	8.378417	2.8945496
3.0763135934493806	8.272519	2.8761988
3.0938466941627407	8.292893	2.8797383
3.1113798673227544	8.236375	2.8699086
3.1289131133407904	8.032273	2.8341265
3.1464464326282315	7.9100184	2.8124754
3.1639798255964786	7.7860966	2.7903578
3.1815132926569443	7.7428493	2.7825975
3.1990468342210603	7.690102	2.7731032
3.216580450700272	7.5663157	2.7506936
3.2341141425060416	7.4986587	2.7383678
3.251647910049847	7.419953	2.723959
3.2691817537431813	7.187826	2.6810122
3.286715673997555	7.1405177	2.6721747
3.3042496712244938	7.0550942	2.6561427
3.32178374583554	6.99378	2.6445756
3.339317898242251	7.0440235	2.654058
3.3568521288562034	6.8967357	2.6261637
3.3743864380889876	6.819607	2.6114378
3.3919208263522127	6.7621446	2.6004124
3.4094552940575023	6.708647	2.5901055
3.4269898416164972	6.7101336	2.5903926
3.444524469440858	6.591018	2.567298
3.4620591779422587	6.5037866	2.5502522
3.479593967532391	6.4477305	2.5392382
3.4971288386229658	6.3095837	2.5118885
3.5146637916257086	6.310212	2.5120137
3.5321988269523628	6.262019	2.5024028
3.5497339450146903	6.351526	2.5202234
3.5672691462244708	6.2917523	2.5083365
3.5848044309934988	6.281947	2.5063813
3.60233979973359	6.288018	2.5075922
3.619875252856575	6.3435235	2.5186353
3.6374107907743034	6.396833	2.529196
3.6549464138986427	6.405737	2.5309558
3.6724821226414788	6.389899	2.5278249
3.690017917414714	6.3729525	2.5244708
3.7075537986302702	6.391547	2.528151
3.7250897667000857	6.4036922	2.5305517
3.7426258220361235	6.502413	2.5499828
3.7601619650503553	6.7789273	2.6036372
3.777698196154779	7.2594266	2.6943324
3.7952345157614067	8.231792	2.86911
3.8127709242822716	9.05295	3.008812
3.830307422129425	11.313672	3.3635802
3.847844009714936	30.259775	5.5008883
3.8653806874508954	97.81289	9.890039
3.882917455749409	97.06235	9.852022
3.900454315022606	96.73485	9.835387
3.917991265682631	41.256508	6.423123
3.9355283081416506	10.828471	3.2906642
3.9530654428118495	8.64701	2.94058
3.970602670105433	7.4699097	2.7331135
3.9881399904346244	6.599824	2.5690122
4.005677404211669	6.494066	2.5483458
4.023214911848827	6.344121	2.5187538
4.0407525137583855	6.268487	2.5036948
4.058290210352644	6.3031836	2.5106142
4.075828002043927	6.259916	2.5019825
4.0933658892445814	6.2268796	2.4953716
4.110903872366966	6.161082	2.4821527
4.128441951823468	6.137406	2.4773788
4.145980128026488	6.2226796	2.49453
4.163518401388452	6.260362	2.5020716
4.181056772321807	6.2890735	2.5078025
4.1985952412390155	6.2433333	2.4986663
4.216133808552567	6.1894736	2.4878652
4.233672474674966	6.2328444	2.4965665
4.251211240018741	6.507418	2.550964
4.268750104996445	6.786686	2.6051269
4.286289070020643	7.6363206	2.7633893
4.303828135503928	9.194217	3.0321968
4.3213673018589125	29.394663	5.4216847
4.3389065694982305	90.604195	9.518623
4.356445938834537	165.92404	12.88115
4.3739854102805085	171.73506	13.104773
4.391524984248844	172.7099	13.141913
4.409064661152262	136.80936	11.696553
4.426604441403504	97.05901	9.851853
4.444144325415337	75.973976	8.716305
4.461684313600543	21.968105	4.6870146
4.47922440637193	22.318062	4.7242
4.496764604142329	20.496475	4.527303
4.5143049073245916	18.552391	4.3072486
4.531845316331589	16.439894	4.054614
4.5493858315762195	13.622581	3.690878
4.566926453471405	11.465556	3.3860826
4.584467182430081	9.47201	3.077663
4.602008018865218	8.329442	2.8860772
4.619548963189798	7.5374637	2.745444
4.637090015816834	6.963008	2.6387513
4.654631177159353	6.7543554	2.5989144
4.672172447630417	6.4301186	2.5357678
4.689713827643102	6.322593	2.5144768
4.7072553176105085	6.116101	2.4730752
4.724796917945764	5.9802313	2.4454513
4.742338629062015	5.8676057	2.4223142
4.759880451372434	5.720098	2.3916726
4.777422385290215	5.6932845	2.3860605
4.794964431228581	5.710122	2.3895862
4.812506589600768	5.733189	2.394408
4.830048860820047	5.665012	2.3801286
4.847591245299709	5.635927	2.3740108
4.8651337434530655	5.5648637	2.3589964
4.882676355693457	5.5283604	2.3512466
4.900219082434242	5.525533	2.3506453
4.917761924088813	5.5568895	2.3573055
4.935304881070575	5.5028734	2.3458204
4.952847953792969	5.508194	2.346954
4.970391142669449	5.442689	2.332957
4.9879344481135055	5.487371	2.3425138
5.005477870538642	5.533445	2.3523276
5.023021410358394	5.482004	2.341368
5.040565067986324	5.510125	2.3473656
5.05810884383601	5.4847255	2.341949
5.075652738321066	5.5225286	2.350006
5.09319675185512	5.551156	2.356089
5.110740884851836	5.549215	2.3556771
5.128285137724894	5.4849925	2.342006
5.145829510888007	5.40744	2.3253903
5.163374004754908	5.357093	2.3145394
5.1809186197393595	5.340423	2.3109355
5.198463356255145	5.328492	2.3083527
5.216008214716077	5.2486897	2.2910018
5.233553195535998	5.1504574	2.2694619
5.251098299128764	5.1494503	2.2692401
5.268643525908272	5.196565	2.2795975
5.286188876288432	5.209331	2.2823958
5.3037343506831895	5.214855	2.2836058
5.32127994950651	5.2351284	2.2880404
5.3388256731723915	5.3143	2.3052766
5.356371522094851	5.334148	2.3095775
5.373917496687938	5.3172607	2.3059187
5.391463597365729	5.173312	2.2744915
5.40900982454232	5.118046	2.2623098
5.426556178631843	5.1041465	2.2592359
5.444102660048449	5.159768	2.2715123
5.4616492692063225	5.206361	2.2817452
5.479196006519669	5.2492127	2.291116
5.496742872402727	5.171691	2.274135
5.514289867269756	5.142656	2.2677424
5.531836991535049	5.1293564	2.2648082
5.549384245612924	5.1401806	2.2671967
5.566931629917724	5.132212	2.2654386
5.584479144863822	5.1388397	2.266901
5.6020267908656205	5.209465	2.2824252
5.619574568337545	5.176045	2.2750924
5.637122477694054	5.1476326	2.2688396
5.654670519349629	5.106522	2.2597616
5.672218693718784	5.0956116	2.2573462
5.689767001216059	5.090245	2.2561572
5.707315442256021	5.102232	2.2588122
5.724864017253266	5.1262045	2.2641122
5.7424127266224225	5.1935244	2.2789304
5.75996157077814	5.184076	2.2768567
5.777510550135105	5.1491776	2.2691798
5.795059665108022	5.114769	2.2615855
5.812608916111639	5.134832	2.2660167
5.830158303560715	5.256847	2.2927816
5.847707827870055	5.267124	2.2950215
5.86525748945448	5.3577695	2.3146856
5.8828072887288485	5.45238	2.3350332
5.900357226108044	5.517364	2.348907
5.917907302006979	5.6537905	2.37777
5.9354575168406	6.292216	2.508429
5.9530078710238765	6.8653607	2.6201832
5.970558364971812	7.3059397	2.7029502
5.988108999099438	7.6362653	2.7633793
6.005659773821818	8.209876	2.865288
6.023210689554039	8.014357	2.8309639
6.040761746711227	8.416416	2.901106
6.058312945708531	7.7510767	2.7840755
6.075864286961132	7.243171	2.691314
6.093415770884244	6.614929	2.5719504
6.1109673978931065	6.066321	2.4629903
6.128519168402993	5.5092998	2.3471897
6.146071082829204	5.365208	2.3162918
6.163623141587075	5.2300854	2.286938
6.181175345091969	5.229002	2.2867012
6.198727693759281	5.2490053	2.2910707
6.216280188004435	5.3777223	2.3189917
6.233832828242885	5.3145585	2.3053327
6.251385614890126	5.2745914	2.2966478
6.268938548361669	5.2155232	2.283752
6.286491629073067	5.2150683	2.2836523
6.304044857439898	5.1953974	2.2793415
6.321598233877777	5.0882254	2.2557094
6.339151758802344	5.002898	2.236716
6.356705432629277	4.9613047	2.2273986
6.37425925577428	4.9655995	2.2283626
6.391813228653095	4.97605	2.2307062
6.409367351681486	5.0099425	2.23829
6.426921625275259	5.0121164	2.2387757
6.44447604985025	5.0012093	2.2363384
6.46203062582232	4.9754453	2.2305706
6.47958535360737	5.0002017	2.236113
6.497140233621328	5.0751543	2.2528102
6.514695266280161	5.1551666	2.2704992
6.532250451999859	5.130079	2.2649677
6.549805791196454	5.1642694	2.272503
6.567361284286002	5.075884	2.2529721
6.584916931684597	5.028181	2.2423606
6.602472733808367	4.9299455	2.2203481
6.6200286910734665	4.946885	2.2241595
6.637584803896092	4.93738	2.2220216
6.655141072692462	4.9539504	2.225747
6.672697497878842	5.0222564	2.241039
6.690254079871514	4.965096	2.2282495
6.707810819086808	4.983371	2.2323465
6.725367715941078	4.938872	2.2223573
6.742924770850719	5.005364	2.237267
6.760481984232151	4.980034	2.2315989
6.778039356501836	4.9768424	2.2308838
6.795596888076266	4.975347	2.2305486
6.813154579371963	4.9631286	2.227808
6.830712430805492	4.9856744	2.2328625
6.84827044279344	4.982711	2.2321987
6.865828615752445	4.994008	2.2347276
6.883386950099159	4.9745955	2.23038
6.900945446250287	4.9702497	2.2294056
6.918504104622553	4.983957	2.2324777
6.936062925632727	4.987853	2.2333503
6.953621909697607	4.932201	2.220856
6.971181057234028	4.9586744	2.226808
6.988740368658859	5.019162	2.2403486
7.006299844389007	5.0522857	2.247729
7.023859484841407	5.161481	2.2718892
7.041419290433036	5.316312	2.305713
7.058979261580902	5.473711	2.3395963
7.0765393987020495	5.6740994	2.382037
7.094099702213559	6.002858	2.450073
7.111660172532549	6.346355	2.5191972
7.129220810076164	6.743604	2.5968451
7.146781615261595	7.4370728	2.7270997
7.16434258850606	7.707427	2.7762253
7.181903730226821	8.16598	2.8576179
7.1994650408411704	8.190258	2.8618627
7.217026520766437	8.276068	2.8768156
7.234588170419983	8.522148	2.919272
7.252149990219215	8.456705	2.9080415
7.269711980581568	8.381837	2.8951402
7.2872741419245175	8.2143545	2.8660696
7.304836474665574	7.825786	2.7974606
7.322398979222286	7.5084124	2.7401483
7.339961656012233	7.210476	2.6852329
7.357524505453039	6.832581	2.6139207
7.375087527962357	6.5967083	2.5684059
7.392650723957886	6.3511586	2.5201504
7.410214093857353	6.0123515	2.4520097
7.427777638078528	5.8213053	2.412738
7.445341357039213	5.658221	2.3787014
7.4629052511572525	5.4563565	2.3358846
7.480469320850524	5.343189	2.311534
7.498033566536948	5.2122765	2.283041
7.5155979886344735	5.1345415	2.2659526
7.5331625875610975	5.07312	2.2523587
7.550727363734844	5.0351067	2.2439044
7.568292317573788	5.0549116	2.248313
7.585857449496025	5.0678387	2.2511861
7.603422759919705	5.157616	2.2710385
7.620988249263007	5.209002	2.2823238
7.638553917944147	5.2145324	2.283535
7.656119766381391	5.218985	2.28451
7.673685794993023	5.1783175	2.2755916
7.691252004197388	5.1982107	2.2799585
7.70881839441285	5.2042785	2.2812889
7.726384966057826	5.223096	2.2854095
7.743951719550762	5.2032485	2.281063
7.761518655310149	5.207802	2.2820609
7.779085773754511	5.2243986	2.2856944
7.796653075302419	5.2862563	2.299186
7.814220560372475	5.2993593	2.3020337
7.831788229383323	5.3224626	2.3070462
7.8493560827536495	5.3101196	2.3043697
7.866924120902174	5.3059807	2.3034713
7.884492344247663	5.3645954	2.3161597
7.9020607532089135	5.379119	2.3192928
7.919629348204771	5.376947	2.3188245
7.937198129654115	5.340429	2.3109367
7.954767097975865	5.307843	2.3038757
7.972336253588986	5.3625703	2.3157225
7.989905596912472	5.447636	2.3340173
8.007475128365371	5.500315	2.3452752
8.025044848366756	5.535072	2.3526733
8.042614757335754	5.5855527	2.3633773
8.060184855691523	5.6483636	2.3766286
8.07775514385327	5.813472	2.4111142
8.095325622240228	5.8564844	2.4200175
8.112896291271687	5.88523	2.4259493
8.130467151366968	5.8987503	2.4287343
8.148038202945436	5.9258847	2.434314
8.165609446426497	5.92987	2.4351325
8.183180882229594	5.990092	2.4474664
8.200752510774217	5.9777846	2.4449508
8.218324332479893	5.993568	2.4481764
8.235896347766193	5.991361	2.4477258
8.253468557052724	5.9351053	2.436207
8.27104096075914	5.9613695	2.4415915
8.288613559305137	6.0023894	2.4499774
8.306186353110448	6.119909	2.473845
8.32375934259485	6.1938214	2.488739
8.341332528178162	6.2343745	2.496873
8.358905910280246	6.290189	2.508025
8.376479489321003	6.290583	2.5081036
8.394053265720377	6.317597	2.513483
8.411627239898356	6.282149	2.5064216
8.42920141227497	6.289794	2.5079463
8.44677578327029	6.2683563	2.5036685
8.464350353304427	6.233083	2.4966142
8.48192512279754	6.2244215	2.494879
8.499500092169827	6.2101016	2.4920075
8.51707526184153	6.183072	2.4865785
8.534650632232934	6.1474442	2.479404
8.552226203764365	6.1478767	2.4794912
8.569801976856192	6.148227	2.4795618
8.587377951928834	6.238128	2.4976244
8.60495412940274	6.306	2.5111752
8.622530509698416	6.343855	2.518701
8.6401070932364	6.4292693	2.5356004
8.657683880437283	6.55891	2.5610368
8.675260871721695	6.789112	2.6055925
8.692838067510303	6.963345	2.6388152
8.710415468223834	7.0359716	2.6525407
8.727993074283043	7.13687	2.671492
8.745570886108737	7.0989075	2.6643775
8.763148904121765	7.1673408	2.6771889
8.78072712874302	7.16752	2.6772225
8.798305560393441	7.427148	2.7252793
8.815884199494006	7.557887	2.7491612
8.833463046465745	7.784954	2.790153
8.851042101729728	7.9824142	2.8253167
8.86862136570707	8.240867	2.870691
8.886200838818924	8.461894	2.9089334
8.903780521486505	8.553731	2.9246762
8.921360414131055	8.6739	2.9451485
8.938940517173874	8.777376	2.9626637
8.956520831036297	8.867041	2.9777577
8.97410135613971	9.111164	3.0184705
8.99168209290554	9.210721	3.0349169
9.009263041755265	9.526386	3.0864844
9.026844203110405	9.755718	3.1234145
9.044425577392525	10.030086	3.167031
9.062007165023239	10.068088	3.173025
9.079588966424197	10.251115	3.2017362
9.097170982017108	10.279174	3.206115
9.11475321222372	11.231575	3.3513541
9.132335657465825	12.13843	3.484025
9.149918318165264	12.264312	3.502044
9.167501194743924	12.92197	3.5947142
9.18508428762374	12.691147	3.5624635
9.202667597226693	12.621019	3.5526073
9.220251123974803	12.248265	3.4997523
9.237834868290143	11.901825	3.449902
9.255418830594836	11.673045	3.4165838
9.273003011311046	11.071901	3.3274467
9.290587410860985	10.803681	3.2868955
9.308172029666911	10.234456	3.1991336
9.32575686815113	10.009106	3.163717
9.343341926735997	8.801032	2.9666533
9.360927205843916	8.49848	2.9152153
9.378512705897327	8.319756	2.8843987
9.396098427318728	8.124639	2.8503752
9.413684370530664	8.053324	2.837838
9.431270535955722	8.023844	2.832639
9.448856924016539	7.9754558	2.824085
9.466443535135806	7.8637457	2.8042371
9.484030369736251	7.8344803	2.799014
9.501617428240658	7.817291	2.7959418
9.519204711071852	7.7841387	2.7900069
9.536792218652714	7.777817	2.7888737
9.55437995140617	7.8728147	2.8058536
9.571967909755191	7.8731213	2.8059082
9.589556094122802	7.90576	2.8117182
9.60714450493207	7.8436723	2.8006556
9.624733142606116	7.905513	2.8116744
9.642322007568108	7.9632945	2.821931
9.659911100241267	8.019986	2.831958
9.677500421048851	8.0368395	2.834932
9.695089970414175	8.092298	2.8446963
9.712679748760609	8.132293	2.8517175
9.730269756511557	8.148323	2.8545268
9.747859994090492	8.130255	2.85136
9.765450461920915	8.180858	2.86022
9.78304116042639	8.253724	2.8729296
9.800632090030527	8.301044	2.8811533
9.81822325115699	8.312509	2.8831422
9.835814644229481	8.361841	2.8916848
9.853406269671762	8.363683	2.8920033
9.870998127907646	8.41812	2.9013996
9.888590219360985	8.293621	2.8798647
9.906182544455698	8.224478	2.867835
9.923775103615734	8.209284	2.8651848
9.941367897265108	8.197889	2.8631957
9.958960925827878	8.246107	2.8716035
9.97655418972816	8.25928	2.8738964
9.994147689390106	8.295207	2.88014
10.011741425237934	8.3396	2.8878365
10.029335397695904	8.347019	2.8891208
10.04692960718833	8.330367	2.8862376
10.06452405413958	8.257889	2.8736544
10.082118738974064	8.220544	2.867149
10.099713662116246	8.230665	2.8689137
10.117308823990651	8.282889	2.878001
10.134904225021844	8.296761	2.8804097
10.152499865634445	8.328398	2.8858964
10.170095746253125	8.302104	2.8813372
10.18769186730261	8.234247	2.8695378
10.205288229207675	8.174851	2.8591697
10.222884832393145	8.187459	2.8613737
10.2404816772839	8.195459	2.8627713
10.258078764304868	8.119118	2.8494065
10.275676093881035	8.066178	2.8401017
10.293273666437438	8.0531435	2.8378062
10.310871482399158	8.108152	2.8474817
10.32846954219134	8.157133	2.8560696
10.346067846239173	8.192508	2.8622558
10.363666394967908	8.211821	2.8656275
10.38126518880283	8.192967	2.862336
10.398864228169298	8.1456785	2.8540635
10.416463513492713	8.127269	2.8508365
10.434063045198531	8.1091795	2.8476622
10.451662823712262	8.1283045	2.8510182
10.469262849459467	8.137764	2.8526766
10.486863122865758	8.109262	2.8476768
10.504463644356806	8.095509	2.8452606
10.522064414358338	8.028995	2.833548
10.539665433296118	8.016855	2.8314052
10.557266701595987	7.927272	2.815541
10.574868219683818	7.8221545	2.7968116
10.592469987985552	7.6621733	2.768063
10.610072006927185	7.514153	2.7411954
10.627674276934751	7.3978686	2.7199023
10.64527679843435	7.234798	2.689758
10.662879571852143	7.156455	2.6751552
10.680482597614331	7.0670986	2.6584015
10.698085876147173	7.0085344	2.6473637
10.715689407876988	6.965616	2.6392453
10.733293193230146	6.877144	2.6224308
10.750897232633072	6.81291	2.610155
10.76850152651225	6.7439613	2.5969138
10.786106075294207	6.6374793	2.5763307
10.803710879405534	6.501156	2.5497365
10.821315939272877	6.3231053	2.5145786
10.83892125532294	6.235247	2.4970477
10.856526827982472	6.1923676	2.4884467
10.874132657678285	6.2474065	2.4994812
10.891738744837243	6.188759	2.4877217
10.909345089886271	6.091736	2.4681442
10.926951693252343	5.990289	2.4475067
10.944558555362494	5.930785	2.4353204
10.96216567664381	5.933644	2.4359071
10.979773057523436	5.9341908	2.4360194
10.997380698428573	5.842632	2.4171536
11.014988599786477	5.757863	2.3995547
11.032596762024461	5.6929903	2.3859987
11.050205185569892	5.633244	2.3734455
11.067813870850198	5.6060076	2.3677008
11.085422818292859	5.496872	2.3445408
11.10303202832541	5.423346	2.3288078
11.120641501375454	5.344583	2.3118355
11.138251237870636	5.2976284	2.3016577
11.155861238238671	5.262363	2.2939842
11.173471502907317	5.268179	2.2952514
11.191082032304402	5.194766	2.279203
11.208692826857805	5.133326	2.2656844
11.226303886995465	5.044976	2.2461026
11.243915213145371	5.027268	2.242157
11.261526805735578	4.9329348	2.2210212
11.279138665194196	4.918899	2.217859
11.296750791949393	4.8558207	2.2035928
11.314363186429393	4.796637	2.1901226
11.331975849062479	4.673347	2.1617925
11.34958878027699	4.5913734	2.142749
11.36720198050133	4.539537	2.1306188
11.384815450163948	4.447883	2.1090004
11.402429189693366	4.406889	2.0992591
11.420043199518153	4.3928227	2.0959063
11.437657480066942	63.420982	7.9637294
11.455272031768422	85.18906	9.229792
11.472886855051353	107.57913	10.372036
11.490501950344528	99.20896	9.960369
11.508117318076819	84.50001	9.192389
11.52573295867715	45.90237	6.775129
11.543348872574514	4.137209	2.034013
11.560965060197946	4.1113105	2.0276368
11.57858152197655	4.0730276	2.0181744
11.59619825833949	4.038997	2.0097256
11.613815269715985	4.007595	2.0018978
11.631432556535323	38.5265	6.206972
11.649050119226837	83.04465	9.112884
11.666667958219929	93.44895	9.6669
11.68428607394406	107.70702	10.3782
11.701904466828756	82.49878	9.082884
11.719523137303586	65.329796	8.0826845
11.737142085798196	4.5283217	2.1279855
11.754761312742286	3.662154	1.9136755
11.772380818565619	3.652846	1.911242
11.790000603698015	3.652378	1.9111196
11.80762066856935	3.601542	1.8977729
11.825241013609572	3.5652673	1.8881916
11.842861639248683	3.5525134	1.8848113
11.860482545916748	3.5369134	1.8806683
11.878103734043883	3.5241754	1.8772787
11.895725204060282	3.4556875	1.858948
11.91334695639619	3.4290843	1.8517786
11.930968991481919	3.3938198	1.8422323
11.948591309747824	3.3933256	1.8420981
11.966213911624347	3.405821	1.8454866
11.98383679754198	3.3644595	1.8342463
12.001459967931268	3.3219953	1.8226341
12.019083423222835	3.2797384	1.8110048
12.036707163847352	3.306654	1.8184208
12.05433119023556	3.3124266	1.8200073
12.071955502818259	3.2391055	1.7997515
12.089580102026313	3.1736362	1.7814702
12.107204988290643	3.116325	1.7653116
12.12483016204224	3.1164384	1.7653437
12.142455623712152	3.147443	1.7741034
12.16008137373149	3.1354563	1.770722
12.177707412531431	3.1039667	1.7618078
12.19533374054321	3.0930374	1.7587034
12.212960358198126	3.0719857	1.7527081
12.230587265927545	3.0513573	1.7468134
12.248214464162889	3.012513	1.7356592
12.265841953335649	3.0129952	1.7357981
12.283469733877375	3.0421383	1.7441727
12.301097806219685	3.0744689	1.7534163
12.31872617079425	3.0314367	1.7411021
12.336354828032825	2.9766357	1.7252929
12.353983778367205	2.9385784	1.7142283
12.371613022229262	2.9149845	1.7073326
12.389242560050928	2.8893888	1.6998203
12.406872392264201	2.910325	1.7059674
12.424502519301143	2.880596	1.6972319
12.442132941593874	2.8975995	1.7022337
12.459763659574586	2.8729973	1.6949918
12.477394673675532	2.8659558	1.6929134
12.49502598432903	2.8534234	1.6892079
12.51265759196746	2.814603	1.6776779
12.530289497023267	2.8186495	1.6788834
12.547921699928967	2.8294559	1.6820986
12.565554201117134	2.812225	1.676969
12.583187001020404	2.7994237	1.6731478
12.600820100071486	2.8137224	1.6774154
12.618453498703152	2.8420527	1.6858388
12.636087197348235	2.8695326	1.6939695
12.65372119643964	2.8685887	1.6936909
12.671355496410326	2.8512561	1.6885663
12.68899009769333	2.8495271	1.6880542
12.706625000721749	2.8608527	1.6914055
12.724260205928752	2.9060485	1.7047136
12.741895713747551	2.912389	1.7065723
12.759531524611454	2.9566724	1.7194977
12.777167638953818	3.0189843	1.7375225
12.794804057208072	3.061165	1.7496185
12.812440779807702	3.0914211	1.7582438
12.830077807186271	3.241705	1.8004736
12.847715139777405	3.2411897	1.8003304
12.865352778014795	3.4313927	1.8524019
12.882990722332197	3.5149274	1.8748139
12.90062897316344	3.6252337	1.9040047
12.918267530942412	3.7217746	1.9291902
12.935906396103071	3.6553223	1.9118897
12.953545569079449	3.8313115	1.9573736
12.971185050305628	3.6747792	1.9169713
12.988824840215775	3.7142107	1.9272288
13.006464939244115	3.6804302	1.9184448
13.024105347824943	3.527174	1.8780771
13.041746066392617	3.5616062	1.8872218
13.05938709538157	3.3353343	1.8262898
13.077028435226296	3.3442323	1.8287243
13.094670086361363	3.238618	1.7996161
13.112312049221401	3.1159258	1.7651985
13.129954324241112	2.9759717	1.7251005
13.147596911855258	2.8164177	1.6782186
13.165239812498685	2.8491845	1.6879528
13.182883026606293	2.8304582	1.6823965
13.200526554613058	2.7915573	1.6707954
13.218170396954017	2.7510939	1.6586422
13.235814554064284	2.7346861	1.6536887
13.253459026379034	2.7679422	1.6637133
13.271103814333523	2.7768576	1.6663905
13.288748918363058	2.7702491	1.6644065
13.306394338903031	2.7202613	1.6493214
13.32404007638889	2.68604	1.6389142
13.341686131256164	2.7107537	1.6464367
13.359332503940449	2.6880329	1.6395222
13.376979194877402	2.6556575	1.6296189
13.394626204502751	2.6865273	1.6390629
13.412273533252307	2.7142038	1.6474841
13.429921181561937	2.722125	1.6498864
13.447569149867581	2.7505188	1.6584688
13.465217438605247	2.7189822	1.6489336
13.482866048211022	2.6692638	1.6337882
13.500514979121052	2.65862	1.6305276
13.518164231771568	2.6615386	1.6314223
13.535813806598844	2.6845653	1.6384643
13.553463704039254	2.6837368	1.6382115
13.571113924529229	2.7076664	1.6454989
13.588764468505275	2.7213585	1.649654
13.606415336403956	2.719411	1.6490636
13.624066528661917	2.7515457	1.6587783
13.641718045715882	2.8398886	1.6851969
13.659369888002635	2.9258044	1.7104983
13.67702205595903	3.0029855	1.7329124
13.694674550021993	3.0770082	1.7541403
13.712327370628532	3.0774665	1.7542709
13.729980518215713	3.1649709	1.7790365
13.747633993220681	3.202732	1.7896179
13.765287796080647	3.265337	1.8070244
13.7829419272329	3.2529082	1.8035821
13.800596387114801	3.268815	1.8079865
13.818251176163775	3.3091636	1.8191106
13.835906294817324	3.3602016	1.8330853
13.853561743513023	3.429439	1.8518745
13.871217522688525	3.4939451	1.8692098
13.888873632781538	3.524188	1.8772821
13.906530074229858	3.5750148	1.8907709
13.92418684747135	3.517176	1.8754135
13.941843952943948	3.4958816	1.8697276
13.959501391085665	3.515175	1.8748801
13.977159162334578	3.4890912	1.8679109
13.994817267128846	3.4518259	1.857909
14.012475705906693	3.344911	1.8289098
14.030134479106424	3.2450867	1.8014125
14.047793587166414	3.1453593	1.773516
14.065453030525108	3.0962741	1.7596233
14.083112809621026	3.06609	1.7510254
14.100772924892766	2.9920995	1.7297686
14.118433376778997	2.9249833	1.7102582
14.136094165718458	2.8243196	1.6805712
14.153755292149969	2.766247	1.6632038
14.171416756512416	2.6967523	1.6421791
14.189078559244768	2.6602044	1.6310133
14.20674070078606	2.584816	1.6077363
14.224403181575408	2.5338752	1.5918151
14.242066002051999	2.4914217	1.5784239
14.259729162655093	2.4532526	1.5662862
14.277392663824022	2.3950195	1.547585
14.295056505998208	2.3939486	1.5472391
14.312720689617128	2.4317079	1.5593934
14.330385215120348	2.4665	1.5705094
14.348050082947497	2.452003	1.5658873
14.3657152935383	2.3969202	1.548199
14.383380847332528	2.3599179	1.5362024
14.401046744770051	2.3702407	1.5395586
14.418712986290798	2.357861	1.5355328
14.436379572334793	2.3491445	1.532692
14.454046503342123	2.3566668	1.5351439
14.471713779752946	2.3974433	1.548368
14.489381402007504	2.3929248	1.5469081
14.507049370546113	2.410968	1.5527292
14.524717685809168	2.4109325	1.5527178
14.542386348237134	2.3936899	1.5471554
14.560055358270553	2.4033794	1.5502837
14.577724716350051	2.445317	1.563751
14.595394422916325	2.4759731	1.5735226
14.61306447841015	2.5285304	1.5901353
14.63073488327237	2.5385895	1.5932952
14.648405637943917	2.5509953	1.5971836
14.6660767428658	2.5257444	1.589259
14.683748198479094	2.5263245	1.5894415
14.701420005224954	2.554689	1.5983394
14.719092163544628	2.5888836	1.6090008
14.73676467387942	2.621552	1.6191207
14.754437536670727	2.6476924	1.6271732
14.772110752360014	2.6806467	1.6372681
14.78978432138882	2.681579	1.6375527
14.807458244198777	2.6828887	1.6379526
14.82513252123159	2.6597517	1.6308745
14.842807152929028	2.6837368	1.6382115
14.860482139732962	2.6873755	1.6393217
14.87815748208531	2.6788218	1.6367106
14.8958331804281	2.6921906	1.6407896
14.91350923520342	2.6522834	1.6285833
14.931185646853438	2.68028	1.637156
14.948862415820408	2.6694913	1.6338578
14.966539542546656	2.6789267	1.6367427
14.98421702747459	2.6157455	1.6173266
15.001894871046696	2.5811112	1.6065837
15.019573073705542	2.6027598	1.6133071
15.037251635893766	2.6538303	1.6290581
15.054930558054092	2.7047627	1.6446162
15.072609840629323	2.7543442	1.6596217
15.090289484062351	2.87271	1.6949071
15.107969488796124	3.1561115	1.7765448
15.125649855273691	3.5308	1.8790424
15.14333058393817	4.036021	2.008985
15.161011675232768	5.039592	2.2449036
15.17869312960076	6.4306264	2.535868
15.196374947485506	8.225534	2.8680193
15.214057129330447	11.229176	3.3509963
15.231739675579114	15.839332	3.9798658
15.249422586675102	20.769135	4.557317
15.267105863062092	23.863644	4.8850427
15.284789505183847	24.228798	4.9222755
15.302473513484218	22.1799	4.709554
15.320157888407127	18.660738	4.3198075
15.337842630396578	14.4773445	3.8049107
15.355527739896656	11.263122	3.3560574
15.37321321735153	8.819475	2.9697602
15.39089906320545	6.453929	2.5404584
15.408585277902748	4.8516965	2.2026567
15.42627186188783	3.7617426	1.9395212
15.443958815605198	3.2485633	1.8023771
15.461646139499424	2.9656217	1.7220981
15.479333834015168	2.7909603	1.6706167
15.497021899597165	2.6975136	1.6424109
15.514710336690234	2.6337085	1.6228704
15.53239914573928	2.6091099	1.615274
15.550088327189297	2.5784817	1.6057651
15.567777881485336	2.5360987	1.5925133
15.58546780907256	2.5088534	1.5839361
15.6031581103962	2.487362	1.5771372
15.620848785901568	2.4602995	1.5685341
15.638539836034063	2.4240775	1.556945
15.656231261239173	2.4139042	1.5536745
15.673923061962451	2.4201427	1.5556808
15.691615238649552	2.4203238	1.555739
15.709307791746202	2.408267	1.5518593
15.727000721698221	2.4016068	1.5497118
15.744694028951498	2.3649795	1.537849
15.76238771395202	2.338731	1.529291
15.780081777145844	2.3117552	1.5204457
15.797776218979125	2.3065772	1.518742
15.815471039898094	2.3405793	1.5298952
15.833166240349064	2.3551311	1.5346437
15.850861820778437	2.3664112	1.5383145
15.868557781632699	2.3623428	1.5369915
15.886254123358412	2.3784266	1.5422149
15.903950846402232	2.4162169	1.5544184
15.921647951210897	2.4315562	1.5593448
15.939345438231225	2.4139514	1.5536896
15.957043307910133	2.3766334	1.5416334
15.974741560694602	2.348563	1.5325022
15.992440197031714	2.357296	1.5353488
16.01013921736862	2.396358	1.5480175
16.02783862215259	2.4208553	1.5559098
16.045538411830933	2.4108558	1.5526931
16.06323858685107	2.3960168	1.5479072
16.080939147660512	2.383555	1.5438766
16.09864009470684	2.402952	1.5501457
16.11634142843774	2.4092262	1.5521683
16.134043149300954	2.4261165	1.5575995
16.15174525774433	2.4384477	1.561553
16.169447754215817	2.4209101	1.5559274
16.18715063916342	2.4265387	1.5577351
16.204853913035244	2.416371	1.5544682
16.222557576279478	2.4228148	1.5565394
16.240261629344403	22.415339	4.734484
16.257966072678386	42.976044	6.5556116
16.275670906729868	38.08834	6.171575
16.293376131947387	2.532896	1.5915074
16.31108174877957	2.5676906	1.6024015
16.328787757675133	2.57623	1.6050639
16.34649415908287	2.5611393	1.600356
16.364200953451657	2.5902755	1.6094333
16.38190814123048	2.6121764	1.6162229
16.39961572286839	2.6301231	1.6217655
16.41732369881455	2.627881	1.6210741
16.43503206951817	2.677144	1.636198
16.45274083542859	2.7301972	1.6523309
16.47044999699522	2.7814302	1.667762
16.488159554667558	2.8013396	1.6737202
16.505869508895184	2.887371	1.6992266
16.523579860127786	2.9849565	1.7277026
16.541290608815117	3.0446105	1.7448813
16.559001755407035	3.0321298	1.7413012
16.57671330035348	3.0441456	1.744748
16.59442524410448	3.1053405	1.7621976
16.61213758711015	3.2033653	1.7897948
16.629850329820705	3.2761273	1.8100076
16.647563472686436	3.3317838	1.8253175
16.665277016157724	3.391881	1.841706
16.682990960685053	3.4361024	1.8536726
16.70070530671898	3.44386	1.855764
16.718420054710155	3.472644	1.8635032
16.736135205109335	3.567911	1.8888915
16.753850758367335	3.6505425	1.9106393
16.771566714935087	3.6881688	1.9204606
16.789283075263597	3.696614	1.9226581
16.80699983980398	3.7508197	1.9367033
16.82471700900741	3.7986329	1.9490082
16.84243458332518	3.8496895	1.9620626
16.860152563208665	3.8888073	1.972006
16.87787094910932	3.9959896	1.9989971
16.89558974147871	4.0672064	2.0167315
16.913308940768466	4.173029	2.0427992
16.931028547430333	4.250593	2.0616968
16.94874856191613	4.3281775	2.0804272
16.966468984677785	4.37104	2.0907032
16.98418981616729	4.3996787	2.097541
17.00191105683676	4.436023	2.1061869
17.019632707138374	4.489764	2.1189063
17.03735476752442	4.5637236	2.1362875
17.05507723844728	4.6210394	2.1496603
17.072800120359403	4.600128	2.144791
17.090523413713353	4.5754204	2.1390233
17.108247118961785	4.6229234	2.1500986
17.125971236557437	4.669369	2.1608722
17.143695766953133	4.677495	2.1627517
17.161420710601806	4.680056	2.1633437
17.179146067956477	4.719898	2.1725326
17.19687183947025	4.789199	2.1884239
17.21459802559634	4.802821	2.191534
17.232324626788028	4.7307186	2.1750214
17.25005164349871	4.673323	2.161787
17.267779076181863	4.654191	2.1573575
17.285506925291074	4.6680193	2.16056
17.30323519127999	4.6183767	2.149041
17.320963874602384	4.5725217	2.1383455
17.33869297571211	4.5594797	2.1352937
17.356422495063114	4.529322	2.1282203
17.37415243310944	4.5566387	2.1346285
17.391882790305218	4.5622077	2.1359324
17.40961356710468	4.5384903	2.1303732
17.42734476396215	4.5087886	2.123391
17.445076381332044	4.485156	2.1178186
17.462808419668868	4.5864897	2.1416092
17.48054087942723	4.745364	2.1783857
17.498273761061835	5.0529833	2.2478843
17.51600706502747	5.5027957	2.3458037
17.533740791779024	6.2176948	2.4935305
17.551474941771485	7.63929	2.7639265
17.56920951545993	8.722941	2.9534626
17.586944513299528	10.956974	3.310132
17.60467993574556	12.6298275	3.5538468
17.622415783253373	14.288147	3.7799666
17.64015205627843	15.61464	3.9515364
17.657888755276293	16.660736	4.0817566
17.675625880702604	17.07907	4.1326833
17.69336343301311	16.859015	4.1059732
17.71110141266366	16.011385	4.001423
17.728839820110178	15.071968	3.8822632
17.746578655808705	14.185341	3.766343
17.764317920215372	12.788555	3.576109
17.7820576137864	11.384088	3.3740313
17.79979773697811	9.436099	3.0718234
17.81753829024692	7.5614305	2.7498055
17.835279274049356	5.8794026	2.424748
17.85302068884201	4.863124	2.205249
17.870762535081607	4.2071643	2.0511372
17.888504813224934	3.8981736	1.9743793
17.90624752372891	3.7251444	1.9300634
17.923990667050536	3.669277	1.9155357
17.941734243646895	3.609715	1.899925
17.959478253975185	3.5417728	1.8819598
17.9772226984927	3.4515402	1.8578321
17.994967577656833	3.4203572	1.8494208
18.01271289192506	3.4311674	1.852341
18.030458641754965	3.417971	1.8487755
18.04820482760425	3.3548267	1.8316185
18.06595144993067	3.3003497	1.8166865
18.083698509192125	3.2587376	1.8051974
18.101446005846576	3.2812357	1.8114182
18.119193940352105	3.2824984	1.8117666
18.136942313166887	3.292527	1.8145322
18.1546911247492	3.2600765	1.8055682
18.1724403755574	3.2198632	1.7943977
18.19019006604997	3.1557438	1.7764413
18.207940196685467	3.1374354	1.7712808
18.225690767922575	3.1186647	1.7659742
18.243441780220046	3.102618	1.761425
18.261193234036764	3.0782354	1.75449
18.278945129831676	3.075745	1.7537802
18.29669746806386	3.0834618	1.7559788
18.314450249192483	3.0425787	1.7442989
18.3322034736768	3.027201	1.7398853
18.349957141976184	3.0362005	1.7424697
18.3677112545501	3.0297143	1.7406075
18.385465811858108	3.0314534	1.741107
18.403220814359884	3.0244918	1.7391067
18.420976262515172	3.113418	1.7644881
18.43873215678387	3.1520684	1.7754065
18.456488497625923	3.1792755	1.7830523
18.474245285501407	3.19978	1.7887928
18.492002520870486	3.2270935	1.7964113
18.50976020419343	3.348703	1.8299462
18.527518335930615	3.674169	1.9168122
18.545276916542516	4.264852	2.065152
18.563035946489688	4.428354	2.1043653
18.580795426232832	4.940397	2.2227004
18.598555356232698	4.821452	2.1957805
18.616315736950185	5.1359177	2.2662563
18.63407656884626	4.767863	2.1835437
18.65183785238201	5.0115047	2.238639
18.669599588018617	4.792046	2.1890743
18.68736177621737	4.772944	2.184707
18.705124417439652	4.720222	2.1726072
18.72288751214696	4.5214233	2.126364
18.740651060800886	4.6795244	2.163221
18.758415063863115	4.364981	2.0892537
18.77617952179546	4.5466294	2.1322827
18.793944435059814	4.283091	2.069563
18.811709804118184	4.291995	2.071713
18.829475629432675	4.2010674	2.0496507
18.8472419114655	3.9865887	1.9966444
18.86500865067897	4.0578246	2.0144043
18.88277584753551	3.747548	1.9358585
18.90054350249763	3.786741	1.945955
18.918311616027957	3.4669864	1.8619845
18.936080188589226	3.3558347	1.8318938
18.953849220644265	3.032542	1.7414196
18.971618712656007	2.8923554	1.7006927
18.9893886650875	2.856401	1.690089
19.007159078401887	8.045914	2.8365319
19.024929953062408	32.89478	5.735397
19.042701289532435	32.843	5.730881
19.060473088275405	25.420717	5.0418963
19.07824534975489	2.7097042	1.6461179
19.096018074434568	2.6602902	1.6310396
19.113791262778197	2.6209908	1.6189474
19.13156491524966	2.60431	1.6137875
19.149339032312945	2.5975394	1.6116884
19.167113614432136	2.5718658	1.6037037
19.184888662071433	2.5067005	1.5832562
19.202664175695123	2.5071642	1.5834028
19.220440155767623	2.5354896	1.5923221
19.238216602753447	2.5542724	1.5982091
19.2559935171172	2.5607193	1.6002247
19.27377089932361	2.5591812	1.5997441
19.291548749837514	2.555646	1.5986388
19.309327069123835	2.5238185	1.5886531
19.32710585764763	2.5057466	1.582955
19.344885115874032	2.5225086	1.5882407
19.362664844268313	2.5238793	1.5886722
19.380445043295822	2.5412345	1.594125
19.39822571342203	2.544144	1.5950372
19.41600685511252	2.5342903	1.5919454
19.43378846883297	2.517799	1.5867573
19.451570555049173	2.501265	1.5815388
19.469353114227037	2.4695563	1.5714822
19.48713614683254	2.4657972	1.5702857
19.50491965333182	2.4700334	1.5716339
19.52270363419109	2.438699	1.5616335
19.540488089876686	2.4256597	1.5574529
19.55827302085503	2.4604397	1.5685788
19.576058427592674	2.5262532	1.5894191
19.593844310556282	2.5352323	1.5922413
19.611630670212598	2.5055146	1.5828817
19.629417507028506	2.5125446	1.5851008
19.64720482147098	2.5161548	1.5862392
19.6649926140071	2.4872673	1.5771072
19.682780885104084	2.4726279	1.5724592
19.70056963522921	2.4841123	1.5761067
19.718358864849908	2.524241	1.588786
19.7361485744337	2.523769	1.5886375
19.753938764448215	2.5122962	1.5850224
19.771729435361202	2.4899402	1.5779544
19.789520587640506	2.4905584	1.5781503
19.807312221754092	2.4979467	1.5804894
19.825104338170043	2.5235925	1.5885819
19.842896937356517	2.5350718	1.5921909
19.860690019781824	2.5395913	1.5936096
19.87848358591436	2.537983	1.5931048
19.896277636222635	2.5325418	1.5913962
19.914072171175278	2.5266058	1.5895301
19.931867191241015	2.4796107	1.574678
19.94966269688869	2.486746	1.576942
19.967458688587264	2.4823987	1.575563
19.985255166805807	2.4926803	1.5788225
20.00305213201348	2.501226	1.5815265
20.020849584679578	2.5067122	1.5832599
20.038647525273507	2.5018992	1.5817393
20.05644595426477	2.4614227	1.5688922
20.07424487212299	2.4347262	1.5603609
20.092044279317903	2.4414592	1.5625169
20.109844176319353	2.4559891	1.5671595
20.127644563597304	2.4573128	1.5675819
20.145445441621817	2.441659	1.5625808
20.16324681086307	2.446018	1.5639751
20.181048671791373	2.4272978	1.5579787
20.198851024877122	2.3953876	1.547704
20.216653870590836	2.3850043	1.5443459
20.234457209403146	2.396885	1.5481876
20.252261041784802	2.4051075	1.5508409
20.270065368206662	2.3730812	1.5404809
20.287870189139685	2.3463385	1.5317763
20.305675505054968	2.3654017	1.5379863
20.323481316423702	2.3693433	1.5392672
20.341287623717207	2.3807485	1.5429674
20.359094427406884	2.3837094	1.5439266
20.376901727964288	2.3874657	1.5451427
20.39470952586107	2.385531	1.5445164
20.41251782156899	2.3946693	1.5474719
20.430326615559935	2.4474282	1.5644258
20.448135908305886	2.4070082	1.5514536
20.465945700278965	2.3659544	1.5381659
20.483755991951384	2.3499608	1.5329581
20.50156678379548	2.383024	1.5437046
20.519378076283708	2.37048	1.5396364
20.537189869888635	2.3536758	1.5341694
20.55500216508294	2.3476496	1.5322042
20.572814962339415	2.3741133	1.5408158
20.59062826213098	2.3422344	1.530436
20.60844206493066	2.312005	1.5205278
20.626256371211593	2.3272812	1.525543
20.644071181447032	2.3629203	1.5371794
20.66188649611036	2.3590734	1.5359275
20.67970231567506	2.334852	1.5280223
20.697518640614742	2.3026578	1.517451
20.715335471403122	2.3021915	1.5172974
20.73315280851404	2.329808	1.5263709
20.750970652421447	2.3321712	1.5271448
20.768789003599412	2.3241801	1.5245262
20.786607862522136	2.2664912	1.505487
20.8044272296639	2.2337344	1.4945683
20.82224710549913	2.245538	1.4985119
20.84006749050237	2.279098	1.5096682
20.857888385148268	3.8465066	1.9612513
20.8757097899116	45.93422	6.7774787
20.893531705267254	64.78741	8.049063
20.911354131690224	83.81329	9.15496
20.92917706965566	69.10024	8.312655
20.94700051963877	50.16157	7.0824833
20.96482448211493	29.405499	5.4226837
20.982648957559622	4.144626	2.0358355
21.00047394644843	2.2751515	1.5083605
21.01829944925707	2.2750418	1.5083241
21.036125466461375	2.2598422	1.5032772
21.053951998537297	2.2368886	1.4956231
21.071779045960906	2.2498746	1.4999582
21.089606609208378	2.2560804	1.5020255
21.10743468875603	2.2501776	1.5000592
21.12526328508028	2.231654	1.4938722
21.143092398657675	2.2352676	1.4950812
21.16092202996488	2.2352731	1.495083
21.17875217947867	2.2383356	1.4961069
21.19658284767596	2.2045557	1.4847746
21.21441403503377	2.1914694	1.4803612
21.232245742029225	2.1719668	1.4737594
21.2500779691396	2.1901553	1.4799173
21.26791071684227	2.1841955	1.4779024
21.28574398561475	2.1885917	1.479389
21.30357777593465	2.1899674	1.4798539
21.321412088279704	2.1829078	1.4774667
21.339246923127792	2.1786058	1.4760101
21.357082280956888	2.1865904	1.4787124
21.3749181622451	2.2025952	1.4841143
21.392754567470647	2.206476	1.4854212
21.41059149711187	2.1647873	1.4713216
21.42842895164726	2.1583645	1.4691373
21.446266931555378	2.140494	1.4630427
21.464105437314945	2.1285605	1.4589587
21.481944469404798	2.102536	1.4500124
21.49978402830388	2.089651	1.4455626
21.51762411449127	2.0829122	1.4432298
21.53546472844617	2.0808241	1.4425062
21.553305870647876	2.0768197	1.4411175
21.571147541575865	2.0874739	1.4448093
21.58898974170967	2.074593	1.4403448
21.60683247152899	2.0784178	1.4416718
21.62467573151363	2.076248	1.4409192
21.642519522143523	2.0706832	1.4389869
21.660363843898722	2.0226781	1.4222089
21.6782086972594	2.0104024	1.4178866
21.696054082705864	2.0051012	1.416016
21.713900000718535	2.0546753	1.4334139
21.73174645177795	2.048171	1.4311433
21.749593436364794	2.011505	1.4182754
21.767440954959845	2.0015757	1.4147706
21.785289008044032	2.0069773	1.4166783
21.803137596098388	2.026616	1.4235927
21.820986719604086	2.0552824	1.4336256
21.838836379042412	2.0497296	1.4316877
21.85668657489478	2.045193	1.4301025
21.87453730764273	2.037775	1.4275066
21.892388577767914	2.054507	1.4333552
21.91024038575213	2.0333374	1.4259514
21.928092732077285	2.027377	1.4238598
21.945945617225426	2.0033388	1.4153935
21.963799041678694	2.0150137	1.4195118
21.981653005919398	31.308989	5.5954437
21.999507510429943	78.11133	8.838061
22.01736255569286	73.0698	8.548087
22.035218142190818	4.2007346	2.0495694
22.05307427040661	2.0368214	1.4271725
22.07093094082315	2.041274	1.4287317
22.088788153923474	2.0034628	1.4154373
22.106645910190746	1.971589	1.4041328
22.12450421010827	1.9837563	1.4084588
22.142363054159464	2.0102768	1.4178423
22.16022244282787	2.0113997	1.4182383
22.178082376597164	1.9969517	1.4131354
22.195942855951145	1.9892434	1.4104054
22.213803881373742	1.9760419	1.4057176
22.231665453349002	1.978253	1.4065038
22.24952757236111	1.9879135	1.4099338
22.26739023889438	1.9808663	1.4074326
22.28525345343323	1.9732423	1.4047214
22.30311721646225	1.9441634	1.3943326
22.320981528466113	1.9275156	1.38835
22.33884638992964	1.9476639	1.3955873
22.356711801337788	1.9572884	1.3990313
22.37457776317561	1.9704424	1.4037244
22.392444275928337	1.9572119	1.3990039
22.410311340081282	1.9730622	1.4046574
22.428178956119904	1.9868059	1.409541
22.446047124529805	1.9855883	1.409109
22.46391584579669	1.9412029	1.3932706
22.481785120406414	1.9414343	1.3933536
22.49965494884496	1.9426919	1.3938048
22.51752533159841	1.986439	1.4094108
22.53539626915302	1.9577284	1.3991885
22.553267761995137	1.949104	1.3961031
22.571139810611264	1.9455748	1.3948386
22.589012415488025	1.9478319	1.3956475
22.60688557711216	1.9677311	1.4027584
22.624759295970566	1.9582567	1.3993772
22.642633572550263	1.9762999	1.4058093
22.660508407338362	1.9433737	1.3940494
22.67838380082217	1.9231352	1.3867714
22.696259753489077	1.9121823	1.3828168
22.714136265826614	1.9379538	1.3921041
22.73201333832246	1.9312478	1.3896934
22.74989097146439	1.9483068	1.3958176
22.76776916574035	1.9497881	1.3963481
22.785647921638393	1.9251437	1.3874955
22.803527239646712	1.9118059	1.3826807
22.82140712025363	1.9027487	1.3794016
22.839287563947593	1.9102713	1.3821256
22.85716857121719	1.9272139	1.3882413
22.875050142551135	1.9184322	1.3850749
22.892932278438277	1.8818295	1.3717979
22.910814979367604	1.8873402	1.373805
22.928698245828222	1.8869237	1.3736534
22.946582078309387	1.8975394	1.377512
22.96446647730047	1.9021935	1.3792003
22.98235144329098	1.9241883	1.3871511
23.000236976770562	1.9138682	1.3834263
23.018123078229	1.8876363	1.3739128
23.03600974815619	1.8932246	1.375945
23.053896987042194	1.9137741	1.3833922
23.071784795377173	1.947275	1.395448
23.08967317365145	1.9407899	1.3931223
23.10756212235546	1.8857514	1.3732266
23.125451641979787	1.8695387	1.3673108
23.143341733015134	1.9019676	1.3791184
23.161232395952357	1.9351364	1.3910918
23.179123631282426	1.9419801	1.3935494
23.197015439496468	1.9607768	1.4002774
23.214907821085717	1.9990277	1.4138697
23.23280077654157	1.9940315	1.4121019
23.250694306355538	1.9670932	1.402531
23.268588411019277	1.9538388	1.3977978
23.28648309102458	1.9876585	1.4098434
23.304378346863356	1.9894532	1.4104798
23.322274179027676	1.9669983	1.4024972
23.340170588009723	1.9245131	1.3872682
23.358067574301852	1.9033501	1.3796196
23.37596513839651	1.8771428	1.3700886
23.39386328078629	1.8820225	1.3718683
23.411762001963947	1.8971661	1.3773766
23.429661302422353	1.9203174	1.3857552
23.4475611826545	1.9222733	1.3864607
23.46546164315356	1.911399	1.3825336
23.48336268441279	1.9085377	1.3814983
23.501264306925638	1.9516116	1.3970009
23.51916651118564	1.9149164	1.383805
23.537069297686497	1.9035126	1.3796785
23.554972666922037	1.8860128	1.3733218
23.57287661938623	1.8974168	1.3774675
23.59078115557318	1.8660495	1.3660343
23.608686275977128	1.8692629	1.3672099
23.62659198109246	1.8718772	1.3681656
23.6444982714137	1.8843503	1.3727164
23.66240514743549	1.8918484	1.3754448
23.68031260965263	1.8984745	1.3778514
23.698220658560068	1.9293491	1.3890101
23.716129294652845	1.9231174	1.3867651
23.7340385184262	1.934985	1.3910373
23.75194833037546	1.9055794	1.3804272
23.769858730996123	1.9181131	1.3849596
23.78776972078382	1.8950809	1.3766193
23.80568130023431	1.8622046	1.3646262
23.823593469843495	1.8534241	1.3614051
23.841506230107424	1.8803126	1.3712449
23.859419581522275	1.8719003	1.3681741
23.87733352458438	1.8849494	1.3729346
23.89524805979019	1.9059905	1.3805761
23.913163187636318	1.9336321	1.390551
23.931078908619508	1.9419242	1.3935294
23.948995223236633	1.9616162	1.4005771
23.966912131984735	2.0053225	1.4160941
23.98482963536096	2.0358846	1.4268442
24.002747733862616	2.0468612	1.4306855
24.020666427987155	2.0671132	1.4377458
24.038585718232156	2.102754	1.4500877
24.056505605095353	2.0876904	1.4448842
24.074426089074617	2.0371904	1.4273018
24.092347170667946	2.0469067	1.4307015
24.110268850373515	2.0850046	1.4439545
24.128191128689586	2.0875468	1.4448346
24.146114006114626	2.0736225	1.4400078
24.164037483147187	2.0601661	1.4353279
24.181961560286005	2.075071	1.4405107
24.199886238029926	2.039411	1.4280795
24.21781151687797	2.0740767	1.4401655
24.235737397329274	2.0560212	1.4338833
24.253663879883135	2.0447016	1.4299306
24.271590965038975	2.0471659	1.4307921
24.289518653296376	2.05742	1.434371
24.30744694515505	2.0693476	1.4385227
24.32537584111486	2.083967	1.4435952
24.34330534167581	2.031788	1.425408
24.361235447338046	1.9800239	1.4071332
24.379166158601876	1.9717343	1.4041846
24.39709747596772	2.07559	1.4406908
24.41502939993615	2.0774195	1.4413257
24.432961931007917	2.0436206	1.4295526
24.450895069683856	2.0415664	1.428834
24.468828816465	2.0392988	1.4280401
24.4867631718525	1.9909214	1.4110001
24.504698136347656	1.9629146	1.4010406
24.52263371045192	1.944877	1.3945885
24.540569894666874	1.9388803	1.3924369
24.558506689494266	1.9591924	1.3997115
24.57644409543597	1.9779351	1.4063908
24.594382112994012	1.9630502	1.401089
24.61232074267057	1.9554838	1.3983861
24.630259984967953	1.9357892	1.3913264
24.64819984038863	1.9293828	1.3890222
24.66614030943522	1.9102148	1.3821052
24.684081392610462	1.9002239	1.378486
24.702023090417274	1.9353898	1.3911829
24.7199654033587	1.9687554	1.4031234
24.737908331937927	1.9830854	1.4082206
24.755851876658305	2.025379	1.423158
24.773796038023324	2.0221744	1.4220318
24.79174081653661	2.0182729	1.4206593
24.809686212701962	1.999174	1.4139215
24.827632227023294	2.0577886	1.4344994
24.8455788600047	2.0752807	1.4405835
24.8635261121504	2.0914795	1.4461949
24.88147398396475	2.0691772	1.4384634
24.899422475952303	2.1077824	1.4518204
24.917371588617698	2.1214526	1.4565207
24.935321322465768	2.1902199	1.4799391
24.953271678001478	2.2684078	1.5061234
24.97122265572994	2.4654906	1.570188
24.989174256156414	2.7647808	1.662763
25.00712647978632	3.2067964	1.790753
25.02507932712521	3.7724397	1.942277
25.043032798678798	4.3533716	2.0864735
25.060986894952933	5.0295835	2.2426734
25.078941616453637	5.7597194	2.3999414
25.096896963687055	6.5701437	2.563229
25.114852937159508	7.624359	2.7612243
25.132809537377444	8.097487	2.8456085
25.150766764847468	8.123078	2.8501015
25.168724620076347	7.560374	2.7496133
25.186683103570985	6.6739516	2.5833993
25.204642215838426	5.5896077	2.3642352
25.222601957385894	4.248747	2.0612488
25.24056232872074	3.1761472	1.7821748
25.25852333035048	2.5535433	1.597981
25.276484962782778	2.2169192	1.4889323
25.294447226525435	2.0706701	1.4389824
25.312410122086423	1.9831718	1.4082513
25.330373649973843	1.9486779	1.3959506
25.348337810695988	1.9349393	1.3910209
25.366302604761245	1.8770424	1.370052
25.384268032678207	1.8430544	1.3575914
25.40223409495558	1.8652387	1.3657374
25.420200792102257	1.9114523	1.3825529
25.438168124627246	1.9766668	1.4059398
25.45613609303974	1.9986014	1.413719
25.474104697849057	1.9570442	1.398944
25.492073939564698	1.8925753	1.375709
25.510043818696285	1.8910282	1.3751466
25.528014335753614	1.8693352	1.3672364
25.54598549124664	1.8720673	1.3682351
25.56395728568544	1.8611027	1.3642224
25.58192971958028	1.9011414	1.3788189
25.59990279344156	1.9345138	1.390868
25.617876507779833	1.9291581	1.3889414
25.635850863105826	1.8704435	1.3676416
25.653825859930386	1.8518463	1.3608257
25.671801498764548	1.8520691	1.3609074
25.68977778011949	1.8574233	1.3628732
25.707754704506524	1.9053473	1.3803432
25.725732272437153	1.9405274	1.3930281
25.743710484423012	1.907669	1.3811839
25.761689340975888	1.8613408	1.3643097
25.77966884260774	1.8267909	1.3515882
25.797648989830662	1.7825903	1.3351368
25.815629783156922	1.8065252	1.3440704
25.83361122309895	1.8431695	1.3576337
25.85159331016929	1.873694	1.3688294
25.869576044880695	1.8800985	1.3711668
25.887559427746034	1.9180708	1.3849443
25.90554345927836	1.9231269	1.3867686
25.92352813999086	1.8826361	1.3720919
25.94151347039689	1.8438554	1.3578863
25.959499451009965	1.8092539	1.3450851
25.97748608234374	1.8202085	1.349151
25.995473364912062	1.8004512	1.3418089
26.013461299228904	1.828889	1.3523642
26.03144988580839	1.8015465	1.342217
26.04943912516483	1.8301561	1.3528327
26.067429017812675	1.8081055	1.3446581
26.085419564266537	1.8130282	1.3464874
26.103410765041186	1.8298726	1.3527279
26.12140262065155	1.8545481	1.361818
26.139395131612723	1.8354661	1.3547938
26.157388298439948	1.804448	1.3432975
26.17538212164861	1.8019409	1.342364
26.193376601754295	1.8085151	1.3448104
26.211371739272714	1.8521436	1.3609349
26.229367534719746	1.8696874	1.3673651
26.247363988611433	1.8513122	1.3606293
26.26536110146397	1.8292878	1.3525116
26.283358873793727	1.8428253	1.357507
26.301357306117204	1.8512391	1.3606025
26.319356398951104	1.8418891	1.3571621
26.33735615281224	1.8435279	1.3577658
26.35535656821762	1.8497869	1.3600687
26.373357645684404	1.8419896	1.3571992
26.39135938572991	1.8376247	1.3555901
26.409361788871614	1.8140707	1.3468745
26.427364855627165	1.8000699	1.3416668
26.445368586514352	1.7936398	1.3392683
26.46337298205115	1.817494	1.3481447
26.48137804275568	1.8345429	1.354453
26.499383769146217	1.8282626	1.3521326
26.517390161741215	1.7618695	1.3273543
26.53539722105928	1.7437229	1.320501
26.553404947619182	1.8045813	1.3433471
26.571413341939856	1.8465248	1.358869
26.589422404540397	1.8206227	1.3493046
26.60743213594006	1.7953545	1.3399084
26.62544253665827	1.8302379	1.3528628
26.64345360721459	1.8331305	1.3539315
26.66146534812879	1.7924641	1.3388294
26.679477759920758	1.7830364	1.3353038
26.69749084311057	1.8136828	1.3467304
26.71550459821847	1.857163	1.3627777
26.733519025764842	1.8313522	1.3532746
26.751534126270258	1.7846882	1.3359222
26.769549900255434	1.7931694	1.3390927
26.787566348241267	1.8162078	1.3476676
26.80558347074881	1.824957	1.3509097
26.823601268299267	1.8554689	1.3621559
26.841619741414036	1.894567	1.3764327
26.85963889061465	1.8939354	1.3762033
26.877658716422832	1.8876727	1.373926
26.89567921936045	1.835438	1.3547834
26.913700399949544	1.8277546	1.3519448
26.93172225871233	1.8105949	1.3455834
26.949744796171174	1.7897941	1.3378319
26.967768012848605	1.7799628	1.3341525
26.98579190926733	1.8047675	1.3434163
27.003816485950225	1.8349001	1.3545848
27.021841743420318	1.8469726	1.3590337
27.039867682200814	1.8173696	1.3480985
27.057894302815072	1.7979306	1.3408693
27.07592160578664	1.8071293	1.344295
27.0939495916392	1.7934091	1.3391823
27.111978260896635	1.7698753	1.3303666
27.13000761408296	1.7545596	1.324598
27.148037651722397	1.7640792	1.3281864
27.166068374339304	1.7682163	1.3297429
27.184099782458215	1.7858202	1.3363459
27.20213187660384	1.8004057	1.341792
27.22016465730105	1.7966827	1.3404039
27.23819812507487	1.820358	1.3492064
27.256232280450533	1.8196594	1.3489475
27.274267123953383	1.7940873	1.3394355
27.292302656108987	1.7759651	1.3326534
27.31033887744306	1.7628903	1.3277388
27.32837578848146	1.7629113	1.3277467
27.34641338975026	1.7665802	1.3291277
27.364451681775673	1.7510189	1.3232607
27.382490665084074	1.73862	1.3185674
27.400530340202046	1.7626269	1.3276396
27.41857070765629	1.8094789	1.3451687
27.436611767973726	1.8363973	1.3551373
27.454653521681404	1.7821642	1.3349773
27.472695969306564	1.7574823	1.3257006
27.490739111376627	1.7860119	1.3364176
27.508782948419153	1.8177993	1.3482579
27.526827480961902	1.8187474	1.3486094
27.54487270953279	1.751245	1.3233461
27.562918634659898	1.7163054	1.3100784
27.580965256871508	1.7520915	1.323666
27.599012576696026	1.7931027	1.3390678
27.617060594662068	1.7907999	1.3382077
27.63510931129842	1.7681179	1.329706
27.65315872713401	1.7847911	1.3359607
27.67120884269797	1.8115393	1.3459344
27.68925965851958	1.8325574	1.3537198
27.707311175128307	1.8268999	1.3516287
27.725363393053787	1.833928	1.354226
27.74341631282583	1.8337564	1.3541627
27.7614699349744	1.858096	1.36312
27.77952426002968	2.030003	1.4247818
27.797579288521973	2.120427	1.4561685
27.815635020981784	2.5823553	1.6069708
27.83369145793979	2.6620934	1.6315923
27.85174859992682	2.504258	1.5824847
27.869806447473923	2.3471172	1.5320305
27.887865001112267	2.0043635	1.4157555
27.905924261373233	1.9246958	1.3873341
27.92398422878836	1.9006053	1.3786244
27.94204490388936	1.896149	1.3770072
27.96010628720813	1.8769109	1.3700039
27.978168379276728	1.9023633	1.3792619
27.9962311806274	1.8840268	1.3725985
28.014294691792568	1.8921916	1.3755696
28.0323589133048	1.9021682	1.3791912
28.050423845696887	1.9122419	1.3828384
28.068489489501758	1.9114954	1.3825685
28.086555845252523	1.8551354	1.3620336
28.104622913482487	1.8068725	1.3441995
28.122690694725115	1.8399695	1.3564547
28.14075918951405	1.8668505	1.3663274
28.15882839838312	1.8567916	1.3626415
28.176898321866304	1.8879923	1.3740423
28.1949689604978	1.9422585	1.3936493
28.213040314811945	1.9523133	1.3972521
28.23111238534327	1.8921849	1.3755671
28.249185172626493	1.8552247	1.3620664
28.267258677196473	1.8853804	1.3730916
28.285332899588294	1.8804703	1.3713024
28.303407840337172	1.8273702	1.3518026
28.321483499978545	1.7859807	1.3364059
28.33955987904799	1.8500649	1.3601708
28.357636978081285	1.8801682	1.3711922
28.37571479761439	1.9116831	1.3826363
28.393793338183425	1.945517	1.394818
28.41187260032469	1.9495358	1.3962578
28.429952584574686	1.9401984	1.39291
28.448033291470065	1.9472841	1.3954512
28.46611472154769	2.0092096	1.4174659
28.484196875344566	2.0167692	1.42013
28.502279753397914	2.032493	1.4256554
28.52036335624511	2.002409	1.415065
28.538447684423716	1.9491268	1.3961114
28.556532738471482	1.9741089	1.4050299
28.574618518926325	2.0008996	1.4145316
28.59270502632635	2.009159	1.417448
28.61079226120985	2.013876	1.419111
28.628880224115274	2.0213597	1.4217453
28.646968915581287	2.037304	1.4273416
28.66505833614671	2.0099616	1.4177312
28.68314848635055	2.0347323	1.4264405
28.701239366732004	2.081946	1.4428949
28.71933097783044	2.0863755	1.4444292
28.737423320185403	2.048602	1.4312938
28.75551639433665	2.0236464	1.4225492
28.773610200824074	2.0863013	1.4444034
28.791704740187793	2.1813147	1.4769274
28.80980001296809	2.21872	1.4895369
28.827896019705413	2.1723495	1.4738892
28.845992760940433	2.168624	1.4726249
28.86409023721397	2.1875956	1.4790523
28.88218844906704	2.1936471	1.4810966
28.900287397040845	2.2113142	1.4870489
28.918387081676755	2.2101386	1.4866534
28.936487503516343	2.2072027	1.4856657
28.954588663101365	2.2243404	1.4914223
28.97269056097374	2.3162265	1.5219154
28.990793197675597	2.3461237	1.5317061
29.00889657374923	2.3440728	1.5310365
29.027000689737125	2.3717425	1.5400462
29.04510554618196	2.4133348	1.5534912
29.06321114362659	2.4191144	1.5553502
29.08131748261405	2.447127	1.5643296
29.099424563687567	2.5234907	1.5885499
29.11753238739057	2.568726	1.6027246
29.13564095426663	2.5320427	1.5912393
29.15375026485954	2.58444	1.6076194
29.171860319713275	2.6820543	1.6376978
29.18997111937199	2.7128816	1.6470827
29.20808266438002	2.718819	1.6488842
29.226194955281898	2.7350807	1.653808
29.244307992622335	2.7717564	1.6648593
29.26242177694624	2.8900096	1.7000028
29.2805363087987	2.9431195	1.7155522
29.29865158872498	2.9314187	1.7121387
29.316767617270557	2.9190986	1.708537
29.334884394981064	2.9123113	1.7065495
29.353001922402367	2.963657	1.7215275
29.37112020008047	3.0360005	1.7424122
29.389239228561596	3.1348765	1.7705582
29.407359008392152	3.277911	1.8105001
29.42547954011872	3.564071	1.8878747
29.44360082428809	4.1895013	2.046827
29.46172286144722	5.273826	2.2964811
29.479845652143283	6.9442344	2.6351914
29.497969196923606	8.985682	2.9976127
29.516093496335728	11.404116	3.376998
29.5342185509274	14.009576	3.7429368
29.55234436124651	16.286842	4.035696
29.570470927841175	17.587486	4.1937437
29.588598251259686	17.440702	4.1762066
29.60672633205055	16.226082	4.028161
29.624855170762405	14.139276	3.760223
29.642984767944146	11.467051	3.3863034
29.66111512414481	8.711212	2.9514763
29.67924623991366	6.4907484	2.5476947
29.697378115800138	4.975931	2.2306795
29.71551075235387	4.1181335	2.0293186
29.733644150124675	3.6931405	1.9217545
29.751778309662576	3.5191045	1.8759277
29.769913231517766	3.4310956	1.8523216
29.78804891624066	3.3813777	1.8388523
29.806185364381818	3.3238757	1.8231499
29.82432257649206	3.3481686	1.8298001
29.842460553122333	3.361871	1.8335406
29.86059929482382	3.4339256	1.8530854
29.878738802147872	3.4063082	1.8456186
29.896879075646048	3.3535218	1.8312624
29.915020115870114	3.2732697	1.8092179
29.933161923371976	3.2371135	1.799198
29.951304498703777	3.2295127	1.7970845
29.969447842417857	3.29053	1.8139818
29.987591955066733	3.257402	1.8048275
30.005736837203123	3.1798458	1.7832122
30.023882489379943	3.126905	1.7683057
30.04202891215028	3.1708238	1.7806808
30.060176106067455	3.1765506	1.7822881
30.078324071684946	3.0913389	1.7582203
30.09647280955646	3.0271976	1.7398844
30.114622320235863	3.1138525	1.7646111
30.132772604277257	3.1925893	1.7867818
30.1509236622349	3.1445343	1.7732835
30.16907549466328	3.0669188	1.7512621
30.18722810211705	3.0595539	1.749158
30.205381485151097	3.0527802	1.7472206
30.22353564432045	2.9793077	1.7260671
30.241690580180403	2.9396281	1.7145344
30.25984629328638	2.9970243	1.7311916
30.278002784194037	3.0284095	1.7402326
30.296160053459246	3.009888	1.7349029
30.314318101638033	3.000383	1.7321613
30.332476929286646	3.0349658	1.7421153
30.35063653696153	3.0324333	1.7413883
30.368796925219307	2.966946	1.7224824
30.386958094616844	2.8829942	1.6979382
30.40512004571115	2.9145112	1.707194
30.423282779059463	2.963921	1.7216042
30.441446295219233	2.9151673	1.7073861
30.459610594748067	2.800862	1.6735777
30.47777567820382	2.7690291	1.66404
30.495941546144504	2.8424087	1.6859444
30.51410819912835	2.8858914	1.6987911
30.532275637713795	2.873239	1.6950631
30.55044386245946	2.8549578	1.6896621
30.56861287392416	2.8419662	1.6858132
30.586782672666956	2.7960565	1.6721413
30.604953259247047	2.7773292	1.666532
30.623124634223885	2.8319378	1.6828362
30.641296798157075	2.8150938	1.6778241
30.659469751606462	2.8004878	1.6734658
30.677643495132074	2.7819242	1.6679101
30.695818029294152	2.77903	1.6670424
30.713993354653116	2.7535708	1.6593887
30.73216947176962	2.6720178	1.6346308
30.75034638120448	2.6616535	1.6314574
30.768524083518756	2.7787316	1.6669527
30.786702579273673	2.818406	1.678811
30.80488186903069	2.801221	1.6736848
30.82306195335144	2.8440676	1.6864363
30.841242832797782	3.0102913	1.7350191
30.85942450793176	3.2715511	1.808743
30.877606979315637	3.6546826	1.9117224
30.895790247511883	4.0732284	2.018224
30.913974313083134	4.5072427	2.1230268
30.932159176592283	4.722734	2.173185
30.95034483860237	4.7148547	2.1713717
30.968531299676698	4.593497	2.1432445
30.98671856037873	4.3482246	2.0852396
31.00490662127215	3.9167037	1.9790664
31.023095482920848	3.3871977	1.8404341
31.04128514588892	2.9656463	1.7221051
31.059475610740662	2.682757	1.6379124
31.07766687804056	2.5444274	1.5951262
31.09585894835335	2.5314946	1.5910671
31.11405182224393	2.5244465	1.5888507
31.132245500277417	2.4904845	1.5781269
31.15043998301914	2.443484	1.5631647
31.168635271034628	2.4070673	1.5514727
31.18683136488964	2.39485	1.5475303
31.20502826515008	2.409352	1.5522088
31.223225972382135	2.4794354	1.5746223
31.241424487152155	2.544347	1.595101
31.259623810026692	2.5265381	1.5895088
31.27782394157253	2.4139445	1.5536873
31.296024882356644	2.4126484	1.5532702
31.314226632946237	2.411985	1.5530566
31.332429193908684	2.464166	1.5697662
31.350632565811598	2.5504856	1.597024
31.368836749222787	2.534743	1.5920876
31.387041744710295	2.4778135	1.5741072
31.40524755284232	2.5231113	1.5884305
31.423454174187317	2.6110306	1.6158683
31.441661609313922	2.6715667	1.6344928
31.459869858791002	2.63005	1.6217428
31.478078923187628	2.5063164	1.583135
31.496288803073064	2.4699674	1.571613
31.514499499016807	2.436828	1.5610342
31.532711011588546	2.3615286	1.5367266
31.550923341358178	2.389727	1.5458742
31.56913648889584	2.4305594	1.5590252
31.587350454771844	2.3927689	1.5468577
31.605565239556732	2.3196273	1.5230323
31.62378084382127	2.3006997	1.5168058
31.641997268136382	2.3145711	1.5213715
31.660214513073274	2.366287	1.538274
31.67843257920331	2.3025386	1.5174118
31.6966514670981	2.2808356	1.5102435
31.71487117732944	2.2184374	1.489442
31.733091710469346	2.228526	1.4928249
31.751313067090052	2.2571504	1.5023816
31.769535247764008	2.2879171	1.5125862
31.787758253063878	2.2751024	1.5083443
31.805982083562526	2.3555913	1.5347936
31.824206739833024	2.3620665	1.5369016
31.84243222244869	2.319653	1.5230408
31.860658531983013	2.246687	1.4988953
31.878885669009737	2.3601167	1.5362672
31.897113634102784	2.4350998	1.5604806
31.91534242783632	2.3989093	1.5488412
31.933572050784694	2.2839952	1.5112892
31.951802503522508	2.2523313	1.5007769
31.970033786624548	2.2871518	1.5123333
31.988265900665834	2.2945573	1.5147797
32.006498846221575	2.17768	1.4756964
32.02473262386724	2.1592884	1.4694518
32.04296723417845	2.2162435	1.4887053
32.0612026777311	2.200654	1.4834602
32.07943895510129	2.1900964	1.4798974
32.097676066865304	2.2609088	1.5036318
32.115914013599685	2.2624948	1.5041592
32.13415279588115	2.1885192	1.4793645
32.152392414286666	2.0753717	1.440615
32.1706328693934	2.013395	1.4189415
32.18887416177875	2.0411932	1.4287033
32.20711629202032	2.0884118	1.4451338
32.225359260695924	2.1408339	1.4631588
32.243603068383614	2.1359484	1.4614885
32.26184771566166	2.125368	1.4578643
32.28009320310852	2.1715348	1.4736128
32.2983395313029	2.1112552	1.4530159
32.31658670082372	2.0801263	1.4422643
32.33483471225012	2.1135674	1.4538113
32.35308356616143	2.1851618	1.4782293
32.371333263137245	2.124959	1.4577239
32.38958380375734	2.074071	1.4401635
32.407835188601744	2.1446679	1.4644685
32.42608741825067	2.2743452	1.5080932
32.444340493284585	2.2090805	1.4862976
32.46259441428416	2.0237303	1.4225787
32.48084918183028	2.014453	1.4193143
32.49910479650405	2.129808	1.4593861
32.51736125888683	2.138086	1.4622196
32.53561856956014	2.0878499	1.4449394
32.5538767291058	2.0474567	1.4308937
32.572135738105764	2.0207655	1.4215363
32.59039559714228	2.0125268	1.4186355
32.608656306797776	2.023174	1.4223832
32.62691786765491	2.026947	1.4237089
32.645180280296586	1.9886422	1.4101923
32.663443545305896	2.0240915	1.4227057
32.68170766326619	2.1929164	1.4808499
32.69997263476099	2.2315156	1.4938258
32.7182384603741	2.1443908	1.4643738
32.7365051406895	2.0727239	1.4396957
32.75477267629144	2.0385895	1.4277918
32.77304106776434	2.0081725	1.4171001
32.79131031569289	1.9601196	1.4000428
32.809580420661966	1.9781737	1.4064757
32.827851383256714	2.012497	1.418625
32.84612320406245	2.029181	1.4244932
32.86439588366476	2.0135317	1.4189897
32.88266942264945	1.9898434	1.4106181
32.9009438216025	1.9556261	1.398437
32.9192190811102	1.9433773	1.3940507
32.937495201758985	1.9613458	1.4004805
32.95577218413556	1.986375	1.4093882
32.974050028826866	2.0062914	1.4164362
32.992328736420035	2.0563385	1.4339939
33.010608307502444	2.0127661	1.4187199
33.02888874266169	1.992597	1.4115938
33.047170042485604	1.9077634	1.3812181
33.06545220756225	1.8838602	1.3725379
33.083735238479896	1.961352	1.4004828
33.10201913582707	1.9560369	1.3985839
33.12030390019248	1.9250242	1.3874524
33.138589532165135	1.9235902	1.3869356
33.15687603233419	1.873669	1.3688203
33.17516340128909	1.880515	1.3713187
33.19345163961947	1.9821699	1.4078956
33.211740747915215	2.13697	1.4618379
33.23003072676643	2.0614092	1.4357609
33.248321576763466	1.8048154	1.3434342
33.266613298496885	1.8118936	1.346066
33.28490589255747	1.9888712	1.4102734
33.30319935953626	2.0100884	1.4177759
33.32149370002451	2.0092914	1.4174948
33.339788914613706	2.043865	1.429638
33.358085003895575	2.0201726	1.4213277
33.376381968462034	1.9515727	1.396987
33.39467980890529	1.9389675	1.3924681
33.41297852581774	1.9677616	1.4027693
33.43127811979204	1.898611	1.377901
33.44957859142105	1.7994224	1.3414255
33.467879941297866	1.8516896	1.360768
33.486182170015844	1.9081185	1.3813466
33.50448527816853	1.9066696	1.3808221
33.522789266349754	1.9328498	1.3902696
33.541094135153514	1.8382039	1.3558037
33.55939988517411	1.7835995	1.3355147
33.57770651700602	1.822824	1.35012
33.59601403124398	1.8524026	1.36103
33.61432242848296	1.9129463	1.383093
33.632631709318154	1.9454757	1.394803
33.650941874344994	1.9289238	1.388857
33.66925292415916	1.9554724	1.3983821
33.68756485935654	1.9683554	1.4029809
33.70587768053328	1.9338542	1.3906308
33.724191388285746	1.9296693	1.3891253
33.74250598321054	1.8042246	1.3432143
33.760821465904506	1.8661402	1.3660674
33.77913783696474	1.979994	1.4071226
33.79745509698852	2.0044553	1.4157879
33.815773246573414	1.9022704	1.3792282
33.8340922863172	1.7755868	1.3325114
33.852412216817896	1.7030503	1.3050097
33.87073303867377	1.6744481	1.2940047
33.889054752483304	1.7711381	1.3308411
33.907377358845245	1.8319025	1.353478
33.92570085835853	1.8367156	1.3552548
33.94402525162239	1.8536602	1.3614919
33.96235053923627	1.8744831	1.3691176
33.980676721799824	1.8373845	1.3555015
33.999003799912984	1.858932	1.3634266
34.01733177417592	1.7954878	1.3399581
34.03566064518901	1.8833793	1.3723627
34.0539904135529	1.9271809	1.3882294
34.07232107986846	1.9052109	1.3802937
34.090652644736785	1.8524557	1.3610495
34.108985108759235	1.8804771	1.3713049
34.12731847253742	2.0039182	1.4155982
34.14565273667313	1.9816552	1.4077128
34.16398790176847	1.8671008	1.366419
34.18232396842574	1.9506888	1.3966706
34.20066093724749	2.0514746	1.432297
34.21899880883651	2.0292864	1.4245303
34.23733758379583	1.98353	1.4083785
34.25567726272874	1.9933429	1.411858
34.27401784623872	2.002084	1.4149501
34.29235933492957	1.9109997	1.3823891
34.31070172940526	1.9224713	1.3865321
34.32904503027003	1.9395396	1.3926735
34.347389238128386	1.9051634	1.3802766
34.36573435358502	1.9147063	1.3837291
34.38408037724492	2.0943573	1.4471895
34.402427309713296	2.1208155	1.456302
34.42077515159559	1.9934894	1.4119098
34.43912390349752	1.9895651	1.4105195
34.45747356602499	2.1049035	1.4508286
34.47582413978423	2.068121	1.4380963
34.49417562538163	2.0348022	1.4264649
34.51252802342388	2.0551739	1.4335878
34.53088133451789	2.0300653	1.4248036
34.54923555927084	1.9621395	1.4007639
34.567590698290104	1.9310783	1.3896325
34.58594675218336	1.9387519	1.3923907
34.6043037215585	1.9785521	1.4066101
34.62266160702365	2.0374498	1.4273927
34.641020409187234	1.9982562	1.4135969
34.65938012865785	1.9701186	1.4036092
34.677740766044394	1.9855603	1.4090991
34.69610232195598	2.016706	1.4201077
34.714464797002016	2.1147575	1.4542207
34.73282819179208	2.1254325	1.4578863
34.751192506936064	2.0453215	1.4301474
34.76955774304408	1.9876087	1.4098258
34.7879239007265	2.0038824	1.4155855
34.80629098059391	1.994001	1.412091
34.824658983257194	1.8509653	1.3605019
34.843027909327446	1.6907119	1.3002738
34.86139775941603	1.6810073	1.2965367
34.879768534134534	1.7769628	1.3330277
34.89814023409483	1.8164941	1.3477738
34.91651285990901	1.8111868	1.3458034
34.93488641218944	1.9430506	1.3939335
34.95326089154871	2.012342	1.4185704
34.97163629859967	2.0513906	1.4322677
34.99001263395542	1.9785523	1.4066103
35.00838989822934	1.8869182	1.3736514
35.02676809203499	1.975388	1.405485
35.04514721598624	2.0357635	1.4268018
35.063527270697215	1.9586991	1.3995353
35.081908256782256	2.07972	1.4421234
35.10029017485597	1.8837211	1.3724872
35.11867302553321	1.7930413	1.3390449
35.137056809429104	1.9414965	1.393376
35.155441527159006	2.1587574	1.4692711
35.173827179338524	1.9682467	1.4029422
35.19221376658354	1.9023929	1.3792726
35.21060128951017	2.0087256	1.4172952
35.2289897487348	2.026405	1.4235185
35.24737914487405	1.8881644	1.374105
35.26576947854479	2.059415	1.4350662
35.28416075036418	2.1037986	1.4504477
35.30255296094958	1.9631226	1.4011148
35.32094611091867	1.8999665	1.3783927
35.33934020088932	2.1526537	1.4671924
35.35773523147969	2.5285883	1.5901536
35.3761312033082	2.8374066	1.6844603
35.394528116993506	2.4234452	1.5567418
35.41292597315452	1.9774934	1.4062338
35.431324772410434	2.0557797	1.433799
35.449724515380666	2.2637088	1.5045626
35.46812520268491	2.2834306	1.5111024
35.486526834943106	2.3526855	1.5338466
35.504929412775454	2.2768514	1.5089239
35.52333293680242	1.8595152	1.3636404
35.54173740764471	1.2890102	1.1353458
35.560142825923286	1.6467499	1.2832575
35.5785491922594	2.3968515	1.5481769
35.59695650727454	2.3346093	1.5279428
35.61536477159042	1.5075935	1.227841
