0.008763373481513119	0.3822274	0.6182454
0.026290120649546365	0.19633481	0.44309685
0.043816868432600686	0.13175425	0.36297968
0.06134361724069026	0.077269204	0.27797338
0.07887036748382949	0.1693742	0.41155097
0.0963971195720331	0.17150047	0.41412616
0.11392387391531617	0.16983677	0.41211256
0.1314506309236943	0.07759832	0.27856475
0.1489773910071836	0.042319257	0.20571645
0.16650415457580078	0.08482005	0.2912388
0.18403092203956356	0.079308175	0.28161708
0.20155769380849	0.116358995	0.34111434
0.2190844702925996	0.14728193	0.38377327
0.2366112519019124	0.18443584	0.42945996
0.2541380390464497	0.22296824	0.47219512
0.27166483213623416	0.17974061	0.42395827
0.28919163158128947	0.14972034	0.38693714
0.3067184377916406	0.119432546	0.34559014
0.324245251177314	0.19328004	0.43963626
0.34177207214833777	0.17445984	0.4176839
0.3592989011147415	0.15652496	0.39563236
0.37682573848655654	0.081520826	0.28551853
0.39435258467381573	0.054891642	0.23428966
0.41187944008655414	0.046243314	0.21504259
0.42940630513480854	0.089873955	0.29978985
0.446933180228618	0.12820104	0.35805172
0.4644600657780234	0.14774927	0.38438168
0.48198696219306775	0.17658839	0.42022422
0.49951386988379676	0.17205092	0.4147902
0.5170407892602581	0.18749203	0.4330035
0.5345677207325025	0.18841025	0.4340625
0.5520946647105822	0.1889968	0.43473762
0.5696216216045534	0.19172053	0.43785903
0.5871485918244737	0.16143231	0.4017864
0.6046755757804043	0.16440691	0.4054712
0.6222025738824094	0.14832549	0.3851305
0.6397295865405557	0.14033738	0.3746163
0.6572566141649129	0.14660572	0.38289127
0.6747836571655547	0.15411146	0.39257032
0.6923107159525568	0.163681	0.40457508
0.7098377909359992	0.18566798	0.43089208
0.7273648825259653	0.18330628	0.42814282
0.7448919911325411	0.180683	0.42506823
0.762419117165817	0.15273793	0.39081702
0.7799462610358868	0.14807859	0.38480982
0.7974734231528482	0.17071968	0.41318238
0.8150006039268024	0.19080211	0.436809
0.8325278037678551	0.23834336	0.4882042
0.8500550230861152	0.22861789	0.47814003
0.8675822622916969	0.22975142	0.47932392
0.8851095217947171	0.2139244	0.46251962
0.9026368020052984	0.16245618	0.40305853
0.9201641033335665	0.15053828	0.38799262
0.9376914261896523	0.14593686	0.38201684
0.9552187709836915	0.17860137	0.42261255
0.9727461381258234	0.1983393	0.445353
0.990273528026193	0.21940891	0.46841106
1.0078009410949496	0.23205428	0.48172012
1.0253283777422473	0.24641137	0.4963984
1.0428558383782454	0.26007617	0.5099766
1.0603833234131086	0.25971088	0.50961834
1.0779108332570058	0.28002718	0.52917594
1.0954383683201119	0.3068695	0.55395806
1.112965929012607	0.37966436	0.6161691
1.1304935157446763	0.52049685	0.7214547
1.1480211289265108	0.5604592	0.7486382
1.1655487689683062	1.2452362	1.1159015
1.1830764362802655	1.4565519	1.2068769
1.200604131272596	1.8621676	1.3646126
1.2181318543555117	2.2627501	1.5042441
1.235659605939232	2.2900803	1.5133011
1.253187386433982	3.7828107	1.9449449
1.270715196249994	6.1773863	2.4854348
1.2882430357975057	11.352562	3.3693564
1.3057709054867608	15.941254	3.99265
1.3232988057280106	21.476149	4.6342363
1.3408267369315112	26.366953	5.1348763
1.358354699507526	29.992746	5.4765635
1.3758826938663256	33.96669	5.828095
1.3934107204181858	35.80623	5.9838305
1.410938779573391	35.88521	5.9904265
1.4284668717422309	36.333694	6.027744
1.4459949973350033	35.94013	5.9950085
1.4635231567620117	36.562866	6.0467234
1.4810513504335687	36.001034	6.0000863
1.4985795787599925	35.372223	5.947455
1.5161078421516088	34.54121	5.8771772
1.5336361410187505	33.57752	5.794611
1.5511644757717598	33.409622	5.7801056
1.5686928468209842	34.134785	5.8424983
1.58622125457678	34.74638	5.894606
1.6037496994495108	35.564556	5.9636025
1.621278181849548	35.436867	5.952887
1.6388067021872719	36.33102	6.027522
1.6563352608730693	35.926735	5.9938912
1.673863858317336	35.075554	5.922462
1.6913924949304753	34.473522	5.8714156
1.7089211711228998	33.708977	5.805943
1.7264498873050296	33.066223	5.750324
1.7439786438872935	31.872406	5.645565
1.7615074412801288	30.856844	5.5548935
1.779036279893981	30.097906	5.486156
1.796565160139305	29.30904	5.4137826
1.814094082426564	28.65478	5.353016
1.8316230471662298	28.09284	5.300268
1.849152054768784	27.339611	5.2287292
1.8666811056447168	26.526537	5.150392
1.8842102002045273	25.635757	5.0631766
1.901739338858724	25.12571	5.012555
1.9192685220178245	24.84998	4.9849753
1.9367977500923557	24.202454	4.919599
1.9543270234928547	23.713379	4.8696384
1.971856342629867	23.319307	4.8290067
1.9893857079139496	22.934904	4.78904
2.006915119755667	22.4781	4.7411075
2.0244445785655945	21.878897	4.6774883
2.0419740847543175	21.254732	4.6102853
2.0595036387324317	21.020414	4.5848026
2.0770332409105414	20.42748	4.519677
2.094562891699263	19.925245	4.4637704
2.1120925915092217	19.206392	4.3825097
2.129622340751053	18.81674	4.3378267
2.1471521398354043	187.02039	13.67554
2.1646819891729323	443.44336	21.058094
2.182211889174303	439.70773	20.96921
2.1997418402501974	452.38455	21.269333
2.2172718428113023	432.32306	20.79238
2.234801897268317	320.2236	17.894793
2.2523320040319548	16.69434	4.0858707
2.269862163512935	16.464554	4.057654
2.287392376121992	16.351818	4.0437384
2.304922642269869	15.874913	3.9843335
2.322452962367322	15.551699	3.9435642
2.3399833368251164	15.203929	3.8992217
2.357513766054032	14.970842	3.8692174
2.3750442504648586	14.829906	3.8509617
2.3925747904683963	14.403491	3.7951932
2.410105386475459	14.140389	3.760371
2.4276360388968707	13.606705	3.6887267
2.445166748143469	13.480595	3.671593
2.4626975146261025	13.245955	3.6394994
2.4802283387556323	13.128753	3.623362
2.4977592209429305	12.931231	3.596002
2.5152901615988825	12.683579	3.5614014
2.5328211611343865	12.4561205	3.5293229
2.5503522199603523	12.158479	3.486901
2.5678833384877024	11.801346	3.4353087
2.5854145171273712	11.643373	3.4122386
2.6029457562903064	11.528422	3.395353
2.620477056387469	11.456274	3.3847117
2.6380084178298326	11.335184	3.3667765
2.655539841028383	11.387115	3.3744798
2.673071326394119	11.243797	3.3531773
2.6906028743380523	11.134174	3.336791
2.708134485271211	10.720212	3.2741735
2.7256661596046325	10.424901	3.2287614
2.743197897749369	10.087889	3.1761436
2.760729700116486	9.93561	3.1520803
2.778261567117063	9.893324	3.1453655
2.795793499162193	9.909942	3.148006
2.8133254966629817	9.826595	3.13474
2.830857560030551	9.709843	3.1160622
2.8483896896760337	9.509477	3.083744
2.865921886010578	9.4212265	3.0694017
2.883454149445347	9.377614	3.062289
2.9009864803915177	9.323064	3.0533693
2.91851887926028	9.1383915	3.0229774
2.9360513464628384	9.020856	3.003474
2.953583882410413	8.793999	2.9654677
2.9711164875142373	8.7776785	2.9627147
2.9886491621855606	8.677105	2.9456925
3.0061819068356455	8.516515	2.9183068
3.023714721875769	8.474786	2.9111485
3.041247607717225	8.344378	2.8886638
3.0587805647713213	8.166271	2.8576689
3.0763135934493806	7.9862933	2.826003
3.0938466941627407	7.915832	2.8135087
3.1113798673227544	7.8801527	2.8071609
3.1289131133407904	7.769056	2.7873025
3.1464464326282315	7.644976	2.764955
3.1639798255964786	7.559862	2.7495203
3.1815132926569443	7.452517	2.72993
3.1990468342210603	7.398765	2.720067
3.216580450700272	7.334173	2.7081678
3.2341141425060416	7.2579136	2.6940515
3.251647910049847	7.1351137	2.6711633
3.2691817537431813	7.150169	2.67398
3.286715673997555	7.076775	2.6602209
3.3042496712244938	6.8562894	2.6184518
3.32178374583554	6.659284	2.5805588
3.339317898242251	6.53938	2.5572212
3.3568521288562034	6.3979244	2.5294118
3.3743864380889876	6.393372	2.5285118
3.3919208263522127	6.281031	2.5061986
3.4094552940575023	6.338924	2.517722
3.4269898416164972	6.336834	2.5173068
3.444524469440858	6.3353057	2.5170033
3.4620591779422587	6.3225317	2.5144644
3.479593967532391	6.365555	2.523005
3.4971288386229658	6.255457	2.5010912
3.5146637916257086	6.190536	2.4880788
3.5321988269523628	6.204623	2.4909081
3.5497339450146903	6.207733	2.4915323
3.5672691462244708	6.2043877	2.490861
3.5848044309934988	6.070563	2.4638512
3.60233979973359	6.0519853	2.4600782
3.619875252856575	6.086632	2.46711
3.6374107907743034	6.168177	2.4835815
3.6549464138986427	6.103477	2.4705217
3.6724821226414788	6.1099668	2.4718347
3.690017917414714	6.117487	2.4733553
3.7075537986302702	6.0676794	2.463266
3.7250897667000857	6.10966	2.4717727
3.7426258220361235	6.109296	2.471699
3.7601619650503553	6.4146013	2.5327063
3.777698196154779	6.950331	2.636348
3.7952345157614067	8.168	2.8579714
3.8127709242822716	9.006189	3.0010314
3.830307422129425	11.162488	3.341031
3.847844009714936	30.010115	5.478149
3.8653806874508954	97.39757	9.86902
3.882917455749409	96.79241	9.838313
3.900454315022606	96.64032	9.830581
3.917991265682631	41.01935	6.404635
3.9355283081416506	10.577707	3.2523386
3.9530654428118495	8.321912	2.8847723
3.970602670105433	7.2566957	2.6938255
3.9881399904346244	6.5342855	2.5562248
4.005677404211669	6.545871	2.55849
4.023214911848827	6.5334663	2.5560646
4.0407525137583855	6.4613433	2.5419173
4.058290210352644	6.305404	2.5110564
4.075828002043927	6.152772	2.4804783
4.0933658892445814	6.0340643	2.4564333
4.110903872366966	5.9772844	2.4448485
4.128441951823468	5.7982965	2.4079652
4.145980128026488	5.7068367	2.3888986
4.163518401388452	5.703304	2.388159
4.181056772321807	5.876446	2.424138
4.1985952412390155	6.046617	2.458987
4.216133808552567	6.0870533	2.4671955
4.233672474674966	6.120646	2.473994
4.251211240018741	6.166474	2.4832387
4.268750104996445	6.299348	2.5098503
4.286289070020643	7.268898	2.6960895
4.303828135503928	8.967931	2.9946504
4.3213673018589125	29.430927	5.425028
4.3389065694982305	90.53426	9.51495
4.356445938834537	165.74231	12.874095
4.3739854102805085	170.66298	13.063805
4.391524984248844	171.5017	13.095865
4.409064661152262	135.58238	11.643985
4.426604441403504	96.08878	9.802488
4.444144325415337	75.44492	8.685904
4.461684313600543	21.450455	4.6314635
4.47922440637193	21.962444	4.6864104
4.496764604142329	20.303137	4.5059004
4.5143049073245916	18.3639	4.285312
4.531845316331589	15.994633	3.999329
4.5493858315762195	12.795997	3.5771492
4.566926453471405	10.560095	3.24963
4.584467182430081	8.561454	2.9259963
4.602008018865218	7.6699796	2.7694728
4.619548963189798	7.130456	2.6702914
4.637090015816834	6.754085	2.5988622
4.654631177159353	6.611017	2.5711899
4.672172447630417	6.335649	2.5170715
4.689713827643102	6.2367043	2.4973395
4.7072553176105085	5.9610176	2.4415195
4.724796917945764	5.7780137	2.40375
4.742338629062015	5.6283565	2.3724158
4.759880451372434	5.5591693	2.357789
4.777422385290215	5.4967093	2.3445063
4.794964431228581	5.5124264	2.3478558
4.812506589600768	5.5299096	2.351576
4.830048860820047	5.449952	2.3345132
4.847591245299709	5.3467307	2.3123
4.8651337434530655	5.2821064	2.2982833
4.882676355693457	5.319617	2.3064294
4.900219082434242	5.37216	2.317792
4.917761924088813	5.3881445	2.3212378
4.935304881070575	5.3269715	2.3080232
4.952847953792969	5.3215575	2.3068502
4.970391142669449	5.2980175	2.3017423
4.9879344481135055	5.305097	2.3032796
5.005477870538642	5.311354	2.3046374
5.023021410358394	5.2831087	2.2985015
5.040565067986324	5.2794695	2.2977097
5.05810884383601	5.2498393	2.2912529
5.075652738321066	5.216556	2.2839782
5.09319675185512	5.1454983	2.268369
5.110740884851836	5.1450677	2.268274
5.128285137724894	5.190581	2.2782845
5.145829510888007	5.3015327	2.3025057
5.163374004754908	5.3713827	2.3176243
5.1809186197393595	5.328343	2.3083203
5.198463356255145	5.303207	2.3028693
5.216008214716077	5.1824465	2.2764988
5.233553195535998	5.112094	2.260994
5.251098299128764	5.090217	2.256151
5.268643525908272	5.1132426	2.261248
5.286188876288432	5.11135	2.2608294
5.3037343506831895	5.1201677	2.2627788
5.32127994950651	5.080702	2.2540412
5.3388256731723915	5.1050563	2.259437
5.356371522094851	5.1071043	2.2598903
5.373917496687938	5.10651	2.259759
5.391463597365729	5.069885	2.2516406
5.40900982454232	5.04269	2.2455933
5.426556178631843	5.039703	2.2449284
5.444102660048449	5.060758	2.2496128
5.4616492692063225	5.139197	2.2669797
5.479196006519669	5.096556	2.2575552
5.496742872402727	5.1208854	2.2629373
5.514289867269756	5.1017528	2.258706
5.531836991535049	5.0375156	2.244441
5.549384245612924	4.940187	2.2226532
5.566931629917724	4.9294276	2.2202315
5.584479144863822	4.9078946	2.2153769
5.6020267908656205	4.93974	2.2225525
5.619574568337545	4.893883	2.2122123
5.637122477694054	4.924934	2.2192192
5.654670519349629	4.9386444	2.222306
5.672218693718784	4.961783	2.227506
5.689767001216059	5.038413	2.244641
5.707315442256021	4.947942	2.224397
5.724864017253266	4.9150105	2.2169824
5.7424127266224225	4.9302535	2.2204175
5.75996157077814	4.995506	2.2350628
5.777510550135105	5.035113	2.2439058
5.795059665108022	5.068812	2.2514021
5.812608916111639	5.042893	2.2456386
5.830158303560715	5.1023297	2.2588336
5.847707827870055	5.130342	2.2650259
5.86525748945448	5.1323	2.265458
5.8828072887288485	5.291105	2.3002403
5.900357226108044	5.404661	2.3247926
5.917907302006979	5.524797	2.3504887
5.9354575168406	6.1538954	2.4807045
5.9530078710238765	6.7185874	2.5920238
5.970558364971812	7.3003693	2.7019196
5.988108999099438	7.6167674	2.759849
6.005659773821818	8.135206	2.8522284
6.023210689554039	7.847288	2.8013012
6.040761746711227	8.19231	2.8622212
6.058312945708531	7.5753937	2.7523434
6.075864286961132	7.1757708	2.678763
6.093415770884244	6.5461893	2.5585523
6.1109673978931065	5.966163	2.442573
6.128519168402993	5.3092666	2.3041847
6.146071082829204	5.1119256	2.2609568
6.163623141587075	4.9907284	2.2339938
6.181175345091969	5.034595	2.2437904
6.198727693759281	5.0885253	2.255776
6.216280188004435	5.0818505	2.254296
6.233832828242885	5.0412936	2.2452824
6.251385614890126	5.083982	2.2547686
6.268938548361669	5.032627	2.2433517
6.286491629073067	4.997317	2.235468
6.304044857439898	4.9099627	2.2158434
6.321598233877777	4.844124	2.200937
6.339151758802344	4.842712	2.2006164
6.356705432629277	4.8615117	2.2048836
6.37425925577428	4.888905	2.2110868
6.391813228653095	4.910632	2.2159946
6.409367351681486	4.967819	2.2288606
6.426921625275259	4.958001	2.226657
6.44447604985025	4.9176807	2.2175844
6.46203062582232	4.874038	2.2077224
6.47958535360737	4.8066473	2.1924067
6.497140233621328	4.8118014	2.1935818
6.514695266280161	4.7756867	2.1853344
6.532250451999859	4.802534	2.1914685
6.549805791196454	4.782377	2.1868646
6.567361284286002	4.7887216	2.1883147
6.584916931684597	4.8190217	2.1952271
6.602472733808367	4.8481865	2.2018597
6.6200286910734665	4.896036	2.212699
6.637584803896092	4.9252086	2.2192812
6.655141072692462	4.907199	2.2152197
6.672697497878842	4.869659	2.2067304
6.690254079871514	4.821209	2.1957252
6.707810819086808	4.853707	2.203113
6.725367715941078	4.892494	2.2118983
6.742924770850719	4.9174485	2.2175322
6.760481984232151	4.911368	2.2161605
6.778039356501836	4.927433	2.219782
6.795596888076266	4.897653	2.2130642
6.813154579371963	4.8431396	2.2007134
6.830712430805492	4.778552	2.1859899
6.84827044279344	4.7718225	2.1844501
6.865828615752445	4.8071733	2.1925266
6.883386950099159	4.8357086	2.1990244
6.900945446250287	4.8476295	2.2017334
6.918504104622553	4.848573	2.2019477
6.936062925632727	4.914498	2.2168667
6.953621909697607	4.8875995	2.2107916
6.971181057234028	4.9311557	2.2206206
6.988740368658859	4.97008	2.2293675
7.006299844389007	5.046713	2.246489
7.023859484841407	5.1260543	2.264079
7.041419290433036	5.1790624	2.2757554
7.058979261580902	5.2672133	2.295041
7.0765393987020495	5.4344153	2.3311832
7.094099702213559	5.7232237	2.392326
7.111660172532549	6.0754933	2.4648516
7.129220810076164	6.4105945	2.5319152
7.146781615261595	7.003133	2.6463432
7.16434258850606	7.2981873	2.7015157
7.181903730226821	7.725612	2.7794986
7.1994650408411704	7.830771	2.7983515
7.217026520766437	7.9170146	2.813719
7.234588170419983	8.130071	2.851328
7.252149990219215	8.221991	2.8674014
7.269711980581568	8.185977	2.8611147
7.2872741419245175	8.010966	2.830365
7.304836474665574	7.5583057	2.7492373
7.322398979222286	7.2533283	2.6932003
7.339961656012233	7.0290146	2.651229
7.357524505453039	6.743812	2.596885
7.375087527962357	6.475356	2.544672
7.392650723957886	6.1847234	2.4869103
7.410214093857353	5.8402433	2.4166596
7.427777638078528	5.5769367	2.361554
7.445341357039213	5.4033084	2.3245018
7.4629052511572525	5.2104235	2.2826352
7.480469320850524	5.055927	2.2485387
7.498033566536948	5.0252914	2.2417161
7.5155979886344735	5.0293627	2.242624
7.5331625875610975	4.9998965	2.236045
7.550727363734844	5.0272856	2.242161
7.568292317573788	5.0398517	2.2449615
7.585857449496025	5.046197	2.2463741
7.603422759919705	4.9847164	2.232648
7.620988249263007	4.9687805	2.2290761
7.638553917944147	4.9471774	2.224225
7.656119766381391	4.986975	2.2331536
7.673685794993023	4.9989524	2.2358336
7.691252004197388	4.95496	2.2259738
7.70881839441285	4.9792047	2.2314131
7.726384966057826	5.037454	2.2444274
7.743951719550762	5.053854	2.2480779
7.761518655310149	5.0713887	2.2519743
7.779085773754511	5.0506516	2.2473655
7.796653075302419	5.158774	2.2712934
7.814220560372475	5.214417	2.2835097
7.831788229383323	5.2552443	2.292432
7.8493560827536495	5.228462	2.2865832
7.866924120902174	5.2050695	2.2814622
7.884492344247663	5.1573434	2.2709785
7.9020607532089135	5.090311	2.2561717
7.919629348204771	5.1083913	2.260175
7.937198129654115	5.130144	2.2649822
7.954767097975865	5.1555963	2.270594
7.972336253588986	5.1988864	2.2801065
7.989905596912472	5.2642756	2.294401
8.007475128365371	5.328292	2.3083093
8.025044848366756	5.367184	2.3167183
8.042614757335754	5.4726005	2.339359
8.060184855691523	5.495439	2.3442352
8.07775514385327	5.644554	2.375827
8.095325622240228	5.6159153	2.3697922
8.112896291271687	5.633777	2.3735578
8.130467151366968	5.6627965	2.379663
8.148038202945436	5.6849003	2.3843029
8.165609446426497	5.76024	2.40005
8.183180882229594	5.8171525	2.4118774
8.200752510774217	5.8693147	2.4226668
8.218324332479893	5.8449717	2.4176376
8.235896347766193	5.7971683	2.4077308
8.253468557052724	5.7893615	2.406109
8.27104096075914	5.848229	2.418311
8.288613559305137	5.8870916	2.426333
8.306186353110448	5.9623704	2.4417965
8.32375934259485	5.9800973	2.4454238
8.341332528178162	6.037002	2.4570312
8.358905910280246	6.118528	2.4735658
8.376479489321003	6.144969	2.4789047
8.394053265720377	6.226577	2.495311
8.411627239898356	6.1972175	2.4894211
8.42920141227497	6.195475	2.4890711
8.44677578327029	6.1573796	2.4814067
8.464350353304427	6.0368986	2.45701
8.48192512279754	6.0039043	2.4502866
8.499500092169827	5.9885545	2.4471524
8.51707526184153	6.0164866	2.4528527
8.534650632232934	6.0770593	2.4651692
8.552226203764365	6.088322	2.4674525
8.569801976856192	6.1058874	2.4710095
8.587377951928834	6.1714687	2.484244
8.60495412940274	6.2181754	2.493627
8.622530509698416	6.234714	2.4969409
8.6401070932364	6.30934	2.5118399
8.657683880437283	6.4190125	2.533577
8.675260871721695	6.5481234	2.5589302
8.692838067510303	6.606011	2.5702162
8.710415468223834	6.708801	2.5901353
8.727993074283043	6.7925854	2.6062589
8.745570886108737	6.892536	2.625364
8.763148904121765	6.96122	2.6384125
8.78072712874302	7.087546	2.6622446
8.798305560393441	7.245389	2.691726
8.815884199494006	7.28151	2.6984272
8.833463046465745	7.347282	2.710587
8.851042101729728	7.479943	2.7349484
8.86862136570707	7.800744	2.7929811
8.886200838818924	8.021914	2.8322983
8.903780521486505	8.14836	2.8545332
8.921360414131055	8.28584	2.8785136
8.938940517173874	8.423744	2.9023688
8.956520831036297	8.578053	2.9288313
8.97410135613971	8.7675905	2.9610116
8.99168209290554	8.940109	2.9900014
9.009263041755265	9.161083	3.0267282
9.026844203110405	9.391198	3.0645063
9.044425577392525	9.579404	3.0950613
9.062007165023239	9.706424	3.1155133
9.079588966424197	10.0415945	3.1688476
9.097170982017108	10.132637	3.1831803
9.11475321222372	11.120466	3.3347363
9.132335657465825	11.907995	3.4507964
9.149918318165264	12.031238	3.4686074
9.167501194743924	12.761421	3.572313
9.18508428762374	12.570718	3.5455208
9.202667597226693	12.586537	3.547751
9.220251123974803	12.141275	3.4844334
9.237834868290143	11.692724	3.4194627
9.255418830594836	11.3973	3.3759887
9.273003011311046	10.917831	3.3042142
9.290587410860985	10.731169	3.2758462
9.308172029666911	10.192009	3.1924925
9.32575686815113	9.92494	3.1503873
9.343341926735997	8.554938	2.9248827
9.360927205843916	8.314597	2.8835044
9.378512705897327	8.141897	2.853401
9.396098427318728	7.9513226	2.819809
9.413684370530664	7.8957815	2.8099434
9.431270535955722	7.7829704	2.7897975
9.448856924016539	7.6409445	2.7642257
9.466443535135806	7.5120397	2.7408102
9.484030369736251	7.4448214	2.72852
9.501617428240658	7.4367814	2.7270463
9.519204711071852	7.4559374	2.7305562
9.536792218652714	7.5280843	2.7437356
9.55437995140617	7.5744085	2.7521644
9.571967909755191	7.6123295	2.7590451
9.589556094122802	7.6690497	2.769305
9.60714450493207	7.724967	2.7793825
9.624733142606116	7.748084	2.783538
9.642322007568108	7.7596474	2.7856143
9.659911100241267	7.7786603	2.789025
9.677500421048851	7.8635845	2.8042083
9.695089970414175	7.936882	2.8172472
9.712679748760609	8.011657	2.830487
9.730269756511557	7.9964933	2.8278072
9.747859994090492	8.025514	2.8329337
9.765450461920915	8.015848	2.8312273
9.78304116042639	8.113059	2.8483431
9.800632090030527	8.066657	2.840186
9.81822325115699	8.081585	2.8428128
9.835814644229481	8.078999	2.8423579
9.853406269671762	8.16194	2.856911
9.870998127907646	8.17257	2.8587708
9.888590219360985	8.085382	2.8434806
9.906182544455698	8.113964	2.8485022
9.923775103615734	8.159429	2.8564713
9.941367897265108	8.160006	2.8565724
9.958960925827878	8.127154	2.8508165
9.97655418972816	8.087531	2.8438585
9.994147689390106	8.063631	2.8396533
10.011741425237934	8.0612	2.8392253
10.029335397695904	8.058158	2.8386896
10.04692960718833	8.105183	2.8469603
10.06452405413958	8.109878	2.8477848
10.082118738974064	8.090627	2.8444028
10.099713662116246	8.035716	2.834734
10.117308823990651	8.014822	2.831046
10.134904225021844	7.9701405	2.8231437
10.152499865634445	7.960601	2.8214536
10.170095746253125	7.9652267	2.8222733
10.18769186730261	7.99501	2.827545
10.205288229207675	7.995204	2.8275793
10.222884832393145	7.8993297	2.8105745
10.2404816772839	7.866207	2.804676
10.258078764304868	7.911885	2.8128073
10.275676093881035	7.8849936	2.808023
10.293273666437438	7.913132	2.813029
10.310871482399158	7.959468	2.8212528
10.32846954219134	7.9338446	2.816708
10.346067846239173	7.941907	2.8181388
10.363666394967908	7.9200273	2.8142543
10.38126518880283	7.937132	2.8172915
10.398864228169298	8.051556	2.8375263
10.416463513492713	8.045923	2.8365335
10.434063045198531	7.971676	2.8234158
10.451662823712262	7.930787	2.8161652
10.469262849459467	7.950457	2.8196554
10.486863122865758	7.955563	2.8205607
10.504463644356806	7.9979024	2.8280563
10.522064414358338	7.9532394	2.820149
10.539665433296118	7.8364067	2.7993584
10.557266701595987	7.790683	2.7911794
10.574868219683818	7.6426063	2.7645264
10.592469987985552	7.5822806	2.7535942
10.610072006927185	7.4687195	2.7328959
10.627674276934751	7.340743	2.7093806
10.64527679843435	7.1671133	2.6771464
10.662879571852143	7.0577254	2.656638
10.680482597614331	6.915725	2.6297767
10.698085876147173	6.872609	2.621566
10.715689407876988	6.811703	2.609924
10.733293193230146	6.726408	2.5935318
10.750897232633072	6.6264343	2.574186
10.76850152651225	6.559097	2.5610733
10.786106075294207	6.485712	2.5467062
10.803710879405534	6.358179	2.521543
10.821315939272877	6.229569	2.4959104
10.83892125532294	6.251035	2.500207
10.856526827982472	6.2060666	2.4911978
10.874132657678285	6.196162	2.4892092
10.891738744837243	6.166033	2.4831498
10.909345089886271	6.09275	2.4683497
10.926951693252343	6.000507	2.4495933
10.944558555362494	5.9019003	2.4293828
10.96216567664381	5.817843	2.4120204
10.979773057523436	5.7731075	2.4027293
10.997380698428573	5.735971	2.3949888
11.014988599786477	5.7641664	2.400868
11.032596762024461	5.738435	2.395503
11.050205185569892	5.678841	2.3830318
11.067813870850198	5.5408897	2.3539095
11.085422818292859	5.401004	2.324006
11.10303202832541	5.2818694	2.2982318
11.120641501375454	5.215635	2.2837765
11.138251237870636	5.179076	2.2757583
11.155861238238671	5.173449	2.2745218
11.173471502907317	5.083362	2.2546313
11.191082032304402	4.9521747	2.2253482
11.208692826857805	4.848279	2.2018807
11.226303886995465	4.830418	2.1978211
11.243915213145371	4.8556986	2.203565
11.261526805735578	4.85219	2.2027688
11.279138665194196	4.819257	2.1952806
11.296750791949393	4.7821217	2.1868062
11.314363186429393	4.6942773	2.1666281
11.331975849062479	4.7150064	2.1714065
11.34958878027699	4.6258717	2.150784
11.36720198050133	4.5537324	2.1339476
11.384815450163948	4.475277	2.115485
11.402429189693366	4.472442	2.114815
11.420043199518153	4.3989987	2.097379
11.437657480066942	63.3333	7.9582224
11.455272031768422	85.03188	9.221273
11.472886855051353	107.47859	10.367188
11.490501950344528	99.08792	9.954291
11.508117318076819	84.374985	9.185586
11.52573295867715	45.73016	6.762408
11.543348872574514	4.022038	2.005502
11.560965060197946	4.022798	2.0056915
11.57858152197655	4.008148	2.002036
11.59619825833949	4.008537	2.0021331
11.613815269715985	3.95907	1.9897412
11.631432556535323	38.420773	6.198449
11.649050119226837	82.87201	9.103407
11.666667958219929	93.23456	9.655805
11.68428607394406	107.53333	10.369828
11.701904466828756	82.43379	9.079306
11.719523137303586	65.32711	8.082519
11.737142085798196	4.620861	2.1496189
11.754761312742286	3.7061503	1.9251364
11.772380818565619	3.643205	1.9087181
11.790000603698015	3.5762534	1.8910985
11.80762066856935	3.5749803	1.8907619
11.825241013609572	3.5114322	1.8738816
11.842861639248683	3.4309006	1.852269
11.860482545916748	3.356022	1.8319448
11.878103734043883	3.3236263	1.8230815
11.895725204060282	3.3097973	1.8192848
11.91334695639619	3.3037376	1.8176187
11.930968991481919	3.2885306	1.8134307
11.948591309747824	3.2999578	1.8165786
11.966213911624347	3.2809274	1.8113331
11.98383679754198	3.2790267	1.8108083
12.001459967931268	3.2360508	1.7989026
12.019083423222835	3.1916907	1.7865304
12.036707163847352	3.1671884	1.7796596
12.05433119023556	3.169219	1.78023
12.071955502818259	3.165331	1.7791377
12.089580102026313	3.183661	1.7842816
12.107204988290643	3.1746607	1.7817577
12.12483016204224	3.1736763	1.7814815
12.142455623712152	3.1134782	1.764505
12.16008137373149	3.0819592	1.755551
12.177707412531431	3.057596	1.7485983
12.19533374054321	3.0610776	1.7495935
12.212960358198126	3.0249677	1.7392434
12.230587265927545	2.9893186	1.7289646
12.248214464162889	2.933094	1.7126278
12.265841953335649	2.8943102	1.7012672
12.283469733877375	2.880708	1.6972649
12.301097806219685	2.9243689	1.7100786
12.31872617079425	2.9497545	1.717485
12.336354828032825	2.8854573	1.6986634
12.353983778367205	2.8241003	1.680506
12.371613022229262	2.8128967	1.6771692
12.389242560050928	2.8080919	1.6757362
12.406872392264201	2.8148174	1.6777418
12.424502519301143	2.7826025	1.6681135
12.442132941593874	2.772731	1.665152
12.459763659574586	2.7666683	1.6633304
12.477394673675532	2.738841	1.6549444
12.49502598432903	2.7493298	1.6581103
12.51265759196746	2.759113	1.6610578
12.530289497023267	2.7949202	1.6718014
12.547921699928967	2.7534769	1.6593604
12.565554201117134	2.7232742	1.6502346
12.583187001020404	2.7022095	1.6438398
12.600820100071486	2.7236512	1.6503488
12.618453498703152	2.7330165	1.6531837
12.636087197348235	2.7285922	1.6518451
12.65372119643964	2.69953	1.6430246
12.671355496410326	2.6801891	1.6371284
12.68899009769333	2.7073112	1.6453909
12.706625000721749	2.7764964	1.6662822
12.724260205928752	2.8207445	1.6795073
12.741895713747551	2.8310487	1.682572
12.759531524611454	2.863028	1.6920484
12.777167638953818	2.883655	1.6981329
12.794804057208072	2.9227688	1.7096107
12.812440779807702	2.9866612	1.7281959
12.830077807186271	3.1498177	1.7747725
12.847715139777405	3.1263676	1.7681537
12.865352778014795	3.259534	1.8054179
12.882990722332197	3.3646593	1.8343008
12.90062897316344	3.460564	1.860259
12.918267530942412	3.598007	1.8968413
12.935906396103071	3.502215	1.8714205
12.953545569079449	3.68385	1.9193358
12.971185050305628	3.5054188	1.8722763
12.988824840215775	3.5357716	1.8803648
13.006464939244115	3.5473788	1.8834486
13.024105347824943	3.4059756	1.8455285
13.041746066392617	3.5059838	1.8724272
13.05938709538157	3.3059988	1.8182405
13.077028435226296	3.3062208	1.8183016
13.094670086361363	3.2057593	1.7904634
13.112312049221401	3.1374109	1.7712739
13.129954324241112	3.0514243	1.7468326
13.147596911855258	2.8076048	1.6755909
13.165239812498685	2.7748265	1.665781
13.182883026606293	2.6941237	1.6413786
13.200526554613058	2.6664915	1.6329396
13.218170396954017	2.6364858	1.6237259
13.235814554064284	2.6636746	1.6320767
13.253459026379034	2.666277	1.6328738
13.271103814333523	2.6771917	1.6362126
13.288748918363058	2.6615412	1.6314231
13.306394338903031	2.6608107	1.6311991
13.32404007638889	2.6477118	1.627179
13.341686131256164	2.6621401	1.6316066
13.359332503940449	2.6652737	1.6325666
13.376979194877402	2.6882455	1.639587
13.394626204502751	2.7374864	1.654535
13.412273533252307	2.7344923	1.65363
13.429921181561937	2.687133	1.6392478
13.447569149867581	2.6706488	1.634212
13.465217438605247	2.6847236	1.6385126
13.482866048211022	2.6580634	1.6303568
13.500514979121052	2.6693852	1.6338253
13.518164231771568	2.6429017	1.6257004
13.535813806598844	2.6024196	1.6132016
13.553463704039254	2.5632994	1.6010307
13.571113924529229	2.566518	1.6020356
13.588764468505275	2.6249597	1.6201727
13.606415336403956	2.682597	1.6378635
13.624066528661917	2.7141929	1.6474807
13.641718045715882	2.72105	1.6495606
13.659369888002635	2.7495909	1.658189
13.67702205595903	2.8191788	1.679041
13.694674550021993	2.8919978	1.7005875
13.712327370628532	2.9361768	1.7135276
13.729980518215713	3.0383887	1.7430974
13.747633993220681	3.136912	1.771133
13.765287796080647	3.2030156	1.789697
13.7829419272329	3.2258396	1.7960622
13.800596387114801	3.208119	1.7911222
13.818251176163775	3.2277377	1.7965906
13.835906294817324	3.271489	1.8087257
13.853561743513023	3.3199549	1.8220743
13.871217522688525	3.3518422	1.8308038
13.888873632781538	3.3944845	1.8424127
13.906530074229858	3.4462442	1.8564062
13.92418684747135	3.4674113	1.8620986
13.941843952943948	3.4522448	1.8580217
13.959501391085665	3.4087596	1.8462826
13.977159162334578	3.356656	1.8321179
13.994817267128846	3.3448849	1.8289026
14.012475705906693	3.2234166	1.7953876
14.030134479106424	3.1450107	1.7734178
14.047793587166414	3.042075	1.7441545
14.065453030525108	3.0051687	1.7335422
14.083112809621026	2.9411101	1.7149665
14.100772924892766	2.8837132	1.6981499
14.118433376778997	2.8158085	1.6780372
14.136094165718458	2.7614462	1.66176
14.153755292149969	2.6894023	1.6399398
14.171416756512416	2.6384716	1.6243373
14.189078559244768	2.54631	1.5957161
14.20674070078606	2.5113494	1.5847238
14.224403181575408	2.4476955	1.5645113
14.242066002051999	2.4529607	1.5661931
14.259729162655093	2.4556723	1.5670584
14.277392663824022	2.4074094	1.5515829
14.295056505998208	2.326469	1.5252767
14.312720689617128	2.2633038	1.504428
14.330385215120348	2.278259	1.5093902
14.348050082947497	2.3154256	1.5216522
14.3657152935383	2.3469687	1.531982
14.383380847332528	2.316745	1.5220858
14.401046744770051	2.2839193	1.5112642
14.418712986290798	2.275323	1.5084174
14.436379572334793	2.295512	1.5150948
14.454046503342123	2.306331	1.5186609
14.471713779752946	2.2947805	1.5148532
14.489381402007504	2.3121367	1.5205711
14.507049370546113	2.342728	1.5305972
14.524717685809168	2.3448174	1.5312797
14.542386348237134	2.3539703	1.5342654
14.560055358270553	2.33607	1.5284208
14.577724716350051	2.3663688	1.5383006
14.595394422916325	2.3444135	1.5311478
14.61306447841015	2.362528	1.5370518
14.63073488327237	2.3668132	1.538445
14.648405637943917	2.429183	1.5585836
14.6660767428658	2.454464	1.5666729
14.683748198479094	2.4850633	1.5764084
14.701420005224954	2.5183053	1.5869169
14.719092163544628	2.5379689	1.5931004
14.73676467387942	2.5380268	1.5931185
14.754437536670727	2.5777504	1.6055374
14.772110752360014	2.6094909	1.6153919
14.78978432138882	2.6590087	1.6306467
14.807458244198777	2.6677668	1.63333
14.82513252123159	2.6348767	1.6232303
14.842807152929028	2.6398625	1.6247654
14.860482139732962	2.5980585	1.6118494
14.87815748208531	2.5824747	1.607008
14.8958331804281	2.590965	1.6096475
14.91350923520342	2.6085038	1.6150863
14.931185646853438	2.6764426	1.6359837
14.948862415820408	2.6357427	1.623497
14.966539542546656	2.6169546	1.6177003
14.98421702747459	2.5847938	1.6077294
15.001894871046696	2.6485524	1.6274374
15.019573073705542	2.6620684	1.6315846
15.037251635893766	2.6408985	1.6250842
15.054930558054092	2.6265023	1.6206487
15.072609840629323	2.6418114	1.625365
15.090289484062351	2.7366884	1.6542939
15.107969488796124	2.8715975	1.6945789
15.125649855273691	3.0810633	1.7552958
15.14333058393817	3.4245305	1.8505487
15.161011675232768	3.947302	1.9867818
15.17869312960076	4.5022206	2.1218436
15.196374947485506	5.189202	2.277982
15.214057129330447	6.504495	2.5503912
15.231739675579114	8.694622	2.9486644
15.249422586675102	13.409532	3.6619027
15.267105863062092	17.962961	4.238273
15.284789505183847	25.37446	5.037307
15.302473513484218	30.7232	5.5428514
15.320157888407127	35.158035	5.929421
15.337842630396578	33.880455	5.820692
15.355527739896656	30.8353	5.552954
15.37321321735153	23.98232	4.897175
15.39089906320545	16.288107	4.035853
15.408585277902748	10.348406	3.216894
15.42627186188783	6.2789245	2.5057783
15.443958815605198	4.4654126	2.1131523
15.461646139499424	3.7169342	1.9279352
15.479333834015168	3.324694	1.8233743
15.497021899597165	2.9920437	1.7297525
15.514710336690234	2.7795057	1.667185
15.53239914573928	2.6310654	1.6220559
15.550088327189297	2.572227	1.6038164
15.567777881485336	2.5172431	1.5865822
15.58546780907256	2.5106308	1.584497
15.6031581103962	2.4799218	1.5747768
15.620848785901568	2.4718962	1.5722265
15.638539836034063	2.4329298	1.5597851
15.656231261239173	2.4795468	1.5746577
15.673923061962451	2.4606307	1.5686398
15.691615238649552	2.464445	1.5698551
15.709307791746202	2.4078991	1.5517406
15.727000721698221	2.377823	1.5420191
15.744694028951498	2.350247	1.5330515
15.76238771395202	2.336517	1.528567
15.780081777145844	2.3568845	1.5352148
15.797776218979125	2.366295	1.5382767
15.815471039898094	2.3939085	1.5472261
15.833166240349064	2.3976595	1.5484377
15.850861820778437	2.385626	1.5445472
15.868557781632699	2.382772	1.543623
15.886254123358412	2.406205	1.5511947
15.903950846402232	2.4432023	1.5630746
15.921647951210897	2.4808495	1.5750712
15.939345438231225	2.4826324	1.5756371
15.957043307910133	2.5206776	1.5876641
15.974741560694602	2.4933853	1.5790457
15.992440197031714	2.5097427	1.5842167
16.01013921736862	2.4737082	1.5728027
16.02783862215259	2.4912882	1.5783815
16.045538411830933	2.4591222	1.5681589
16.06323858685107	2.4157991	1.5542841
16.080939147660512	2.355902	1.5348948
16.09864009470684	2.3217893	1.5237418
16.11634142843774	2.3286984	1.5260073
16.134043149300954	2.339453	1.5295271
16.15174525774433	2.3579733	1.5355694
16.169447754215817	2.3887162	1.5455472
16.18715063916342	2.372523	1.5402997
16.204853913035244	2.347826	1.5322617
16.222557576279478	2.3509905	1.533294
16.240261629344403	22.354301	4.7280335
16.257966072678386	42.913193	6.550816
16.275670906729868	37.99348	6.163885
16.293376131947387	2.4009752	1.5495081
16.31108174877957	2.4213512	1.5560691
16.328787757675133	2.4613862	1.5688806
16.34649415908287	2.4943123	1.5793391
16.364200953451657	2.5077853	1.5835989
16.38190814123048	2.5293584	1.5903957
16.39961572286839	2.563986	1.6012452
16.41732369881455	2.6055362	1.6141673
16.43503206951817	2.6610367	1.6312685
16.45274083542859	2.7273116	1.6514574
16.47044999699522	2.7983594	1.6728297
16.488159554667558	2.844897	1.6866822
16.505869508895184	2.9111185	1.7062
16.523579860127786	2.9446595	1.716001
16.541290608815117	2.9779713	1.72568
16.559001755407035	3.0454578	1.745124
16.57671330035348	3.1285899	1.768782
16.59442524410448	3.239569	1.7998803
16.61213758711015	3.4042332	1.8450564
16.629850329820705	3.4354794	1.8535047
16.647563472686436	3.4730244	1.8636053
16.665277016157724	3.393642	1.8421841
16.682990960685053	3.4373815	1.8540176
16.70070530671898	3.432911	1.8528116
16.718420054710155	3.436883	1.8538833
16.736135205109335	3.4671307	1.8620232
16.753850758367335	3.5347672	1.8800976
16.771566714935087	3.5869918	1.8939356
16.789283075263597	3.6469545	1.9097002
16.80699983980398	3.7121522	1.9266946
16.82471700900741	3.8008914	1.9495875
16.84243458332518	3.9104748	1.9774921
16.860152563208665	3.97346	1.993354
16.87787094910932	4.010475	2.0026171
16.89558974147871	4.007569	2.0018914
16.913308940768466	4.0535064	2.0133321
16.931028547430333	4.1229215	2.0304978
16.94874856191613	4.1877594	2.0464015
16.966468984677785	4.253545	2.0624123
16.98418981616729	4.3029265	2.0743496
17.00191105683676	4.321419	2.0788023
17.019632707138374	4.3746953	2.0915773
17.03735476752442	4.437126	2.1064487
17.05507723844728	4.5052605	2.1225598
17.072800120359403	4.5206776	2.1261885
17.090523413713353	4.5638084	2.1363072
17.108247118961785	4.552335	2.13362
17.125971236557437	4.591454	2.142768
17.143695766953133	4.5552387	2.1343005
17.161420710601806	4.5697417	2.1376953
17.179146067956477	4.5722523	2.1382825
17.19687183947025	4.594679	2.14352
17.21459802559634	4.5899377	2.142414
17.232324626788028	4.530975	2.1286087
17.25005164349871	4.5456347	2.1320493
17.267779076181863	4.54464	2.1318161
17.285506925291074	4.5294704	2.1282554
17.30323519127999	4.501291	2.1216245
17.320963874602384	4.4886084	2.1186335
17.33869297571211	4.500158	2.1213574
17.356422495063114	4.496062	2.1203918
17.37415243310944	4.4865093	2.118138
17.391882790305218	4.4737673	2.1151283
17.40961356710468	4.471898	2.1146863
17.42734476396215	4.471228	2.114528
17.445076381332044	4.481979	2.1170685
17.462808419668868	4.605861	2.146127
17.48054087942723	4.69529	2.1668618
17.498273761061835	4.8363576	2.199172
17.51600706502747	5.139829	2.2671192
17.533740791779024	5.739794	2.3957868
17.551474941771485	6.5418096	2.557696
17.56920951545993	8.351638	2.88992
17.586944513299528	9.617299	3.101177
17.60467993574556	12.634646	3.554525
17.622415783253373	15.515627	3.938988
17.64015205627843	18.522738	4.303805
17.657888755276293	21.125422	4.59624
17.675625880702604	22.788754	4.773757
17.69336343301311	21.256887	4.6105194
17.71110141266366	18.975424	4.356079
17.728839820110178	16.041311	4.005161
17.746578655808705	12.844404	3.583909
17.764317920215372	10.658937	3.264803
17.7820576137864	8.933347	2.9888704
17.79979773697811	7.454058	2.7302122
17.81753829024692	6.049191	2.4595103
17.835279274049356	5.2085457	2.282224
17.85302068884201	4.424143	2.1033647
17.870762535081607	4.0448337	2.0111773
17.888504813224934	3.8502548	1.9622066
17.90624752372891	3.691008	1.9211997
17.923990667050536	3.560506	1.8869303
17.941734243646895	3.4846132	1.8667119
17.959478253975185	3.4565568	1.8591818
17.9772226984927	3.4095902	1.8465075
17.994967577656833	3.3357363	1.8263998
18.01271289192506	3.2533712	1.8037105
18.030458641754965	3.225304	1.7959131
18.04820482760425	3.2227352	1.7951978
18.06595144993067	3.2284088	1.7967774
18.083698509192125	3.2057824	1.7904699
18.101446005846576	3.2307825	1.7974378
18.119193940352105	3.208339	1.7911837
18.136942313166887	3.1573095	1.7768819
18.1546911247492	3.1118839	1.7640532
18.1724403755574	3.0719922	1.75271
18.19019006604997	3.0469224	1.7455436
18.207940196685467	3.0489912	1.7461361
18.225690767922575	3.0359006	1.7423836
18.243441780220046	3.0482118	1.7459129
18.261193234036764	3.0339396	1.7418208
18.278945129831676	3.0024295	1.732752
18.29669746806386	2.9831517	1.7271802
18.314450249192483	2.953582	1.7185988
18.3322034736768	3.0027514	1.7328448
18.349957141976184	3.0172493	1.7370231
18.3677112545501	3.0015788	1.7325065
18.385465811858108	2.9885685	1.7287477
18.403220814359884	3.0109653	1.7352134
18.420976262515172	3.0129077	1.735773
18.43873215678387	3.0246	1.7391378
18.456488497625923	3.0485032	1.7459964
18.474245285501407	3.1834488	1.7842221
18.492002520870486	3.2636514	1.8065579
18.50976020419343	3.3396146	1.8274612
18.527518335930615	3.5708597	1.8896718
18.545276916542516	4.0829835	2.0206394
18.563035946489688	4.211736	2.0522516
18.580795426232832	4.626497	2.1509292
18.598555356232698	4.5371537	2.1300595
18.616315736950185	4.8277755	2.1972198
18.63407656884626	4.5175686	2.1254573
18.65183785238201	4.6946726	2.1667192
18.669599588018617	4.4847608	2.1177254
18.68736177621737	4.431818	2.1051884
18.705124417439652	4.4119782	2.100471
18.72288751214696	4.2904177	2.0713325
18.740651060800886	4.462087	2.1123652
18.758415063863115	4.231027	2.056946
18.77617952179546	4.3104815	2.07617
18.793944435059814	4.060908	2.0151694
18.811709804118184	4.0810533	2.0201616
18.829475629432675	4.1101785	2.0273576
18.8472419114655	3.9063907	1.9764591
18.86500865067897	3.9910517	1.9977616
18.88277584753551	3.6761212	1.9173213
18.90054350249763	3.6683	1.9152806
18.918311616027957	3.3310852	1.825126
18.936080188589226	3.2126749	1.7923936
18.953849220644265	2.955256	1.7190858
18.971618712656007	2.808557	1.675875
18.9893886650875	2.7547748	1.6597514
19.007159078401887	7.9109054	2.8126333
19.024929953062408	32.808266	5.72785
19.042701289532435	32.754135	5.723123
19.060473088275405	25.325483	5.032443
19.07824534975489	2.6314063	1.622161
19.096018074434568	2.647587	1.6271408
19.113791262778197	2.6399455	1.6247909
19.13156491524966	2.5697818	1.6030539
19.149339032312945	2.537779	1.5930408
19.167113614432136	2.5315986	1.5910997
19.184888662071433	2.5246933	1.5889283
19.202664175695123	2.4762514	1.5736109
19.220440155767623	2.4250515	1.5572577
19.238216602753447	2.4448345	1.5635966
19.2559935171172	2.4492567	1.5650101
19.27377089932361	2.4479468	1.5645915
19.291548749837514	2.4405773	1.5622348
19.309327069123835	2.4642692	1.5697991
19.32710585764763	2.4809508	1.5751034
19.344885115874032	2.4698796	1.571585
19.362664844268313	2.4881165	1.5773765
19.380445043295822	2.462666	1.5692884
19.39822571342203	2.4654493	1.5701749
19.41600685511252	2.4387345	1.5616448
19.43378846883297	2.420554	1.555813
19.451570555049173	2.4061413	1.5511742
19.469353114227037	2.406282	1.5512195
19.48713614683254	2.437269	1.5611755
19.50491965333182	2.4356756	1.5606651
19.52270363419109	2.4459722	1.5639604
19.540488089876686	2.4374878	1.5612456
19.55827302085503	2.447628	1.5644897
19.576058427592674	2.4851277	1.5764288
19.593844310556282	2.5164928	1.5863458
19.611630670212598	2.4729726	1.5725688
19.629417507028506	2.4157088	1.554255
19.64720482147098	2.3876128	1.5451902
19.6649926140071	2.4077902	1.5517056
19.682780885104084	2.4613824	1.5688794
19.70056963522921	2.4561212	1.5672017
19.718358864849908	2.4477348	1.5645238
19.7361485744337	2.4274743	1.5580354
19.753938764448215	2.4540756	1.566549
19.771729435361202	2.4632528	1.5694753
19.789520587640506	2.4642591	1.5697958
19.807312221754092	2.4656856	1.5702502
19.825104338170043	2.4823048	1.5755332
19.842896937356517	2.5110888	1.5846416
19.860690019781824	2.4797869	1.5747339
19.87848358591436	2.473923	1.572871
19.896277636222635	2.5055315	1.582887
19.914072171175278	2.5172381	1.5865806
19.931867191241015	2.4787657	1.5744096
19.94966269688869	2.4232788	1.5566884
19.967458688587264	2.4194682	1.555464
19.985255166805807	2.4229438	1.5565808
20.00305213201348	2.4214811	1.5561109
20.020849584679578	2.414946	1.5540097
20.038647525273507	2.3883967	1.5454439
20.05644595426477	2.3984435	1.5486909
20.07424487212299	2.376312	1.541529
20.092044279317903	2.3946798	1.5474753
20.109844176319353	2.4082596	1.5518569
20.127644563597304	2.4040875	1.5505121
20.145445441621817	2.3944027	1.5473858
20.16324681086307	2.3690453	1.5391703
20.181048671791373	2.3697994	1.5394152
20.198851024877122	2.351865	1.5335791
20.216653870590836	2.351045	1.5333117
20.234457209403146	2.338159	1.529104
20.252261041784802	2.3329835	1.5274107
20.270065368206662	2.3010237	1.5169126
20.287870189139685	2.2923808	1.514061
20.305675505054968	2.291421	1.513744
20.323481316423702	2.339776	1.5296327
20.341287623717207	2.3761585	1.5414793
20.359094427406884	2.3575382	1.5354277
20.376901727964288	2.3339472	1.5277262
20.39470952586107	2.3125303	1.5207006
20.41251782156899	2.284396	1.5114218
20.430326615559935	2.2705727	1.5068419
20.448135908305886	2.2540643	1.5013542
20.465945700278965	2.2678533	1.5059394
20.483755991951384	2.2588515	1.5029476
20.50156678379548	2.271966	1.5073042
20.519378076283708	2.2752314	1.508387
20.537189869888635	2.292675	1.5141581
20.55500216508294	2.2879908	1.5126106
20.572814962339415	2.2727864	1.5075763
20.59062826213098	2.259261	1.5030838
20.60844206493066	2.2987497	1.5161629
20.626256371211593	2.2912323	1.5136818
20.644071181447032	2.3080516	1.5192273
20.66188649611036	2.2905254	1.5134482
20.67970231567506	2.2942157	1.5146668
20.697518640614742	2.246393	1.4987972
20.715335471403122	2.2482073	1.4994023
20.73315280851404	2.2538369	1.5012784
20.750970652421447	2.275068	1.5083328
20.768789003599412	2.282008	1.5106317
20.786607862522136	2.3055732	1.5184114
20.8044272296639	2.2880461	1.5126289
20.82224710549913	2.2470446	1.4990145
20.84006749050237	2.2340064	1.4946593
20.857888385148268	3.773149	1.9424596
20.8757097899116	45.873657	6.7730093
20.893531705267254	64.71695	8.044684
20.911354131690224	83.75266	9.1516485
20.92917706965566	69.00214	8.306752
20.94700051963877	50.06265	7.075496
20.96482448211493	29.340656	5.416702
20.982648957559622	4.102747	2.025524
21.00047394644843	2.2062554	1.4853469
21.01829944925707	2.1817734	1.4770827
21.036125466461375	2.1914802	1.4803649
21.053951998537297	2.189066	1.4795493
21.071779045960906	2.2057269	1.4851689
21.089606609208378	2.183102	1.4775324
21.10743468875603	2.2014036	1.4837128
21.12526328508028	2.1939821	1.4812096
21.143092398657675	2.1827116	1.4774003
21.16092202996488	2.1392326	1.4626116
21.17875217947867	2.159662	1.4695789
21.19658284767596	2.171852	1.4737206
21.21441403503377	2.1690028	1.4727535
21.232245742029225	2.1612434	1.4701169
21.2500779691396	2.1422856	1.4636549
21.26791071684227	2.131099	1.4598284
21.28574398561475	2.1120102	1.4532757
21.30357777593465	2.1138167	1.4538971
21.321412088279704	2.1207736	1.4562876
21.339246923127792	2.1443923	1.4643743
21.357082280956888	2.1355608	1.4613558
21.3749181622451	2.123244	1.4571356
21.392754567470647	2.1073196	1.451661
21.41059149711187	2.0785568	1.4417201
21.42842895164726	2.0698876	1.4387105
21.446266931555378	2.0602934	1.4353722
21.464105437314945	2.0651999	1.4370803
21.481944469404798	2.0642574	1.4367523
21.49978402830388	2.0460548	1.4304037
21.51762411449127	2.0274413	1.4238825
21.53546472844617	2.030357	1.4249059
21.553305870647876	2.0134099	1.4189467
21.571147541575865	2.0380096	1.4275887
21.58898974170967	2.0149338	1.4194837
21.60683247152899	2.017075	1.4202377
21.62467573151363	2.0230973	1.4223562
21.642519522143523	2.0011857	1.4146327
21.660363843898722	1.9938726	1.4120456
21.6782086972594	2.025867	1.4233296
21.696054082705864	2.0442538	1.429774
21.713900000718535	2.0165095	1.4200386
21.73174645177795	2.0190647	1.4209379
21.749593436364794	1.9999027	1.4141792
21.767440954959845	1.9904611	1.410837
21.785289008044032	2.0053093	1.4160894
21.803137596098388	2.025133	1.4230716
21.820986719604086	2.0109556	1.4180816
21.838836379042412	1.9999336	1.41419
21.85668657489478	2.0260258	1.4233853
21.87453730764273	1.9900204	1.4106808
21.892388577767914	1.9640467	1.4014446
21.91024038575213	1.9463835	1.3951285
21.928092732077285	1.9432603	1.3940088
21.945945617225426	1.9560362	1.3985837
21.963799041678694	1.9717919	1.4042051
21.981653005919398	31.293367	5.5940475
21.999507510429943	78.06237	8.835291
22.01736255569286	72.99069	8.543459
22.035218142190818	4.097889	2.0243244
22.05307427040661	1.958074	1.399312
22.07093094082315	1.9572304	1.3990105
22.088788153923474	1.9501709	1.3964852
22.106645910190746	1.929842	1.3891876
22.12450421010827	1.9336246	1.3905483
22.142363054159464	1.9525417	1.3973337
22.16022244282787	1.9398785	1.3927952
22.178082376597164	1.9355687	1.3912472
22.195942855951145	1.9501082	1.3964627
22.213803881373742	2.00849	1.4172121
22.231665453349002	2.030671	1.425016
22.24952757236111	2.0009234	1.41454
22.26739023889438	1.9999801	1.4142065
22.28525345343323	1.9976908	1.413397
22.30311721646225	1.9916543	1.4112598
22.320981528466113	1.9796767	1.4070098
22.33884638992964	1.9726024	1.4044937
22.356711801337788	1.9583435	1.3994082
22.37457776317561	1.9627684	1.4009883
22.392444275928337	1.9660155	1.4021467
22.410311340081282	1.9717171	1.4041785
22.428178956119904	1.9970578	1.413173
22.446047124529805	1.9752191	1.405425
22.46391584579669	1.9662739	1.4022388
22.481785120406414	1.9347962	1.3909695
22.49965494884496	1.9080755	1.3813311
22.51752533159841	1.9013107	1.3788803
22.53539626915302	1.9420061	1.3935587
22.553267761995137	1.9806749	1.4073645
22.571139810611264	1.959975	1.399991
22.589012415488025	1.9160129	1.3842012
22.60688557711216	1.8983667	1.3778123
22.624759295970566	1.9355788	1.3912508
22.642633572550263	1.9276228	1.3883885
22.660508407338362	1.9067178	1.3808395
22.67838380082217	1.8978394	1.3776209
22.696259753489077	1.9054946	1.3803965
22.714136265826614	1.900762	1.3786812
22.73201333832246	1.8912303	1.3752201
22.74989097146439	1.8843397	1.3727125
22.76776916574035	1.8924829	1.3756754
22.785647921638393	1.8728849	1.3685338
22.803527239646712	1.825143	1.3509785
22.82140712025363	1.813864	1.3467977
22.839287563947593	1.8388125	1.3560282
22.85716857121719	1.8987161	1.3779391
22.875050142551135	1.9095671	1.3818709
22.892932278438277	1.8912424	1.3752245
22.910814979367604	1.8583943	1.3632294
22.928698245828222	1.8617365	1.3644546
22.946582078309387	1.8631774	1.3649826
22.96446647730047	1.8713644	1.3679782
22.98235144329098	1.8608173	1.3641177
23.000236976770562	1.8643917	1.3654273
23.018123078229	1.8841505	1.3726436
23.03600974815619	1.8944983	1.3764077
23.053896987042194	1.8646384	1.3655176
23.071784795377173	1.8733557	1.3687059
23.08967317365145	1.9123183	1.382866
23.10756212235546	1.9182005	1.3849912
23.125451641979787	1.9108695	1.382342
23.143341733015134	1.9223825	1.3865001
23.161232395952357	1.925246	1.3875324
23.179123631282426	1.9522562	1.3972316
23.197015439496468	1.9666573	1.4023756
23.214907821085717	1.950047	1.3964409
23.23280077654157	1.935231	1.3911258
23.250694306355538	1.948157	1.3957639
23.268588411019277	1.9483054	1.395817
23.28648309102458	1.9236405	1.3869537
23.304378346863356	1.9099393	1.3820056
23.322274179027676	1.922208	1.3864372
23.340170588009723	1.9408896	1.3931582
23.358067574301852	1.9330155	1.3903292
23.37596513839651	1.9116362	1.3826194
23.39386328078629	1.8926467	1.3757349
23.411762001963947	1.9116987	1.3826419
23.429661302422353	1.8739251	1.3689139
23.4475611826545	1.8339788	1.3542447
23.46546164315356	1.8231633	1.3502456
23.48336268441279	1.8459777	1.3586676
23.501264306925638	1.8707371	1.3677489
23.51916651118564	1.8728896	1.3685356
23.537069297686497	1.8880887	1.3740774
23.554972666922037	1.9347901	1.3909674
23.57287661938623	1.9223292	1.3864808
23.59078115557318	1.9294609	1.3890504
23.608686275977128	1.9046302	1.3800834
23.62659198109246	1.924108	1.3871222
23.6444982714137	1.9271336	1.3882123
23.66240514743549	1.9287504	1.3887945
23.68031260965263	1.9188498	1.3852255
23.698220658560068	1.8860644	1.3733406
23.716129294652845	1.854241	1.3617052
23.7340385184262	1.856646	1.3625879
23.75194833037546	1.8667643	1.3662958
23.769858730996123	1.8897363	1.3746768
23.78776972078382	1.866708	1.3662752
23.80568130023431	1.8840483	1.3726064
23.823593469843495	1.9025252	1.3793205
23.841506230107424	1.928264	1.3886194
23.859419581522275	1.9248456	1.387388
23.87733352458438	1.9096092	1.3818861
23.89524805979019	1.8964435	1.3771142
23.913163187636318	1.9166647	1.3844366
23.931078908619508	1.9504066	1.3965696
23.948995223236633	1.9558426	1.3985144
23.966912131984735	1.9461597	1.3950483
23.98482963536096	1.986761	1.409525
24.002747733862616	2.0375345	1.4274223
24.020666427987155	2.0713363	1.4392138
24.038585718232156	2.0431685	1.4293945
24.056505605095353	2.0003808	1.4143481
24.074426089074617	2.0087686	1.4173104
24.092347170667946	2.0266721	1.4236124
24.110268850373515	2.077127	1.4412241
24.128191128689586	2.0709286	1.4390721
24.146114006114626	2.058147	1.4346243
24.164037483147187	2.077587	1.4413837
24.181961560286005	2.1363175	1.4616147
24.199886238029926	2.1425672	1.4637511
24.21781151687797	2.0553703	1.4336563
24.235737397329274	1.9984927	1.4136806
24.253663879883135	1.9774891	1.4062322
24.271590965038975	1.982074	1.4078615
24.289518653296376	1.9716954	1.4041708
24.30744694515505	1.9888005	1.4102484
24.32537584111486	1.998911	1.4138285
24.34330534167581	1.9795711	1.4069723
24.361235447338046	1.982652	1.4080667
24.379166158601876	1.9291977	1.3889556
24.39709747596772	1.9383252	1.3922374
24.41502939993615	1.937031	1.3917726
24.432961931007917	1.9444686	1.3944421
24.450895069683856	1.9180664	1.3849428
24.468828816465	1.9128636	1.3830631
24.4867631718525	1.9579455	1.399266
24.504698136347656	1.9716065	1.404139
24.52263371045192	1.9595487	1.3998388
24.540569894666874	1.9073721	1.3810765
24.558506689494266	1.8966895	1.3772035
24.57644409543597	1.9008915	1.3787283
24.594382112994012	1.9598974	1.3999634
24.61232074267057	1.9838217	1.4084821
24.630259984967953	2.0023122	1.4150308
24.64819984038863	2.01799	1.4205598
24.66614030943522	2.0044122	1.4157727
24.684081392610462	2.0322812	1.425581
24.702023090417274	2.0058725	1.4162883
24.7199654033587	1.9743172	1.4051039
24.737908331937927	1.9533118	1.3976094
24.755851876658305	2.000053	1.4142323
24.773796038023324	2.0387454	1.4278464
24.79174081653661	2.051297	1.432235
24.809686212701962	2.0267887	1.4236532
24.827632227023294	2.0397074	1.4281833
24.8455788600047	2.0916824	1.446265
24.8635261121504	2.087822	1.4449297
24.88147398396475	2.0447135	1.4299347
24.899422475952303	2.0571377	1.4342725
24.917371588617698	2.0938716	1.4470216
24.935321322465768	2.1506166	1.4664981
24.953271678001478	2.216849	1.4889086
24.97122265572994	2.4352567	1.5605309
24.989174256156414	2.7790942	1.6670616
25.00712647978632	3.3664699	1.8347943
25.02507932712521	4.422011	2.1028578
25.043032798678798	5.9999404	2.4494777
25.060986894952933	7.67408	2.770213
25.078941616453637	9.097589	3.0162208
25.096896963687055	10.10276	3.178484
25.114852937159508	10.742957	3.277645
25.132809537377444	10.425104	3.228793
25.150766764847468	9.597804	3.0980322
25.168724620076347	8.210458	2.8653896
25.186683103570985	6.975099	2.6410413
25.204642215838426	5.6101875	2.3685834
25.222601957385894	4.53665	2.1299415
25.24056232872074	3.4893909	1.8679911
25.25852333035048	2.7660353	1.6631402
25.276484962782778	2.2775104	1.5091423
25.294447226525435	2.0908191	1.4459665
25.312410122086423	2.0007887	1.4144924
25.330373649973843	1.9897059	1.4105693
25.348337810695988	1.9594723	1.3998115
25.366302604761245	1.9769634	1.4060453
25.384268032678207	1.982338	1.4079553
25.40223409495558	1.9329491	1.3903054
25.420200792102257	1.8964257	1.3771077
25.438168124627246	1.8568026	1.3626454
25.45613609303974	1.8624952	1.3647326
25.474104697849057	1.8712223	1.3679262
25.492073939564698	1.8238953	1.3505167
25.510043818696285	1.8401564	1.3565236
25.528014335753614	1.8937827	1.3761477
25.54598549124664	1.906623	1.3808053
25.56395728568544	1.8470474	1.3590612
25.58192971958028	1.8334515	1.35405
25.59990279344156	1.8419755	1.357194
25.617876507779833	1.8602701	1.3639172
25.635850863105826	1.824106	1.3505946
25.653825859930386	1.8317138	1.3534082
25.671801498764548	1.9193084	1.3853911
25.68977778011949	1.8930577	1.3758843
25.707754704506524	1.8550546	1.3620039
25.725732272437153	1.858832	1.3633898
25.743710484423012	1.8695999	1.3673332
25.761689340975888	1.8253337	1.3510491
25.77966884260774	1.806173	1.3439393
25.797648989830662	1.7828588	1.3352374
25.815629783156922	1.8064113	1.344028
25.83361122309895	1.810652	1.3456047
25.85159331016929	1.8140806	1.346878
25.869576044880695	1.8531234	1.3612947
25.887559427746034	1.89444	1.3763866
25.90554345927836	1.8085005	1.344805
25.92352813999086	1.7607137	1.3269188
25.94151347039689	1.769843	1.3303545
25.959499451009965	1.8272078	1.3517425
25.97748608234374	1.8140581	1.3468697
25.995473364912062	1.7978374	1.3408346
26.013461299228904	1.7701926	1.3304858
26.03144988580839	1.7958919	1.3401089
26.04943912516483	1.7821594	1.3349755
26.067429017812675	1.7805958	1.3343897
26.085419564266537	1.7930473	1.3390472
26.103410765041186	1.7905384	1.33811
26.12140262065155	1.780742	1.3344445
26.139395131612723	1.78122	1.3346236
26.157388298439948	1.79421	1.3394812
26.17538212164861	1.7670827	1.3293166
26.193376601754295	1.7862471	1.3365055
26.211371739272714	1.7868344	1.3367252
26.229367534719746	1.8213235	1.3495642
26.247363988611433	1.8519737	1.3608724
26.26536110146397	1.8414882	1.3570144
26.283358873793727	1.7772077	1.3331195
26.301357306117204	1.7485223	1.322317
26.319356398951104	1.7907604	1.3381929
26.33735615281224	1.8547139	1.3618789
26.35535656821762	1.8878436	1.3739883
26.373357645684404	1.8272346	1.3517524
26.39135938572991	1.7807754	1.3344569
26.409361788871614	1.8069414	1.3442252
26.427364855627165	1.8980552	1.3776993
26.445368586514352	1.8718042	1.3681389
26.46337298205115	1.80407	1.3431567
26.48137804275568	1.7652868	1.3286409
26.499383769146217	1.7442677	1.3207073
26.517390161741215	1.7601326	1.3266999
26.53539722105928	1.7757624	1.3325773
26.553404947619182	1.8193668	1.348839
26.571413341939856	1.800627	1.3418745
26.589422404540397	1.7793486	1.3339223
26.60743213594006	1.7743979	1.3320652
26.62544253665827	1.8084044	1.3447692
26.64345360721459	1.8055793	1.3437184
26.66146534812879	1.7745162	1.3321097
26.679477759920758	1.7792495	1.3338852
26.69749084311057	1.8308852	1.3531021
26.71550459821847	1.833473	1.3540579
26.733519025764842	1.8085418	1.3448204
26.751534126270258	1.8298987	1.3527375
26.769549900255434	1.9054701	1.3803877
26.787566348241267	1.8787941	1.3706911
26.80558347074881	1.8322599	1.3536099
26.823601268299267	1.8091816	1.3450582
26.841619741414036	1.8199391	1.3490512
26.85963889061465	1.8087019	1.3448799
26.877658716422832	1.7971815	1.34059
26.89567921936045	1.7984645	1.3410684
26.913700399949544	1.7787902	1.3337129
26.93172225871233	1.7693334	1.3301629
26.949744796171174	1.7704238	1.3305727
26.967768012848605	1.7578914	1.325855
26.98579190926733	1.8019625	1.342372
27.003816485950225	1.8039995	1.3431305
27.021841743420318	1.8240312	1.350567
27.039867682200814	1.7978675	1.3408458
27.057894302815072	1.8000183	1.3416476
27.07592160578664	1.757401	1.32567
27.0939495916392	1.7492236	1.3225821
27.111978260896635	1.7363259	1.3176972
27.13000761408296	1.7784166	1.3335729
27.148037651722397	1.8170687	1.3479869
27.166068374339304	1.8361831	1.3550583
27.184099782458215	1.830071	1.3528012
27.20213187660384	1.7957805	1.3400674
27.22016465730105	1.8159105	1.3475572
27.23819812507487	1.8248272	1.3508617
27.256232280450533	1.8703423	1.3676046
27.274267123953383	1.8388325	1.3560356
27.292302656108987	1.7890077	1.3375379
27.31033887744306	1.7870883	1.3368202
27.32837578848146	1.811375	1.3458734
27.34641338975026	1.7958213	1.3400825
27.364451681775673	1.7607476	1.3269316
27.382490665084074	1.7767669	1.3329542
27.400530340202046	1.7535236	1.3242068
27.41857070765629	1.744354	1.32074
27.436611767973726	1.7913052	1.3383965
27.454653521681404	1.8238958	1.3505169
27.472695969306564	1.8060557	1.3438957
27.490739111376627	1.8134687	1.346651
27.508782948419153	1.8302815	1.3528789
27.526827480961902	1.85157	1.3607241
27.54487270953279	1.8399156	1.356435
27.562918634659898	1.8051422	1.3435558
27.580965256871508	1.7841076	1.3357049
27.599012576696026	1.8170612	1.3479841
27.617060594662068	1.8016229	1.3422455
27.63510931129842	1.7653375	1.32866
27.65315872713401	1.8302065	1.3528513
27.67120884269797	1.8525159	1.3610716
27.68925965851958	1.879684	1.3710157
27.707311175128307	1.8581029	1.3631225
27.725363393053787	1.8555349	1.3621802
27.74341631282583	1.8353503	1.354751
27.7614699349744	1.8607441	1.3640909
27.77952426002968	2.0585604	1.4347684
27.797579288521973	2.1355417	1.4613492
27.815635020981784	2.457437	1.5676215
27.83369145793979	2.5165086	1.5863507
27.85174859992682	2.37598	1.5414214
27.869806447473923	2.2853386	1.5117337
27.887865001112267	2.0292025	1.4245008
27.905924261373233	1.917734	1.3848227
27.92398422878836	1.8962651	1.3770494
27.94204490388936	1.9010152	1.3787731
27.96010628720813	1.8863295	1.3734372
27.978168379276728	1.8548243	1.3619194
27.9962311806274	1.8529019	1.3612134
28.014294691792568	1.8943835	1.376366
28.0323589133048	1.9219109	1.38633
28.050423845696887	1.9025447	1.3793277
28.068489489501758	1.8414007	1.3569822
28.086555845252523	1.8278283	1.351972
28.104622913482487	1.8628258	1.3648537
28.122690694725115	1.9471005	1.3953854
28.14075918951405	1.9728988	1.4045992
28.15882839838312	1.9065045	1.3807623
28.176898321866304	1.8713615	1.3679771
28.1949689604978	1.8869483	1.3736624
28.213040314811945	1.9252778	1.3875438
28.23111238534327	1.9074777	1.3811147
28.249185172626493	1.9279069	1.3884909
28.267258677196473	1.950351	1.3965497
28.285332899588294	1.9785788	1.4066197
28.303407840337172	1.9787242	1.4066713
28.321483499978545	1.9673532	1.4026237
28.33955987904799	1.9693168	1.4033235
28.357636978081285	1.9192593	1.3853734
28.37571479761439	1.9452244	1.394713
28.393793338183425	1.997199	1.4132229
28.41187260032469	2.0406651	1.4285185
28.429952584574686	2.0357018	1.4267802
28.448033291470065	2.0061364	1.4163815
28.46611472154769	1.9563246	1.3986868
28.484196875344566	1.9653099	1.401895
28.502279753397914	2.0563893	1.4340116
28.52036335624511	2.1109948	1.4529263
28.538447684423716	2.0575168	1.4344047
28.556532738471482	2.0139787	1.4191471
28.574618518926325	2.0558124	1.4338105
28.59270502632635	2.0623178	1.4360772
28.61079226120985	2.0623734	1.4360965
28.628880224115274	2.0074105	1.4168311
28.646968915581287	1.9869246	1.4095831
28.66505833614671	1.9730545	1.4046546
28.68314848635055	2.0214286	1.4217695
28.701239366732004	2.1000845	1.4491669
28.71933097783044	2.1271071	1.4584606
28.737423320185403	2.1130912	1.4536476
28.75551639433665	2.1044917	1.4506867
28.773610200824074	2.1224322	1.456857
28.791704740187793	2.1430614	1.4639199
28.80980001296809	2.108517	1.4520733
28.827896019705413	2.0574772	1.4343909
28.845992760940433	2.0559115	1.433845
28.86409023721397	2.1312106	1.4598666
28.88218844906704	2.1945724	1.481409
28.900287397040845	2.2363381	1.4954392
28.918387081676755	2.261201	1.503729
28.936487503516343	2.2526326	1.5008773
28.954588663101365	2.236921	1.495634
28.97269056097374	2.236931	1.4956373
28.990793197675597	2.261754	1.5039129
29.00889657374923	2.2690573	1.5063391
29.027000689737125	2.2829602	1.5109468
29.04510554618196	2.3020408	1.5172478
29.06321114362659	2.3045235	1.5180657
29.08131748261405	2.3582058	1.5356451
29.099424563687567	2.4318454	1.5594375
29.11753238739057	2.5173302	1.5866096
29.13564095426663	2.5531332	1.5978527
29.15375026485954	2.5899644	1.6093366
29.171860319713275	2.5625854	1.6008077
29.18997111937199	2.6058097	1.6142521
29.20808266438002	2.6503656	1.6279943
29.226194955281898	2.6853342	1.6386989
29.244307992622335	2.7456794	1.6570091
29.26242177694624	2.781595	1.6678114
29.2805363087987	2.840829	1.6854758
29.29865158872498	2.8950896	1.7014962
29.316767617270557	2.9532356	1.7184981
29.334884394981064	3.0126622	1.7357022
29.353001922402367	3.0568879	1.7483958
29.37112020008047	3.11349	1.7645085
29.389239228561596	3.1938932	1.7871467
29.407359008392152	3.3027725	1.8173531
29.42547954011872	3.5503974	1.8842498
29.44360082428809	4.060383	2.0150392
29.46172286144722	4.950487	2.224969
29.479845652143283	6.4528008	2.5402365
29.497969196923606	9.188987	3.0313342
29.516093496335728	13.128855	3.6233761
29.5342185509274	16.679651	4.084073
29.55234436124651	19.863825	4.4568853
29.570470927841175	21.444489	4.6308193
29.588598251259686	21.290167	4.6141267
29.60672633205055	19.78173	4.4476657
29.624855170762405	16.819796	4.1011944
29.642984767944146	13.2644	3.6420324
29.66111512414481	9.790556	3.1289864
29.67924623991366	7.163535	2.6764781
29.697378115800138	5.2746735	2.2966657
29.71551075235387	4.326901	2.0801203
29.733644150124675	3.8094773	1.9517882
29.751778309662576	3.6124256	1.9006382
29.769913231517766	3.5357096	1.8803483
29.78804891624066	3.500249	1.8708953
29.806185364381818	3.4282117	1.8515431
29.82432257649206	3.3840969	1.8395915
29.842460553122333	3.343344	1.8284813
29.86059929482382	3.2632523	1.8064474
29.878738802147872	3.210014	1.7916512
29.896879075646048	3.220734	1.7946403
29.915020115870114	3.1964726	1.7878681
29.933161923371976	3.2165573	1.7934763
29.951304498703777	3.1731803	1.7813423
29.969447842417857	3.1950283	1.7874643
29.987591955066733	3.2038996	1.789944
30.005736837203123	3.1816392	1.783715
30.023882489379943	3.167892	1.7798573
30.04202891215028	3.204102	1.7900006
30.060176106067455	3.1727617	1.7812247
30.078324071684946	3.1378167	1.7713883
30.09647280955646	3.0506592	1.7466136
30.114622320235863	3.0522091	1.7470573
30.132772604277257	3.0505605	1.7465854
30.1509236622349	3.025802	1.7394832
30.16907549466328	2.9969912	1.731182
30.18722810211705	3.0026526	1.7328163
30.205381485151097	3.0230699	1.7386978
30.22353564432045	2.987377	1.728403
30.241690580180403	2.9615433	1.7209135
30.25984629328638	2.9461184	1.716426
30.278002784194037	2.9724503	1.7240795
30.296160053459246	2.9559553	1.7192892
30.314318101638033	2.938214	1.7141219
30.332476929286646	3.0312505	1.7410487
30.35063653696153	2.9991102	1.7317939
30.368796925219307	2.922486	1.709528
30.386958094616844	2.905502	1.7045534
30.40512004571115	2.8874214	1.6992414
30.423282779059463	2.909693	1.7057822
30.441446295219233	2.8942583	1.701252
30.459610594748067	2.843297	1.6862079
30.47777567820382	2.8038723	1.6744767
30.495941546144504	2.8287303	1.681883
30.51410819912835	2.891206	1.7003547
30.532275637713795	2.900217	1.7030023
30.55044386245946	2.897855	1.7023088
30.56861287392416	2.9044247	1.7042372
30.586782672666956	2.892481	1.7007296
30.604953259247047	2.8646803	1.6925366
30.623124634223885	2.7709088	1.6646047
30.641296798157075	2.7357457	1.654009
30.659469751606462	2.7965462	1.6722877
30.677643495132074	2.803324	1.674313
30.695818029294152	2.755007	1.6598214
30.713993354653116	2.6941695	1.6413926
30.73216947176962	2.7209806	1.6495395
30.75034638120448	2.731653	1.6527714
30.768524083518756	2.8171864	1.6784476
30.786702579273673	2.88378	1.6981696
30.80488186903069	2.943018	1.7155226
30.82306195335144	3.072962	1.7529866
30.841242832797782	3.259063	1.8052875
30.85942450793176	3.521592	1.8765905
30.877606979315637	3.9042554	1.9759189
30.895790247511883	4.308138	2.0756054
30.913974313083134	4.728841	2.1745899
30.932159176592283	5.170053	2.273775
30.95034483860237	5.504464	2.3461595
30.968531299676698	5.4453197	2.333521
30.98671856037873	5.1324058	2.2654812
31.00490662127215	4.772582	2.184624
31.023095482920848	4.2955	2.0725586
31.04128514588892	3.6844625	1.9194953
31.059475610740662	3.1628	1.7784263
31.07766687804056	2.8297844	1.6821963
31.09585894835335	2.6111445	1.6159036
31.11405182224393	2.5194702	1.587284
31.132245500277417	2.4859958	1.576704
31.15043998301914	2.4785721	1.5743482
31.168635271034628	2.4975286	1.5803571
31.18683136488964	2.543008	1.5946811
31.20502826515008	2.5230742	1.5884187
31.223225972382135	2.5004199	1.5812716
31.241424487152155	2.4433937	1.5631359
31.259623810026692	2.411782	1.5529913
31.27782394157253	2.3641062	1.537565
31.296024882356644	2.3346434	1.527954
31.314226632946237	2.2896185	1.5131485
31.332429193908684	2.289325	1.5130515
31.350632565811598	2.3850882	1.544373
31.368836749222787	2.454098	1.5665561
31.387041744710295	2.4984224	1.5806398
31.40524755284232	2.5746672	1.604577
31.423454174187317	2.6026955	1.6132872
31.441661609313922	2.5784643	1.6057597
31.459869858791002	2.4620485	1.5690917
31.478078923187628	2.4251816	1.5572995
31.496288803073064	2.3417494	1.5302776
31.514499499016807	2.3237388	1.5243814
31.532711011588546	2.2990074	1.5162477
31.550923341358178	2.313408	1.5209891
31.56913648889584	2.3168385	1.5221164
31.587350454771844	2.35587	1.5348843
31.605565239556732	2.3888376	1.5455865
31.62378084382127	2.3573632	1.5353707
31.641997268136382	2.2865164	1.5121231
31.660214513073274	2.333223	1.5274892
31.67843257920331	2.3445094	1.5311791
31.6966514670981	2.293977	1.5145881
31.71487117732944	2.3823662	1.5434916
31.733091710469346	2.432699	1.5597112
31.751313067090052	2.3204727	1.5233098
31.769535247764008	2.2448676	1.4982882
31.787758253063878	2.269027	1.5063289
31.805982083562526	2.2755203	1.5084828
31.824206739833024	2.236593	1.4955243
31.84243222244869	2.2236292	1.4911839
31.860658531983013	2.2954154	1.5150628
31.878885669009737	2.318127	1.5225396
31.897113634102784	2.3212895	1.5235779
31.91534242783632	2.3030188	1.51757
31.933572050784694	2.221861	1.4905908
31.951802503522508	2.1738465	1.474397
31.970033786624548	2.1938796	1.4811751
31.988265900665834	2.2074301	1.4857423
32.006498846221575	2.133999	1.4608214
32.02473262386724	2.125503	1.4579105
32.04296723417845	2.10357	1.4503689
32.0612026777311	2.0691943	1.4384694
32.07943895510129	2.117992	1.4553323
32.097676066865304	2.1273663	1.4585494
32.115914013599685	2.0995717	1.4489899
32.13415279588115	2.1159139	1.4546181
32.152392414286666	2.1653705	1.4715198
32.1706328693934	2.1799603	1.4764688
32.18887416177875	2.224032	1.4913188
32.20711629202032	2.2561007	1.5020322
32.225359260695924	2.2169802	1.4889528
32.243603068383614	2.1828063	1.4774324
32.26184771566166	2.2498078	1.499936
32.28009320310852	2.2794642	1.5097895
32.2983395313029	2.2266033	1.4921807
32.31658670082372	2.2032146	1.4843229
32.33483471225012	2.232815	1.4942607
32.35308356616143	2.1986878	1.4827973
32.371333263137245	2.1236405	1.4572716
32.38958380375734	2.0719593	1.4394302
32.407835188601744	2.119948	1.4560041
32.42608741825067	2.096379	1.4478878
32.444340493284585	2.0422144	1.4290607
32.46259441428416	2.0179734	1.4205539
32.48084918183028	2.007374	1.4168183
32.49910479650405	2.0137026	1.4190499
32.51736125888683	1.9906449	1.4109021
32.53561856956014	1.9845455	1.408739
32.5538767291058	1.9959776	1.4127908
32.572135738105764	2.011232	1.418179
32.59039559714228	2.0659218	1.4373314
32.608656306797776	2.122867	1.4570062
32.62691786765491	2.0878289	1.4449321
32.645180280296586	1.9898686	1.410627
32.663443545305896	2.0536592	1.4330593
32.68170766326619	2.0866141	1.4445118
32.69997263476099	2.0911171	1.4460696
32.7182384603741	2.0085886	1.4172468
32.7365051406895	2.010747	1.4180081
32.75477267629144	1.9954026	1.4125872
32.77304106776434	1.9940779	1.4121182
32.79131031569289	2.0519156	1.4324509
32.809580420661966	2.1014361	1.4496331
32.827851383256714	2.094083	1.4470947
32.84612320406245	2.0180328	1.4205748
32.86439588366476	1.9887136	1.4102175
32.88266942264945	1.970654	1.4037999
32.9009438216025	1.9695898	1.4034208
32.9192190811102	1.9787494	1.4066802
32.937495201758985	1.992149	1.4114351
32.95577218413556	1.9906821	1.4109154
32.974050028826866	1.9755744	1.4055513
32.992328736420035	2.0189738	1.420906
33.010608307502444	2.0610495	1.4356356
33.02888874266169	2.0795183	1.4420536
33.047170042485604	2.0616522	1.4358455
33.06545220756225	2.0880573	1.4450111
33.083735238479896	2.1137326	1.4538682
33.10201913582707	1.9667999	1.4024264
33.12030390019248	1.8619945	1.3645492
33.138589532165135	1.9394678	1.3926477
33.15687603233419	2.0067487	1.4165976
33.17516340128909	2.009313	1.4175024
33.19345163961947	1.9801009	1.4071605
33.211740747915215	1.9683845	1.4029913
33.23003072676643	1.973094	1.4046687
33.248321576763466	2.0015645	1.4147666
33.266613298496885	2.0326862	1.4257231
33.28490589255747	1.9991316	1.4139065
33.30319935953626	2.0831687	1.4433186
33.32149370002451	2.061087	1.4356486
33.339788914613706	1.9441651	1.3943332
33.358085003895575	1.8266873	1.35155
33.376381968462034	1.8490566	1.3598002
33.39467980890529	1.9271175	1.3882066
33.41297852581774	1.8740408	1.3689561
33.43127811979204	1.9200263	1.3856502
33.44957859142105	1.9500315	1.3964353
33.467879941297866	2.0008225	1.4145043
33.486182170015844	2.0183415	1.4206835
33.50448527816853	2.0526915	1.4327217
33.522789266349754	1.9707108	1.40382
33.541094135153514	1.937425	1.3919141
33.55939988517411	1.9611878	1.4004241
33.57770651700602	2.0316021	1.4253428
33.59601403124398	2.0780046	1.4415286
33.61432242848296	2.1225533	1.4568986
33.632631709318154	2.0143368	1.4192734
33.650941874344994	1.9930968	1.4117708
33.66925292415916	1.949402	1.3962098
33.68756485935654	1.9321383	1.3900138
33.70587768053328	1.8777301	1.3703029
33.724191388285746	1.7991863	1.3413376
33.74250598321054	1.8237872	1.3504766
33.760821465904506	1.9389589	1.392465
33.77913783696474	1.9379065	1.3920871
33.79745509698852	1.9389118	1.3924482
33.815773246573414	2.0254118	1.4231696
33.8340922863172	1.9878582	1.4099143
33.852412216817896	1.8610754	1.3642124
33.87073303867377	1.8708094	1.3677753
33.889054752483304	1.9743141	1.4051028
33.907377358845245	1.9754797	1.4055176
33.92570085835853	1.9496682	1.3963052
33.94402525162239	1.9096445	1.3818989
33.96235053923627	1.8272055	1.3517417
33.980676721799824	1.8190553	1.3487235
33.999003799912984	1.8419391	1.3571806
34.01733177417592	1.8833305	1.3723449
34.03566064518901	1.8702935	1.3675867
34.0539904135529	1.8274653	1.3518378
34.07232107986846	1.8836234	1.3724515
34.090652644736785	1.9714917	1.4040982
34.108985108759235	1.9636166	1.401291
34.12731847253742	1.886196	1.3733885
34.14565273667313	1.8737938	1.3688658
34.16398790176847	1.8109123	1.3457015
34.18232396842574	1.7729657	1.3315276
34.20066093724749	1.7660282	1.3289199
34.21899880883651	1.808982	1.344984
34.23733758379583	1.8531241	1.361295
34.25567726272874	1.8712444	1.3679343
34.27401784623872	1.8063179	1.3439933
34.29235933492957	1.7257054	1.3136611
34.31070172940526	1.7187747	1.3110205
34.32904503027003	1.8701543	1.3675358
34.347389238128386	2.041383	1.4287697
34.36573435358502	2.0371392	1.4272839
34.38408037724492	1.9863528	1.4093803
34.402427309713296	1.9775666	1.4062598
34.42077515159559	2.084891	1.4439152
34.43912390349752	2.0435567	1.4295303
34.45747356602499	1.9954189	1.412593
34.47582413978423	1.8824571	1.3720267
34.49417562538163	1.7722871	1.3312727
34.51252802342388	1.7749965	1.3322899
34.53088133451789	1.9423286	1.3936745
34.54923555927084	2.0297816	1.4247041
34.567590698290104	1.9554731	1.3983823
34.58594675218336	1.8575339	1.3629137
34.6043037215585	1.9407569	1.3931105
34.62266160702365	2.0265353	1.4235643
34.641020409187234	1.9053222	1.3803341
34.65938012865785	1.903326	1.3796108
34.677740766044394	1.9594665	1.3998095
34.69610232195598	1.9256678	1.3876843
34.714464797002016	1.8423485	1.3573314
34.73282819179208	1.891739	1.3754051
34.751192506936064	1.9227763	1.3866421
34.76955774304408	1.7420962	1.3198849
34.7879239007265	1.6190425	1.272416
34.80629098059391	1.9030243	1.3795015
34.824658983257194	2.205167	1.4849805
34.843027909327446	1.9619882	1.4007099
34.86139775941603	1.9025741	1.3793383
34.879768534134534	2.0993378	1.4489092
34.89814023409483	2.129622	1.4593225
34.91651285990901	2.0435774	1.4295375
34.93488641218944	2.042675	1.4292219
34.95326089154871	2.1430683	1.4639223
34.97163629859967	2.1590204	1.4693606
34.99001263395542	1.9544089	1.3980018
35.00838989822934	1.8512766	1.3606163
35.02676809203499	1.9123269	1.3828691
35.04514721598624	2.0721226	1.4394869
35.063527270697215	2.1977353	1.4824761
35.081908256782256	2.0289469	1.424411
35.10029017485597	1.8351134	1.3546636
35.11867302553321	1.8176185	1.3481908
35.137056809429104	1.8668987	1.366345
35.155441527159006	1.8633986	1.3650635
35.173827179338524	1.878743	1.3706725
35.19221376658354	1.9600905	1.4000323
35.21060128951017	2.0633237	1.4364275
35.2289897487348	2.1630855	1.4707432
35.24737914487405	2.0448413	1.4299794
35.26576947854479	1.9270462	1.3881809
35.28416075036418	2.0444002	1.4298252
35.30255296094958	2.2360134	1.4953306
35.32094611091867	2.4004178	1.5493282
35.33934020088932	2.420246	1.5557139
35.35773523147969	2.0000703	1.4142385
35.3761312033082	1.9176719	1.3848003
35.394528116993506	2.0092013	1.417463
35.41292597315452	2.223808	1.4912438
35.431324772410434	2.2204435	1.4901153
35.449724515380666	2.0349238	1.4265076
35.46812520268491	1.8211927	1.3495158
35.486526834943106	2.003488	1.4154463
35.504929412775454	2.2369566	1.4956459
35.52333293680242	2.403912	1.5504555
35.54173740764471	2.6877918	1.6394486
35.560142825923286	2.749051	1.6580262
35.5785491922594	2.1727612	1.474029
35.59695650727454	1.8060912	1.3439089
35.61536477159042	1.9848942	1.4088627
