0.008763373481513119	0.3822274	0.6182454
0.026290120649546365	0.19633481	0.44309685
0.043816868432600686	0.13175425	0.36297968
0.06134361724069026	0.07935561	0.2817013
0.07887036748382949	0.14333975	0.37860236
0.0963971195720331	0.11851114	0.34425446
0.11392387391531617	0.12433175	0.35260707
0.1314506309236943	0.050638713	0.22503047
0.1489773910071836	0.0737496	0.27156878
0.16650415457580078	0.107930824	0.32852826
0.18403092203956356	0.2131263	0.46165603
0.20155769380849	0.24372558	0.49368572
0.2190844702925996	0.23791175	0.48776197
0.2366112519019124	0.19140859	0.43750268
0.2541380390464497	0.1424744	0.3774578
0.27166483213623416	0.20384048	0.45148697
0.28919163158128947	0.23612349	0.4859254
0.3067184377916406	0.26744387	0.51714975
0.324245251177314	0.21457586	0.46322334
0.34177207214833777	0.20955458	0.45777133
0.3592989011147415	0.2460897	0.4960743
0.37682573848655654	0.22913684	0.4786824
0.39435258467381573	0.19698215	0.4438267
0.41187944008655414	0.17873195	0.422767
0.42940630513480854	0.16185386	0.40231067
0.446933180228618	0.19091888	0.43694264
0.4644600657780234	0.25610188	0.5060651
0.48198696219306775	0.26497084	0.51475316
0.49951386988379676	0.23320957	0.48291776
0.5170407892602581	0.19940914	0.44655252
0.5345677207325025	0.15791704	0.39738777
0.5520946647105822	0.1449358	0.38070434
0.5696216216045534	0.1126865	0.33568808
0.5871485918244737	0.13184442	0.36310387
0.6046755757804043	0.14452744	0.38016763
0.6222025738824094	0.14014348	0.37435743
0.6397295865405557	0.14200589	0.3768367
0.6572566141649129	0.16021419	0.40026763
0.6747836571655547	0.18776272	0.43331596
0.6923107159525568	0.1784662	0.4224526
0.7098377909359992	0.20151588	0.4489052
0.7273648825259653	0.23498376	0.48475122
0.7448919911325411	0.22610474	0.47550473
0.762419117165817	0.1715604	0.41419852
0.7799462610358868	0.17126699	0.41384417
0.7974734231528482	0.15947138	0.39933866
0.8150006039268024	0.18644205	0.43178937
0.8325278037678551	0.18435943	0.42937097
0.8500550230861152	0.18108962	0.42554626
0.8675822622916969	0.16566178	0.4070157
0.8851095217947171	0.15815125	0.39768234
0.9026368020052984	0.19476442	0.44132122
0.9201641033335665	0.21671431	0.46552584
0.9376914261896523	0.24877813	0.49877664
0.9552187709836915	0.2468987	0.49688902
0.9727461381258234	0.2370422	0.4868698
0.990273528026193	0.2522904	0.5022852
1.0078009410949496	0.24835768	0.49835497
1.0253283777422473	0.24053775	0.49044648
1.0428558383782454	0.25080448	0.5008038
1.0603833234131086	0.26033953	0.5102348
1.0779108332570058	0.3419795	0.5847901
1.0954383683201119	0.32990518	0.5743737
1.112965929012607	0.3794615	0.61600447
1.1304935157446763	0.4503839	0.67110646
1.1480211289265108	0.45327437	0.6732565
1.1655487689683062	1.3576212	1.1651701
1.1830764362802655	1.6895592	1.2998304
1.200604131272596	2.1967676	1.4821496
1.2181318543555117	2.4579053	1.5677708
1.235659605939232	2.4615698	1.5689391
1.253187386433982	3.9553597	1.9888086
1.270715196249994	6.316138	2.5131927
1.2882430357975057	11.7315645	3.425137
1.3057709054867608	16.198551	4.0247426
1.3232988057280106	21.794115	4.668417
1.3408267369315112	26.719755	5.1691155
1.358354699507526	30.222181	5.4974704
1.3758826938663256	34.174942	5.845934
1.3934107204181858	36.047424	6.0039506
1.410938779573391	36.443596	6.0368533
1.4284668717422309	37.106068	6.091475
1.4459949973350033	36.621365	6.051559
1.4635231567620117	36.54906	6.045582
1.4810513504335687	35.984123	5.998677
1.4985795787599925	35.176903	5.931012
1.5161078421516088	34.686012	5.889483
1.5336361410187505	34.02633	5.833209
1.5511644757717598	33.807133	5.81439
1.5686928468209842	34.435158	5.868148
1.58622125457678	35.518562	5.959745
1.6037496994495108	37.187927	6.0981903
1.621278181849548	37.04043	6.086085
1.6388067021872719	37.35879	6.112184
1.6563352608730693	36.39012	6.0324225
1.673863858317336	35.647266	5.9705334
1.6913924949304753	35.133602	5.9273605
1.7089211711228998	34.232082	5.850819
1.7264498873050296	33.84785	5.8178906
1.7439786438872935	33.127407	5.7556415
1.7615074412801288	31.968178	5.654041
1.779036279893981	31.284424	5.593248
1.796565160139305	29.933979	5.471195
1.814094082426564	29.476858	5.4292593
1.8316230471662298	28.645844	5.352181
1.849152054768784	27.945171	5.2863193
1.8666811056447168	27.46481	5.240688
1.8842102002045273	26.510178	5.1488037
1.901739338858724	25.920475	5.0912156
1.9192685220178245	25.231073	5.023054
1.9367977500923557	24.552507	4.9550486
1.9543270234928547	24.168951	4.9161925
1.971856342629867	23.560755	4.8539424
1.9893857079139496	23.146942	4.8111267
2.006915119755667	22.733519	4.767968
2.0244445785655945	22.314716	4.7238455
2.0419740847543175	21.899305	4.6796694
2.0595036387324317	21.24917	4.609682
2.0770332409105414	20.61468	4.540339
2.094562891699263	20.128332	4.486461
2.1120925915092217	19.573092	4.4241486
2.129622340751053	19.270582	4.3898273
2.1471521398354043	187.53993	13.694522
2.1646819891729323	443.8027	21.066626
2.182211889174303	440.1072	20.978733
2.1997418402501974	452.448	21.270824
2.2172718428113023	432.36365	20.793356
2.234801897268317	320.2576	17.895742
2.2523320040319548	16.55196	4.06841
2.269862163512935	16.37626	4.046759
2.287392376121992	16.319117	4.0396924
2.304922642269869	16.195002	4.0243015
2.322452962367322	15.907397	3.9884079
2.3399833368251164	15.34492	3.9172592
2.357513766054032	15.114	3.887673
2.3750442504648586	15.042046	3.8784077
2.3925747904683963	14.775322	3.843868
2.410105386475459	14.449259	3.801218
2.4276360388968707	13.989701	3.7402809
2.445166748143469	13.842136	3.7205021
2.4626975146261025	13.5928545	3.6868489
2.4802283387556323	13.459925	3.668777
2.4977592209429305	13.140864	3.625033
2.5152901615988825	12.822531	3.580856
2.5328211611343865	12.44203	3.527326
2.5503522199603523	12.081469	3.4758408
2.5678833384877024	12.058526	3.472539
2.5854145171273712	12.024834	3.4676843
2.6029457562903064	11.895541	3.4489913
2.620477056387469	11.694499	3.419722
2.6380084178298326	11.395969	3.3757915
2.655539841028383	11.362265	3.3707957
2.673071326394119	11.440699	3.3824103
2.6906028743380523	11.307912	3.3627238
2.708134485271211	11.1292515	3.3360534
2.7256661596046325	10.8266945	3.2903943
2.743197897749369	10.460539	3.2342756
2.760729700116486	10.151774	3.186185
2.778261567117063	9.959911	3.1559327
2.795793499162193	10.004741	3.163027
2.8133254966629817	10.051843	3.170464
2.830857560030551	9.890476	3.1449127
2.8483896896760337	9.725269	3.1185365
2.865921886010578	9.403906	3.0665789
2.883454149445347	9.235417	3.0389829
2.9009864803915177	9.107624	3.017884
2.91851887926028	8.94354	2.990575
2.9360513464628384	8.910122	2.9849827
2.953583882410413	8.700221	2.9496138
2.9711164875142373	8.665687	2.9437537
2.9886491621855606	8.629475	2.9375968
3.0061819068356455	8.557718	2.9253578
3.023714721875769	8.461535	2.908872
3.041247607717225	8.2838	2.878159
3.0587805647713213	7.987895	2.8262863
3.0763135934493806	7.950745	2.8197067
3.0938466941627407	7.9296126	2.8159568
3.1113798673227544	7.95411	2.8203032
3.1289131133407904	7.8464985	2.80116
3.1464464326282315	7.6606975	2.7677965
3.1639798255964786	7.6662655	2.7688022
3.1815132926569443	7.6112747	2.758854
3.1990468342210603	7.489727	2.7367365
3.216580450700272	7.400077	2.7203083
3.2341141425060416	7.2532005	2.6931767
3.251647910049847	7.2360077	2.689983
3.2691817537431813	7.123289	2.6689491
3.286715673997555	7.106261	2.6657572
3.3042496712244938	7.0304976	2.6515086
3.32178374583554	6.885648	2.6240518
3.339317898242251	6.8332095	2.6140409
3.3568521288562034	6.828279	2.6130977
3.3743864380889876	6.8140464	2.6103728
3.3919208263522127	6.723695	2.5930088
3.4094552940575023	6.631803	2.5752287
3.4269898416164972	6.5632586	2.5618858
3.444524469440858	6.4658837	2.5428102
3.4620591779422587	6.3052573	2.511027
3.479593967532391	6.2888355	2.507755
3.4971288386229658	6.3024125	2.5104606
3.5146637916257086	6.3589044	2.5216868
3.5321988269523628	6.360501	2.5220034
3.5497339450146903	6.3162484	2.5132148
3.5672691462244708	6.3214445	2.5142484
3.5848044309934988	6.243373	2.4986742
3.60233979973359	6.2192883	2.49385
3.619875252856575	6.1731024	2.484573
3.6374107907743034	6.137361	2.4773698
3.6549464138986427	6.1582236	2.481577
3.6724821226414788	6.1215467	2.474176
3.690017917414714	6.0872583	2.467237
3.7075537986302702	6.1188574	2.4736323
3.7250897667000857	6.1536174	2.4806485
3.7426258220361235	6.337617	2.5174625
3.7601619650503553	6.6844497	2.5854304
3.777698196154779	7.2629724	2.6949902
3.7952345157614067	8.281291	2.8777232
3.8127709242822716	9.134203	3.0222845
3.830307422129425	11.425638	3.3801832
3.847844009714936	30.241796	5.499254
3.8653806874508954	97.67877	9.883257
3.882917455749409	96.906845	9.844128
3.900454315022606	96.6728	9.832232
3.917991265682631	41.251457	6.42273
3.9355283081416506	10.841826	3.292693
3.9530654428118495	8.682876	2.946672
3.970602670105433	7.3963137	2.7196164
3.9881399904346244	6.4553604	2.54074
4.005677404211669	6.320354	2.5140314
4.023214911848827	6.302414	2.5104609
4.0407525137583855	6.2625976	2.5025182
4.058290210352644	6.302659	2.5105097
4.075828002043927	6.2466397	2.499328
4.0933658892445814	6.187038	2.4873757
4.110903872366966	6.054762	2.4606426
4.128441951823468	6.056625	2.4610212
4.145980128026488	6.0663776	2.4630017
4.163518401388452	6.1609826	2.4821327
4.181056772321807	6.124704	2.474814
4.1985952412390155	6.08714	2.467213
4.216133808552567	6.1181803	2.4734955
4.233672474674966	6.174876	2.4849298
4.251211240018741	6.409861	2.5317702
4.268750104996445	6.623597	2.573635
4.286289070020643	7.4558187	2.7305346
4.303828135503928	9.006379	3.001063
4.3213673018589125	29.317762	5.414588
4.3389065694982305	90.54333	9.515426
4.356445938834537	165.82787	12.877417
4.3739854102805085	170.97589	13.075775
4.391524984248844	171.83347	13.108526
4.409064661152262	135.93452	11.659096
4.426604441403504	96.37844	9.817252
4.444144325415337	75.66517	8.698573
4.461684313600543	21.644835	4.652401
4.47922440637193	21.988708	4.689212
4.496764604142329	20.175173	4.491678
4.5143049073245916	18.244448	4.271352
4.531845316331589	16.183453	4.0228662
4.5493858315762195	13.245031	3.6393723
4.566926453471405	11.066285	3.3266027
4.584467182430081	8.939984	2.9899807
4.602008018865218	7.952424	2.8200042
4.619548963189798	7.278477	2.6978652
4.637090015816834	6.848278	2.6169214
4.654631177159353	6.683254	2.5851989
4.672172447630417	6.451072	2.539896
4.689713827643102	6.2501225	2.5000246
4.7072553176105085	5.9463277	2.4385092
4.724796917945764	5.735352	2.3948596
4.742338629062015	5.6668315	2.3805108
4.759880451372434	5.60558	2.3676107
4.777422385290215	5.547025	2.3552125
4.794964431228581	5.5293894	2.3514655
4.812506589600768	5.5411744	2.3539698
4.830048860820047	5.6350565	2.3738275
4.847591245299709	5.580874	2.3623874
4.8651337434530655	5.461971	2.337086
4.882676355693457	5.368297	2.3169587
4.900219082434242	5.368232	2.3169446
4.917761924088813	5.485729	2.3421633
4.935304881070575	5.5434833	2.3544602
4.952847953792969	5.554886	2.3568804
4.970391142669449	5.4520974	2.3349726
4.9879344481135055	5.393088	2.3223023
5.005477870538642	5.383347	2.320204
5.023021410358394	5.4264555	2.3294754
5.040565067986324	5.3754845	2.318509
5.05810884383601	5.4136515	2.3267255
5.075652738321066	5.3876915	2.32114
5.09319675185512	5.4001956	2.323832
5.110740884851836	5.395946	2.3229175
5.128285137724894	5.3307643	2.3088448
5.145829510888007	5.2382517	2.2887228
5.163374004754908	5.22909	2.2867205
5.1809186197393595	5.2072954	2.28195
5.198463356255145	5.222201	2.2852135
5.216008214716077	5.187344	2.277574
5.233553195535998	5.1495504	2.269262
5.251098299128764	5.1209135	2.2629435
5.268643525908272	5.1034913	2.259091
5.286188876288432	5.1179404	2.2622867
5.3037343506831895	5.157847	2.2710893
5.32127994950651	5.194663	2.2791803
5.3388256731723915	5.1893306	2.2780101
5.356371522094851	5.1316676	2.2653184
5.373917496687938	5.1094007	2.2603984
5.391463597365729	5.143831	2.2680016
5.40900982454232	5.119195	2.2625637
5.426556178631843	5.082807	2.2545083
5.444102660048449	5.046833	2.2465158
5.4616492692063225	5.0688963	2.251421
5.479196006519669	5.0918746	2.2565184
5.496742872402727	5.0772147	2.2532675
5.514289867269756	5.0317473	2.2431557
5.531836991535049	5.0493646	2.2470791
5.549384245612924	5.0427513	2.2456071
5.566931629917724	5.026218	2.2419229
5.584479144863822	5.069864	2.2516358
5.6020267908656205	5.13086	2.26514
5.619574568337545	5.1568193	2.270863
5.637122477694054	5.094864	2.2571805
5.654670519349629	5.0402994	2.2450612
5.672218693718784	4.9940133	2.2347288
5.689767001216059	4.9903436	2.2339077
5.707315442256021	5.0070186	2.2376368
5.724864017253266	5.0138144	2.2391548
5.7424127266224225	4.99301	2.2345045
5.75996157077814	4.99686	2.2353656
5.777510550135105	4.9933167	2.2345731
5.795059665108022	5.062316	2.249959
5.812608916111639	5.1609793	2.2717788
5.830158303560715	5.222947	2.2853768
5.847707827870055	5.1776404	2.2754428
5.86525748945448	5.1889086	2.2779176
5.8828072887288485	5.3749948	2.3184035
5.900357226108044	5.5020456	2.345644
5.917907302006979	5.6372495	2.3742893
5.9354575168406	6.1910386	2.4881797
5.9530078710238765	6.809242	2.6094525
5.970558364971812	7.404243	2.7210739
5.988108999099438	7.8367734	2.7994237
6.005659773821818	8.502388	2.9158854
6.023210689554039	8.176448	2.859449
6.040761746711227	8.5317	2.9209075
6.058312945708531	7.848244	2.8014717
6.075864286961132	7.359953	2.7129233
6.093415770884244	6.6524024	2.579225
6.1109673978931065	6.0471725	2.4591
6.128519168402993	5.434858	2.331278
6.146071082829204	5.2886653	2.2997098
6.163623141587075	5.2128067	2.283157
6.181175345091969	5.1109147	2.2607331
6.198727693759281	5.103076	2.2589989
6.216280188004435	5.1066914	2.259799
6.233832828242885	5.0898805	2.2560763
6.251385614890126	5.172336	2.274277
6.268938548361669	5.1810374	2.2761893
6.286491629073067	5.1509895	2.2695792
6.304044857439898	5.080605	2.2540197
6.321598233877777	4.9671183	2.2287033
6.339151758802344	4.9866805	2.2330878
6.356705432629277	4.9754953	2.2305818
6.37425925577428	4.9904857	2.2339394
6.391813228653095	5.005858	2.2373774
6.409367351681486	4.9936514	2.234648
6.426921625275259	4.996523	2.2352903
6.44447604985025	5.0170536	2.239878
6.46203062582232	4.968159	2.2289367
6.47958535360737	4.926751	2.2196286
6.497140233621328	4.8784547	2.2087224
6.514695266280161	4.9186726	2.217808
6.532250451999859	5.0013866	2.236378
6.549805791196454	5.006849	2.237599
6.567361284286002	4.9878197	2.2333426
6.584916931684597	4.9756103	2.2306075
6.602472733808367	4.9750905	2.2304912
6.6200286910734665	4.9785337	2.231263
6.637584803896092	4.98622	2.2329845
6.655141072692462	5.020216	2.240584
6.672697497878842	5.0301714	2.2428043
6.690254079871514	4.995571	2.2350774
6.707810819086808	4.926014	2.2194626
6.725367715941078	4.8975096	2.2130318
6.742924770850719	4.8783402	2.2086966
6.760481984232151	4.9046865	2.2146528
6.778039356501836	4.9641323	2.2280333
6.795596888076266	5.042483	2.2455473
6.813154579371963	5.010502	2.238415
6.830712430805492	4.901752	2.21399
6.84827044279344	4.793914	2.1895008
6.865828615752445	4.7768536	2.1856015
6.883386950099159	4.9162683	2.2172658
6.900945446250287	4.995465	2.2350535
6.918504104622553	5.0666904	2.250931
6.936062925632727	5.068249	2.2512772
6.953621909697607	5.0229797	2.2412004
6.971181057234028	5.0288253	2.2425044
6.988740368658859	5.0289187	2.242525
7.006299844389007	5.0568867	2.2487524
7.023859484841407	5.165839	2.2728484
7.041419290433036	5.2632203	2.2941709
7.058979261580902	5.4029512	2.324425
7.0765393987020495	5.608511	2.3682294
7.094099702213559	5.9134526	2.431759
7.111660172532549	6.2316375	2.4963248
7.129220810076164	6.661976	2.5810804
7.146781615261595	7.26032	2.694498
7.16434258850606	7.569036	2.751188
7.181903730226821	7.923325	2.81484
7.1994650408411704	7.959863	2.821323
7.217026520766437	8.038906	2.8352964
7.234588170419983	8.272744	2.8762379
7.252149990219215	8.328149	2.8858533
7.269711980581568	8.282598	2.8779502
7.2872741419245175	8.125658	2.850554
7.304836474665574	7.769226	2.7873333
7.322398979222286	7.4466486	2.728855
7.339961656012233	7.200766	2.6834242
7.357524505453039	6.8384523	2.6150434
7.375087527962357	6.5371056	2.5567763
7.392650723957886	6.176118	2.4851797
7.410214093857353	5.799785	2.4082744
7.427777638078528	5.5835223	2.3629477
7.445341357039213	5.483728	2.341736
7.4629052511572525	5.4055324	2.32498
7.480469320850524	5.2875595	2.2994695
7.498033566536948	5.141326	2.2674491
7.5155979886344735	5.0541635	2.2481468
7.5331625875610975	5.036577	2.244232
7.550727363734844	5.129339	2.2648044
7.568292317573788	5.141899	2.2675755
7.585857449496025	5.1503296	2.2694337
7.603422759919705	5.0768976	2.2531972
7.620988249263007	5.069277	2.2515054
7.638553917944147	5.0566373	2.2486968
7.656119766381391	5.07788	2.253415
7.673685794993023	5.074212	2.2526011
7.691252004197388	5.0661907	2.25082
7.70881839441285	5.123775	2.2635758
7.726384966057826	5.1625037	2.2721143
7.743951719550762	5.2114496	2.28286
7.761518655310149	5.248837	2.291034
7.779085773754511	5.234826	2.287974
7.796653075302419	5.2562003	2.2926404
7.814220560372475	5.2658763	2.2947497
7.831788229383323	5.2647867	2.2945123
7.8493560827536495	5.2392993	2.2889516
7.866924120902174	5.2459435	2.2904024
7.884492344247663	5.2642727	2.2944002
7.9020607532089135	5.277568	2.2972958
7.919629348204771	5.3092117	2.3041728
7.937198129654115	5.28619	2.2991717
7.954767097975865	5.3313794	2.308978
7.972336253588986	5.3872423	2.3210433
7.989905596912472	5.37103	2.3175483
8.007475128365371	5.3546786	2.3140178
8.025044848366756	5.2857943	2.2990856
8.042614757335754	5.372373	2.317838
8.060184855691523	5.463636	2.3374422
8.07775514385327	5.596983	2.3657944
8.095325622240228	5.6515956	2.3773084
8.112896291271687	5.718186	2.3912728
8.130467151366968	5.7894588	2.4061294
8.148038202945436	5.82252	2.4129899
8.165609446426497	5.7891183	2.4060585
8.183180882229594	5.803894	2.4091272
8.200752510774217	5.8169804	2.4118416
8.218324332479893	5.8600235	2.4207485
8.235896347766193	5.86524	2.421826
8.253468557052724	5.900045	2.4290009
8.27104096075914	5.929152	2.434985
8.288613559305137	5.966844	2.4427125
8.306186353110448	6.0689125	2.4635162
8.32375934259485	6.121167	2.4740992
8.341332528178162	6.134841	2.476861
8.358905910280246	6.1813993	2.486242
8.376479489321003	6.157652	2.4814618
8.394053265720377	6.214966	2.4929833
8.411627239898356	6.207901	2.491566
8.42920141227497	6.2113414	2.4922562
8.44677578327029	6.2539945	2.5007987
8.464350353304427	6.207627	2.4915109
8.48192512279754	6.155313	2.4809904
8.499500092169827	6.1769743	2.485352
8.51707526184153	6.159401	2.4818141
8.534650632232934	6.195456	2.4890673
8.552226203764365	6.208389	2.491664
8.569801976856192	6.2327003	2.4965377
8.587377951928834	6.195107	2.4889972
8.60495412940274	6.2018185	2.490345
8.622530509698416	6.1678534	2.4835162
8.6401070932364	6.333922	2.5167284
8.657683880437283	6.4639597	2.5424318
8.675260871721695	6.628677	2.5746217
8.692838067510303	6.7288632	2.5940053
8.710415468223834	6.794681	2.6066608
8.727993074283043	6.908937	2.6284857
8.745570886108737	6.967372	2.639578
8.763148904121765	7.0311184	2.6516256
8.78072712874302	7.026399	2.6507356
8.798305560393441	7.2260365	2.6881287
8.815884199494006	7.44962	2.7293992
8.833463046465745	7.682897	2.7718039
8.851042101729728	7.810401	2.7947094
8.86862136570707	8.02141	2.8322093
8.886200838818924	8.13542	2.8522658
8.903780521486505	8.125008	2.8504398
8.921360414131055	8.225839	2.8680723
8.938940517173874	8.415036	2.9008682
8.956520831036297	8.6633215	2.943352
8.97410135613971	8.960638	2.9934325
8.99168209290554	9.068764	3.0114388
9.009263041755265	9.320562	3.0529597
9.026844203110405	9.494889	3.0813777
9.044425577392525	9.719805	3.11766
9.062007165023239	9.77257	3.126111
9.079588966424197	10.137485	3.1839416
9.097170982017108	10.266328	3.204111
9.11475321222372	11.292764	3.3604708
9.132335657465825	12.165346	3.4878857
9.149918318165264	12.324073	3.510566
9.167501194743924	12.943189	3.5976644
9.18508428762374	12.619035	3.552328
9.202667597226693	12.582325	3.5471573
9.220251123974803	12.3484745	3.5140395
9.237834868290143	12.044947	3.470583
9.255418830594836	11.7097225	3.4219472
9.273003011311046	11.224512	3.3503003
9.290587410860985	11.05282	3.3245783
9.308172029666911	10.488333	3.2385695
9.32575686815113	10.194002	3.1928048
9.343341926735997	8.813056	2.9686792
9.360927205843916	8.498919	2.9152904
9.378512705897327	8.235959	2.869836
9.396098427318728	7.9331384	2.8165827
9.413684370530664	7.816433	2.7957885
9.431270535955722	7.8015523	2.7931259
9.448856924016539	7.7795787	2.7891896
9.466443535135806	7.7046494	2.7757251
9.484030369736251	7.680445	2.7713616
9.501617428240658	7.713257	2.777275
9.519204711071852	7.696149	2.7741933
9.536792218652714	7.676163	2.7705889
9.55437995140617	7.6470284	2.765326
9.571967909755191	7.6776056	2.7708492
9.589556094122802	7.7123837	2.777118
9.60714450493207	7.7589703	2.785493
9.624733142606116	7.7966547	2.792249
9.642322007568108	7.9150257	2.8133655
9.659911100241267	7.957212	2.820853
9.677500421048851	7.9893565	2.826545
9.695089970414175	7.970401	2.8231897
9.712679748760609	7.938697	2.8175693
9.730269756511557	7.9353595	2.816977
9.747859994090492	8.001704	2.8287284
9.765450461920915	8.0262985	2.8330722
9.78304116042639	8.077602	2.8421123
9.800632090030527	8.116504	2.8489478
9.81822325115699	8.153869	2.855498
9.835814644229481	8.160056	2.8565812
9.853406269671762	8.241479	2.8707976
9.870998127907646	8.244339	2.8712957
9.888590219360985	8.276794	2.876942
9.906182544455698	8.218509	2.866794
9.923775103615734	8.16119	2.8567796
9.941367897265108	8.172374	2.8587363
9.958960925827878	8.183327	2.8606515
9.97655418972816	8.274734	2.8765836
9.994147689390106	8.261615	2.8743024
10.011741425237934	8.238233	2.870232
10.029335397695904	8.162162	2.8569498
10.04692960718833	8.100197	2.8460844
10.06452405413958	8.125365	2.8505027
10.082118738974064	8.1720705	2.8586833
10.099713662116246	8.250538	2.872375
10.117308823990651	8.3065	2.8821
10.134904225021844	8.3610115	2.8915415
10.152499865634445	8.270876	2.8759131
10.170095746253125	8.144696	2.8538914
10.18769186730261	8.089001	2.844117
10.205288229207675	8.124189	2.8502963
10.222884832393145	8.141785	2.8533812
10.2404816772839	8.156287	2.8559215
10.258078764304868	8.132192	2.8516998
10.275676093881035	8.141154	2.8532708
10.293273666437438	8.091308	2.8445225
10.310871482399158	8.103259	2.8466225
10.32846954219134	8.023998	2.8326664
10.346067846239173	8.009402	2.8300889
10.363666394967908	7.9769335	2.8243465
10.38126518880283	8.002285	2.828831
10.398864228169298	7.988886	2.8264618
10.416463513492713	7.9939466	2.8273568
10.434063045198531	8.021515	2.832228
10.451662823712262	8.085317	2.8434691
10.469262849459467	8.13868	2.8528373
10.486863122865758	8.003554	2.8290553
10.504463644356806	7.9481425	2.819245
10.522064414358338	7.84689	2.8012302
10.539665433296118	7.841864	2.8003328
10.557266701595987	7.718206	2.7781658
10.574868219683818	7.6634593	2.7682953
10.592469987985552	7.5685244	2.751095
10.610072006927185	7.5475626	2.7472827
10.627674276934751	7.4415984	2.7279294
10.64527679843435	7.314973	2.7046206
10.662879571852143	7.1616826	2.676132
10.680482597614331	7.0981426	2.664234
10.698085876147173	7.0835133	2.661487
10.715689407876988	6.9525084	2.636761
10.733293193230146	6.8678455	2.6206574
10.750897232633072	6.710771	2.5905156
10.76850152651225	6.593711	2.5678222
10.786106075294207	6.5211673	2.5536575
10.803710879405534	6.3853054	2.5269163
10.821315939272877	6.2905655	2.5081
10.83892125532294	6.199777	2.4899352
10.856526827982472	6.1682305	2.4835923
10.874132657678285	6.2094493	2.4918766
10.891738744837243	6.1844797	2.4868615
10.909345089886271	6.149708	2.4798605
10.926951693252343	6.078012	2.4653625
10.944558555362494	6.00338	2.4501796
10.96216567664381	5.945801	2.4384012
10.979773057523436	5.863715	2.421511
10.997380698428573	5.771153	2.4023225
11.014988599786477	5.669895	2.381154
11.032596762024461	5.565833	2.359202
11.050205185569892	5.473686	2.339591
11.067813870850198	5.4276533	2.3297324
11.085422818292859	5.3852916	2.3206232
11.10303202832541	5.3566666	2.3144474
11.120641501375454	5.3421707	2.3113136
11.138251237870636	5.2885146	2.2996771
11.155861238238671	5.2339387	2.2877803
11.173471502907317	5.164201	2.2724879
11.191082032304402	5.1055446	2.2595453
11.208692826857805	5.02056	2.2406607
11.226303886995465	4.9937387	2.2346675
11.243915213145371	4.965393	2.2283163
11.261526805735578	4.9093156	2.2156975
11.279138665194196	4.8385873	2.199679
11.296750791949393	4.7674785	2.1834557
11.314363186429393	4.69425	2.166622
11.331975849062479	4.645306	2.1552973
11.34958878027699	4.626404	2.1509078
11.36720198050133	4.6081357	2.1466568
11.384815450163948	4.578929	2.1398432
11.402429189693366	4.5311666	2.1286538
11.420043199518153	4.414182	2.1009955
11.437657480066942	63.341465	7.958735
11.455272031768422	85.045975	9.222037
11.472886855051353	107.481514	10.36733
11.490501950344528	99.10741	9.955271
11.508117318076819	84.456985	9.190048
11.52573295867715	45.82319	6.769283
11.543348872574514	4.135683	2.033638
11.560965060197946	4.1171727	2.0290818
11.57858152197655	4.113485	2.0281727
11.59619825833949	4.0422173	2.0105267
11.613815269715985	3.9666362	1.9916415
11.631432556535323	38.46171	6.2017508
11.649050119226837	82.98551	9.109638
11.666667958219929	93.39547	9.664133
11.68428607394406	107.657425	10.37581
11.701904466828756	82.43664	9.079462
11.719523137303586	65.28389	8.079844
11.737142085798196	4.531186	2.1286583
11.754761312742286	3.6754525	1.9171469
11.772380818565619	3.605419	1.898794
11.790000603698015	3.5485034	1.8837472
11.80762066856935	3.4621189	1.860677
11.825241013609572	3.4636693	1.8610935
11.842861639248683	3.419308	1.8491371
11.860482545916748	3.4051883	1.8453152
11.878103734043883	3.3877585	1.8405864
11.895725204060282	3.3705416	1.8359035
11.91334695639619	3.3419373	1.8280966
11.930968991481919	3.332835	1.8256054
11.948591309747824	3.3125856	1.820051
11.966213911624347	3.270016	1.8083185
11.98383679754198	3.245646	1.8015677
12.001459967931268	3.2158847	1.7932888
12.019083423222835	3.2269113	1.7963606
12.036707163847352	3.2064564	1.7906581
12.05433119023556	3.2350783	1.7986324
12.071955502818259	3.2187588	1.7940899
12.089580102026313	3.1675227	1.7797536
12.107204988290643	3.1300433	1.7691928
12.12483016204224	3.12014	1.7663919
12.142455623712152	3.1376464	1.7713403
12.16008137373149	3.1404152	1.7721217
12.177707412531431	3.129878	1.7691461
12.19533374054321	3.0815492	1.7554342
12.212960358198126	3.028811	1.740348
12.230587265927545	3.0029962	1.7329155
12.248214464162889	3.0034664	1.7330512
12.265841953335649	3.0153852	1.7364864
12.283469733877375	2.9797769	1.726203
12.301097806219685	2.964151	1.721671
12.31872617079425	2.8939087	1.7011492
12.336354828032825	2.8825028	1.6977935
12.353983778367205	2.837765	1.6845667
12.371613022229262	2.8430731	1.6861415
12.389242560050928	2.840133	1.6852694
12.406872392264201	2.824996	1.6807724
12.424502519301143	2.828998	1.6819626
12.442132941593874	2.8040347	1.6745253
12.459763659574586	2.7964416	1.6722565
12.477394673675532	2.7941415	1.6715686
12.49502598432903	2.7901301	1.6703683
12.51265759196746	2.8152204	1.6778618
12.530289497023267	2.8240895	1.6805028
12.547921699928967	2.8130414	1.6772124
12.565554201117134	2.8100805	1.6763295
12.583187001020404	2.7818952	1.6679014
12.600820100071486	2.7565548	1.6602876
12.618453498703152	2.7069144	1.6452703
12.636087197348235	2.6728897	1.6348975
12.65372119643964	2.67184	1.6345764
12.671355496410326	2.6926694	1.6409355
12.68899009769333	2.7855754	1.6690043
12.706625000721749	2.850374	1.688305
12.724260205928752	2.9162014	1.7076889
12.741895713747551	2.9690318	1.7230879
12.759531524611454	3.0049772	1.733487
12.777167638953818	2.9932895	1.7301126
12.794804057208072	2.9688346	1.7230307
12.812440779807702	3.0064812	1.7339207
12.830077807186271	3.1757789	1.7820715
12.847715139777405	3.1741567	1.7816163
12.865352778014795	3.3379135	1.8269957
12.882990722332197	3.442911	1.8555082
12.90062897316344	3.534341	1.8799844
12.918267530942412	3.6742754	1.91684
12.935906396103071	3.5784643	1.8916829
12.953545569079449	3.712942	1.9268996
12.971185050305628	3.526735	1.8779603
12.988824840215775	3.5829196	1.8928602
13.006464939244115	3.615643	1.9014844
13.024105347824943	3.482484	1.8661416
13.041746066392617	3.5603008	1.886876
13.05938709538157	3.3640847	1.8341441
13.077028435226296	3.376888	1.8376311
13.094670086361363	3.295194	1.8152668
13.112312049221401	3.1893861	1.7858852
13.129954324241112	3.0563147	1.7482319
13.147596911855258	2.8319077	1.6828274
13.165239812498685	2.7853527	1.6689376
13.182883026606293	2.7648275	1.6627771
13.200526554613058	2.7165442	1.6481942
13.218170396954017	2.6994064	1.642987
13.235814554064284	2.6681595	1.6334502
13.253459026379034	2.6857889	1.6388377
13.271103814333523	2.6930928	1.6410645
13.288748918363058	2.6703625	1.6341244
13.306394338903031	2.6489067	1.6275462
13.32404007638889	2.6364515	1.6237153
13.341686131256164	2.6408522	1.6250699
13.359332503940449	2.6407945	1.6250522
13.376979194877402	2.6030455	1.6133957
13.394626204502751	2.6438487	1.6259916
13.412273533252307	2.6948864	1.641611
13.429921181561937	2.690201	1.6401832
13.447569149867581	2.6929889	1.6410328
13.465217438605247	2.6656787	1.6326907
13.482866048211022	2.6450164	1.6263506
13.500514979121052	2.65076	1.6281154
13.518164231771568	2.614087	1.6168139
13.535813806598844	2.6455994	1.6265298
13.553463704039254	2.6620803	1.6315882
13.571113924529229	2.6614268	1.631388
13.588764468505275	2.6685867	1.6335809
13.606415336403956	2.6884048	1.6396356
13.624066528661917	2.7137413	1.6473438
13.641718045715882	2.7840376	1.6685436
13.659369888002635	2.8210974	1.6796123
13.67702205595903	2.8820095	1.6976483
13.694674550021993	2.9856977	1.7279172
13.712327370628532	3.071994	1.7527105
13.729980518215713	3.1429589	1.7728392
13.747633993220681	3.1794515	1.7831017
13.765287796080647	3.2254567	1.7959557
13.7829419272329	3.3086693	1.8189749
13.800596387114801	3.3578718	1.8324497
13.818251176163775	3.3686044	1.8353758
13.835906294817324	3.360311	1.8331151
13.853561743513023	3.359635	1.8329308
13.871217522688525	3.4161193	1.8482747
13.888873632781538	3.4772625	1.8647419
13.906530074229858	3.513888	1.8745368
13.92418684747135	3.520391	1.8762705
13.941843952943948	3.517823	1.875586
13.959501391085665	3.47994	1.8654597
13.977159162334578	3.371077	1.8360493
13.994817267128846	3.3069692	1.8185074
14.012475705906693	3.258748	1.8052003
14.030134479106424	3.2053866	1.7903594
14.047793587166414	3.1246922	1.7676799
14.065453030525108	3.0564296	1.7482648
14.083112809621026	3.007808	1.7343034
14.100772924892766	2.947473	1.7168206
14.118433376778997	2.8785558	1.6966307
14.136094165718458	2.8135066	1.6773511
14.153755292149969	2.7813697	1.6677439
14.171416756512416	2.7110174	1.6465167
14.189078559244768	2.6383889	1.6243118
14.20674070078606	2.5601857	1.6000581
14.224403181575408	2.4988723	1.5807822
14.242066002051999	2.488778	1.5775862
14.259729162655093	2.472276	1.5723473
14.277392663824022	2.4404275	1.5621868
14.295056505998208	2.405625	1.5510077
14.312720689617128	2.4017131	1.5497462
14.330385215120348	2.3696175	1.5393562
14.348050082947497	2.3477204	1.5322273
14.3657152935383	2.346338	1.5317761
14.383380847332528	2.395022	1.5475858
14.401046744770051	2.3947086	1.5474846
14.418712986290798	2.402258	1.5499219
14.436379572334793	2.3786201	1.5422776
14.454046503342123	2.3595521	1.5360833
14.471713779752946	2.3194	1.5229577
14.489381402007504	2.3069103	1.5188516
14.507049370546113	2.3143942	1.5213133
14.524717685809168	2.3302875	1.5265279
14.542386348237134	2.3413901	1.5301602
14.560055358270553	2.3670392	1.5385185
14.577724716350051	2.3835344	1.54387
14.595394422916325	2.4152486	1.5541071
14.61306447841015	2.483899	1.5760391
14.63073488327237	2.5197935	1.5873858
14.648405637943917	2.4984214	1.5806396
14.6660767428658	2.4541428	1.5665704
14.683748198479094	2.4450002	1.5636497
14.701420005224954	2.4959743	1.5798653
14.719092163544628	2.570922	1.6034094
14.73676467387942	2.633428	1.622784
14.754437536670727	2.6503537	1.6279907
14.772110752360014	2.6413124	1.6252115
14.78978432138882	2.6352308	1.6233394
14.807458244198777	2.666064	1.6328087
14.82513252123159	2.6383796	1.624309
14.842807152929028	2.6333344	1.6227552
14.860482139732962	2.597659	1.6117254
14.87815748208531	2.6123064	1.616263
14.8958331804281	2.636901	1.6238537
14.91350923520342	2.6494398	1.62771
14.931185646853438	2.675547	1.6357099
14.948862415820408	2.6528757	1.6287651
14.966539542546656	2.678996	1.6367639
14.98421702747459	2.6527715	1.628733
15.001894871046696	2.6701193	1.63405
15.019573073705542	2.6648567	1.6324389
15.037251635893766	2.661529	1.6314193
15.054930558054092	2.6627445	1.6317918
15.072609840629323	2.7236104	1.6503365
15.090289484062351	2.8569984	1.6902658
15.107969488796124	3.1280606	1.7686324
15.125649855273691	3.496345	1.8698516
15.14333058393817	3.958876	1.9896924
15.161011675232768	4.881626	2.2094402
15.17869312960076	6.2404776	2.4980948
15.196374947485506	8.071667	2.8410678
15.214057129330447	11.035524	3.321976
15.231739675579114	15.841254	3.9801073
15.249422586675102	21.109158	4.5944705
15.267105863062092	24.551847	4.9549823
15.284789505183847	25.119947	5.0119805
15.302473513484218	23.252327	4.822067
15.320157888407127	19.643738	4.4321256
15.337842630396578	15.273695	3.9081576
15.355527739896656	11.792307	3.4339929
15.37321321735153	9.120855	3.0200753
15.39089906320545	6.5583196	2.5609217
15.408585277902748	4.888776	2.2110577
15.42627186188783	3.7164345	1.9278057
15.443958815605198	3.1351147	1.7706255
15.461646139499424	2.843531	1.6862773
15.479333834015168	2.6814425	1.637511
15.497021899597165	2.6065624	1.6144851
15.514710336690234	2.5640657	1.6012701
15.53239914573928	2.5026333	1.5819713
15.550088327189297	2.4932232	1.5789944
15.567777881485336	2.4722269	1.5723317
15.58546780907256	2.4890862	1.5776838
15.6031581103962	2.467642	1.570873
15.620848785901568	2.4445238	1.5634973
15.638539836034063	2.4311686	1.5592206
15.656231261239173	2.3864138	1.5448022
15.673923061962451	2.3463647	1.5317848
15.691615238649552	2.3323078	1.5271895
15.709307791746202	2.3319616	1.5270761
15.727000721698221	2.3744688	1.5409311
15.744694028951498	2.4107804	1.5526688
15.76238771395202	2.375291	1.5411979
15.780081777145844	2.348244	1.5323981
15.797776218979125	2.3178537	1.5224499
15.815471039898094	2.3301928	1.5264969
15.833166240349064	2.345261	1.5314245
15.850861820778437	2.3503153	1.5330738
15.868557781632699	2.337844	1.529001
15.886254123358412	2.355014	1.5346055
15.903950846402232	2.3515337	1.5334711
15.921647951210897	2.3256404	1.5250051
15.939345438231225	2.3254857	1.5249543
15.957043307910133	2.321503	1.5236479
15.974741560694602	2.321753	1.5237299
15.992440197031714	2.3034081	1.5176983
16.01013921736862	2.3188956	1.522792
16.02783862215259	2.3226695	1.5240307
16.045538411830933	2.312713	1.5207607
16.06323858685107	2.3386657	1.5292697
16.080939147660512	2.3438187	1.5309535
16.09864009470684	2.358461	1.5357281
16.11634142843774	2.3739522	1.5407635
16.134043149300954	2.4347677	1.5603743
16.15174525774433	2.4341583	1.560179
16.169447754215817	2.4146	1.5538983
16.18715063916342	2.430947	1.5591495
16.204853913035244	2.42227	1.5563644
16.222557576279478	2.4235094	1.5567625
16.240261629344403	22.364975	4.729162
16.257966072678386	42.966824	6.5549083
16.275670906729868	38.114147	6.1736655
16.293376131947387	2.562056	1.6006424
16.31108174877957	2.5293849	1.590404
16.328787757675133	2.5205412	1.5876212
16.34649415908287	2.5537803	1.5980551
16.364200953451657	2.5537553	1.5980474
16.38190814123048	2.5537143	1.5980345
16.39961572286839	2.5764601	1.6051356
16.41732369881455	2.6336045	1.6228384
16.43503206951817	2.6751864	1.6355997
16.45274083542859	2.7425678	1.65607
16.47044999699522	2.7876618	1.6696292
16.488159554667558	2.8324256	1.6829811
16.505869508895184	2.8269107	1.6813419
16.523579860127786	2.8450205	1.6867188
16.541290608815117	2.9152076	1.7073979
16.559001755407035	2.9758894	1.7250767
16.57671330035348	2.9884267	1.7287066
16.59442524410448	3.0417073	1.7440491
16.61213758711015	3.1121278	1.7641224
16.629850329820705	3.2034807	1.789827
16.647563472686436	3.3156025	1.8208796
16.665277016157724	3.397093	1.8431205
16.682990960685053	3.43919	1.8545053
16.70070530671898	3.4426718	1.8554438
16.718420054710155	3.4876587	1.8675275
16.736135205109335	3.5279937	1.8782954
16.753850758367335	3.550367	1.8842418
16.771566714935087	3.601542	1.8977729
16.789283075263597	3.70332	1.9244012
16.80699983980398	3.7784991	1.9438362
16.82471700900741	3.8538034	1.9631107
16.84243458332518	3.9253416	1.9812475
16.860152563208665	4.0160103	2.0039985
16.87787094910932	4.060613	2.0150964
16.89558974147871	4.0833898	2.0207398
16.913308940768466	4.138882	2.0344243
16.931028547430333	4.2261047	2.0557492
16.94874856191613	4.2870812	2.0705268
16.966468984677785	4.331736	2.0812824
16.98418981616729	4.391824	2.0956678
17.00191105683676	4.3998027	2.0975707
17.019632707138374	4.4494143	2.1093636
17.03735476752442	4.4853077	2.1178546
17.05507723844728	4.5261445	2.1274738
17.072800120359403	4.539547	2.1306212
17.090523413713353	4.5174522	2.1254299
17.108247118961785	4.5986834	2.144454
17.125971236557437	4.6087418	2.1467981
17.143695766953133	4.617016	2.1487243
17.161420710601806	4.6028266	2.1454198
17.179146067956477	4.6221037	2.1499078
17.19687183947025	4.6306067	2.1518846
17.21459802559634	4.649355	2.1562362
17.232324626788028	4.648878	2.1561258
17.25005164349871	4.6640525	2.1596417
17.267779076181863	4.6490498	2.1561656
17.285506925291074	4.6483264	2.1559978
17.30323519127999	4.6278343	2.15124
17.320963874602384	4.5748134	2.1388814
17.33869297571211	4.4694386	2.1141047
17.356422495063114	4.4074187	2.0993853
17.37415243310944	4.3883677	2.0948431
17.391882790305218	4.3640842	2.089039
17.40961356710468	4.35203	2.0861518
17.42734476396215	4.406049	2.099059
17.445076381332044	4.4378138	2.106612
17.462808419668868	4.530105	2.1284044
17.48054087942723	4.5716424	2.13814
17.498273761061835	4.852547	2.2028499
17.51600706502747	5.3284183	2.3083367
17.533740791779024	6.030798	2.4557683
17.551474941771485	7.44224	2.728047
17.56920951545993	8.533648	2.9212408
17.586944513299528	10.815238	3.288653
17.60467993574556	12.630169	3.553895
17.622415783253373	14.608244	3.8220732
17.64015205627843	16.267311	4.0332756
17.657888755276293	17.498693	4.183144
17.675625880702604	18.128162	4.257718
17.69336343301311	17.96607	4.2386403
17.71110141266366	16.99367	4.122338
17.728839820110178	15.818619	3.9772627
17.746578655808705	14.622909	3.8239913
17.764317920215372	13.008271	3.606698
17.7820576137864	11.374024	3.3725398
17.79979773697811	9.249357	3.0412755
17.81753829024692	7.345834	2.7103198
17.835279274049356	5.6851172	2.3843484
17.85302068884201	4.7273674	2.174251
17.870762535081607	4.117065	2.029055
17.888504813224934	3.7780137	1.9437113
17.90624752372891	3.670053	1.9157382
17.923990667050536	3.5580645	1.8862833
17.941734243646895	3.4916837	1.8686048
17.959478253975185	3.39707	1.8431141
17.9772226984927	3.3690157	1.8354878
17.994967577656833	3.3894129	1.8410358
18.01271289192506	3.375837	1.8373451
18.030458641754965	3.3702583	1.8358263
18.04820482760425	3.2802732	1.8111525
18.06595144993067	3.252866	1.8035704
18.083698509192125	3.2488859	1.8024666
18.101446005846576	3.2715895	1.8087536
18.119193940352105	3.268823	1.8079886
18.136942313166887	3.24707	1.8019629
18.1546911247492	3.2173405	1.7936946
18.1724403755574	3.174832	1.7818059
18.19019006604997	3.1491513	1.7745849
18.207940196685467	3.0883574	1.7573723
18.225690767922575	3.0335004	1.7416947
18.243441780220046	2.999106	1.7317927
18.261193234036764	3.0167253	1.7368723
18.278945129831676	2.9801111	1.7262999
18.29669746806386	2.9828343	1.7270885
18.314450249192483	2.9884033	1.7286999
18.3322034736768	3.0021663	1.732676
18.349957141976184	2.986356	1.7281077
18.3677112545501	3.007268	1.7341477
18.385465811858108	3.0361965	1.7424685
18.403220814359884	3.030083	1.7407134
18.420976262515172	3.067393	1.7513975
18.43873215678387	3.1222954	1.7670017
18.456488497625923	3.171465	1.7808608
18.474245285501407	3.2512136	1.8031121
18.492002520870486	3.2750502	1.80971
18.50976020419343	3.3116105	1.8197831
18.527518335930615	3.601446	1.8977476
18.545276916542516	4.192548	2.0475712
18.563035946489688	4.3180847	2.078
18.580795426232832	4.7025065	2.1685264
18.598555356232698	4.629606	2.1516519
18.616315736950185	4.999952	2.2360573
18.63407656884626	4.7242446	2.1735327
18.65183785238201	4.8710213	2.207039
18.669599588018617	4.584245	2.1410851
18.68736177621737	4.562963	2.1361094
18.705124417439652	4.566876	2.137025
18.72288751214696	4.4218407	2.1028173
18.740651060800886	4.5703993	2.1378493
18.758415063863115	4.270924	2.0666213
18.77617952179546	4.4028354	2.0982935
18.793944435059814	4.1465235	2.0363014
18.811709804118184	4.1760426	2.0435367
18.829475629432675	4.1039634	2.025824
18.8472419114655	3.9031832	1.9756476
18.86500865067897	3.9573882	1.9893185
18.88277584753551	3.69474	1.9221706
18.90054350249763	3.6829817	1.9191096
18.918311616027957	3.397873	1.843332
18.936080188589226	3.2781844	1.8105757
18.953849220644265	3.0394256	1.7433949
18.971618712656007	2.8857079	1.6987371
18.9893886650875	2.8015854	1.6737937
19.007159078401887	7.934609	2.8168437
19.024929953062408	32.818695	5.7287602
19.042701289532435	32.841534	5.7307534
19.060473088275405	25.41462	5.041291
19.07824534975489	2.674772	1.635473
19.096018074434568	2.6196113	1.6185213
19.113791262778197	2.5997298	1.6123677
19.13156491524966	2.5840583	1.6075007
19.149339032312945	2.576284	1.6050806
19.167113614432136	2.5433636	1.5947926
19.184888662071433	2.524848	1.588977
19.202664175695123	2.4855244	1.5765547
19.220440155767623	2.4999254	1.5811152
19.238216602753447	2.5205786	1.587633
19.2559935171172	2.5006301	1.581338
19.27377089932361	2.4907475	1.5782102
19.291548749837514	2.4884624	1.5774862
19.309327069123835	2.501348	1.581565
19.32710585764763	2.5079012	1.5836354
19.344885115874032	2.5077088	1.5835747
19.362664844268313	2.479704	1.5747075
19.380445043295822	2.4650645	1.5700524
19.39822571342203	2.457598	1.5676727
19.41600685511252	2.4730086	1.5725802
19.43378846883297	2.4459624	1.5639573
19.451570555049173	2.4712002	1.5720052
19.469353114227037	2.4436126	1.5632058
19.48713614683254	2.4399729	1.5620413
19.50491965333182	2.4469922	1.5642865
19.52270363419109	2.4709432	1.5719234
19.540488089876686	2.4748921	1.573179
19.55827302085503	2.466762	1.5705929
19.576058427592674	2.4596	1.5683112
19.593844310556282	2.4132993	1.5534798
19.611630670212598	2.4378173	1.5613512
19.629417507028506	2.4731734	1.5726327
19.64720482147098	2.5095074	1.5841424
19.6649926140071	2.537449	1.5929372
19.682780885104084	2.5307903	1.5908458
19.70056963522921	2.519473	1.5872848
19.718358864849908	2.4908867	1.5782543
19.7361485744337	2.4631982	1.5694579
19.753938764448215	2.4541512	1.566573
19.771729435361202	2.4760978	1.5735621
19.789520587640506	2.5164123	1.5863204
19.807312221754092	2.508982	1.5839766
19.825104338170043	2.4758708	1.57349
19.842896937356517	2.4685388	1.5711584
19.860690019781824	2.4650137	1.5700362
19.87848358591436	2.4326985	1.559711
19.896277636222635	2.4274073	1.5580139
19.914072171175278	2.4629164	1.5693681
19.931867191241015	2.4877596	1.5772634
19.94966269688869	2.45847	1.567951
19.967458688587264	2.4575405	1.5676545
19.985255166805807	2.4791517	1.5745323
20.00305213201348	2.4319234	1.5594625
20.020849584679578	2.411333	1.5528468
20.038647525273507	2.3902667	1.5460488
20.05644595426477	2.3615346	1.5367285
20.07424487212299	2.3430138	1.5306907
20.092044279317903	2.3655624	1.5380385
20.109844176319353	2.4062781	1.5512183
20.127644563597304	2.425081	1.5572672
20.145445441621817	2.3809915	1.5430461
20.16324681086307	2.3813615	1.543166
20.181048671791373	2.3692515	1.5392373
20.198851024877122	2.3727615	1.540377
20.216653870590836	2.3341708	1.5277994
20.234457209403146	2.3615532	1.5367346
20.252261041784802	2.3944752	1.5474092
20.270065368206662	2.3766854	1.5416502
20.287870189139685	2.3530972	1.5339808
20.305675505054968	2.3720958	1.540161
20.323481316423702	2.3793366	1.5425098
20.341287623717207	2.342299	1.5304571
20.359094427406884	2.3009324	1.5168824
20.376901727964288	2.2985163	1.5160859
20.39470952586107	2.3105273	1.5200418
20.41251782156899	2.3326442	1.5272996
20.430326615559935	2.331629	1.5269673
20.448135908305886	2.3351655	1.5281248
20.465945700278965	2.300579	1.516766
20.483755991951384	2.278474	1.5094615
20.50156678379548	2.2565706	1.5021886
20.519378076283708	2.2431746	1.4977231
20.537189869888635	2.265196	1.5050569
20.55500216508294	2.2843065	1.5113922
20.572814962339415	2.3323932	1.5272175
20.59062826213098	2.3212302	1.5235584
20.60844206493066	2.311567	1.5203838
20.626256371211593	2.2822049	1.5106968
20.644071181447032	2.277387	1.5091014
20.66188649611036	2.2910714	1.5136286
20.67970231567506	2.3360505	1.5284144
20.697518640614742	2.3620808	1.5369062
20.715335471403122	2.335104	1.5281047
20.73315280851404	2.2626941	1.5042254
20.750970652421447	2.2578363	1.5026098
20.768789003599412	2.247788	1.4992625
20.786607862522136	2.2379847	1.4959896
20.8044272296639	2.259666	1.5032185
20.82224710549913	2.2967558	1.5155051
20.84006749050237	2.3036134	1.5177659
20.857888385148268	3.8203132	1.9545622
20.8757097899116	45.909096	6.775625
20.893531705267254	64.760254	8.047376
20.911354131690224	83.79253	9.153826
20.92917706965566	69.04328	8.309229
20.94700051963877	50.110126	7.0788507
20.96482448211493	29.40571	5.4227033
20.982648957559622	4.146079	2.0361922
21.00047394644843	2.2596643	1.5032179
21.01829944925707	2.2171135	1.4889975
21.036125466461375	2.175081	1.4748156
21.053951998537297	2.1971095	1.482265
21.071779045960906	2.225868	1.4919343
21.089606609208378	2.2293093	1.4930872
21.10743468875603	2.1732328	1.4741888
21.12526328508028	2.1872633	1.4789399
21.143092398657675	2.2154148	1.4884269
21.16092202996488	2.2083979	1.4860679
21.17875217947867	2.1876707	1.4790777
21.19658284767596	2.1564503	1.4684857
21.21441403503377	2.1743474	1.4745668
21.232245742029225	2.1607718	1.4699564
21.2500779691396	2.1655958	1.4715964
21.26791071684227	2.149551	1.4661347
21.28574398561475	2.1356628	1.4613907
21.30357777593465	2.1098306	1.4525256
21.321412088279704	2.09887	1.4487478
21.339246923127792	2.0801075	1.4422578
21.357082280956888	2.094989	1.4474077
21.3749181622451	2.0951655	1.4474686
21.392754567470647	2.1087983	1.4521701
21.41059149711187	2.1206264	1.4562371
21.42842895164726	2.124524	1.4575747
21.446266931555378	2.093045	1.446736
21.464105437314945	2.0898955	1.4456471
21.481944469404798	2.0998926	1.4491006
21.49978402830388	2.104192	1.4505833
21.51762411449127	2.1170757	1.4550174
21.53546472844617	2.115145	1.4543538
21.553305870647876	2.1138976	1.4539249
21.571147541575865	2.1046863	1.4507537
21.58898974170967	2.069535	1.4385879
21.60683247152899	2.011995	1.4184481
21.62467573151363	1.9720795	1.4043075
21.642519522143523	2.010084	1.4177743
21.660363843898722	2.0330439	1.4258485
21.6782086972594	2.0316036	1.4253433
21.696054082705864	2.012813	1.4187365
21.713900000718535	2.0242388	1.4227575
21.73174645177795	2.072436	1.4395958
21.749593436364794	2.0941494	1.4471176
21.767440954959845	2.086315	1.4444082
21.785289008044032	2.0147736	1.4194272
21.803137596098388	1.9373051	1.3918711
21.820986719604086	1.9168304	1.3844965
21.838836379042412	1.9687824	1.403133
21.85668657489478	1.9894587	1.4104817
21.87453730764273	1.9974782	1.4133217
21.892388577767914	2.0219615	1.4219569
21.91024038575213	2.0139298	1.41913
21.928092732077285	2.0024662	1.4150852
21.945945617225426	1.9795742	1.4069734
21.963799041678694	1.9618202	1.4006499
21.981653005919398	31.3048	5.5950694
21.999507510429943	78.10485	8.837695
22.01736255569286	73.032814	8.545924
22.035218142190818	4.1151376	2.0285802
22.05307427040661	1.9501967	1.3964944
22.07093094082315	1.9648032	1.4017144
22.088788153923474	1.9638492	1.401374
22.106645910190746	1.9294208	1.3890359
22.12450421010827	1.9237523	1.386994
22.142363054159464	1.9318568	1.3899125
22.16022244282787	1.9460177	1.3949974
22.178082376597164	1.9428552	1.3938634
22.195942855951145	1.940191	1.3929074
22.213803881373742	1.9287657	1.3888
22.231665453349002	1.9592202	1.3997215
22.24952757236111	1.9777315	1.4063184
22.26739023889438	1.9574045	1.3990728
22.28525345343323	1.9168544	1.3845052
22.30311721646225	1.9134114	1.3832611
22.320981528466113	1.9213749	1.3861367
22.33884638992964	1.9229372	1.3867002
22.356711801337788	1.9171638	1.3846169
22.37457776317561	1.924839	1.3873857
22.392444275928337	1.9259175	1.3877743
22.410311340081282	1.8991014	1.3780788
22.428178956119904	1.9244416	1.3872424
22.446047124529805	1.9648155	1.4017187
22.46391584579669	1.9851396	1.4089499
22.481785120406414	1.9625758	1.4009197
22.49965494884496	1.895709	1.3768475
22.51752533159841	1.8737339	1.368844
22.53539626915302	1.9186684	1.3851601
22.553267761995137	1.9423157	1.3936698
22.571139810611264	1.954772	1.3981316
22.589012415488025	1.9391923	1.3925488
22.60688557711216	1.9681932	1.4029231
22.624759295970566	1.987529	1.4097975
22.642633572550263	1.9909863	1.4110231
22.660508407338362	1.9374378	1.3919188
22.67838380082217	1.9185189	1.3851061
22.696259753489077	1.9300361	1.3892574
22.714136265826614	1.9799515	1.4071075
22.73201333832246	2.00591	1.4163015
22.74989097146439	1.9932956	1.4118412
22.76776916574035	1.9641625	1.4014858
22.785647921638393	1.9028125	1.3794247
22.803527239646712	1.8796852	1.3710161
22.82140712025363	1.8735423	1.368774
22.839287563947593	1.9033401	1.3796159
22.85716857121719	1.9014937	1.3789465
22.875050142551135	1.8676423	1.3666171
22.892932278438277	1.8362699	1.3550904
22.910814979367604	1.8420936	1.3572375
22.928698245828222	1.8704039	1.3676271
22.946582078309387	1.9035076	1.3796766
22.96446647730047	1.9208034	1.3859305
22.98235144329098	1.9078081	1.3812343
23.000236976770562	1.8747185	1.3692036
23.018123078229	1.8481323	1.3594602
23.03600974815619	1.8273977	1.3518127
23.053896987042194	1.8295836	1.3526211
23.071784795377173	1.8297603	1.3526863
23.08967317365145	1.8641531	1.36534
23.10756212235546	1.903254	1.3795848
23.125451641979787	1.9007883	1.3786908
23.143341733015134	1.8890506	1.3744273
23.161232395952357	1.891125	1.3751818
23.179123631282426	1.9073687	1.3810751
23.197015439496468	1.8651428	1.3657023
23.214907821085717	1.8755306	1.3695002
23.23280077654157	1.8805428	1.3713288
23.250694306355538	1.8955352	1.3767843
23.268588411019277	1.899928	1.3783787
23.28648309102458	1.924471	1.387253
23.304378346863356	1.9153917	1.3839768
23.322274179027676	1.9474049	1.3954945
23.340170588009723	1.9663163	1.402254
23.358067574301852	1.9575131	1.3991115
23.37596513839651	1.9300585	1.3892654
23.39386328078629	1.9235699	1.3869282
23.411762001963947	1.917519	1.3847451
23.429661302422353	1.8872166	1.37376
23.4475611826545	1.8517394	1.3607863
23.46546164315356	1.8536086	1.361473
23.48336268441279	1.8822796	1.371962
23.501264306925638	1.8772436	1.3701254
23.51916651118564	1.9044945	1.3800342
23.537069297686497	1.9181911	1.3849877
23.554972666922037	1.919677	1.3855242
23.57287661938623	1.8610122	1.3641893
23.59078115557318	1.826939	1.3516431
23.608686275977128	1.8352255	1.354705
23.62659198109246	1.8698069	1.3674089
23.6444982714137	1.9091685	1.3817266
23.66240514743549	1.9191452	1.3853322
23.68031260965263	1.9241703	1.3871447
23.698220658560068	1.9078888	1.3812635
23.716129294652845	1.8879595	1.3740304
23.7340385184262	1.86842	1.3669016
23.75194833037546	1.8679774	1.3667396
23.769858730996123	1.8388549	1.3560438
23.78776972078382	1.8444594	1.3581088
23.80568130023431	1.8344616	1.3544229
23.823593469843495	1.9103554	1.3821561
23.841506230107424	1.9217193	1.3862609
23.859419581522275	1.9181242	1.3849636
23.87733352458438	1.8673037	1.3664932
23.89524805979019	1.8605328	1.3640134
23.913163187636318	1.8656591	1.3658913
23.931078908619508	1.8853502	1.3730806
23.948995223236633	1.9163254	1.3843141
23.966912131984735	1.924656	1.3873197
23.98482963536096	1.9414166	1.3933473
24.002747733862616	1.9622737	1.4008118
24.020666427987155	1.980056	1.4071447
24.038585718232156	2.020755	1.4215326
24.056505605095353	2.005536	1.4161695
24.074426089074617	1.9928592	1.4116867
24.092347170667946	1.971852	1.4042264
24.110268850373515	1.9770997	1.4060937
24.128191128689586	2.0202868	1.4213679
24.146114006114626	2.0360036	1.426886
24.164037483147187	2.029154	1.4244838
24.181961560286005	2.015162	1.419564
24.199886238029926	2.001764	1.4148371
24.21781151687797	2.0064843	1.4165043
24.235737397329274	2.0180614	1.4205849
24.253663879883135	2.0050926	1.4160129
24.271590965038975	2.0026321	1.4151438
24.289518653296376	1.9817142	1.4077337
24.30744694515505	1.9976022	1.4133656
24.32537584111486	2.017574	1.4204134
24.34330534167581	1.9986212	1.413726
24.361235447338046	1.9554937	1.3983897
24.379166158601876	1.9258556	1.387752
24.39709747596772	1.9605709	1.400204
24.41502939993615	1.9966877	1.413042
24.432961931007917	1.9615515	1.4005541
24.450895069683856	1.9489771	1.3960577
24.468828816465	1.9638278	1.4013665
24.4867631718525	2.0064201	1.4164816
24.504698136347656	1.9582169	1.399363
24.52263371045192	1.925984	1.3877983
24.540569894666874	1.9168817	1.3845149
24.558506689494266	1.9253331	1.3875637
24.57644409543597	1.9062519	1.3806708
24.594382112994012	1.9012133	1.3788449
24.61232074267057	1.9119252	1.3827238
24.630259984967953	1.9242607	1.3871772
24.64819984038863	1.9334172	1.3904737
24.66614030943522	1.9722316	1.4043616
24.684081392610462	1.9972869	1.413254
24.702023090417274	1.9830601	1.4082117
24.7199654033587	1.9727113	1.4045324
24.737908331937927	1.9642935	1.4015325
24.755851876658305	1.9756787	1.4055884
24.773796038023324	1.9816747	1.4077196
24.79174081653661	2.0374792	1.427403
24.809686212701962	2.0599406	1.4352493
24.827632227023294	2.0730183	1.439798
24.8455788600047	2.1009498	1.4494654
24.8635261121504	2.1224556	1.456865
24.88147398396475	2.1133342	1.4537312
24.899422475952303	2.1299682	1.4594411
24.917371588617698	2.1073637	1.4516761
24.935321322465768	2.1382632	1.4622802
24.953271678001478	2.239	1.4963288
24.97122265572994	2.4381979	1.561473
24.989174256156414	2.7482588	1.6577873
25.00712647978632	3.2102017	1.7917036
25.02507932712521	3.8049936	1.9506392
25.043032798678798	4.4529424	2.1101997
25.060986894952933	5.1539574	2.270233
25.078941616453637	5.9059978	2.4302258
25.096896963687055	6.833416	2.6140804
25.114852937159508	7.9930983	2.8272069
25.132809537377444	8.462084	2.908966
25.150766764847468	8.521087	2.91909
25.168724620076347	7.8556533	2.8027937
25.186683103570985	6.848026	2.6168733
25.204642215838426	5.611412	2.368842
25.222601957385894	4.251231	2.0618515
25.24056232872074	3.1453142	1.7735034
25.25852333035048	2.5450237	1.5953131
25.276484962782778	2.232071	1.4940116
25.294447226525435	2.1108735	1.4528846
25.312410122086423	2.0569272	1.4341991
25.330373649973843	1.9838765	1.4085015
25.348337810695988	1.8879465	1.3740257
25.366302604761245	1.9064809	1.3807538
25.384268032678207	1.9459356	1.3949679
25.40223409495558	1.9368854	1.3917203
25.420200792102257	1.9136736	1.383356
25.438168124627246	1.9105327	1.3822203
25.45613609303974	1.9157895	1.3841205
25.474104697849057	1.8789454	1.3707463
25.492073939564698	1.8507638	1.3604279
25.510043818696285	1.8257923	1.3512188
25.528014335753614	1.8320423	1.3535296
25.54598549124664	1.8185043	1.3485193
25.56395728568544	1.8085405	1.3448199
25.58192971958028	1.8473096	1.3591577
25.59990279344156	1.8463258	1.3587956
25.617876507779833	1.8566918	1.3626049
25.635850863105826	1.8591378	1.363502
25.653825859930386	1.8643056	1.3653958
25.671801498764548	1.8631929	1.3649882
25.68977778011949	1.8320127	1.3535186
25.707754704506524	1.8375585	1.3555658
25.725732272437153	1.8226961	1.3500726
25.743710484423012	1.8661337	1.366065
25.761689340975888	1.8839016	1.372553
25.77966884260774	1.8722537	1.3683032
25.797648989830662	1.8509122	1.3604823
25.815629783156922	1.8598807	1.3637744
25.83361122309895	1.8484248	1.3595679
25.85159331016929	1.8528095	1.3611795
25.869576044880695	1.84905	1.3597978
25.887559427746034	1.8260974	1.3513317
25.90554345927836	1.7938081	1.3393313
25.92352813999086	1.7907931	1.3382052
25.94151347039689	1.8117028	1.3459951
25.959499451009965	1.8708736	1.3677988
25.97748608234374	1.8961214	1.3769972
25.995473364912062	1.9114697	1.3825591
26.013461299228904	1.8531661	1.3613105
26.03144988580839	1.7797889	1.3340873
26.04943912516483	1.7445699	1.3208216
26.067429017812675	1.7671428	1.3293393
26.085419564266537	1.8326703	1.3537616
26.103410765041186	1.8711106	1.3678855
26.12140262065155	1.8078578	1.344566
26.139395131612723	1.7868658	1.336737
26.157388298439948	1.8249793	1.3509179
26.17538212164861	1.8271658	1.351727
26.193376601754295	1.7776754	1.333295
26.211371739272714	1.7553529	1.3248973
26.229367534719746	1.7868421	1.3367281
26.247363988611433	1.8048178	1.343435
26.26536110146397	1.8264025	1.3514446
26.283358873793727	1.8271313	1.3517143
26.301357306117204	1.8096803	1.3452436
26.319356398951104	1.7809057	1.3345058
26.33735615281224	1.7563194	1.3252621
26.35535656821762	1.7892088	1.3376131
26.373357645684404	1.8011639	1.3420745
26.39135938572991	1.7851956	1.3361121
26.409361788871614	1.7826421	1.3351562
26.427364855627165	1.7610551	1.3270475
26.445368586514352	1.7893101	1.337651
26.46337298205115	1.8507748	1.3604318
26.48137804275568	1.8517534	1.3607914
26.499383769146217	1.8137383	1.346751
26.517390161741215	1.8054136	1.3436568
26.53539722105928	1.8074478	1.3444135
26.553404947619182	1.7747235	1.3321875
26.571413341939856	1.7986432	1.341135
26.589422404540397	1.8038394	1.3430709
26.60743213594006	1.8073859	1.3443905
26.62544253665827	1.8009164	1.3419822
26.64345360721459	1.8229023	1.350149
26.66146534812879	1.8038052	1.3430581
26.679477759920758	1.8124185	1.3462609
26.69749084311057	1.8178284	1.3482686
26.71550459821847	1.824148	1.3506103
26.733519025764842	1.7869047	1.3367516
26.751534126270258	1.7832363	1.3353786
26.769549900255434	1.788794	1.337458
26.787566348241267	1.8020049	1.3423878
26.80558347074881	1.838289	1.3558352
26.823601268299267	1.8104554	1.3455317
26.841619741414036	1.7911958	1.3383557
26.85963889061465	1.7822216	1.3349987
26.877658716422832	1.7632061	1.3278577
26.89567921936045	1.7694932	1.330223
26.913700399949544	1.7759557	1.3326498
26.93172225871233	1.7962524	1.3402435
26.949744796171174	1.8108157	1.3456656
26.967768012848605	1.7683601	1.329797
26.98579190926733	1.7370049	1.3179548
27.003816485950225	1.7249546	1.3133752
27.021841743420318	1.721556	1.3120807
27.039867682200814	1.7331488	1.3164911
27.057894302815072	1.7769477	1.333022
27.07592160578664	1.7914554	1.3384526
27.0939495916392	1.7916054	1.3385086
27.111978260896635	1.8160031	1.3475916
27.13000761408296	1.8380724	1.3557553
27.148037651722397	1.8223025	1.3499268
27.166068374339304	1.7802532	1.3342613
27.184099782458215	1.808172	1.3446828
27.20213187660384	1.8361933	1.3550621
27.22016465730105	1.8198903	1.3490331
27.23819812507487	1.7934718	1.3392056
27.256232280450533	1.833191	1.3539538
27.274267123953383	1.805379	1.3436439
27.292302656108987	1.7671921	1.3293577
27.31033887744306	1.7734334	1.3317032
27.32837578848146	1.8098998	1.3453251
27.34641338975026	1.8288075	1.3523341
27.364451681775673	1.7861404	1.3364656
27.382490665084074	1.7986318	1.3411307
27.400530340202046	1.8208487	1.3493882
27.41857070765629	1.7989403	1.3412458
27.436611767973726	1.7542728	1.3244896
27.454653521681404	1.7447188	1.320878
27.472695969306564	1.7678407	1.3296018
27.490739111376627	1.79875	1.3411748
27.508782948419153	1.7882143	1.3372413
27.526827480961902	1.8179103	1.348299
27.54487270953279	1.8053373	1.3436284
27.562918634659898	1.7720422	1.3311807
27.580965256871508	1.7579501	1.3258771
27.599012576696026	1.7922928	1.3387654
27.617060594662068	1.8031181	1.3428023
27.63510931129842	1.7861323	1.3364626
27.65315872713401	1.7607234	1.3269225
27.67120884269797	1.7458568	1.3213087
27.68925965851958	1.7582318	1.3259833
27.707311175128307	1.7325599	1.3162674
27.725363393053787	1.7560608	1.3251644
27.74341631282583	1.7892864	1.3376421
27.7614699349744	1.7955354	1.339976
27.77952426002968	1.9683657	1.4029845
27.797579288521973	2.0914073	1.4461699
27.815635020981784	2.401772	1.5497651
27.83369145793979	2.4054017	1.5509357
27.85174859992682	2.246386	1.4987949
27.869806447473923	2.1423438	1.4636748
27.887865001112267	1.9558452	1.3985153
27.905924261373233	1.9054494	1.3803802
27.92398422878836	1.9155678	1.3840404
27.94204490388936	1.9014813	1.3789421
27.96010628720813	1.919576	1.3854877
27.978168379276728	1.8919474	1.3754808
27.9962311806274	1.8545467	1.3618174
28.014294691792568	1.8355601	1.3548285
28.0323589133048	1.8603877	1.3639603
28.050423845696887	1.861424	1.3643401
28.068489489501758	1.8528244	1.361185
28.086555845252523	1.8673588	1.3665134
28.104622913482487	1.8789935	1.3707639
28.122690694725115	1.8609011	1.3641485
28.14075918951405	1.895223	1.376671
28.15882839838312	1.8932698	1.3759614
28.176898321866304	1.8515403	1.3607131
28.1949689604978	1.8459883	1.3586715
28.213040314811945	1.8944153	1.3763776
28.23111238534327	1.9012362	1.3788532
28.249185172626493	1.830775	1.3530613
28.267258677196473	1.8083609	1.3447531
28.285332899588294	1.8390585	1.3561189
28.303407840337172	1.8869342	1.3736572
28.321483499978545	1.9282584	1.3886174
28.33955987904799	1.9216652	1.3862414
28.357636978081285	1.925707	1.3876984
28.37571479761439	1.9496292	1.3962913
28.393793338183425	1.9597394	1.399907
28.41187260032469	1.9215776	1.3862098
28.429952584574686	1.8922124	1.3755771
28.448033291470065	1.915463	1.3840026
28.46611472154769	1.9402398	1.3929249
28.484196875344566	1.9154478	1.3839971
28.502279753397914	1.9047333	1.3801208
28.52036335624511	1.9575386	1.3991207
28.538447684423716	1.9765474	1.4058974
28.556532738471482	1.9696214	1.403432
28.574618518926325	1.979506	1.4069492
28.59270502632635	1.9623946	1.400855
28.61079226120985	1.9775122	1.4062405
28.628880224115274	2.0198097	1.4212002
28.646968915581287	2.0546975	1.4334216
28.66505833614671	2.0831125	1.4432992
28.68314848635055	2.0688477	1.4383489
28.701239366732004	2.0599928	1.4352674
28.71933097783044	2.0615375	1.4358056
28.737423320185403	2.1097932	1.4525127
28.75551639433665	2.1059067	1.4511743
28.773610200824074	2.1007764	1.4494056
28.791704740187793	2.1184208	1.4554796
28.80980001296809	2.1515656	1.4668216
28.827896019705413	2.181619	1.4770304
28.845992760940433	2.1880956	1.4792212
28.86409023721397	2.1859133	1.4784834
28.88218844906704	2.155438	1.468141
28.900287397040845	2.134148	1.4608723
28.918387081676755	2.1427617	1.4638175
28.936487503516343	2.2062469	1.485344
28.954588663101365	2.2244048	1.4914439
28.97269056097374	2.2157729	1.4885472
28.990793197675597	2.2528625	1.5009538
29.00889657374923	2.2607944	1.5035938
29.027000689737125	2.2384152	1.4961334
29.04510554618196	2.314983	1.5215068
29.06321114362659	2.4156263	1.5542285
29.08131748261405	2.4978557	1.5804605
29.099424563687567	2.5260262	1.5893477
29.11753238739057	2.5186834	1.587036
29.13564095426663	2.5739882	1.6043653
29.15375026485954	2.6107092	1.6157689
29.171860319713275	2.6148698	1.6170559
29.18997111937199	2.6478038	1.6272074
29.20808266438002	2.7261658	1.6511104
29.226194955281898	2.7785413	1.6668957
29.244307992622335	2.8157146	1.6780092
29.26242177694624	2.8292737	1.6820445
29.2805363087987	2.80279	1.6741534
29.29865158872498	2.8617435	1.6916689
29.316767617270557	2.9699433	1.7233523
29.334884394981064	2.9584818	1.7200238
29.353001922402367	2.9017901	1.7034642
29.37112020008047	2.9797292	1.7261893
29.389239228561596	3.143789	1.7730733
29.407359008392152	3.3612049	1.8333589
29.42547954011872	3.6537902	1.911489
29.44360082428809	4.2364464	2.058263
29.46172286144722	5.2580624	2.2930465
29.479845652143283	6.8727884	2.6216004
29.497969196923606	9.202936	3.0336342
29.516093496335728	12.120294	3.4814212
29.5342185509274	15.172632	3.8952062
29.55234436124651	17.577208	4.192518
29.570470927841175	19.216145	4.383622
29.588598251259686	19.10733	4.3711934
29.60672633205055	17.61459	4.196974
29.624855170762405	15.10039	3.8859222
29.642984767944146	12.02667	3.467949
29.66111512414481	9.13964	3.0231838
29.67924623991366	6.7788305	2.6036186
29.697378115800138	5.0885224	2.2557755
29.71551075235387	4.151254	2.0374627
29.733644150124675	3.7012186	1.9238552
29.751778309662576	3.4474537	1.856732
29.769913231517766	3.3011425	1.8169047
29.78804891624066	3.2624292	1.8062196
29.806185364381818	3.2430627	1.8008505
29.82432257649206	3.2650049	1.8069324
29.842460553122333	3.3403523	1.8276631
29.86059929482382	3.3191934	1.8218653
29.878738802147872	3.2687757	1.8079755
29.896879075646048	3.269577	1.8081971
29.915020115870114	3.2686281	1.8079348
29.933161923371976	3.210446	1.7917718
29.951304498703777	3.2502677	1.8028499
29.969447842417857	3.3406122	1.8277341
29.987591955066733	3.2461452	1.8017062
30.005736837203123	3.1693995	1.7802807
30.023882489379943	3.189287	1.7858574
30.04202891215028	3.1514442	1.7752308
30.060176106067455	3.1201456	1.7663934
30.078324071684946	3.1316648	1.769651
30.09647280955646	3.1014154	1.7610836
30.114622320235863	3.1040816	1.7618405
30.132772604277257	3.0534806	1.7474211
30.1509236622349	3.0286784	1.7403098
30.16907549466328	3.0252888	1.7393358
30.18722810211705	3.0503697	1.7465308
30.205381485151097	3.0716207	1.752604
30.22353564432045	3.0259492	1.7395256
30.241690580180403	3.0161953	1.7367197
30.25984629328638	3.026705	1.7397428
30.278002784194037	2.990831	1.729402
30.296160053459246	2.9392247	1.7144167
30.314318101638033	2.9122832	1.7065413
30.332476929286646	2.946308	1.7164812
30.35063653696153	2.937183	1.7138212
30.368796925219307	2.8747292	1.6955026
30.386958094616844	2.8782856	1.6965511
30.40512004571115	2.859994	1.6911516
30.423282779059463	2.8835948	1.6981151
30.441446295219233	2.8994865	1.7027879
30.459610594748067	2.8849955	1.6985275
30.47777567820382	2.8631446	1.6920829
30.495941546144504	2.8219092	1.6798539
30.51410819912835	2.8101792	1.6763589
30.532275637713795	2.7767107	1.6663465
30.55044386245946	2.7424903	1.6560466
30.56861287392416	2.7894442	1.6701629
30.586782672666956	2.854904	1.6896461
30.604953259247047	2.7840755	1.6685549
30.623124634223885	2.7278821	1.6516302
30.641296798157075	2.7492576	1.6580886
30.659469751606462	2.7875612	1.669599
30.677643495132074	2.8040454	1.6745285
30.695818029294152	2.7775295	1.6665921
30.713993354653116	2.7001777	1.6432217
30.73216947176962	2.6859133	1.6388756
30.75034638120448	2.689614	1.6400043
30.768524083518756	2.6990361	1.6428744
30.786702579273673	2.711152	1.6465577
30.80488186903069	2.7321002	1.6529067
30.82306195335144	2.8753853	1.6956961
30.841242832797782	3.111211	1.7638625
30.85942450793176	3.5056186	1.8723297
30.877606979315637	3.9073977	1.9767139
30.895790247511883	4.1569676	2.0388644
30.913974313083134	4.564505	2.1364703
30.932159176592283	4.953726	2.2256968
30.95034483860237	5.0221868	2.2410235
30.968531299676698	4.83904	2.1997817
30.98671856037873	4.4561753	2.1109655
31.00490662127215	3.9476304	1.9868644
31.023095482920848	3.4898872	1.868124
31.04128514588892	3.0460649	1.7452979
31.059475610740662	2.765861	1.6630878
31.07766687804056	2.6400905	1.6248355
31.09585894835335	2.5342913	1.5919458
31.11405182224393	2.4370632	1.5611097
31.132245500277417	2.368593	1.5390234
31.15043998301914	2.3702555	1.5395634
31.168635271034628	2.352753	1.5338687
31.18683136488964	2.3807597	1.542971
31.20502826515008	2.4495718	1.5651108
31.223225972382135	2.4772015	1.5739127
31.241424487152155	2.4440136	1.5633341
31.259623810026692	2.3714736	1.539959
31.27782394157253	2.3335316	1.5275902
31.296024882356644	2.4042108	1.5505518
31.314226632946237	2.5063968	1.5831604
31.332429193908684	2.5295742	1.5904635
31.350632565811598	2.4851282	1.5764289
31.368836749222787	2.4782047	1.5742315
31.387041744710295	2.4503238	1.565351
31.40524755284232	2.504545	1.5825754
31.423454174187317	2.5449736	1.5952973
31.441661609313922	2.522841	1.5883454
31.459869858791002	2.4784596	1.5743124
31.478078923187628	2.3792775	1.5424907
31.496288803073064	2.3210552	1.5235009
31.514499499016807	2.3072524	1.5189643
31.532711011588546	2.3880792	1.5453411
31.550923341358178	2.394674	1.5474734
31.56913648889584	2.3463063	1.5317657
31.587350454771844	2.3024368	1.5173783
31.605565239556732	2.2819989	1.5106286
31.62378084382127	2.2630792	1.5043534
31.641997268136382	2.3135016	1.5210199
31.660214513073274	2.290866	1.5135607
31.67843257920331	2.296681	1.5154804
31.6966514670981	2.3164315	1.5219828
31.71487117732944	2.3802812	1.542816
31.733091710469346	2.3884747	1.545469
31.751313067090052	2.3208165	1.5234226
31.769535247764008	2.2471828	1.4990606
31.787758253063878	2.2783618	1.5094243
31.805982083562526	2.257654	1.5025492
31.824206739833024	2.1874273	1.4789953
31.84243222244869	2.1559813	1.468326
31.860658531983013	2.1730204	1.4741168
31.878885669009737	2.196905	1.482196
31.897113634102784	2.2572877	1.5024273
31.91534242783632	2.2834628	1.511113
31.933572050784694	2.2389357	1.4963074
31.951802503522508	2.2144065	1.4880883
31.970033786624548	2.168773	1.4726754
31.988265900665834	2.1254292	1.4578851
32.006498846221575	2.0643792	1.4367948
32.02473262386724	2.0436823	1.4295741
32.04296723417845	2.1545606	1.4678421
32.0612026777311	2.2460787	1.4986924
32.07943895510129	2.2657995	1.5052572
32.097676066865304	2.1325903	1.4603391
32.115914013599685	2.0912738	1.4461237
32.13415279588115	2.1196783	1.4559115
32.152392414286666	2.11807	1.455359
32.1706328693934	2.102969	1.4501617
32.18887416177875	2.155541	1.468176
32.20711629202032	2.1573687	1.4687984
32.225359260695924	2.1556697	1.4682199
32.243603068383614	2.1241846	1.4574583
32.26184771566166	2.0953314	1.447526
32.28009320310852	2.1591697	1.4694114
32.2983395313029	2.2384193	1.4961348
32.31658670082372	2.2050562	1.4849432
32.33483471225012	2.1790874	1.4761733
32.35308356616143	2.1417139	1.4634595
32.371333263137245	2.1142669	1.4540519
32.38958380375734	2.1103377	1.4527001
32.407835188601744	2.060686	1.435509
32.42608741825067	2.0001352	1.4142613
32.444340493284585	2.0492213	1.4315101
32.46259441428416	2.1398447	1.4628208
32.48084918183028	2.155861	1.468285
32.49910479650405	2.0763273	1.4409467
32.51736125888683	2.043894	1.4296483
32.53561856956014	2.0437858	1.4296104
32.5538767291058	2.1483848	1.465737
32.572135738105764	2.1337445	1.4607342
32.59039559714228	2.062351	1.4360888
32.608656306797776	2.036466	1.427048
32.62691786765491	2.0362864	1.426985
32.645180280296586	2.0895138	1.445515
32.663443545305896	2.1756446	1.4750067
32.68170766326619	2.0946612	1.4472945
32.69997263476099	2.024151	1.4227266
32.7182384603741	1.994652	1.4123214
32.7365051406895	1.9692237	1.4032903
32.75477267629144	1.9962742	1.4128957
32.77304106776434	1.9793452	1.4068921
32.79131031569289	1.8922027	1.3755736
32.809580420661966	1.879728	1.3710318
32.827851383256714	1.8719604	1.368196
32.84612320406245	1.8645589	1.3654885
32.86439588366476	1.8908776	1.3750919
32.88266942264945	1.9700261	1.4035761
32.9009438216025	2.0043027	1.415734
32.9192190811102	2.032154	1.4255364
32.937495201758985	2.0565948	1.4340832
32.95577218413556	1.9815059	1.4076598
32.974050028826866	1.9370897	1.3917937
32.992328736420035	1.8899508	1.3747548
33.010608307502444	1.8416542	1.3570756
33.02888874266169	1.8282939	1.3521442
33.047170042485604	1.9024637	1.3792982
33.06545220756225	2.0142183	1.4192317
33.083735238479896	2.0081499	1.4170921
33.10201913582707	1.8703115	1.3675933
33.12030390019248	1.8722334	1.3682958
33.138589532165135	1.9228909	1.3866835
33.15687603233419	1.8784022	1.3705481
33.17516340128909	1.8627222	1.3648158
33.19345163961947	1.8522916	1.3609892
33.211740747915215	1.8175706	1.348173
33.23003072676643	1.8169633	1.3479478
33.248321576763466	1.917487	1.3847336
33.266613298496885	1.9219903	1.3863586
33.28490589255747	1.8713849	1.3679857
33.30319935953626	1.9017578	1.3790424
33.32149370002451	1.9344835	1.3908571
33.339788914613706	2.0015922	1.4147763
33.358085003895575	2.0418787	1.4289432
33.376381968462034	2.0749316	1.4404624
33.39467980890529	2.13545	1.4613179
33.41297852581774	2.0501835	1.4318461
33.43127811979204	1.8965515	1.3771534
33.44957859142105	1.8769121	1.3700044
33.467879941297866	1.9100556	1.3820477
33.486182170015844	1.8501959	1.360219
33.50448527816853	1.7626504	1.3276484
33.522789266349754	1.7887418	1.3374386
33.541094135153514	1.8981017	1.3777161
33.55939988517411	1.8751386	1.369357
33.57770651700602	1.861377	1.3643229
33.59601403124398	1.8999629	1.3783914
33.61432242848296	1.8793741	1.3709027
33.632631709318154	1.7904646	1.3380824
33.650941874344994	1.8044891	1.3433127
33.66925292415916	1.9617182	1.4006135
33.68756485935654	1.9892384	1.4104036
33.70587768053328	2.0365973	1.427094
33.724191388285746	2.1172647	1.4550824
33.74250598321054	2.0433683	1.4294643
33.760821465904506	1.8833413	1.3723488
33.77913783696474	1.8948003	1.3765174
33.79745509698852	2.0137486	1.4190661
33.815773246573414	1.9632844	1.4011725
33.8340922863172	1.8558705	1.3623034
33.852412216817896	1.7960011	1.3401496
33.87073303867377	1.8847485	1.3728614
33.889054752483304	1.982205	1.4079081
33.907377358845245	1.8808314	1.3714341
33.92570085835853	1.7166853	1.3102233
33.94402525162239	1.7396554	1.31896
33.96235053923627	1.8585572	1.3632891
33.980676721799824	1.9269598	1.3881497
33.999003799912984	1.8567913	1.3626413
34.01733177417592	1.8797104	1.3710253
34.03566064518901	1.9289895	1.3888807
34.0539904135529	1.9382699	1.3922176
34.07232107986846	1.9646785	1.4016699
34.090652644736785	1.9546741	1.3980966
34.108985108759235	1.9338367	1.3906245
34.12731847253742	1.9239497	1.3870652
34.14565273667313	1.936637	1.3916311
34.16398790176847	1.9081937	1.3813739
34.18232396842574	1.9332421	1.3904108
34.20066093724749	1.9987843	1.4137837
34.21899880883651	1.9031428	1.3795444
34.23733758379583	1.7489152	1.3224655
34.25567726272874	1.7292336	1.3150033
34.27401784623872	1.882339	1.3719836
34.29235933492957	1.964099	1.4014632
34.31070172940526	1.9519049	1.3971059
34.32904503027003	1.9569105	1.3988962
34.347389238128386	1.7424114	1.3200043
34.36573435358502	1.7656173	1.3287653
34.38408037724492	2.0070345	1.4166985
34.402427309713296	2.0467808	1.4306575
34.42077515159559	1.9355198	1.3912296
34.43912390349752	1.967167	1.4025574
34.45747356602499	2.151842	1.4669158
34.47582413978423	2.130107	1.4594886
34.49417562538163	1.9894445	1.4104767
34.51252802342388	1.9261672	1.3878642
34.53088133451789	2.0134177	1.4189495
34.54923555927084	2.1207852	1.4562916
34.567590698290104	2.032389	1.4256188
34.58594675218336	2.0716908	1.4393369
34.6043037215585	2.074402	1.4402785
34.62266160702365	1.951117	1.3968239
34.641020409187234	2.10586	1.4511582
34.65938012865785	2.091408	1.4461701
34.677740766044394	2.0074928	1.4168602
34.69610232195598	2.1654992	1.4715636
34.714464797002016	2.2172842	1.4890548
34.73282819179208	1.9545066	1.3980367
34.751192506936064	1.8503966	1.3602928
34.76955774304408	2.0166092	1.4200736
34.7879239007265	2.0321617	1.4255391
34.80629098059391	1.8316907	1.3533996
34.824658983257194	1.7492853	1.3226055
34.843027909327446	1.8566197	1.3625784
34.86139775941603	1.9128327	1.383052
34.879768534134534	1.85623	1.3624353
34.89814023409483	1.7820045	1.3349174
34.91651285990901	1.6352032	1.2787507
34.93488641218944	1.6565058	1.2870531
34.95326089154871	1.8609197	1.3641553
34.97163629859967	2.0082994	1.4171448
34.99001263395542	1.8988187	1.3779763
35.00838989822934	1.7929729	1.3390194
35.02676809203499	2.0192156	1.4209911
35.04514721598624	2.0408618	1.4285873
35.063527270697215	2.1115923	1.4531319
35.081908256782256	2.0176117	1.4204266
35.10029017485597	1.9225739	1.3865691
35.11867302553321	1.8990248	1.3780512
35.137056809429104	1.8461483	1.3587304
35.155441527159006	1.837657	1.355602
35.173827179338524	1.842048	1.3572206
35.19221376658354	1.7751443	1.3323455
35.21060128951017	2.0528984	1.432794
35.2289897487348	2.1275883	1.4586254
35.24737914487405	2.073398	1.4399298
35.26576947854479	1.8805399	1.3713278
35.28416075036418	1.9920341	1.4113944
35.30255296094958	2.0815508	1.4427581
35.32094611091867	1.9328624	1.3902742
35.33934020088932	2.109783	1.4525092
35.35773523147969	2.154367	1.4677762
35.3761312033082	2.053225	1.4329079
35.394528116993506	1.8947582	1.3765022
35.41292597315452	1.99589	1.4127597
35.431324772410434	2.3909953	1.5462843
35.449724515380666	2.3207858	1.5234126
35.46812520268491	2.0539367	1.4331563
35.486526834943106	2.0344477	1.4263407
35.504929412775454	1.7876447	1.3370284
35.52333293680242	1.9365954	1.3916161
35.54173740764471	1.9977298	1.4134107
35.560142825923286	1.6597149	1.2882992
35.5785491922594	1.3494495	1.161658
35.59695650727454	1.3837215	1.1763169
35.61536477159042	1.1140177	1.0554703
