0.008763373481513119	0.0	0.0
0.026290120649546365	0.14626539	0.3824466
0.043816868432600686	0.25730166	0.5072491
0.06134361724069026	0.18588807	0.4311474
0.07887036748382949	0.11947383	0.34564987
0.0963971195720331	0.032489687	0.18024896
0.11392387391531617	0.0769393	0.27737933
0.1314506309236943	0.087856874	0.2964066
0.1489773910071836	0.0727273	0.26968
0.16650415457580078	0.05311107	0.2304584
0.18403092203956356	0.09890573	0.31449282
0.20155769380849	0.14763168	0.38422868
0.2190844702925996	0.1903195	0.43625623
0.2366112519019124	0.18236525	0.42704245
0.2541380390464497	0.16495676	0.4061487
0.27166483213623416	0.13876662	0.37251392
0.28919163158128947	0.11481597	0.33884504
0.3067184377916406	0.06319223	0.25138065
0.324245251177314	0.08653486	0.29416808
0.34177207214833777	0.094877385	0.30802172
0.3592989011147415	0.14028472	0.37454602
0.37682573848655654	0.14240395	0.3773645
0.39435258467381573	0.19227307	0.43848953
0.41187944008655414	0.23101026	0.48063526
0.42940630513480854	0.1952042	0.4418192
0.446933180228618	0.16337068	0.4041914
0.4644600657780234	0.113125585	0.33634147
0.48198696219306775	0.12664504	0.35587224
0.49951386988379676	0.12483084	0.35331407
0.5170407892602581	0.15583634	0.39476112
0.5345677207325025	0.17925239	0.42338207
0.5520946647105822	0.20945384	0.45766127
0.5696216216045534	0.20400137	0.4516651
0.5871485918244737	0.17345046	0.41647384
0.6046755757804043	0.15694328	0.39616066
0.6222025738824094	0.14196882	0.37678748
0.6397295865405557	0.15393908	0.3923507
0.6572566141649129	0.15913242	0.39891404
0.6747836571655547	0.1825511	0.42725998
0.6923107159525568	0.18778643	0.43334332
0.7098377909359992	0.16273265	0.40340135
0.7273648825259653	0.17151819	0.41414756
0.7448919911325411	0.16250764	0.40312237
0.762419117165817	0.18948396	0.43529755
0.7799462610358868	0.17331545	0.4163117
0.7974734231528482	0.17106523	0.41360033
0.8150006039268024	0.18326603	0.42809582
0.8325278037678551	0.22702101	0.47646722
0.8500550230861152	0.23619775	0.48600182
0.8675822622916969	0.24002716	0.48992565
0.8851095217947171	0.19846414	0.44549313
0.9026368020052984	0.19783697	0.44478866
0.9201641033335665	0.18740407	0.43290192
0.9376914261896523	0.19229855	0.43851858
0.9552187709836915	0.19164371	0.4377713
0.9727461381258234	0.28368026	0.53261644
0.990273528026193	0.30543673	0.5526633
1.0078009410949496	0.31483704	0.5611034
1.0253283777422473	0.27459133	0.52401465
1.0428558383782454	0.23779604	0.48764336
1.0603833234131086	0.2634994	0.51332194
1.0779108332570058	0.31327042	0.5597057
1.0954383683201119	0.35099444	0.5924478
1.112965929012607	0.38641062	0.62161934
1.1304935157446763	0.48534757	0.6966689
1.1480211289265108	0.49535084	0.70381165
1.1655487689683062	1.3546344	1.1638876
1.1830764362802655	1.7094998	1.3074784
1.200604131272596	2.1142557	1.454048
1.2181318543555117	2.3741539	1.540829
1.235659605939232	2.3613348	1.5366635
1.253187386433982	4.233244	2.0574849
1.270715196249994	6.711193	2.5905972
1.2882430357975057	12.284815	3.50497
1.3057709054867608	16.888706	4.109587
1.3232988057280106	22.534685	4.7470713
1.3408267369315112	27.63475	5.2568765
1.358354699507526	31.118898	5.5784316
1.3758826938663256	35.539215	5.9614778
1.3934107204181858	37.292496	6.106758
1.410938779573391	37.571262	6.12954
1.4284668717422309	38.018436	6.1659093
1.4459949973350033	37.738796	6.143191
1.4635231567620117	38.169983	6.178186
1.4810513504335687	37.349834	6.111451
1.4985795787599925	36.60438	6.0501556
1.5161078421516088	35.960247	5.9966865
1.5336361410187505	35.12658	5.926768
1.5511644757717598	35.059475	5.9211044
1.5686928468209842	35.833344	5.986096
1.58622125457678	36.45687	6.0379524
1.6037496994495108	37.491596	6.1230383
1.621278181849548	37.17818	6.097391
1.6388067021872719	38.202457	6.180814
1.6563352608730693	37.62412	6.13385
1.673863858317336	36.207466	6.017264
1.6913924949304753	34.908493	5.908341
1.7089211711228998	33.855778	5.8185716
1.7264498873050296	33.243187	5.7656903
1.7439786438872935	32.629765	5.712247
1.7615074412801288	31.868303	5.6452017
1.779036279893981	31.048498	5.572118
1.796565160139305	30.187038	5.494273
1.814094082426564	29.527521	5.4339232
1.8316230471662298	29.159414	5.3999457
1.849152054768784	28.635668	5.3512306
1.8666811056447168	28.200968	5.310458
1.8842102002045273	27.158386	5.211371
1.901739338858724	26.278732	5.1262784
1.9192685220178245	25.438547	5.043664
1.9367977500923557	24.741678	4.9741006
1.9543270234928547	24.447283	4.9444194
1.971856342629867	23.83425	4.8820333
1.9893857079139496	23.422527	4.8396826
2.006915119755667	22.735668	4.7681932
2.0244445785655945	22.242073	4.7161503
2.0419740847543175	21.95176	4.6852703
2.0595036387324317	21.434727	4.6297655
2.0770332409105414	20.799765	4.560676
2.094562891699263	20.367157	4.5129986
2.1120925915092217	20.045128	4.4771786
2.129622340751053	19.878586	4.458541
2.1471521398354043	188.08626	13.714455
2.1646819891729323	444.3379	21.079325
2.182211889174303	440.35715	20.984688
2.1997418402501974	452.6589	21.275782
2.2172718428113023	432.62842	20.79972
2.234801897268317	320.7346	17.909065
2.2523320040319548	17.377234	4.168601
2.269862163512935	17.157213	4.1421266
2.287392376121992	17.020231	4.1255584
2.304922642269869	16.665848	4.0823827
2.322452962367322	16.302572	4.0376444
2.3399833368251164	15.856549	3.9820282
2.357513766054032	15.339387	3.916553
2.3750442504648586	15.004664	3.8735855
2.3925747904683963	14.868849	3.8560147
2.410105386475459	14.721821	3.8369026
2.4276360388968707	14.362529	3.7897928
2.445166748143469	13.978275	3.738753
2.4626975146261025	13.6203575	3.6905768
2.4802283387556323	13.520906	3.6770785
2.4977592209429305	13.380766	3.6579728
2.5152901615988825	13.161894	3.6279325
2.5328211611343865	12.912872	3.5934486
2.5503522199603523	12.582401	3.547168
2.5678833384877024	12.419369	3.5241125
2.5854145171273712	12.229639	3.49709
2.6029457562903064	12.137538	3.483897
2.620477056387469	12.013276	3.4660172
2.6380084178298326	11.950966	3.457017
2.655539841028383	11.805894	3.4359705
2.673071326394119	11.681126	3.417766
2.6906028743380523	11.367458	3.371566
2.708134485271211	11.011366	3.318338
2.7256661596046325	10.734334	3.2763293
2.743197897749369	10.3983345	3.224645
2.760729700116486	10.319478	3.2123945
2.778261567117063	10.290093	3.2078176
2.795793499162193	10.187036	3.1917136
2.8133254966629817	10.130621	3.1828637
2.830857560030551	9.904498	3.1471412
2.8483896896760337	9.722233	3.1180496
2.865921886010578	9.625206	3.1024516
2.883454149445347	9.420312	3.0692527
2.9009864803915177	9.19264	3.0319366
2.91851887926028	8.996635	2.9994392
2.9360513464628384	8.987388	2.9978971
2.953583882410413	8.951609	2.9919238
2.9711164875142373	8.934414	2.989049
2.9886491621855606	8.766107	2.960761
3.0061819068356455	8.723082	2.9534864
3.023714721875769	8.641551	2.9396515
3.041247607717225	8.523993	2.9195879
3.0587805647713213	8.462544	2.9090452
3.0763135934493806	8.3548355	2.8904731
3.0938466941627407	8.348329	2.8893473
3.1113798673227544	8.261964	2.8743632
3.1289131133407904	8.174179	2.8590522
3.1464464326282315	8.004648	2.8292487
3.1639798255964786	7.742391	2.7825153
3.1815132926569443	7.551848	2.7480626
3.1990468342210603	7.588145	2.7546587
3.216580450700272	7.6209254	2.7606025
3.2341141425060416	7.561732	2.7498603
3.251647910049847	7.41536	2.723116
3.2691817537431813	7.265209	2.6954052
3.286715673997555	7.0765243	2.6601737
3.3042496712244938	6.9774957	2.641495
3.32178374583554	6.877791	2.6225543
3.339317898242251	6.867315	2.620556
3.3568521288562034	6.7446256	2.5970416
3.3743864380889876	6.619428	2.572825
3.3919208263522127	6.678339	2.5842483
3.4094552940575023	6.6641617	2.5815039
3.4269898416164972	6.6466403	2.5781078
3.444524469440858	6.502334	2.5499675
3.4620591779422587	6.360866	2.5220757
3.479593967532391	6.322852	2.5145283
3.4971288386229658	6.2883973	2.5076678
3.5146637916257086	6.2808175	2.506156
3.5321988269523628	6.430388	2.535821
3.5497339450146903	6.4551845	2.5407054
3.5672691462244708	6.416379	2.5330572
3.5848044309934988	6.3458924	2.5191054
3.60233979973359	6.307436	2.511461
3.619875252856575	6.3070207	2.5113783
3.6374107907743034	6.3984637	2.5295184
3.6549464138986427	6.378486	2.5255666
3.6724821226414788	6.382174	2.5262966
3.690017917414714	6.4263606	2.5350268
3.7075537986302702	6.5073066	2.5509422
3.7250897667000857	6.596184	2.5683036
3.7426258220361235	6.658251	2.5803587
3.7601619650503553	6.9254966	2.6316338
3.777698196154779	7.3968725	2.7197192
3.7952345157614067	8.497749	2.9150898
3.8127709242822716	9.3502865	3.057824
3.830307422129425	11.458114	3.3849835
3.847844009714936	30.242231	5.499294
3.8653806874508954	97.76581	9.887659
3.882917455749409	97.094246	9.8536415
3.900454315022606	96.92063	9.844828
3.917991265682631	41.465816	6.4393954
3.9355283081416506	11.0472355	3.323738
3.9530654428118495	8.89284	2.9820867
3.970602670105433	7.644804	2.7649238
3.9881399904346244	6.686742	2.5858736
4.005677404211669	6.520502	2.5535274
4.023214911848827	6.4212575	2.53402
4.0407525137583855	6.493564	2.5482473
4.058290210352644	6.5333495	2.5560417
4.075828002043927	6.5322223	2.5558212
4.0933658892445814	6.452327	2.540143
4.110903872366966	6.3931947	2.5284767
4.128441951823468	6.270144	2.5040255
4.145980128026488	6.2757263	2.50514
4.163518401388452	6.2247844	2.4949517
4.181056772321807	6.2302117	2.4960392
4.1985952412390155	6.1839924	2.4867635
4.216133808552567	6.1714325	2.4842367
4.233672474674966	6.2755256	2.5051
4.251211240018741	6.467033	2.5430362
4.268750104996445	6.7571034	2.599443
4.286289070020643	7.7266836	2.7796912
4.303828135503928	9.52433	3.0861514
4.3213673018589125	29.841824	5.462767
4.3389065694982305	91.00538	9.539674
4.356445938834537	166.13202	12.889221
4.3739854102805085	172.00143	13.114932
4.391524984248844	172.84322	13.146985
4.409064661152262	136.81891	11.696961
4.426604441403504	96.87103	9.842308
4.444144325415337	75.46502	8.68706
4.461684313600543	21.528225	4.639852
4.47922440637193	21.913479	4.6811833
4.496764604142329	20.292847	4.5047584
4.5143049073245916	18.593605	4.3120303
4.531845316331589	16.509706	4.063214
4.5493858315762195	13.883927	3.7261143
4.566926453471405	11.540556	3.3971393
4.584467182430081	9.493362	3.08113
4.602008018865218	8.265493	2.874977
4.619548963189798	7.5671163	2.7508392
4.637090015816834	7.094903	2.663626
4.654631177159353	6.742853	2.5967004
4.672172447630417	6.5341954	2.5562072
4.689713827643102	6.4288254	2.535513
4.7072553176105085	6.1515846	2.480239
4.724796917945764	5.968713	2.443095
4.742338629062015	5.807411	2.409857
4.759880451372434	5.7060156	2.3887267
4.777422385290215	5.70311	2.3881185
4.794964431228581	5.646875	2.3763154
4.812506589600768	5.6344686	2.3737035
4.830048860820047	5.580208	2.3622463
4.847591245299709	5.624518	2.3716066
4.8651337434530655	5.6582193	2.3787012
4.882676355693457	5.6985693	2.3871677
4.900219082434242	5.7190237	2.391448
4.917761924088813	5.6998367	2.387433
4.935304881070575	5.710148	2.3895915
4.952847953792969	5.620082	2.3706713
4.970391142669449	5.5533247	2.3565493
4.9879344481135055	5.484581	2.3419182
5.005477870538642	5.5011635	2.345456
5.023021410358394	5.449749	2.3344698
5.040565067986324	5.3881803	2.3212454
5.05810884383601	5.375566	2.3185267
5.075652738321066	5.4576235	2.3361557
5.09319675185512	5.4935513	2.3438325
5.110740884851836	5.513178	2.3480158
5.128285137724894	5.463277	2.3373654
5.145829510888007	5.422584	2.3286443
5.163374004754908	5.443167	2.3330595
5.1809186197393595	5.444669	2.3333814
5.198463356255145	5.458207	2.3362806
5.216008214716077	5.4743123	2.3397248
5.233553195535998	5.421336	2.3283763
5.251098299128764	5.3869677	2.3209841
5.268643525908272	5.2546873	2.2923105
5.286188876288432	5.2216525	2.2850935
5.3037343506831895	5.225218	2.2858737
5.32127994950651	5.20485	2.281414
5.3388256731723915	5.2343044	2.2878602
5.356371522094851	5.200366	2.280431
5.373917496687938	5.2720947	2.2961042
5.391463597365729	5.3401694	2.3108807
5.40900982454232	5.2881103	2.2995892
5.426556178631843	5.2492557	2.2911253
5.444102660048449	5.202073	2.2808053
5.4616492692063225	5.1931686	2.2788525
5.479196006519669	5.1785235	2.275637
5.496742872402727	5.247988	2.2908487
5.514289867269756	5.246771	2.2905831
5.531836991535049	5.291222	2.3002656
5.549384245612924	5.1933584	2.2788942
5.566931629917724	5.1799994	2.2759612
5.584479144863822	5.1598024	2.27152
5.6020267908656205	5.170107	2.273787
5.619574568337545	5.204278	2.2812886
5.637122477694054	5.2019677	2.2807822
5.654670519349629	5.137071	2.2665107
5.672218693718784	5.1107097	2.2606878
5.689767001216059	5.125426	2.2639403
5.707315442256021	5.1580896	2.2711427
5.724864017253266	5.182734	2.276562
5.7424127266224225	5.203512	2.2811208
5.75996157077814	5.2171764	2.284114
5.777510550135105	5.15784	2.271088
5.795059665108022	5.1577377	2.2710652
5.812608916111639	5.1902747	2.2782176
5.830158303560715	5.274536	2.2966359
5.847707827870055	5.262015	2.293908
5.86525748945448	5.354054	2.3138828
5.8828072887288485	5.499104	2.345017
5.900357226108044	5.6180153	2.3702352
5.917907302006979	5.6858644	2.384505
5.9354575168406	6.2610965	2.5022182
5.9530078710238765	6.8076286	2.6091433
5.970558364971812	7.3140445	2.704449
5.988108999099438	7.5328107	2.7445967
6.005659773821818	8.035494	2.8346946
6.023210689554039	7.749356	2.7837665
6.040761746711227	8.156521	2.8559623
6.058312945708531	7.6310525	2.762436
6.075864286961132	7.1971064	2.6827424
6.093415770884244	6.5436144	2.558049
6.1109673978931065	6.0637302	2.4624643
6.128519168402993	5.5227003	2.3500426
6.146071082829204	5.361556	2.3155034
6.163623141587075	5.250442	2.2913842
6.181175345091969	5.1578426	2.2710884
6.198727693759281	5.23545	2.2881105
6.216280188004435	5.2100706	2.282558
6.233832828242885	5.229824	2.286881
6.251385614890126	5.249537	2.2911868
6.268938548361669	5.2799997	2.297825
6.286491629073067	5.2179265	2.2842782
6.304044857439898	5.1459117	2.2684603
6.321598233877777	5.0921674	2.2565832
6.339151758802344	5.0598226	2.249405
6.356705432629277	5.038138	2.2445798
6.37425925577428	5.002041	2.2365243
6.391813228653095	4.945468	2.2238407
6.409367351681486	4.9473815	2.224271
6.426921625275259	4.9619265	2.227538
6.44447604985025	4.976351	2.2307737
6.46203062582232	5.0479407	2.2467623
6.47958535360737	5.0273776	2.2421815
6.497140233621328	5.0068965	2.2376096
6.514695266280161	4.954912	2.225963
6.532250451999859	5.01749	2.2399755
6.549805791196454	5.11023	2.2605817
6.567361284286002	5.1251307	2.2638752
6.584916931684597	5.0798326	2.2538483
6.602472733808367	5.062504	2.250001
6.6200286910734665	5.0618324	2.2498517
6.637584803896092	5.045091	2.246128
6.655141072692462	4.964962	2.2282195
6.672697497878842	4.9491096	2.2246594
6.690254079871514	4.979492	2.2314775
6.707810819086808	5.053897	2.2480874
6.725367715941078	5.091972	2.2565398
6.742924770850719	5.071938	2.2520964
6.760481984232151	5.067043	2.2510092
6.778039356501836	4.9924793	2.2343857
6.795596888076266	4.9577465	2.2265997
6.813154579371963	4.931421	2.2206802
6.830712430805492	4.9773273	2.2309926
6.84827044279344	5.0129194	2.238955
6.865828615752445	5.0358076	2.2440605
6.883386950099159	5.0402484	2.2450497
6.900945446250287	5.022748	2.2411487
6.918504104622553	5.1059823	2.2596421
6.936062925632727	5.128447	2.2646074
6.953621909697607	5.1168356	2.2620423
6.971181057234028	5.073375	2.2524154
6.988740368658859	5.0215263	2.2408762
7.006299844389007	5.083385	2.2546363
7.023859484841407	5.2006817	2.2805004
7.041419290433036	5.3748436	2.3183708
7.058979261580902	5.536566	2.3529909
7.0765393987020495	5.754142	2.3987792
7.094099702213559	6.153328	2.4805903
7.111660172532549	6.525279	2.5544627
7.129220810076164	6.8965836	2.6261346
7.146781615261595	7.5249543	2.743165
7.16434258850606	7.754895	2.7847612
7.181903730226821	8.213134	2.8658566
7.1994650408411704	8.293092	2.879773
7.217026520766437	8.438469	2.9049044
7.234588170419983	8.682673	2.9466376
7.252149990219215	8.611361	2.934512
7.269711980581568	8.464024	2.9092996
7.2872741419245175	8.223215	2.867615
7.304836474665574	7.850587	2.80189
7.322398979222286	7.566406	2.75071
7.339961656012233	7.3145647	2.7045453
7.357524505453039	6.9382515	2.634056
7.375087527962357	6.626226	2.5741456
7.392650723957886	6.3175707	2.5134778
7.410214093857353	6.0227456	2.4541283
7.427777638078528	5.858223	2.4203765
7.445341357039213	5.6196275	2.3705754
7.4629052511572525	5.452354	2.3350277
7.480469320850524	5.3243647	2.3074584
7.498033566536948	5.290409	2.300089
7.5155979886344735	5.2281036	2.2865047
7.5331625875610975	5.1866755	2.2774274
7.550727363734844	5.170925	2.2739668
7.568292317573788	5.1861925	2.2773213
7.585857449496025	5.161378	2.2718666
7.603422759919705	5.1685343	2.273441
7.620988249263007	5.1651545	2.2726977
7.638553917944147	5.16728	2.2731652
7.656119766381391	5.152871	2.2699935
7.673685794993023	5.198731	2.2800727
7.691252004197388	5.224493	2.285715
7.70881839441285	5.2480702	2.2908666
7.726384966057826	5.274875	2.2967095
7.743951719550762	5.2427807	2.289712
7.761518655310149	5.250235	2.2913392
7.779085773754511	5.226719	2.286202
7.796653075302419	5.20736	2.281964
7.814220560372475	5.217007	2.284077
7.831788229383323	5.2387977	2.288842
7.8493560827536495	5.289622	2.2999177
7.866924120902174	5.3368163	2.3101552
7.884492344247663	5.359987	2.3151646
7.9020607532089135	5.3937826	2.3224518
7.919629348204771	5.371537	2.3176577
7.937198129654115	5.319318	2.3063645
7.954767097975865	5.3381705	2.3104482
7.972336253588986	5.36798	2.3168902
7.989905596912472	5.3690553	2.3171222
8.007475128365371	5.37088	2.3175159
8.025044848366756	5.3949423	2.3227015
8.042614757335754	5.576882	2.3615422
8.060184855691523	5.6774087	2.3827314
8.07775514385327	5.805243	2.4094071
8.095325622240228	5.850106	2.4186993
8.112896291271687	5.857175	2.42016
8.130467151366968	5.9484086	2.438936
8.148038202945436	5.9334455	2.4358664
8.165609446426497	5.995885	2.4486496
8.183180882229594	6.03986	2.4576125
8.200752510774217	6.033142	2.4562454
8.218324332479893	6.1130404	2.4724565
8.235896347766193	6.1191335	2.4736881
8.253468557052724	6.153485	2.4806218
8.27104096075914	6.0402646	2.457695
8.288613559305137	5.9327574	2.4357252
8.306186353110448	5.970716	2.4435048
8.32375934259485	6.0278854	2.4551752
8.341332528178162	6.129	2.4756818
8.358905910280246	6.1662316	2.4831898
8.376479489321003	6.166333	2.4832103
8.394053265720377	6.2331405	2.496626
8.411627239898356	6.2774005	2.505474
8.42920141227497	6.3714304	2.5241692
8.44677578327029	6.364656	2.522827
8.464350353304427	6.3003416	2.5100482
8.48192512279754	6.1932597	2.488626
8.499500092169827	6.1505756	2.4800353
8.51707526184153	6.092981	2.4683964
8.534650632232934	6.103878	2.4706028
8.552226203764365	6.1816077	2.486284
8.569801976856192	6.227418	2.4954796
8.587377951928834	6.2404714	2.4980936
8.60495412940274	6.235904	2.4971793
8.622530509698416	6.236587	2.497316
8.6401070932364	6.3299108	2.5159314
8.657683880437283	6.4638104	2.5424025
8.675260871721695	6.6225767	2.5734367
8.692838067510303	6.8035097	2.6083539
8.710415468223834	6.968174	2.63973
8.727993074283043	7.118941	2.6681345
8.745570886108737	7.079882	2.6608047
8.763148904121765	7.1905494	2.68152
8.78072712874302	7.2454677	2.6917408
8.798305560393441	7.464169	2.732063
8.815884199494006	7.5840535	2.753916
8.833463046465745	7.7482824	2.7835736
8.851042101729728	7.9346404	2.8168495
8.86862136570707	8.238832	2.8703365
8.886200838818924	8.366666	2.892519
8.903780521486505	8.457401	2.9081612
8.921360414131055	8.555768	2.9250245
8.938940517173874	8.727024	2.9541538
8.956520831036297	8.938938	2.9898057
8.97410135613971	9.221634	3.0367143
8.99168209290554	9.336989	3.0556488
9.009263041755265	9.501359	3.0824275
9.026844203110405	9.712821	3.11654
9.044425577392525	9.889556	3.1447663
9.062007165023239	10.044669	3.1693325
9.079588966424197	10.330693	3.2141397
9.097170982017108	10.44716	3.2322066
9.11475321222372	11.350033	3.368981
9.132335657465825	12.175321	3.4893153
9.149918318165264	12.278952	3.5041335
9.167501194743924	12.85476	3.5853536
9.18508428762374	12.583267	3.54729
9.202667597226693	12.62885	3.5537093
9.220251123974803	12.374753	3.5177767
9.237834868290143	12.03203	3.4687216
9.255418830594836	11.676161	3.4170399
9.273003011311046	11.127193	3.3357449
9.290587410860985	10.944571	3.3082578
9.308172029666911	10.284184	3.2068963
9.32575686815113	10.03409	3.167663
9.343341926735997	8.8121395	2.9685247
9.360927205843916	8.573273	2.9280152
9.378512705897327	8.370721	2.8932197
9.396098427318728	8.225526	2.8680177
9.413684370530664	8.1493	2.8546977
9.431270535955722	8.074319	2.8415346
9.448856924016539	8.002902	2.8289402
9.466443535135806	7.9034276	2.8113036
9.484030369736251	7.863398	2.8041751
9.501617428240658	7.8752894	2.8062947
9.519204711071852	7.853609	2.8024292
9.536792218652714	7.8492975	2.8016598
9.55437995140617	7.77084	2.7876227
9.571967909755191	7.804768	2.7937014
9.589556094122802	7.8607736	2.8037071
9.60714450493207	7.9939923	2.827365
9.624733142606116	8.029573	2.83365
9.642322007568108	8.044952	2.8363626
9.659911100241267	8.047611	2.836831
9.677500421048851	8.059381	2.8389049
9.695089970414175	8.046207	2.8365839
9.712679748760609	8.121785	2.8498745
9.730269756511557	8.098609	2.8458054
9.747859994090492	8.138803	2.8528585
9.765450461920915	8.159816	2.856539
9.78304116042639	8.169301	2.858199
9.800632090030527	8.206205	2.8646476
9.81822325115699	8.25696	2.8734927
9.835814644229481	8.3114805	2.882964
9.853406269671762	8.363605	2.8919897
9.870998127907646	8.385182	2.8957179
9.888590219360985	8.359824	2.891336
9.906182544455698	8.369389	2.8929896
9.923775103615734	8.298413	2.8806968
9.941367897265108	8.2995825	2.8808997
9.958960925827878	8.242464	2.8709693
9.97655418972816	8.324019	2.8851378
9.994147689390106	8.310129	2.8827295
10.011741425237934	8.314273	2.8834481
10.029335397695904	8.232605	2.8692517
10.04692960718833	8.250987	2.8724532
10.06452405413958	8.272141	2.876133
10.082118738974064	8.309048	2.882542
10.099713662116246	8.321028	2.8846192
10.117308823990651	8.239153	2.8703926
10.134904225021844	8.168923	2.8581328
10.152499865634445	8.148163	2.8544986
10.170095746253125	8.068482	2.8405075
10.18769186730261	8.105707	2.8470523
10.205288229207675	8.16276	2.8570545
10.222884832393145	8.212075	2.8656719
10.2404816772839	8.136259	2.852413
10.258078764304868	8.062666	2.8394835
10.275676093881035	8.066879	2.8402252
10.293273666437438	8.07107	2.840963
10.310871482399158	8.125719	2.8505647
10.32846954219134	8.156431	2.8559465
10.346067846239173	8.211851	2.8656328
10.363666394967908	8.178822	2.859864
10.38126518880283	8.20221	2.8639503
10.398864228169298	8.237594	2.8701208
10.416463513492713	8.316696	2.8838682
10.434063045198531	8.281554	2.877769
10.451662823712262	8.235172	2.869699
10.469262849459467	8.161235	2.8567874
10.486863122865758	8.126077	2.8506274
10.504463644356806	8.094355	2.845058
10.522064414358338	7.9822893	2.8252945
10.539665433296118	7.8397503	2.7999554
10.557266701595987	7.840747	2.8001335
10.574868219683818	7.762757	2.7861724
10.592469987985552	7.7450733	2.7829971
10.610072006927185	7.6272254	2.761743
10.627674276934751	7.5470443	2.7471883
10.64527679843435	7.436563	2.7270062
10.662879571852143	7.3136487	2.7043757
10.680482597614331	7.215037	2.6860821
10.698085876147173	7.1490674	2.673774
10.715689407876988	7.0495634	2.6551013
10.733293193230146	6.9022346	2.6272104
10.750897232633072	6.755974	2.5992255
10.76850152651225	6.6624007	2.5811627
10.786106075294207	6.564531	2.562134
10.803710879405534	6.5547466	2.560224
10.821315939272877	6.501352	2.549775
10.83892125532294	6.385943	2.5270424
10.856526827982472	6.2550936	2.5010185
10.874132657678285	6.2215676	2.494307
10.891738744837243	6.177941	2.4855464
10.909345089886271	6.1743655	2.484827
10.926951693252343	6.136504	2.477197
10.944558555362494	6.0989356	2.4696023
10.96216567664381	6.0028687	2.4500751
10.979773057523436	5.9330726	2.4357898
10.997380698428573	5.8622007	2.4211981
11.014988599786477	5.76514	2.4010706
11.032596762024461	5.7039557	2.3882957
11.050205185569892	5.712208	2.3900225
11.067813870850198	5.642451	2.3753843
11.085422818292859	5.5529275	2.356465
11.10303202832541	5.4579353	2.3362224
11.120641501375454	5.424623	2.329082
11.138251237870636	5.4129853	2.3265824
11.155861238238671	5.322496	2.3070536
11.173471502907317	5.252465	2.2918255
11.191082032304402	5.128658	2.264654
11.208692826857805	5.08304	2.25456
11.226303886995465	5.0090604	2.2380931
11.243915213145371	4.962675	2.2277062
11.261526805735578	4.9618573	2.2275226
11.279138665194196	4.9625716	2.227683
11.296750791949393	4.9184833	2.2177653
11.314363186429393	4.852913	2.2029328
11.331975849062479	4.7795634	2.1862214
11.34958878027699	4.716737	2.171805
11.36720198050133	4.6834188	2.1641207
11.384815450163948	4.661215	2.1589847
11.402429189693366	4.6656547	2.1600127
11.420043199518153	4.599972	2.1447544
11.437657480066942	63.514214	7.9695807
11.455272031768422	85.22508	9.231743
11.472886855051353	107.62028	10.37402
11.490501950344528	99.24317	9.962087
11.508117318076819	84.512276	9.193056
11.52573295867715	45.877193	6.7732706
11.543348872574514	4.1439033	2.035658
11.560965060197946	4.0998273	2.024803
11.57858152197655	4.0505185	2.01259
11.59619825833949	3.995297	1.9988239
11.613815269715985	3.9713075	1.992814
11.631432556535323	38.45349	6.201088
11.649050119226837	82.99163	9.109974
11.666667958219929	93.43013	9.665926
11.68428607394406	107.73359	10.379479
11.701904466828756	82.57859	9.087276
11.719523137303586	65.43933	8.089458
11.737142085798196	4.6662316	2.1601462
11.754761312742286	3.7868674	1.9459875
11.772380818565619	3.7249434	1.9300113
11.790000603698015	3.6722937	1.916323
11.80762066856935	3.5738063	1.8904513
11.825241013609572	3.5126657	1.8742107
11.842861639248683	3.497271	1.8700992
11.860482545916748	3.5052886	1.8722416
11.878103734043883	3.4989989	1.8705611
11.895725204060282	3.4614992	1.8605105
11.91334695639619	3.3998845	1.8438776
11.930968991481919	3.372848	1.8365315
11.948591309747824	3.3649192	1.8343716
11.966213911624347	3.3609066	1.8332776
11.98383679754198	3.3207004	1.8222789
12.001459967931268	3.3135126	1.8203056
12.019083423222835	3.317269	1.8213372
12.036707163847352	3.2797503	1.8110081
12.05433119023556	3.2120242	1.7922121
12.071955502818259	3.1899457	1.7860419
12.089580102026313	3.1379972	1.7714393
12.107204988290643	3.1081781	1.7630026
12.12483016204224	3.1053886	1.7622113
12.142455623712152	3.1128182	1.7643181
12.16008137373149	3.1483033	1.7743459
12.177707412531431	3.1563778	1.7766198
12.19533374054321	3.1050808	1.762124
12.212960358198126	3.0523174	1.7470883
12.230587265927545	3.032857	1.7415099
12.248214464162889	3.0257158	1.7394584
12.265841953335649	3.0609245	1.7495499
12.283469733877375	3.0371244	1.7427348
12.301097806219685	3.0369377	1.7426811
12.31872617079425	3.027999	1.7401147
12.336354828032825	2.9981043	1.7315035
12.353983778367205	2.968738	1.7230027
12.371613022229262	2.962649	1.7212348
12.389242560050928	2.9603493	1.7205665
12.406872392264201	2.956712	1.7195092
12.424502519301143	2.9231193	1.7097132
12.442132941593874	2.90336	1.7039249
12.459763659574586	2.9033232	1.703914
12.477394673675532	2.8935661	1.7010485
12.49502598432903	2.9130893	1.7067775
12.51265759196746	2.8874915	1.699262
12.530289497023267	2.8494601	1.6880344
12.547921699928967	2.814731	1.677716
12.565554201117134	2.8104577	1.676442
12.583187001020404	2.8230014	1.680179
12.600820100071486	2.8420098	1.6858262
12.618453498703152	2.8246074	1.6806568
12.636087197348235	2.830886	1.6825236
12.65372119643964	2.8652508	1.6927052
12.671355496410326	2.8837237	1.698153
12.68899009769333	2.8605058	1.691303
12.706625000721749	2.8499382	1.688176
12.724260205928752	2.8828633	1.6978997
12.741895713747551	2.9255028	1.7104101
12.759531524611454	2.9787025	1.7258918
12.777167638953818	3.039077	1.7432948
12.794804057208072	3.0950854	1.7592854
12.812440779807702	3.1495588	1.7746997
12.830077807186271	3.290356	1.8139338
12.847715139777405	3.3085241	1.8189349
12.865352778014795	3.4991515	1.8706019
12.882990722332197	3.5806296	1.8922552
12.90062897316344	3.656472	1.9121903
12.918267530942412	3.6950173	1.9222428
12.935906396103071	3.6096396	1.8999052
12.953545569079449	3.7524931	1.9371353
12.971185050305628	3.5921683	1.8953017
12.988824840215775	3.5724273	1.8900865
13.006464939244115	3.6407406	1.9080725
13.024105347824943	3.5158176	1.8750514
13.041746066392617	3.60527	1.8987548
13.05938709538157	3.3812711	1.8388233
13.077028435226296	3.413373	1.8475316
13.094670086361363	3.288367	1.8133855
13.112312049221401	3.181742	1.7837439
13.129954324241112	3.1027908	1.761474
13.147596911855258	2.9323428	1.7124084
13.165239812498685	2.9067626	1.704923
13.182883026606293	2.8193617	1.6790955
13.200526554613058	2.767074	1.6634525
13.218170396954017	2.7608325	1.6615753
13.235814554064284	2.7491791	1.6580648
13.253459026379034	2.724121	1.6504911
13.271103814333523	2.6765895	1.6360285
13.288748918363058	2.681708	1.6375922
13.306394338903031	2.6964197	1.6420779
13.32404007638889	2.6911364	1.6404684
13.341686131256164	2.6791162	1.6368006
13.359332503940449	2.6759124	1.6358216
13.376979194877402	2.6871102	1.6392407
13.394626204502751	2.718052	1.6486516
13.412273533252307	2.7013826	1.6435883
13.429921181561937	2.68513	1.6386366
13.447569149867581	2.6929326	1.6410158
13.465217438605247	2.6908147	1.6403702
13.482866048211022	2.6692805	1.6337934
13.500514979121052	2.6926203	1.6409205
13.518164231771568	2.7109	1.6464812
13.535813806598844	2.7349093	1.6537561
13.553463704039254	2.767799	1.6636703
13.571113924529229	2.766676	1.6633328
13.588764468505275	2.773398	1.6653522
13.606415336403956	2.7363598	1.6541946
13.624066528661917	2.7175777	1.6485077
13.641718045715882	2.76773	1.6636496
13.659369888002635	2.8229008	1.6801491
13.67702205595903	2.904593	1.7042867
13.694674550021993	2.9576764	1.7197896
13.712327370628532	3.0288236	1.7403516
13.729980518215713	3.1019878	1.7612461
13.747633993220681	3.2195578	1.7943126
13.765287796080647	3.2705367	1.8084625
13.7829419272329	3.3085248	1.818935
13.800596387114801	3.3012207	1.8169261
13.818251176163775	3.3206356	1.8222611
13.835906294817324	3.3493779	1.8301306
13.853561743513023	3.4187334	1.8489817
13.871217522688525	3.5027168	1.8715546
13.888873632781538	3.5134094	1.8744091
13.906530074229858	3.54399	1.8825488
13.92418684747135	3.563392	1.8876948
13.941843952943948	3.53939	1.8813267
13.959501391085665	3.4960623	1.869776
13.977159162334578	3.4367485	1.8538469
13.994817267128846	3.3902614	1.8412663
14.012475705906693	3.303288	1.817495
14.030134479106424	3.2359195	1.7988662
14.047793587166414	3.1611776	1.7779701
14.065453030525108	3.095064	1.7592794
14.083112809621026	3.0166824	1.7368599
14.100772924892766	2.976277	1.725189
14.118433376778997	2.9653025	1.7220054
14.136094165718458	2.8757217	1.6957953
14.153755292149969	2.7603812	1.6614395
14.171416756512416	2.6815803	1.6375531
14.189078559244768	2.6148355	1.6170453
14.20674070078606	2.5772839	1.6053921
14.224403181575408	2.504435	1.5825408
14.242066002051999	2.4975047	1.5803496
14.259729162655093	2.4507477	1.5654864
14.277392663824022	2.431209	1.5592335
14.295056505998208	2.4094234	1.5522318
14.312720689617128	2.4145958	1.553897
14.330385215120348	2.4028962	1.5501277
14.348050082947497	2.4242756	1.5570085
14.3657152935383	2.4335144	1.5599725
14.383380847332528	2.4611776	1.568814
14.401046744770051	2.435159	1.5604995
14.418712986290798	2.4209146	1.5559288
14.436379572334793	2.371462	1.5399553
14.454046503342123	2.3670964	1.5385371
14.471713779752946	2.396762	1.5481479
14.489381402007504	2.393315	1.5470343
14.507049370546113	2.4068432	1.5514004
14.524717685809168	2.3891525	1.5456884
14.542386348237134	2.4150128	1.5540311
14.560055358270553	2.4160879	1.554377
14.577724716350051	2.470891	1.5719068
14.595394422916325	2.4767365	1.573765
14.61306447841015	2.506567	1.5832142
14.63073488327237	2.5219378	1.588061
14.648405637943917	2.5216405	1.5879674
14.6660767428658	2.4936016	1.5791142
14.683748198479094	2.4864147	1.576837
14.701420005224954	2.484652	1.5762779
14.719092163544628	2.5363457	1.5925909
14.73676467387942	2.6062613	1.6143919
14.754437536670727	2.665404	1.6326065
14.772110752360014	2.6761768	1.6359024
14.78978432138882	2.675381	1.6356592
14.807458244198777	2.6845791	1.6384685
14.82513252123159	2.660517	1.6311091
14.842807152929028	2.6391957	1.6245601
14.860482139732962	2.6589136	1.6306175
14.87815748208531	2.6520717	1.6285182
14.8958331804281	2.6519241	1.6284729
14.91350923520342	2.626011	1.6204971
14.931185646853438	2.696214	1.6420152
14.948862415820408	2.7343762	1.653595
14.966539542546656	2.7637331	1.6624479
14.98421702747459	2.7207086	1.6494571
15.001894871046696	2.6934729	1.6411803
15.019573073705542	2.6536462	1.6290016
15.037251635893766	2.675081	1.6355675
15.054930558054092	2.683286	1.6380738
15.072609840629323	2.7452338	1.6568747
15.090289484062351	2.855688	1.6898781
15.107969488796124	3.123396	1.7673132
15.125649855273691	3.5621457	1.8873647
15.14333058393817	4.098577	2.0244942
15.161011675232768	5.0690107	2.2514462
15.17869312960076	6.4437585	2.538456
15.196374947485506	8.302478	2.881402
15.214057129330447	11.421237	3.379532
15.231739675579114	16.12751	4.0159073
15.249422586675102	21.065708	4.5897393
15.267105863062092	24.10977	4.91017
15.284789505183847	24.319399	4.9314704
15.302473513484218	22.180452	4.709613
15.320157888407127	18.581242	4.3105965
15.337842630396578	14.413778	3.7965481
15.355527739896656	11.146836	3.338688
15.37321321735153	8.656736	2.9422333
15.39089906320545	6.377833	2.525437
15.408585277902748	4.843412	2.2007754
15.42627186188783	3.7809122	1.9444568
15.443958815605198	3.2458386	1.8016211
15.461646139499424	2.9488742	1.7172287
15.479333834015168	2.796851	1.6723788
15.497021899597165	2.7398534	1.6552502
15.514710336690234	2.7110555	1.6465284
15.53239914573928	2.6579823	1.630332
15.550088327189297	2.6022196	1.6131396
15.567777881485336	2.5227585	1.5883194
15.58546780907256	2.4935975	1.5791129
15.6031581103962	2.4734747	1.5727284
15.620848785901568	2.4706457	1.5718287
15.638539836034063	2.4384532	1.5615548
15.656231261239173	2.4019775	1.5498315
15.673923061962451	2.4232965	1.556694
15.691615238649552	2.4418695	1.5626482
15.709307791746202	2.4201643	1.5556878
15.727000721698221	2.3912046	1.546352
15.744694028951498	2.4018488	1.5497899
15.76238771395202	2.3982158	1.5486174
15.780081777145844	2.3987703	1.5487964
15.797776218979125	2.356332	1.5350349
15.815471039898094	2.3211315	1.523526
15.833166240349064	2.3172526	1.5222524
15.850861820778437	2.3596938	1.5361295
15.868557781632699	2.393999	1.5472554
15.886254123358412	2.378712	1.5423074
15.903950846402232	2.350642	1.5331804
15.921647951210897	2.3531706	1.5340048
15.939345438231225	2.3300755	1.5264585
15.957043307910133	2.333696	1.5276439
15.974741560694602	2.346885	1.5319546
15.992440197031714	2.377534	1.5419254
16.01013921736862	2.3692203	1.5392271
16.02783862215259	2.3473773	1.5321153
16.045538411830933	2.3427415	1.5306016
16.06323858685107	2.3808756	1.5430086
16.080939147660512	2.438018	1.5614154
16.09864009470684	2.4479575	1.564595
16.11634142843774	2.464362	1.5698286
16.134043149300954	2.4550738	1.5668675
16.15174525774433	2.4360585	1.5607878
16.169447754215817	2.4202428	1.5557129
16.18715063916342	2.4212768	1.5560453
16.204853913035244	2.4543352	1.5666318
16.222557576279478	2.4697378	1.5715399
16.240261629344403	22.445444	4.7376623
16.257966072678386	42.960392	6.5544176
16.275670906729868	38.058563	6.1691623
16.293376131947387	2.5124123	1.585059
16.31108174877957	2.535356	1.5922801
16.328787757675133	2.5526953	1.5977156
16.34649415908287	2.5261288	1.58938
16.364200953451657	2.561936	1.6006049
16.38190814123048	2.6106768	1.6157589
16.39961572286839	2.6733434	1.6350362
16.41732369881455	2.7404394	1.6554272
16.43503206951817	2.7574053	1.6605437
16.45274083542859	2.7522612	1.6589941
16.47044999699522	2.7810218	1.6676396
16.488159554667558	2.86251	1.6918954
16.505869508895184	2.9559112	1.7192763
16.523579860127786	3.0043423	1.7333039
16.541290608815117	3.0217016	1.7383043
16.559001755407035	3.0469465	1.7455505
16.57671330035348	3.0699208	1.752119
16.59442524410448	3.0991406	1.7604376
16.61213758711015	3.169747	1.7803783
16.629850329820705	3.2321987	1.7978317
16.647563472686436	3.2817755	1.8115672
16.665277016157724	3.3596435	1.8329331
16.682990960685053	3.442735	1.8554609
16.70070530671898	3.5236268	1.8771327
16.718420054710155	3.5422473	1.8820859
16.736135205109335	3.5795329	1.8919654
16.753850758367335	3.622585	1.903309
16.771566714935087	3.6824968	1.9189832
16.789283075263597	3.768641	1.9412988
16.80699983980398	3.8370023	1.9588268
16.82471700900741	3.8702006	1.9672825
16.84243458332518	3.8659916	1.9662125
16.860152563208665	3.9359374	1.9839197
16.87787094910932	4.0329385	2.0082178
16.89558974147871	4.1173267	2.0291197
16.913308940768466	4.180796	2.0446994
16.931028547430333	4.220291	2.0543346
16.94874856191613	4.2777553	2.0682735
16.966468984677785	4.3526125	2.0862916
16.98418981616729	4.4526653	2.110134
17.00191105683676	4.4867125	2.1181862
17.019632707138374	4.477838	2.1160903
17.03735476752442	4.4883733	2.1185782
17.05507723844728	4.493791	2.1198564
17.072800120359403	4.544782	2.1318495
17.090523413713353	4.6127224	2.1477249
17.108247118961785	4.614068	2.1480381
17.125971236557437	4.6454477	2.1553302
17.143695766953133	4.667473	2.1604335
17.161420710601806	4.7153406	2.1714835
17.179146067956477	4.677378	2.1627247
17.19687183947025	4.6884356	2.1652796
17.21459802559634	4.6848335	2.1644475
17.232324626788028	4.646282	2.1555235
17.25005164349871	4.6176977	2.1488829
17.267779076181863	4.5865917	2.141633
17.285506925291074	4.612756	2.1477327
17.30323519127999	4.5885024	2.1420789
17.320963874602384	4.542732	2.1313686
17.33869297571211	4.519499	2.1259112
17.356422495063114	4.5230627	2.1267493
17.37415243310944	4.491848	2.119398
17.391882790305218	4.4528317	2.1101735
17.40961356710468	4.4203196	2.1024556
17.42734476396215	4.449351	2.1093485
17.445076381332044	4.462306	2.1124172
17.462808419668868	4.534017	2.1293232
17.48054087942723	4.639911	2.1540453
17.498273761061835	4.9577913	2.22661
17.51600706502747	5.504663	2.346202
17.533740791779024	6.3136587	2.5126996
17.551474941771485	7.7985244	2.7925837
17.56920951545993	8.901933	2.9836106
17.586944513299528	10.978383	3.3133643
17.60467993574556	12.511397	3.5371454
17.622415783253373	14.213847	3.7701256
17.64015205627843	15.594083	3.9489343
17.657888755276293	16.61505	4.076156
17.675625880702604	17.083315	4.133197
17.69336343301311	16.85621	4.1056314
17.71110141266366	16.081379	4.0101595
17.728839820110178	15.133691	3.8902044
17.746578655808705	14.343775	3.7873175
17.764317920215372	13.003438	3.606028
17.7820576137864	11.57654	3.4024315
17.79979773697811	9.584837	3.0959387
17.81753829024692	7.7088227	2.7764766
17.835279274049356	5.990365	2.4475222
17.85302068884201	4.964937	2.2282138
17.870762535081607	4.3008285	2.073844
17.888504813224934	3.9615967	1.990376
17.90624752372891	3.7685988	1.9412879
17.923990667050536	3.679736	1.9182638
17.941734243646895	3.5678935	1.8888868
17.959478253975185	3.5105588	1.8736485
17.9772226984927	3.4915464	1.8685681
17.994967577656833	3.463657	1.8610903
18.01271289192506	3.4233117	1.8502194
18.030458641754965	3.379628	1.8383764
18.04820482760425	3.314327	1.8205293
18.06595144993067	3.2645645	1.8068106
18.083698509192125	3.224835	1.7957826
18.101446005846576	3.2186275	1.7940533
18.119193940352105	3.2014918	1.7892714
18.136942313166887	3.1847215	1.7845788
18.1546911247492	3.166566	1.7794847
18.1724403755574	3.1459992	1.7736964
18.19019006604997	3.1602762	1.7777165
18.207940196685467	3.1507733	1.7750418
18.225690767922575	3.182244	1.7838845
18.243441780220046	3.1716535	1.7809137
18.261193234036764	3.1273167	1.7684221
18.278945129831676	3.0387733	1.7432078
18.29669746806386	3.060273	1.7493635
18.314450249192483	3.0768845	1.7541051
18.3322034736768	3.107359	1.7627703
18.349957141976184	3.073742	1.753209
18.3677112545501	3.0871327	1.7570238
18.385465811858108	3.101214	1.7610264
18.403220814359884	3.1087532	1.7631657
18.420976262515172	3.0865934	1.7568704
18.43873215678387	3.0865145	1.7568479
18.456488497625923	3.090346	1.757938
18.474245285501407	3.1828456	1.7840531
18.492002520870486	3.2784863	1.810659
18.50976020419343	3.3467374	1.829409
18.527518335930615	3.6647966	1.9143659
18.545276916542516	4.291575	2.0716116
18.563035946489688	4.49067	2.1191201
18.580795426232832	4.952599	2.2254436
18.598555356232698	4.8010397	2.1911275
18.616315736950185	5.060344	2.2495208
18.63407656884626	4.725137	2.173738
18.65183785238201	4.9594254	2.2269766
18.669599588018617	4.73287	2.1755161
18.68736177621737	4.6873465	2.165028
18.705124417439652	4.676236	2.1624606
18.72288751214696	4.490046	2.1189728
18.740651060800886	4.5618167	2.135841
18.758415063863115	4.2210617	2.0545223
18.77617952179546	4.3903265	2.0953107
18.793944435059814	4.208669	2.0515041
18.811709804118184	4.27041	2.066497
18.829475629432675	4.255218	2.062818
18.8472419114655	4.035076	2.00875
18.86500865067897	4.103518	2.0257142
18.88277584753551	3.7478018	1.935924
18.90054350249763	3.7936463	1.9477285
18.918311616027957	3.4689007	1.8624985
18.936080188589226	3.343691	1.8285762
18.953849220644265	3.0241628	1.739012
18.971618712656007	2.8755302	1.6957388
18.9893886650875	2.8250914	1.6808008
19.007159078401887	7.984107	2.8256161
19.024929953062408	32.87283	5.7334833
19.042701289532435	32.837906	5.730437
19.060473088275405	25.403044	5.040143
19.07824534975489	2.7023568	1.6438847
19.096018074434568	2.6945324	1.6415031
19.113791262778197	2.675834	1.6357976
19.13156491524966	2.6188934	1.6182995
19.149339032312945	2.596972	1.6115123
19.167113614432136	2.6030757	1.613405
19.184888662071433	2.5635905	1.6011217
19.202664175695123	2.532557	1.591401
19.220440155767623	2.5377367	1.5930275
19.238216602753447	2.5593123	1.5997851
19.2559935171172	2.5524974	1.5976537
19.27377089932361	2.5471642	1.5959837
19.291548749837514	2.54396	1.5949796
19.309327069123835	2.5221612	1.5881314
19.32710585764763	2.5174332	1.5866421
19.344885115874032	2.490846	1.5782413
19.362664844268313	2.5023527	1.5818826
19.380445043295822	2.4986053	1.5806977
19.39822571342203	2.512426	1.5850633
19.41600685511252	2.5576675	1.5992709
19.43378846883297	2.5910828	1.6096841
19.451570555049173	2.5383894	1.5932324
19.469353114227037	2.5312696	1.5909964
19.48713614683254	2.5315456	1.5910832
19.50491965333182	2.5264482	1.5894805
19.52270363419109	2.4804018	1.5749291
19.540488089876686	2.4841053	1.5761045
19.55827302085503	2.5076795	1.5835655
19.576058427592674	2.5260458	1.5893539
19.593844310556282	2.539944	1.5937202
19.611630670212598	2.527452	1.5897962
19.629417507028506	2.497171	1.580244
19.64720482147098	2.467411	1.5707995
19.6649926140071	2.4428642	1.5629665
19.682780885104084	2.4314203	1.5593013
19.70056963522921	2.4464245	1.564105
19.718358864849908	2.4895668	1.5778362
19.7361485744337	2.490073	1.5779965
19.753938764448215	2.4786017	1.5743575
19.771729435361202	2.4893382	1.5777637
19.789520587640506	2.509725	1.5842112
19.807312221754092	2.5503626	1.5969855
19.825104338170043	2.5721495	1.6037922
19.842896937356517	2.568315	1.6025963
19.860690019781824	2.5281768	1.5900241
19.87848358591436	2.4914453	1.5784312
19.896277636222635	2.5052145	1.5827869
19.914072171175278	2.5350862	1.5921954
19.931867191241015	2.521587	1.5879506
19.94966269688869	2.4847286	1.5763022
19.967458688587264	2.4598534	1.568392
19.985255166805807	2.4867787	1.5769523
20.00305213201348	2.4796376	1.5746865
20.020849584679578	2.4722638	1.5723435
20.038647525273507	2.4768007	1.5737854
20.05644595426477	2.4767144	1.573758
20.07424487212299	2.4591084	1.5681545
20.092044279317903	2.43754	1.5612624
20.109844176319353	2.4444344	1.5634687
20.127644563597304	2.4463015	1.5640657
20.145445441621817	2.4577415	1.5677185
20.16324681086307	2.4257019	1.5574665
20.181048671791373	2.4110954	1.5527703
20.198851024877122	2.4285958	1.5583953
20.216653870590836	2.407031	1.551461
20.234457209403146	2.3960924	1.5479317
20.252261041784802	2.383495	1.5438572
20.270065368206662	2.3682725	1.5389193
20.287870189139685	2.3535197	1.5341185
20.305675505054968	2.3669407	1.5384865
20.323481316423702	2.3787832	1.5423305
20.341287623717207	2.3782046	1.5421429
20.359094427406884	2.356081	1.5349531
20.376901727964288	2.3682194	1.538902
20.39470952586107	2.339712	1.5296117
20.41251782156899	2.3357768	1.5283248
20.430326615559935	2.3143191	1.5212886
20.448135908305886	2.281713	1.510534
20.465945700278965	2.265384	1.5051192
20.483755991951384	2.3109393	1.5201774
20.50156678379548	2.3557227	1.5348364
20.519378076283708	2.3531778	1.5340071
20.537189869888635	2.3365734	1.5285854
20.55500216508294	2.3524022	1.5337542
20.572814962339415	2.3445098	1.5311792
20.59062826213098	2.3376207	1.5289279
20.60844206493066	2.3130236	1.5208628
20.626256371211593	2.3811674	1.5431032
20.644071181447032	2.396144	1.5479482
20.66188649611036	2.377405	1.5418836
20.67970231567506	2.3675053	1.53867
20.697518640614742	2.3733714	1.540575
20.715335471403122	2.3514447	1.5334421
20.73315280851404	2.3557763	1.5348538
20.750970652421447	2.369727	1.5393918
20.768789003599412	2.3922536	1.5466912
20.786607862522136	2.3631063	1.5372398
20.8044272296639	2.3259144	1.5250949
20.82224710549913	2.2731214	1.5076874
20.84006749050237	2.2618148	1.5039331
20.857888385148268	3.8111298	1.9522115
20.8757097899116	45.96396	6.7796726
20.893531705267254	64.847046	8.052767
20.911354131690224	83.83976	9.156405
20.92917706965566	69.0585	8.310144
20.94700051963877	50.093983	7.07771
20.96482448211493	29.336786	5.416344
20.982648957559622	4.0934296	2.0232227
21.00047394644843	2.2304811	1.4934795
21.01829944925707	2.2424033	1.4974656
21.036125466461375	2.2752783	1.5084026
21.053951998537297	2.2907045	1.5135074
21.071779045960906	2.3214512	1.523631
21.089606609208378	2.3111062	1.5202323
21.10743468875603	2.274955	1.5082954
21.12526328508028	2.2392783	1.4964218
21.143092398657675	2.2257237	1.491886
21.16092202996488	2.200882	1.483537
21.17875217947867	2.2035403	1.4844327
21.19658284767596	2.2023299	1.4840249
21.21441403503377	2.2234087	1.4911098
21.232245742029225	2.2091725	1.4863285
21.2500779691396	2.19852	1.4827406
21.26791071684227	2.1826894	1.4773928
21.28574398561475	2.166356	1.4718547
21.30357777593465	2.1493292	1.4660591
21.321412088279704	2.160763	1.4699534
21.339246923127792	2.1787472	1.476058
21.357082280956888	2.1881928	1.4792541
21.3749181622451	2.1470182	1.4652706
21.392754567470647	2.124577	1.4575928
21.41059149711187	2.108467	1.4520562
21.42842895164726	2.114379	1.4540904
21.446266931555378	2.0844069	1.4437475
21.464105437314945	2.0838308	1.443548
21.481944469404798	2.1114874	1.4530958
21.49978402830388	2.109512	1.452416
21.51762411449127	2.1223102	1.4568151
21.53546472844617	2.1328187	1.4604173
21.553305870647876	2.1492672	1.4660379
21.571147541575865	2.1264179	1.4582242
21.58898974170967	2.0918293	1.4463158
21.60683247152899	2.0827434	1.4431713
21.62467573151363	2.0856411	1.4441749
21.642519522143523	2.0611627	1.435675
21.660363843898722	2.0477984	1.4310131
21.6782086972594	2.0733116	1.4398998
21.696054082705864	2.0735056	1.4399673
21.713900000718535	2.074577	1.4403392
21.73174645177795	2.0534396	1.4329828
21.749593436364794	2.0294511	1.4245881
21.767440954959845	2.0278146	1.4240136
21.785289008044032	2.0390515	1.4279536
21.803137596098388	2.041997	1.4289846
21.820986719604086	2.0394971	1.4281096
21.838836379042412	2.0346525	1.4264125
21.85668657489478	2.0076952	1.4169316
21.87453730764273	1.9923528	1.4115072
21.892388577767914	2.0170155	1.4202167
21.91024038575213	2.040819	1.4285723
21.928092732077285	2.0348966	1.426498
21.945945617225426	2.027788	1.4240042
21.963799041678694	1.9889679	1.4103078
21.981653005919398	31.312193	5.59573
21.999507510429943	78.1156	8.838303
22.01736255569286	73.10655	8.550237
22.035218142190818	4.193442	2.0477896
22.05307427040661	1.9862221	1.409334
22.07093094082315	2.0007975	1.4144955
22.088788153923474	2.0059845	1.4163278
22.106645910190746	2.021656	1.4218495
22.12450421010827	1.9933662	1.4118662
22.142363054159464	1.9792868	1.4068713
22.16022244282787	1.9668899	1.4024585
22.178082376597164	1.9829628	1.4081771
22.195942855951145	1.995276	1.4125423
22.213803881373742	1.975613	1.405565
22.231665453349002	1.9747897	1.4052721
22.24952757236111	1.9789623	1.4067559
22.26739023889438	1.968425	1.4030057
22.28525345343323	1.9345676	1.3908874
22.30311721646225	1.9086564	1.3815413
22.320981528466113	1.920993	1.385999
22.33884638992964	1.9211496	1.3860555
22.356711801337788	1.9291463	1.3889371
22.37457776317561	1.9478846	1.3956664
22.392444275928337	1.968649	1.4030856
22.410311340081282	2.0012426	1.4146528
22.428178956119904	2.0008178	1.4145026
22.446047124529805	1.9733412	1.4047567
22.46391584579669	1.9414089	1.3933445
22.481785120406414	1.946832	1.3952892
22.49965494884496	1.9412353	1.3932822
22.51752533159841	1.947059	1.3953706
22.53539626915302	1.9538543	1.3978034
22.553267761995137	1.9202219	1.3857207
22.571139810611264	1.9062561	1.3806723
22.589012415488025	1.9019128	1.3790985
22.60688557711216	1.932563	1.3901665
22.624759295970566	1.952972	1.3974878
22.642633572550263	1.9673612	1.4026265
22.660508407338362	1.9869559	1.4095942
22.67838380082217	2.0122528	1.4185389
22.696259753489077	1.999705	1.4141092
22.714136265826614	1.9799957	1.4071232
22.73201333832246	1.9429559	1.3938996
22.74989097146439	1.934032	1.3906947
22.76776916574035	1.9385458	1.3923167
22.785647921638393	1.9484555	1.3958708
22.803527239646712	1.9461386	1.3950408
22.82140712025363	1.9747621	1.4052622
22.839287563947593	1.943261	1.394009
22.85716857121719	1.9035118	1.3796781
22.875050142551135	1.877501	1.3702193
22.892932278438277	1.895731	1.3768555
22.910814979367604	1.8993472	1.3781681
22.928698245828222	1.9004638	1.3785731
22.946582078309387	1.927363	1.388295
22.96446647730047	1.9448171	1.394567
22.98235144329098	1.9340591	1.3907045
23.000236976770562	1.9216679	1.3862424
23.018123078229	1.9219204	1.3863335
23.03600974815619	1.9058157	1.3805128
23.053896987042194	1.8936491	1.3760992
23.071784795377173	1.8767551	1.3699471
23.08967317365145	1.8553222	1.3621022
23.10756212235546	1.858318	1.3632014
23.125451641979787	1.8876077	1.3739023
23.143341733015134	1.8914005	1.3752819
23.161232395952357	1.9042284	1.3799379
23.179123631282426	1.9353297	1.3911613
23.197015439496468	1.9675473	1.4026929
23.214907821085717	1.9458821	1.3949487
23.23280077654157	1.940978	1.3931899
23.250694306355538	1.9379197	1.3920919
23.268588411019277	1.9349483	1.3910242
23.28648309102458	1.9168812	1.3845148
23.304378346863356	1.8672291	1.3664659
23.322274179027676	1.8623286	1.3646716
23.340170588009723	1.8763303	1.3697921
23.358067574301852	1.9112908	1.3824944
23.37596513839651	1.9491966	1.3961363
23.39386328078629	1.933143	1.3903751
23.411762001963947	1.9032673	1.3795896
23.429661302422353	1.9163461	1.3843216
23.4475611826545	1.8999015	1.3783691
23.46546164315356	1.8681098	1.3667881
23.48336268441279	1.859752	1.3637272
23.501264306925638	1.8732562	1.3686695
23.51916651118564	1.8772916	1.3701429
23.537069297686497	1.8747327	1.3692088
23.554972666922037	1.889324	1.3745269
23.57287661938623	1.9390922	1.3925129
23.59078115557318	1.9650595	1.4018058
23.608686275977128	1.9850197	1.4089073
23.62659198109246	1.9401761	1.392902
23.6444982714137	1.9043807	1.379993
23.66240514743549	1.881761	1.3717729
23.68031260965263	1.8953195	1.376706
23.698220658560068	1.9109114	1.3823572
23.716129294652845	1.9415869	1.3934083
23.7340385184262	1.9224976	1.3865416
23.75194833037546	1.8781546	1.3704578
23.769858730996123	1.8848764	1.372908
23.78776972078382	1.8761767	1.369736
23.80568130023431	1.8839077	1.3725551
23.823593469843495	1.868174	1.3668116
23.841506230107424	1.8859076	1.3732835
23.859419581522275	1.9032248	1.3795742
23.87733352458438	1.9081087	1.3813431
23.89524805979019	1.9202343	1.3857251
23.913163187636318	1.9072155	1.3810197
23.931078908619508	1.9324491	1.3901255
23.948995223236633	1.970047	1.4035836
23.966912131984735	2.0172496	1.4202992
23.98482963536096	2.060769	1.4355379
24.002747733862616	2.0543053	1.4332848
24.020666427987155	2.049466	1.4315956
24.038585718232156	2.0272892	1.4238291
24.056505605095353	2.0059488	1.4163152
24.074426089074617	2.0346918	1.4264263
24.092347170667946	2.0604506	1.435427
24.110268850373515	2.0927315	1.4466276
24.128191128689586	2.096199	1.4478257
24.146114006114626	2.0846908	1.4438459
24.164037483147187	2.0442092	1.4297584
24.181961560286005	2.0102367	1.4178282
24.199886238029926	2.0414913	1.4288076
24.21781151687797	2.0945227	1.4472466
24.235737397329274	2.0697916	1.4386771
24.253663879883135	2.0570378	1.4342377
24.271590965038975	2.0276988	1.4239728
24.289518653296376	2.039513	1.4281152
24.30744694515505	2.0827777	1.4431832
24.32537584111486	2.10418	1.4505793
24.34330534167581	2.10144	1.4496344
24.361235447338046	2.065227	1.4370898
24.379166158601876	2.0083992	1.4171801
24.39709747596772	2.0187848	1.4208394
24.41502939993615	2.04747	1.4308983
24.432961931007917	2.0611877	1.4356837
24.450895069683856	2.0343575	1.4263091
24.468828816465	1.9966536	1.4130299
24.4867631718525	1.9909196	1.4109995
24.504698136347656	2.0330138	1.425838
24.52263371045192	2.0144439	1.419311
24.540569894666874	1.984623	1.4087665
24.558506689494266	1.9508157	1.396716
24.57644409543597	1.9567072	1.3988235
24.594382112994012	1.934166	1.3907429
24.61232074267057	1.9259595	1.3877894
24.630259984967953	1.9493428	1.3961887
24.64819984038863	2.0263667	1.4235051
24.66614030943522	2.002004	1.4149219
24.684081392610462	1.9528087	1.3974293
24.702023090417274	1.9455479	1.394829
24.7199654033587	1.9546325	1.3980818
24.737908331937927	1.978762	1.4066848
24.755851876658305	1.9875681	1.4098114
24.773796038023324	2.054754	1.4334413
24.79174081653661	2.070254	1.4388378
24.809686212701962	2.0874271	1.4447931
24.827632227023294	2.0996935	1.449032
24.8455788600047	2.133997	1.4608207
24.8635261121504	2.1867816	1.478777
24.88147398396475	2.1758735	1.4750842
24.899422475952303	2.1582704	1.4691052
24.917371588617698	2.165442	1.471544
24.935321322465768	2.2095792	1.4864653
24.953271678001478	2.2860305	1.5119625
24.97122265572994	2.4441712	1.5633845
24.989174256156414	2.7957234	1.6720417
25.00712647978632	3.2554717	1.8042926
25.02507932712521	3.7955952	1.9482287
25.043032798678798	4.3459835	2.0847023
25.060986894952933	4.99504	2.2349586
25.078941616453637	5.7030525	2.3881066
25.096896963687055	6.622656	2.5734522
25.114852937159508	7.7399945	2.7820845
25.132809537377444	8.2773075	2.877031
25.150766764847468	8.324877	2.8852863
25.168724620076347	7.707494	2.7762372
25.186683103570985	6.565334	2.5622907
25.204642215838426	5.392521	2.3221803
25.222601957385894	4.041126	2.010255
25.24056232872074	3.153184	1.7757207
25.25852333035048	2.6005228	1.6126137
25.276484962782778	2.2858725	1.5119102
25.294447226525435	2.1185074	1.4555093
25.312410122086423	2.0416467	1.4288621
25.330373649973843	1.9785753	1.4066184
25.348337810695988	1.9574386	1.3990849
25.366302604761245	1.9686761	1.4030951
25.384268032678207	1.9414108	1.3933451
25.40223409495558	1.9035226	1.3796821
25.420200792102257	1.8677448	1.3666546
25.438168124627246	1.908082	1.3813335
25.45613609303974	1.9350911	1.3910755
25.474104697849057	1.9052821	1.3803196
25.492073939564698	1.8604109	1.3639688
25.510043818696285	1.8819116	1.3718278
25.528014335753614	1.8994457	1.3782037
25.54598549124664	1.8927222	1.3757625
25.56395728568544	1.9023663	1.3792629
25.58192971958028	1.8774788	1.3702112
25.59990279344156	1.8282768	1.3521378
25.617876507779833	1.8419605	1.3571885
25.635850863105826	1.8382071	1.3558049
25.653825859930386	1.8755256	1.3694983
25.671801498764548	1.882325	1.3719785
25.68977778011949	1.870382	1.367619
25.707754704506524	1.8106227	1.3455938
25.725732272437153	1.8345075	1.3544399
25.743710484423012	1.844869	1.3582596
25.761689340975888	1.8659563	1.366
25.77966884260774	1.8645239	1.3654757
25.797648989830662	1.8760502	1.3696898
25.815629783156922	1.8670999	1.3664186
25.83361122309895	1.8552231	1.3620658
25.85159331016929	1.8546919	1.3618708
25.869576044880695	1.8362837	1.3550955
25.887559427746034	1.8352891	1.3547285
25.90554345927836	1.8402656	1.3565639
25.92352813999086	1.8527889	1.3611718
25.94151347039689	1.8302913	1.3528826
25.959499451009965	1.8447888	1.35823
25.97748608234374	1.8411568	1.3568923
25.995473364912062	1.8384007	1.3558763
26.013461299228904	1.8362889	1.3550974
26.03144988580839	1.8507723	1.360431
26.04943912516483	1.8032701	1.3428589
26.067429017812675	1.7439877	1.3206012
26.085419564266537	1.7403558	1.3192254
26.103410765041186	1.7846076	1.3358921
26.12140262065155	1.8162813	1.3476949
26.139395131612723	1.8012773	1.3421167
26.157388298439948	1.7699015	1.3303765
26.17538212164861	1.7830585	1.3353121
26.193376601754295	1.8313956	1.3532907
26.211371739272714	1.8649873	1.3656454
26.229367534719746	1.8147823	1.3471385
26.247363988611433	1.8427597	1.3574829
26.26536110146397	1.8395731	1.3563087
26.283358873793727	1.8585895	1.3633009
26.301357306117204	1.8361424	1.3550433
26.319356398951104	1.8360709	1.355017
26.33735615281224	1.8128994	1.3464395
26.35535656821762	1.789584	1.3377534
26.373357645684404	1.8196054	1.3489275
26.39135938572991	1.783081	1.3353206
26.409361788871614	1.795692	1.3400344
26.427364855627165	1.803435	1.3429203
26.445368586514352	1.8344476	1.3544178
26.46337298205115	1.8152387	1.3473079
26.48137804275568	1.8538448	1.3615596
26.499383769146217	1.8395376	1.3562956
26.517390161741215	1.8234136	1.3503383
26.53539722105928	1.7894576	1.3377061
26.553404947619182	1.7974149	1.340677
26.571413341939856	1.7780609	1.3334395
26.589422404540397	1.793355	1.339162
26.60743213594006	1.7871152	1.3368303
26.62544253665827	1.7986441	1.3411354
26.64345360721459	1.8045857	1.3433487
26.66146534812879	1.7683588	1.3297966
26.679477759920758	1.7895674	1.3377471
26.69749084311057	1.8340999	1.3542894
26.71550459821847	1.8993108	1.3781549
26.733519025764842	1.8589568	1.3634356
26.751534126270258	1.7973268	1.3406441
26.769549900255434	1.761698	1.3272897
26.787566348241267	1.7931881	1.3390998
26.80558347074881	1.8834786	1.3723989
26.823601268299267	1.8743622	1.3690735
26.841619741414036	1.8280642	1.3520592
26.85963889061465	1.7871462	1.3368418
26.877658716422832	1.8042933	1.3432398
26.89567921936045	1.801045	1.3420302
26.913700399949544	1.7924031	1.3388066
26.93172225871233	1.727695	1.3144181
26.949744796171174	1.7384548	1.3185048
26.967768012848605	1.7987142	1.3411615
26.98579190926733	1.8721225	1.3682553
27.003816485950225	1.8472928	1.3591515
27.021841743420318	1.8303578	1.3529072
27.039867682200814	1.7640795	1.3281865
27.057894302815072	1.8070363	1.3442605
27.07592160578664	1.8399259	1.3564386
27.0939495916392	1.7876924	1.3370461
27.111978260896635	1.775488	1.3324744
27.13000761408296	1.8214526	1.349612
27.148037651722397	1.8450817	1.3583379
27.166068374339304	1.8351182	1.3546653
27.184099782458215	1.8179687	1.3483207
27.20213187660384	1.7832495	1.3353837
27.22016465730105	1.787192	1.336859
27.23819812507487	1.790903	1.3382462
27.256232280450533	1.8232932	1.3502938
27.274267123953383	1.7922796	1.3387605
27.292302656108987	1.7583925	1.326044
27.31033887744306	1.7903857	1.338053
27.32837578848146	1.8066027	1.3440992
27.34641338975026	1.836679	1.3552413
27.364451681775673	1.8220577	1.3498362
27.382490665084074	1.8197503	1.3489813
27.400530340202046	1.8074852	1.3444275
27.41857070765629	1.7529145	1.3239768
27.436611767973726	1.71245	1.3086061
27.454653521681404	1.7404681	1.319268
27.472695969306564	1.7878493	1.3371048
27.490739111376627	1.8108022	1.3456606
27.508782948419153	1.809598	1.3452129
27.526827480961902	1.8086874	1.3448745
27.54487270953279	1.8288087	1.3523345
27.562918634659898	1.803765	1.3430432
27.580965256871508	1.7517738	1.3235459
27.599012576696026	1.7453834	1.3211296
27.617060594662068	1.8206954	1.3493315
27.63510931129842	1.8488371	1.3597195
27.65315872713401	1.8157238	1.3474879
27.67120884269797	1.7959747	1.3401399
27.68925965851958	1.8233049	1.350298
27.707311175128307	1.8604262	1.3639745
27.725363393053787	1.8760327	1.3696834
27.74341631282583	1.8656162	1.3658756
27.7614699349744	1.8109322	1.3457088
27.77952426002968	2.006357	1.4164593
27.797579288521973	2.163488	1.47088
27.815635020981784	2.634909	1.6232402
27.83369145793979	2.6839693	1.6382824
27.85174859992682	2.460664	1.5686504
27.869806447473923	2.3403907	1.5298336
27.887865001112267	2.03673	1.4271405
27.905924261373233	1.9402771	1.3929383
27.92398422878836	1.9105322	1.38222
27.94204490388936	1.8540944	1.3616513
27.96010628720813	1.855233	1.3620694
27.978168379276728	1.8899331	1.3747483
27.9962311806274	1.9009644	1.3787546
28.014294691792568	1.871216	1.367924
28.0323589133048	1.8551687	1.3620458
28.050423845696887	1.8291599	1.3524643
28.068489489501758	1.8541244	1.3616624
28.086555845252523	1.8427272	1.3574709
28.104622913482487	1.8687605	1.3670261
28.122690694725115	1.9103351	1.3821487
28.14075918951405	1.961705	1.4006088
28.15882839838312	1.9538814	1.3978131
28.176898321866304	1.8564221	1.3625058
28.1949689604978	1.8478148	1.3593435
28.213040314811945	1.9322034	1.3900372
28.23111238534327	1.9821228	1.4078789
28.249185172626493	1.950086	1.3964548
28.267258677196473	1.9457897	1.3949157
28.285332899588294	1.9600815	1.4000291
28.303407840337172	1.9687811	1.4031326
28.321483499978545	1.9243636	1.3872143
28.33955987904799	1.9340577	1.390704
28.357636978081285	1.9517229	1.3970407
28.37571479761439	1.9621116	1.400754
28.393793338183425	1.9438084	1.3942053
28.41187260032469	1.9731492	1.4046882
28.429952584574686	1.9685003	1.4030325
28.448033291470065	1.934076	1.3907106
28.46611472154769	1.8722752	1.368311
28.484196875344566	1.8730035	1.3685771
28.502279753397914	1.9263656	1.3879358
28.52036335624511	1.9405624	1.3930407
28.538447684423716	1.9454582	1.3947968
28.556532738471482	1.9455937	1.3948454
28.574618518926325	1.9671425	1.4025486
28.59270502632635	1.9523911	1.3972799
28.61079226120985	1.9356827	1.3912882
28.628880224115274	1.9535421	1.3976917
28.646968915581287	1.9618578	1.4006634
28.66505833614671	1.9840121	1.4085497
28.68314848635055	2.012764	1.4187192
28.701239366732004	2.0287561	1.4243441
28.71933097783044	2.0467217	1.4306368
28.737423320185403	2.057054	1.4342433
28.75551639433665	2.1107256	1.4528337
28.773610200824074	2.1357803	1.4614309
28.791704740187793	2.1442482	1.4643252
28.80980001296809	2.1169548	1.4549758
28.827896019705413	2.1529155	1.4672817
28.845992760940433	2.1587698	1.4692752
28.86409023721397	2.190968	1.480192
28.88218844906704	2.2252178	1.4917164
28.900287397040845	2.26208	1.5040213
28.918387081676755	2.2654116	1.5051284
28.936487503516343	2.2391982	1.4963951
28.954588663101365	2.2826946	1.5108589
28.97269056097374	2.285662	1.5118406
28.990793197675597	2.2916489	1.5138193
29.00889657374923	2.2853563	1.5117395
29.027000689737125	2.405066	1.5508275
29.04510554618196	2.4928434	1.5788741
29.06321114362659	2.5388966	1.5933915
29.08131748261405	2.471822	1.5722029
29.099424563687567	2.4648387	1.5699805
29.11753238739057	2.4730551	1.572595
29.13564095426663	2.514881	1.5858376
29.15375026485954	2.5549388	1.5984176
29.171860319713275	2.6237822	1.6198093
29.18997111937199	2.7378948	1.6546586
29.20808266438002	2.798705	1.6729331
29.226194955281898	2.8371074	1.6843715
29.244307992622335	2.8274336	1.6814975
29.26242177694624	2.8513951	1.6886075
29.2805363087987	2.888271	1.6994914
29.29865158872498	2.914522	1.7071971
29.316767617270557	2.8968337	1.7020087
29.334884394981064	2.8697476	1.6940329
29.353001922402367	2.9307	1.7119287
29.37112020008047	3.091999	1.7584081
29.389239228561596	3.1325004	1.7698871
29.407359008392152	3.3115268	1.8197601
29.42547954011872	3.6600442	1.9131242
29.44360082428809	4.285952	2.070254
29.46172286144722	5.3755355	2.31852
29.479845652143283	6.974222	2.6408753
29.497969196923606	9.001867	3.0003111
29.516093496335728	11.488365	3.3894491
29.5342185509274	14.181057	3.7657745
29.55234436124651	16.47195	4.058565
29.570470927841175	17.607183	4.1960917
29.588598251259686	17.130886	4.1389475
29.60672633205055	15.709802	3.9635592
29.624855170762405	13.750812	3.7082086
29.642984767944146	11.2485895	3.3538916
29.66111512414481	8.65528	2.9419858
29.67924623991366	6.476861	2.544968
29.697378115800138	5.065068	2.2505705
29.71551075235387	4.1360655	2.033732
29.733644150124675	3.7123122	1.9267361
29.751778309662576	3.5114427	1.8738843
29.769913231517766	3.4200191	1.8493294
29.78804891624066	3.3394983	1.8274294
29.806185364381818	3.3075283	1.8186611
29.82432257649206	3.262466	1.8062297
29.842460553122333	3.2651608	1.8069756
29.86059929482382	3.2496467	1.8026776
29.878738802147872	3.3262296	1.8237953
29.896879075646048	3.270474	1.8084452
29.915020115870114	3.199762	1.7887878
29.933161923371976	3.187603	1.785386
29.951304498703777	3.2357972	1.7988322
29.969447842417857	3.2601795	1.8055967
29.987591955066733	3.2355955	1.7987761
30.005736837203123	3.2109666	1.791917
30.023882489379943	3.0938075	1.7589222
30.04202891215028	3.0585341	1.7488666
30.060176106067455	3.1454418	1.7735393
30.078324071684946	3.1458497	1.7736543
30.09647280955646	3.1552904	1.7763137
30.114622320235863	3.1950734	1.7874768
30.132772604277257	3.221021	1.7947203
30.1509236622349	3.217838	1.7938334
30.16907549466328	3.1429002	1.7728226
30.18722810211705	3.1282232	1.7686784
30.205381485151097	3.1275623	1.7684915
30.22353564432045	3.0759172	1.7538294
30.241690580180403	3.0069978	1.7340697
30.25984629328638	2.9545588	1.718883
30.278002784194037	2.9966502	1.7310835
30.296160053459246	3.0019238	1.732606
30.314318101638033	3.0196755	1.7377213
30.332476929286646	2.9865143	1.7281535
30.35063653696153	2.9269118	1.710822
30.368796925219307	2.9039564	1.7040999
30.386958094616844	2.87982	1.6970032
30.40512004571115	2.853177	1.689135
30.423282779059463	2.8554456	1.6898063
30.441446295219233	2.865765	1.692857
30.459610594748067	2.8817852	1.6975821
30.47777567820382	2.8948464	1.7014248
30.495941546144504	2.8102794	1.6763887
30.51410819912835	2.8142729	1.6775795
30.532275637713795	2.825332	1.6808723
30.55044386245946	2.8183777	1.6788025
30.56861287392416	2.838783	1.6848688
30.586782672666956	2.837566	1.6845076
30.604953259247047	2.77539	1.6659502
30.623124634223885	2.791012	1.6706322
30.641296798157075	2.7855954	1.6690103
30.659469751606462	2.7294276	1.652098
30.677643495132074	2.749022	1.6580175
30.695818029294152	2.7688768	1.6639942
30.713993354653116	2.7705698	1.6645029
30.73216947176962	2.710077	1.6462312
30.75034638120448	2.6790936	1.6367937
30.768524083518756	2.67255	1.6347935
30.786702579273673	2.7080994	1.6456304
30.80488186903069	2.8223383	1.6799817
30.82306195335144	2.9619956	1.7210449
30.841242832797782	3.118044	1.7657983
30.85942450793176	3.4156165	1.8481387
30.877606979315637	3.7340448	1.9323677
30.895790247511883	4.0474	2.011815
30.913974313083134	4.4347763	2.1058908
30.932159176592283	4.7777095	2.1857972
30.95034483860237	4.805211	2.192079
30.968531299676698	4.628417	2.1513755
30.98671856037873	4.233579	2.0575664
31.00490662127215	3.8539915	1.9631586
31.023095482920848	3.4785802	1.8650953
31.04128514588892	3.050096	1.7464525
31.059475610740662	2.7625675	1.6620973
31.07766687804056	2.568282	1.602586
31.09585894835335	2.4724371	1.5723985
31.11405182224393	2.4528725	1.5661649
31.132245500277417	2.4592454	1.5681982
31.15043998301914	2.4239674	1.5569096
31.168635271034628	2.3709507	1.5397892
31.18683136488964	2.3809927	1.5430466
31.20502826515008	2.3515651	1.5334814
31.223225972382135	2.4013233	1.5496204
31.241424487152155	2.4675262	1.5708362
31.259623810026692	2.4406037	1.5622432
31.27782394157253	2.4255476	1.5574169
31.296024882356644	2.4728618	1.5725336
31.314226632946237	2.559339	1.5997934
31.332429193908684	2.604914	1.6139746
31.350632565811598	2.5358655	1.5924401
31.368836749222787	2.4463172	1.5640707
31.387041744710295	2.4206538	1.555845
31.40524755284232	2.415125	1.5540673
31.423454174187317	2.4905422	1.5781451
31.441661609313922	2.555741	1.5986686
31.459869858791002	2.448909	1.5648991
31.478078923187628	2.3209217	1.5234572
31.496288803073064	2.345083	1.5313663
31.514499499016807	2.459993	1.5684365
31.532711011588546	2.4851747	1.5764437
31.550923341358178	2.4227824	1.5565289
31.56913648889584	2.3055108	1.5183909
31.587350454771844	2.2919147	1.5139071
31.605565239556732	2.3062017	1.5186183
31.62378084382127	2.2640114	1.5046632
31.641997268136382	2.291208	1.5136737
31.660214513073274	2.3203428	1.5232671
31.67843257920331	2.2957647	1.5151781
31.6966514670981	2.2610762	1.5036875
31.71487117732944	2.2591336	1.5030414
31.733091710469346	2.218568	1.4894859
31.751313067090052	2.2015717	1.4837694
31.769535247764008	2.273618	1.5078521
31.787758253063878	2.3031855	1.517625
31.805982083562526	2.2665086	1.5054928
31.824206739833024	2.213343	1.4877307
31.84243222244869	2.2270029	1.4923146
31.860658531983013	2.2449145	1.4983039
31.878885669009737	2.2729473	1.5076298
31.897113634102784	2.2788765	1.5095948
31.91534242783632	2.203831	1.4845306
31.933572050784694	2.1127157	1.4535184
31.951802503522508	2.1080246	1.4519038
31.970033786624548	2.1495478	1.4661336
31.988265900665834	2.1881428	1.4792372
32.006498846221575	2.306712	1.5187863
32.02473262386724	2.2665536	1.5055078
32.04296723417845	2.2056253	1.4851347
32.0612026777311	2.1376905	1.4620843
32.07943895510129	2.1621113	1.4704119
32.097676066865304	2.2343936	1.4947888
32.115914013599685	2.2620645	1.5040162
32.13415279588115	2.22697	1.4923036
32.152392414286666	2.1621206	1.4704151
32.1706328693934	2.13199	1.4601336
32.18887416177875	2.1066384	1.4514264
32.20711629202032	2.123915	1.4573658
32.225359260695924	2.1270764	1.45845
32.243603068383614	2.1987796	1.4828283
32.26184771566166	2.187563	1.4790412
32.28009320310852	2.214353	1.4880702
32.2983395313029	2.154641	1.4678695
32.31658670082372	2.0997674	1.4490575
32.33483471225012	2.0784707	1.4416902
32.35308356616143	2.1553195	1.4681007
32.371333263137245	2.156157	1.4683858
32.38958380375734	2.0843976	1.4437443
32.407835188601744	2.0871546	1.4446988
32.42608741825067	2.1043825	1.450649
32.444340493284585	2.095538	1.4475973
32.46259441428416	2.0557692	1.4337953
32.48084918183028	2.0461464	1.4304358
32.49910479650405	2.0653305	1.4371258
32.51736125888683	2.0510721	1.4321564
32.53561856956014	2.0173542	1.420336
32.5538767291058	2.081677	1.4428018
32.572135738105764	2.1948473	1.4815017
32.59039559714228	2.2296693	1.4932077
32.608656306797776	2.1777518	1.4757208
32.62691786765491	2.09118	1.4460913
32.645180280296586	2.0008423	1.4145113
32.663443545305896	2.0028586	1.4152238
32.68170766326619	1.994065	1.4121137
32.69997263476099	2.0255415	1.4232153
32.7182384603741	2.0440555	1.4297047
32.7365051406895	2.049222	1.4315103
32.75477267629144	1.9875841	1.4098171
32.77304106776434	1.8651862	1.3657182
32.79131031569289	1.8507018	1.360405
32.809580420661966	1.8579824	1.3630782
32.827851383256714	1.8693353	1.3672364
32.84612320406245	1.9110234	1.3823977
32.86439588366476	1.9013625	1.378899
32.88266942264945	1.9034023	1.3796384
32.9009438216025	1.8517919	1.3608056
32.9192190811102	1.9067321	1.3808447
32.937495201758985	2.031427	1.4252813
32.95577218413556	2.094666	1.4472961
32.974050028826866	2.0396626	1.4281676
32.992328736420035	1.9709753	1.4039142
33.010608307502444	1.9599102	1.3999679
33.02888874266169	1.9476706	1.3955897
33.047170042485604	1.9004803	1.378579
33.06545220756225	1.9299688	1.3892332
33.083735238479896	1.9838686	1.4084986
33.10201913582707	2.0014188	1.414715
33.12030390019248	2.0078254	1.4169775
33.138589532165135	2.0244586	1.4228348
33.15687603233419	2.0641205	1.4367048
33.17516340128909	1.9676298	1.4027222
33.19345163961947	1.8658036	1.3659443
33.211740747915215	1.9812646	1.407574
33.23003072676643	2.0661585	1.4374138
33.248321576763466	1.9691681	1.4032705
33.266613298496885	1.9610022	1.4003578
33.28490589255747	1.9608885	1.4003173
33.30319935953626	1.8722298	1.3682945
33.32149370002451	1.841055	1.3568548
33.339788914613706	1.8427379	1.3574748
33.358085003895575	1.9723525	1.4044046
33.376381968462034	2.107696	1.4517907
33.39467980890529	2.0260675	1.4233999
33.41297852581774	1.8633487	1.3650453
33.43127811979204	1.901991	1.3791269
33.44957859142105	1.958019	1.3992923
33.467879941297866	1.946559	1.3951913
33.486182170015844	1.8837469	1.3724966
33.50448527816853	1.8100625	1.3453857
33.522789266349754	1.7937142	1.3392961
33.541094135153514	1.8305178	1.3529663
33.55939988517411	1.8873705	1.373816
33.57770651700602	2.02532	1.4231374
33.59601403124398	1.9362936	1.3915076
33.61432242848296	1.8497502	1.3600552
33.632631709318154	1.9354714	1.3912122
33.650941874344994	2.0390043	1.427937
33.66925292415916	2.0195386	1.4211047
33.68756485935654	1.9136586	1.3833505
33.70587768053328	1.8917485	1.3754085
33.724191388285746	1.9024664	1.3792993
33.74250598321054	1.9425647	1.3937593
33.760821465904506	1.8739733	1.3689314
33.77913783696474	1.8812917	1.3716019
33.79745509698852	1.9944359	1.412245
33.815773246573414	2.0375051	1.427412
33.8340922863172	1.9935439	1.4119291
33.852412216817896	1.9444175	1.3944237
33.87073303867377	1.8904963	1.3749532
33.889054752483304	1.8786571	1.3706411
33.907377358845245	1.9107659	1.3823045
33.92570085835853	2.0156283	1.4197283
33.94402525162239	2.0755801	1.4406874
33.96235053923627	2.0651574	1.4370656
33.980676721799824	2.0636795	1.4365512
33.999003799912984	1.9162438	1.3842846
34.01733177417592	1.913499	1.3832928
34.03566064518901	1.9806504	1.4073558
34.0539904135529	2.0039306	1.4156026
34.07232107986846	2.0138774	1.4191115
34.090652644736785	1.9822606	1.4079278
34.108985108759235	1.9479035	1.3956732
34.12731847253742	1.899104	1.3780798
34.14565273667313	1.8719034	1.3681753
34.16398790176847	1.8149763	1.3472105
34.18232396842574	1.8855953	1.3731698
34.20066093724749	1.994808	1.4123768
34.21899880883651	1.9325305	1.3901548
34.23733758379583	1.9051156	1.3802593
34.25567726272874	1.9724417	1.4044365
34.27401784623872	2.0882084	1.4450635
34.29235933492957	2.0900962	1.4457165
34.31070172940526	2.0756235	1.4407024
34.32904503027003	1.9183524	1.385046
34.347389238128386	1.8570361	1.3627311
34.36573435358502	2.041141	1.4286851
34.38408037724492	2.0507333	1.4320382
34.402427309713296	1.9358939	1.3913641
34.42077515159559	1.9750731	1.405373
34.43912390349752	2.076016	1.4408386
34.45747356602499	2.166993	1.4720709
34.47582413978423	2.082018	1.44292
34.49417562538163	1.948997	1.3960649
34.51252802342388	1.9100435	1.3820432
34.53088133451789	1.8755202	1.3694963
34.54923555927084	1.9182137	1.3849959
34.567590698290104	1.8832312	1.3723087
34.58594675218336	1.8411101	1.3568752
34.6043037215585	1.9302906	1.389349
34.62266160702365	1.9732158	1.404712
34.641020409187234	1.9412569	1.3932899
34.65938012865785	1.9726933	1.404526
34.677740766044394	1.8965323	1.3771465
34.69610232195598	1.9581562	1.3993413
34.714464797002016	2.1200688	1.4560456
34.73282819179208	2.0693018	1.4385068
34.751192506936064	2.0654995	1.4371846
34.76955774304408	2.1125233	1.4534522
34.7879239007265	2.036492	1.4270571
34.80629098059391	1.9453666	1.394764
34.824658983257194	2.1317618	1.4600554
34.843027909327446	2.1988432	1.4828497
34.86139775941603	1.9052457	1.3803064
34.879768534134534	2.0072768	1.4167839
34.89814023409483	2.2269402	1.4922936
34.91651285990901	2.100635	1.4493568
34.93488641218944	1.9002364	1.3784906
34.95326089154871	1.851331	1.3606362
34.97163629859967	1.9345441	1.3908789
34.99001263395542	2.049581	1.4316357
35.00838989822934	2.0734284	1.4399405
35.02676809203499	2.0506968	1.4320254
35.04514721598624	1.9731866	1.4047016
35.063527270697215	2.0868762	1.4446024
35.081908256782256	2.1967423	1.4821411
35.10029017485597	2.1829743	1.4774892
35.11867302553321	1.9386926	1.3923694
35.137056809429104	1.711295	1.3081647
35.155441527159006	1.8306462	1.3530138
35.173827179338524	2.0126243	1.4186699
35.19221376658354	1.8130634	1.3465004
35.21060128951017	1.7864829	1.3365937
35.2289897487348	1.8185511	1.3485366
35.24737914487405	1.9125315	1.382943
35.26576947854479	1.836485	1.3551698
35.28416075036418	1.7925667	1.3388677
35.30255296094958	1.9007756	1.3786862
35.32094611091867	1.9758444	1.4056473
35.33934020088932	1.8484125	1.3595634
35.35773523147969	1.9341178	1.3907256
35.3761312033082	1.9951129	1.4124846
35.394528116993506	2.1245275	1.4575759
35.41292597315452	2.4464633	1.5641174
35.431324772410434	2.657379	1.6301469
35.449724515380666	2.4586716	1.5680152
35.46812520268491	2.2533555	1.5011181
35.486526834943106	2.0744102	1.4402813
35.504929412775454	1.7950233	1.3397849
35.52333293680242	2.012826	1.418741
35.54173740764471	1.9528065	1.3974285
35.560142825923286	1.3221858	1.1498634
35.5785491922594	1.0325012	1.0161207
35.59695650727454	1.5393554	1.2407076
35.61536477159042	2.5998158	1.6123945
