0.008763373481513119	0.0	0.0
0.026290120649546365	0.0	0.0
0.043816868432600686	0.19184087	0.43799642
0.06134361724069026	0.18210866	0.4267419
0.07887036748382949	0.16820684	0.41013026
0.0963971195720331	0.11074107	0.3327778
0.11392387391531617	0.059768125	0.2444752
0.1314506309236943	0.083710864	0.2893283
0.1489773910071836	0.07375566	0.27157992
0.16650415457580078	0.1758752	0.41937476
0.18403092203956356	0.18811864	0.43372646
0.20155769380849	0.22250293	0.47170216
0.2190844702925996	0.21775977	0.4666474
0.2366112519019124	0.20315559	0.45072785
0.2541380390464497	0.14926673	0.38635054
0.27166483213623416	0.11236115	0.33520314
0.28919163158128947	0.12401223	0.35215372
0.3067184377916406	0.14171015	0.37644407
0.324245251177314	0.12096495	0.34780017
0.34177207214833777	0.17907935	0.4231777
0.3592989011147415	0.20892534	0.45708352
0.37682573848655654	0.23745044	0.48728886
0.39435258467381573	0.22568919	0.47506756
0.41187944008655414	0.18914029	0.4349026
0.42940630513480854	0.15744336	0.39679134
0.446933180228618	0.14740534	0.38393402
0.4644600657780234	0.12744379	0.3569927
0.48198696219306775	0.11803111	0.34355655
0.49951386988379676	0.14550424	0.38145018
0.5170407892602581	0.20255199	0.45005777
0.5345677207325025	0.24412239	0.49408743
0.5520946647105822	0.2381579	0.48801425
0.5696216216045534	0.21711642	0.46595752
0.5871485918244737	0.16215914	0.40268987
0.6046755757804043	0.146652	0.38295168
0.6222025738824094	0.16230124	0.40286627
0.6397295865405557	0.16604187	0.40748236
0.6572566141649129	0.18394938	0.4288932
0.6747836571655547	0.16912723	0.4112508
0.6923107159525568	0.14475068	0.38046116
0.7098377909359992	0.15650946	0.39561278
0.7273648825259653	0.149199	0.38626286
0.7448919911325411	0.17189826	0.41460615
0.762419117165817	0.1763738	0.4199688
0.7799462610358868	0.21096668	0.4593111
0.7974734231528482	0.21157293	0.45997056
0.8150006039268024	0.20695257	0.4549204
0.8325278037678551	0.18205266	0.4266763
0.8500550230861152	0.22078238	0.46987486
0.8675822622916969	0.22338574	0.472637
0.8851095217947171	0.2080425	0.45611677
0.9026368020052984	0.2016885	0.44909742
0.9201641033335665	0.23359282	0.48331442
0.9376914261896523	0.2777988	0.52706623
0.9552187709836915	0.28969905	0.538237
0.9727461381258234	0.29609537	0.5441465
0.990273528026193	0.27978864	0.5289505
1.0078009410949496	0.26753467	0.51723754
1.0253283777422473	0.29551277	0.5436109
1.0428558383782454	0.2917166	0.54010797
1.0603833234131086	0.2984527	0.5463083
1.0779108332570058	0.30397856	0.5513425
1.0954383683201119	0.3338546	0.5778015
1.112965929012607	0.3688093	0.6072967
1.1304935157446763	0.45999017	0.67822576
1.1480211289265108	0.5159817	0.71831864
1.1655487689683062	1.3399235	1.1575507
1.1830764362802655	1.6422668	1.2815095
1.200604131272596	2.0657525	1.4372725
1.2181318543555117	2.4660664	1.5703714
1.235659605939232	2.4979656	1.5804954
1.253187386433982	3.9962463	1.9990613
1.270715196249994	6.425555	2.534868
1.2882430357975057	11.931425	3.4541895
1.3057709054867608	16.77741	4.0960236
1.3232988057280106	22.631784	4.7572875
1.3408267369315112	27.386143	5.233177
1.358354699507526	31.170155	5.5830235
1.3758826938663256	35.499283	5.9581275
1.3934107204181858	37.458572	6.120341
1.410938779573391	37.822453	6.1499963
1.4284668717422309	38.29953	6.1886616
1.4459949973350033	37.776405	6.146251
1.4635231567620117	37.866474	6.153574
1.4810513504335687	36.98608	6.0816183
1.4985795787599925	36.18695	6.015559
1.5161078421516088	35.725147	5.9770517
1.5336361410187505	34.916084	5.908983
1.5511644757717598	34.964813	5.913105
1.5686928468209842	35.56765	5.963862
1.58622125457678	36.332863	6.0276747
1.6037496994495108	37.458454	6.1203313
1.621278181849548	37.382473	6.114121
1.6388067021872719	38.067085	6.1698527
1.6563352608730693	37.492867	6.123142
1.673863858317336	36.555626	6.046125
1.6913924949304753	35.702526	5.975159
1.7089211711228998	34.566544	5.879332
1.7264498873050296	33.90368	5.8226867
1.7439786438872935	33.10262	5.7534876
1.7615074412801288	32.284	5.681901
1.779036279893981	31.40447	5.603969
1.796565160139305	30.411554	5.514667
1.814094082426564	29.599874	5.4405766
1.8316230471662298	29.170437	5.400966
1.849152054768784	28.532137	5.341548
1.8666811056447168	27.905436	5.2825594
1.8842102002045273	26.716938	5.168843
1.901739338858724	25.79426	5.078805
1.9192685220178245	25.585215	5.0581827
1.9367977500923557	25.04435	5.004433
1.9543270234928547	24.817135	4.98168
1.971856342629867	23.974197	4.896345
1.9893857079139496	23.388062	4.8361206
2.006915119755667	22.477978	4.7410946
2.0244445785655945	22.05137	4.6958885
2.0419740847543175	21.982761	4.6885777
2.0595036387324317	21.829052	4.6721573
2.0770332409105414	21.307177	4.6159697
2.094562891699263	20.799067	4.5605993
2.1120925915092217	20.073036	4.480294
2.129622340751053	19.746048	4.4436526
2.1471521398354043	188.09947	13.714936
2.1646819891729323	444.41086	21.081055
2.182211889174303	440.78827	20.994959
2.1997418402501974	453.12164	21.286654
2.2172718428113023	432.90698	20.806417
2.234801897268317	320.82297	17.911531
2.2523320040319548	17.206823	4.148111
2.269862163512935	16.883804	4.1089907
2.287392376121992	16.42344	4.0525846
2.304922642269869	16.17947	4.0223713
2.322452962367322	15.968183	3.9960208
2.3399833368251164	16.03647	4.004556
2.357513766054032	15.680351	3.9598424
2.3750442504648586	15.215212	3.9006681
2.3925747904683963	14.806809	3.8479617
2.410105386475459	14.499572	3.8078303
2.4276360388968707	14.272286	3.777868
2.445166748143469	14.023748	3.7448297
2.4626975146261025	13.700986	3.7014842
2.4802283387556323	13.549814	3.6810071
2.4977592209429305	13.398471	3.6603923
2.5152901615988825	13.272769	3.643181
2.5328211611343865	13.117738	3.6218417
2.5503522199603523	12.950676	3.5987048
2.5678833384877024	12.780561	3.5749912
2.5854145171273712	12.531446	3.5399783
2.6029457562903064	12.433486	3.526115
2.620477056387469	12.085313	3.4763937
2.6380084178298326	11.790729	3.433763
2.655539841028383	11.471134	3.3869064
2.673071326394119	11.36668	3.3714507
2.6906028743380523	11.2978735	3.3612309
2.708134485271211	11.060322	3.3257062
2.7256661596046325	10.825367	3.2901926
2.743197897749369	10.386392	3.2227926
2.760729700116486	10.148876	3.18573
2.778261567117063	10.000091	3.162292
2.795793499162193	9.865166	3.140886
2.8133254966629817	9.848657	3.138257
2.830857560030551	9.689954	3.112869
2.8483896896760337	9.691502	3.1131177
2.865921886010578	9.629977	3.1032205
2.883454149445347	9.529408	3.086974
2.9009864803915177	9.4967985	3.0816877
2.91851887926028	9.311359	3.051452
2.9360513464628384	9.178754	3.029646
2.953583882410413	8.948832	2.9914598
2.9711164875142373	8.667481	2.9440587
2.9886491621855606	8.478444	2.9117768
3.0061819068356455	8.443807	2.905823
3.023714721875769	8.588953	2.9306915
3.041247607717225	8.6936865	2.9485059
3.0587805647713213	8.601194	2.9327793
3.0763135934493806	8.351772	2.8899434
3.0938466941627407	8.060253	2.8390584
3.1113798673227544	7.8468447	2.801222
3.1289131133407904	7.7359433	2.7813563
3.1464464326282315	7.662272	2.768081
3.1639798255964786	7.627422	2.7617788
3.1815132926569443	7.571559	2.7516465
3.1990468342210603	7.4835973	2.7356164
3.216580450700272	7.44345	2.7282686
3.2341141425060416	7.3978233	2.719894
3.251647910049847	7.4433346	2.7282476
3.2691817537431813	7.289529	2.6999128
3.286715673997555	7.0640016	2.657819
3.3042496712244938	6.9450793	2.635352
3.32178374583554	6.923659	2.6312847
3.339317898242251	6.895248	2.6258805
3.3568521288562034	6.871278	2.6213121
3.3743864380889876	6.7918386	2.6061156
3.3919208263522127	6.7463703	2.5973775
3.4094552940575023	6.647654	2.5783045
3.4269898416164972	6.5634727	2.5619276
3.444524469440858	6.456608	2.5409856
3.4620591779422587	6.435484	2.5368257
3.479593967532391	6.4399104	2.5376978
3.4971288386229658	6.3670535	2.523302
3.5146637916257086	6.3340364	2.516751
3.5321988269523628	6.3507924	2.520078
3.5497339450146903	6.4163556	2.5330527
3.5672691462244708	6.42667	2.5350878
3.5848044309934988	6.467037	2.543037
3.60233979973359	6.389373	2.527721
3.619875252856575	6.3325653	2.516459
3.6374107907743034	6.2419252	2.4983845
3.6549464138986427	6.275303	2.5050554
3.6724821226414788	6.270885	2.5041735
3.690017917414714	6.254898	2.5009794
3.7075537986302702	6.354052	2.5207245
3.7250897667000857	6.450961	2.5398743
3.7426258220361235	6.6409917	2.577012
3.7601619650503553	6.930949	2.6326697
3.777698196154779	7.305462	2.7028618
3.7952345157614067	8.184668	2.8608859
3.8127709242822716	8.788474	2.964536
3.830307422129425	10.923092	3.30501
3.847844009714936	29.855211	5.463992
3.8653806874508954	97.45701	9.872031
3.882917455749409	96.80839	9.839126
3.900454315022606	96.661705	9.831669
3.917991265682631	41.20594	6.419185
3.9355283081416506	10.793465	3.2853408
3.9530654428118495	8.716812	2.9524248
3.970602670105433	7.4965696	2.7379863
3.9881399904346244	6.720982	2.5924857
4.005677404211669	6.7260385	2.5934608
4.023214911848827	6.5644045	2.5621095
4.0407525137583855	6.5001287	2.549535
4.058290210352644	6.4182625	2.533429
4.075828002043927	6.2988544	2.5097518
4.0933658892445814	6.2865543	2.5073001
4.110903872366966	6.174939	2.4849424
4.128441951823468	6.149413	2.479801
4.145980128026488	6.080126	2.4657912
4.163518401388452	6.070371	2.4638124
4.181056772321807	6.001369	2.4497693
4.1985952412390155	5.924713	2.4340734
4.216133808552567	6.004854	2.4504805
4.233672474674966	6.1111555	2.4720752
4.251211240018741	6.432036	2.536146
4.268750104996445	6.7558384	2.5991995
4.286289070020643	7.7806077	2.789374
4.303828135503928	9.436417	3.071875
4.3213673018589125	29.720087	5.4516134
4.3389065694982305	90.797676	9.528782
4.356445938834537	165.95482	12.882345
4.3739854102805085	171.74976	13.105333
4.391524984248844	172.62773	13.138787
4.409064661152262	136.65755	11.690062
4.426604441403504	96.906	9.844085
4.444144325415337	75.57747	8.69353
4.461684313600543	21.634085	4.6512456
4.47922440637193	21.982153	4.688513
4.496764604142329	20.456833	4.522923
4.5143049073245916	18.72466	4.3272
4.531845316331589	16.589739	4.0730505
4.5493858315762195	13.700713	3.7014475
4.566926453471405	11.31888	3.3643544
4.584467182430081	9.312877	3.0517006
4.602008018865218	8.171924	2.8586576
4.619548963189798	7.422572	2.7244399
4.637090015816834	6.961967	2.6385539
4.654631177159353	6.756562	2.5993388
4.672172447630417	6.429121	2.535571
4.689713827643102	6.2343197	2.496862
4.7072553176105085	5.9666686	2.4426765
4.724796917945764	5.92548	2.4342308
4.742338629062015	5.8566647	2.4200547
4.759880451372434	5.765092	2.4010606
4.777422385290215	5.6341605	2.3736386
4.794964431228581	5.646989	2.3763394
4.812506589600768	5.6569753	2.3784397
4.830048860820047	5.75338	2.3986204
4.847591245299709	5.778282	2.4038057
4.8651337434530655	5.8483863	2.4183438
4.882676355693457	5.7487297	2.397651
4.900219082434242	5.77594	2.4033186
4.917761924088813	5.7415223	2.3961475
4.935304881070575	5.6360865	2.3740444
4.952847953792969	5.5852675	2.363317
4.970391142669449	5.450178	2.3345616
4.9879344481135055	5.4824862	2.341471
5.005477870538642	5.463086	2.3373246
5.023021410358394	5.5092254	2.347174
5.040565067986324	5.5659976	2.3592367
5.05810884383601	5.5276604	2.3510976
5.075652738321066	5.4485383	2.3342104
5.09319675185512	5.3234034	2.3072503
5.110740884851836	5.255926	2.2925806
5.128285137724894	5.285068	2.2989275
5.145829510888007	5.33796	2.3104024
5.163374004754908	5.451598	2.3348658
5.1809186197393595	5.3976626	2.323287
5.198463356255145	5.3707037	2.317478
5.216008214716077	5.286501	2.2992392
5.233553195535998	5.3002634	2.3022301
5.251098299128764	5.3010554	2.302402
5.268643525908272	5.2824116	2.2983499
5.286188876288432	5.207223	2.281934
5.3037343506831895	5.1647873	2.2726169
5.32127994950651	5.147321	2.268771
5.3388256731723915	5.2144103	2.2835083
5.356371522094851	5.2032866	2.2810714
5.373917496687938	5.202353	2.2808666
5.391463597365729	5.2190657	2.2845275
5.40900982454232	5.19549	2.2793617
5.426556178631843	5.1621714	2.2720413
5.444102660048449	5.0770454	2.25323
5.4616492692063225	5.06496	2.2505467
5.479196006519669	5.1400847	2.2671754
5.496742872402727	5.2053323	2.2815197
5.514289867269756	5.1471944	2.2687428
5.531836991535049	5.08967	2.2560298
5.549384245612924	5.0447464	2.2460513
5.566931629917724	5.0634866	2.2502193
5.584479144863822	5.0400195	2.2449987
5.6020267908656205	5.0781097	2.2534661
5.619574568337545	5.0549273	2.2483165
5.637122477694054	5.0860624	2.25523
5.654670519349629	5.097331	2.257727
5.672218693718784	5.056437	2.2486522
5.689767001216059	5.125342	2.2639217
5.707315442256021	5.1732974	2.2744884
5.724864017253266	5.2212634	2.2850084
5.7424127266224225	5.2017994	2.2807453
5.75996157077814	5.150457	2.2694619
5.777510550135105	5.1650023	2.272664
5.795059665108022	5.155885	2.2706575
5.812608916111639	5.174481	2.2747486
5.830158303560715	5.278606	2.2975216
5.847707827870055	5.3414016	2.3111472
5.86525748945448	5.4591584	2.3364842
5.8828072887288485	5.543462	2.3544557
5.900357226108044	5.5771255	2.361594
5.917907302006979	5.613285	2.3692372
5.9354575168406	6.191572	2.488287
5.9530078710238765	6.7225	2.5927784
5.970558364971812	7.162153	2.67622
5.988108999099438	7.430298	2.7258573
6.005659773821818	8.00408	2.8291483
6.023210689554039	7.828554	2.7979553
6.040761746711227	8.2354765	2.869752
6.058312945708531	7.6008463	2.7569633
6.075864286961132	7.141589	2.6723752
6.093415770884244	6.5090494	2.5512838
6.1109673978931065	6.0717115	2.4640844
6.128519168402993	5.5097866	2.3472934
6.146071082829204	5.458412	2.3363245
6.163623141587075	5.393764	2.3224478
6.181175345091969	5.394347	2.3225734
6.198727693759281	5.291677	2.3003645
6.216280188004435	5.1903443	2.2782328
6.233832828242885	5.1478677	2.2688913
6.251385614890126	5.1980543	2.2799242
6.268938548361669	5.1869607	2.27749
6.286491629073067	5.1965404	2.279592
6.304044857439898	5.1356645	2.2662005
6.321598233877777	5.0273027	2.2421649
6.339151758802344	4.9369726	2.22193
6.356705432629277	4.9506903	2.2250147
6.37425925577428	4.971033	2.2295814
6.391813228653095	4.967454	2.2287786
6.409367351681486	5.004938	2.237172
6.426921625275259	4.978974	2.2313614
6.44447604985025	4.9775333	2.2310386
6.46203062582232	4.9445133	2.2236261
6.47958535360737	4.96834	2.2289774
6.497140233621328	5.005419	2.2372794
6.514695266280161	5.072103	2.252133
6.532250451999859	5.0497565	2.2471664
6.549805791196454	5.0481167	2.2468014
6.567361284286002	5.059976	2.249439
6.584916931684597	5.0871897	2.2554798
6.602472733808367	5.0529284	2.2478719
6.6200286910734665	4.9970813	2.2354152
6.637584803896092	4.9690967	2.229147
6.655141072692462	4.9492807	2.2246978
6.672697497878842	4.957458	2.226535
6.690254079871514	4.942921	2.223268
6.707810819086808	4.967801	2.2288566
6.725367715941078	4.9599724	2.2270997
6.742924770850719	4.9675856	2.2288082
6.760481984232151	4.9642797	2.2280664
6.778039356501836	4.9576135	2.22657
6.795596888076266	4.955547	2.2261057
6.813154579371963	5.0130463	2.2389834
6.830712430805492	5.026071	2.24189
6.84827044279344	4.964613	2.228141
6.865828615752445	4.957785	2.2266085
6.883386950099159	5.0184712	2.2401946
6.900945446250287	5.071043	2.2518976
6.918504104622553	5.093902	2.2569675
6.936062925632727	5.0564723	2.24866
6.953621909697607	4.9819717	2.232033
6.971181057234028	5.0484924	2.246885
6.988740368658859	5.061217	2.2497149
7.006299844389007	5.1305213	2.2650654
7.023859484841407	5.1938777	2.2790082
7.041419290433036	5.33649	2.3100843
7.058979261580902	5.5030084	2.3458493
7.0765393987020495	5.740923	2.3960223
7.094099702213559	6.1433315	2.4785745
7.111660172532549	6.491557	2.5478535
7.129220810076164	6.799694	2.6076224
7.146781615261595	7.4173417	2.7234797
7.16434258850606	7.639871	2.7640316
7.181903730226821	8.205232	2.8644776
7.1994650408411704	8.265471	2.8749733
7.217026520766437	8.349891	2.8896177
7.234588170419983	8.455484	2.9078317
7.252149990219215	8.362035	2.8917184
7.269711980581568	8.292479	2.8796663
7.2872741419245175	8.189438	2.8617194
7.304836474665574	7.81536	2.7955966
7.322398979222286	7.4771857	2.7344444
7.339961656012233	7.217543	2.6865485
7.357524505453039	6.8993464	2.6266606
7.375087527962357	6.6268563	2.574268
7.392650723957886	6.3234253	2.5146422
7.410214093857353	5.985951	2.4466202
7.427777638078528	5.7581277	2.3996098
7.445341357039213	5.563785	2.3587677
7.4629052511572525	5.421092	2.3283238
7.480469320850524	5.3196	2.3064258
7.498033566536948	5.2309794	2.2871335
7.5155979886344735	5.237773	2.288618
7.5331625875610975	5.24864	2.290991
7.550727363734844	5.1998463	2.280317
7.568292317573788	5.1900086	2.2781591
7.585857449496025	5.1833324	2.2766933
7.603422759919705	5.1775765	2.2754288
7.620988249263007	5.1974707	2.2797961
7.638553917944147	5.227962	2.2864738
7.656119766381391	5.2317567	2.2873034
7.673685794993023	5.2379456	2.2886558
7.691252004197388	5.236296	2.2882955
7.70881839441285	5.197535	2.2798102
7.726384966057826	5.1579456	2.271111
7.743951719550762	5.190806	2.278334
7.761518655310149	5.2927012	2.3005872
7.779085773754511	5.392417	2.3221579
7.796653075302419	5.3842444	2.3203974
7.814220560372475	5.3240676	2.307394
7.831788229383323	5.264332	2.294413
7.8493560827536495	5.2544556	2.29226
7.866924120902174	5.256173	2.2926345
7.884492344247663	5.2958026	2.3012612
7.9020607532089135	5.3064504	2.3035734
7.919629348204771	5.2592707	2.29331
7.937198129654115	5.297453	2.3016195
7.954767097975865	5.324703	2.3075318
7.972336253588986	5.32376	2.3073275
7.989905596912472	5.3426805	2.311424
8.007475128365371	5.2780523	2.2974012
8.025044848366756	5.354097	2.3138921
8.042614757335754	5.4705076	2.3389115
8.060184855691523	5.6014433	2.366737
8.07775514385327	5.860283	2.420802
8.095325622240228	5.9548917	2.4402647
8.112896291271687	5.9496555	2.4391916
8.130467151366968	5.9525867	2.4397924
8.148038202945436	5.962095	2.44174
8.165609446426497	5.9677	2.4428875
8.183180882229594	6.026868	2.454968
8.200752510774217	6.0085807	2.4512405
8.218324332479893	5.997103	2.4488983
8.235896347766193	5.9600844	2.4413285
8.253468557052724	5.9876633	2.4469702
8.27104096075914	6.076191	2.464993
8.288613559305137	6.09612	2.4690323
8.306186353110448	6.118507	2.4735615
8.32375934259485	6.184236	2.4868124
8.341332528178162	6.2405987	2.498119
8.358905910280246	6.2667294	2.5033436
8.376479489321003	6.2176	2.4935114
8.394053265720377	6.232382	2.4964738
8.411627239898356	6.211879	2.4923642
8.42920141227497	6.227762	2.4955485
8.44677578327029	6.2747254	2.5049403
8.464350353304427	6.2474966	2.4994993
8.48192512279754	6.216337	2.4932582
8.499500092169827	6.1308236	2.47605
8.51707526184153	6.1745048	2.4848552
8.534650632232934	6.159347	2.4818032
8.552226203764365	6.1792393	2.4858077
8.569801976856192	6.182524	2.4864683
8.587377951928834	6.284115	2.5068138
8.60495412940274	6.343156	2.5185623
8.622530509698416	6.4019585	2.530209
8.6401070932364	6.492828	2.5481029
8.657683880437283	6.593902	2.5678594
8.675260871721695	6.778308	2.6035185
8.692838067510303	6.9068856	2.6280954
8.710415468223834	7.03448	2.6522593
8.727993074283043	7.183957	2.6802905
8.745570886108737	7.1711497	2.6779003
8.763148904121765	7.257816	2.6940334
8.78072712874302	7.2083364	2.6848345
8.798305560393441	7.4348283	2.7266881
8.815884199494006	7.5379596	2.7455344
8.833463046465745	7.7410297	2.7822707
8.851042101729728	7.931023	2.8162072
8.86862136570707	8.197735	2.8631687
8.886200838818924	8.341797	2.888217
8.903780521486505	8.409244	2.8998697
8.921360414131055	8.497156	2.9149883
8.938940517173874	8.643033	2.9399035
8.956520831036297	8.743763	2.9569855
8.97410135613971	8.98323	2.9972036
8.99168209290554	9.144002	3.023905
9.009263041755265	9.482678	3.0793958
9.026844203110405	9.738535	3.1206627
9.044425577392525	9.924453	3.15031
9.062007165023239	10.058294	3.1714814
9.079588966424197	10.368513	3.2200177
9.097170982017108	10.499596	3.240308
9.11475321222372	11.3117695	3.3632975
9.132335657465825	12.235258	3.4978933
9.149918318165264	12.307475	3.5082011
9.167501194743924	12.889761	3.5902314
9.18508428762374	12.527826	3.5394669
9.202667597226693	12.444803	3.5277193
9.220251123974803	12.10656	3.479448
9.237834868290143	11.844695	3.4416122
9.255418830594836	11.60288	3.4063
9.273003011311046	11.057637	3.3253026
9.290587410860985	10.808797	3.2876735
9.308172029666911	10.184018	3.1912408
9.32575686815113	9.894849	3.145608
9.343341926735997	8.685454	2.9471095
9.360927205843916	8.561223	2.9259567
9.378512705897327	8.384334	2.8955715
9.396098427318728	8.1576805	2.8561654
9.413684370530664	8.020717	2.832087
9.431270535955722	7.9096365	2.8124075
9.448856924016539	7.832553	2.7986698
9.466443535135806	7.650598	2.7659714
9.484030369736251	7.636228	2.7633727
9.501617428240658	7.6653843	2.7686431
9.519204711071852	7.742838	2.7825956
9.536792218652714	7.7949533	2.7919443
9.55437995140617	7.902283	2.8111
9.571967909755191	7.8951707	2.8098347
9.589556094122802	7.8783774	2.8068447
9.60714450493207	7.89138	2.80916
9.624733142606116	7.9143906	2.8132527
9.642322007568108	8.026157	2.8330474
9.659911100241267	8.083616	2.8431702
9.677500421048851	8.15241	2.8552425
9.695089970414175	8.1594925	2.8564825
9.712679748760609	8.182841	2.8605666
9.730269756511557	8.142703	2.853542
9.747859994090492	8.110548	2.8479023
9.765450461920915	8.153004	2.8553464
9.78304116042639	8.215076	2.8661954
9.800632090030527	8.251131	2.8724782
9.81822325115699	8.225668	2.8680425
9.835814644229481	8.240398	2.8706095
9.853406269671762	8.23645	2.8699217
9.870998127907646	8.334655	2.8869803
9.888590219360985	8.34593	2.8889322
9.906182544455698	8.391101	2.8967397
9.923775103615734	8.331495	2.886433
9.941367897265108	8.282419	2.8779192
9.958960925827878	8.205008	2.8644385
9.97655418972816	8.196873	2.863018
9.994147689390106	8.29712	2.8804722
10.011741425237934	8.214156	2.866035
10.029335397695904	8.204739	2.8643916
10.04692960718833	8.206517	2.864702
10.06452405413958	8.230459	2.8688776
10.082118738974064	8.295337	2.8801627
10.099713662116246	8.253913	2.8729625
10.117308823990651	8.217163	2.8665595
10.134904225021844	8.224881	2.8679054
10.152499865634445	8.213905	2.865991
10.170095746253125	8.177011	2.8595474
10.18769186730261	8.131254	2.8515353
10.205288229207675	8.110778	2.8479428
10.222884832393145	8.083686	2.8431823
10.2404816772839	7.993186	2.8272223
10.258078764304868	7.9614215	2.821599
10.275676093881035	7.956699	2.8207622
10.293273666437438	8.051421	2.8375027
10.310871482399158	8.188283	2.8615177
10.32846954219134	8.269336	2.8756452
10.346067846239173	8.282448	2.8779242
10.363666394967908	8.181667	2.8603613
10.38126518880283	8.102285	2.8464513
10.398864228169298	8.182975	2.86059
10.416463513492713	8.18807	2.8614805
10.434063045198531	8.180604	2.8601756
10.451662823712262	8.155989	2.855869
10.469262849459467	8.167379	2.8578627
10.486863122865758	8.112307	2.848211
10.504463644356806	8.127142	2.8508143
10.522064414358338	8.007474	2.8297482
10.539665433296118	7.9504905	2.8196614
10.557266701595987	7.940214	2.8178387
10.574868219683818	7.8494773	2.8016918
10.592469987985552	7.7376246	2.7816586
10.610072006927185	7.586437	2.7543488
10.627674276934751	7.502449	2.73906
10.64527679843435	7.3918724	2.7187998
10.662879571852143	7.3151135	2.7046466
10.680482597614331	7.18816	2.6810744
10.698085876147173	7.0062847	2.6469388
10.715689407876988	6.9054875	2.6278296
10.733293193230146	6.851232	2.6174858
10.750897232633072	6.8225145	2.6119943
10.76850152651225	6.770247	2.6019697
10.786106075294207	6.721027	2.5924942
10.803710879405534	6.632366	2.5753381
10.821315939272877	6.540399	2.5574205
10.83892125532294	6.448381	2.5393662
10.856526827982472	6.3861594	2.527085
10.874132657678285	6.327654	2.515483
10.891738744837243	6.2318745	2.4963722
10.909345089886271	6.1396766	2.477837
10.926951693252343	6.064866	2.462695
10.944558555362494	6.057938	2.461288
10.96216567664381	5.9858265	2.446595
10.979773057523436	5.937039	2.436604
10.997380698428573	5.827478	2.414017
11.014988599786477	5.792019	2.4066613
11.032596762024461	5.7734175	2.4027936
11.050205185569892	5.7436113	2.3965833
11.067813870850198	5.70465	2.3884408
11.085422818292859	5.5804343	2.3622942
11.10303202832541	5.473107	2.3394673
11.120641501375454	5.398428	2.3234518
11.138251237870636	5.357009	2.3145213
11.155861238238671	5.3040013	2.3030417
11.173471502907317	5.178962	2.2757332
11.191082032304402	5.1149845	2.2616332
11.208692826857805	5.1151958	2.26168
11.226303886995465	5.1119757	2.260968
11.243915213145371	5.0632834	2.250174
11.261526805735578	4.990857	2.2340226
11.279138665194196	4.9895825	2.2337372
11.296750791949393	4.9298472	2.220326
11.314363186429393	4.810957	2.1933894
11.331975849062479	4.679555	2.1632278
11.34958878027699	4.593537	2.1432538
11.36720198050133	4.556998	2.1347125
11.384815450163948	4.5257497	2.1273808
11.402429189693366	4.463157	2.1126184
11.420043199518153	4.4370737	2.1064363
11.437657480066942	63.42672	7.9640894
11.455272031768422	85.162384	9.228347
11.472886855051353	107.48748	10.367617
11.490501950344528	99.03898	9.951833
11.508117318076819	84.36466	9.185024
11.52573295867715	45.806923	6.768081
11.543348872574514	4.1555905	2.0385265
11.560965060197946	4.134508	2.033349
11.57858152197655	4.0914373	2.02273
11.59619825833949	4.04312	2.010751
11.613815269715985	4.0101986	2.002548
11.631432556535323	38.494972	6.2044315
11.649050119226837	83.024315	9.111768
11.666667958219929	93.402855	9.6645155
11.68428607394406	107.68643	10.377208
11.701904466828756	82.550705	9.085742
11.719523137303586	65.34604	8.08369
11.737142085798196	4.603628	2.1456068
11.754761312742286	3.711824	1.9266094
11.772380818565619	3.6780381	1.9178212
11.790000603698015	3.6436434	1.908833
11.80762066856935	3.613848	1.9010123
11.825241013609572	3.5849352	1.8933926
11.842861639248683	3.552398	1.8847806
11.860482545916748	3.52583	1.8777194
11.878103734043883	3.502072	1.8713824
11.895725204060282	3.466885	1.8619573
11.91334695639619	3.4550335	1.858772
11.930968991481919	3.418427	1.8488989
11.948591309747824	3.3517156	1.8307691
11.966213911624347	3.283113	1.8119363
11.98383679754198	3.2590926	1.8052957
12.001459967931268	3.2539985	1.8038843
12.019083423222835	3.290661	1.8140179
12.036707163847352	3.2751877	1.8097479
12.05433119023556	3.2130933	1.7925103
12.071955502818259	3.133464	1.7701594
12.089580102026313	3.099942	1.7606652
12.107204988290643	3.085793	1.7566426
12.12483016204224	3.0686731	1.7517629
12.142455623712152	3.0589223	1.7489775
12.16008137373149	3.075302	1.7536539
12.177707412531431	3.0752637	1.753643
12.19533374054321	3.0747983	1.7535102
12.212960358198126	3.0697885	1.7520812
12.230587265927545	3.0422342	1.7442001
12.248214464162889	3.0206923	1.7380139
12.265841953335649	2.9924412	1.7298673
12.283469733877375	2.9843504	1.7275273
12.301097806219685	3.0038984	1.7331758
12.31872617079425	3.0037372	1.7331293
12.336354828032825	2.9710174	1.7236639
12.353983778367205	2.924025	1.7099781
12.371613022229262	2.9001253	1.7029754
12.389242560050928	2.8991246	1.7026815
12.406872392264201	2.8995085	1.7027943
12.424502519301143	2.890498	1.7001464
12.442132941593874	2.8587935	1.6907967
12.459763659574586	2.8469825	1.6873003
12.477394673675532	2.8559656	1.6899602
12.49502598432903	2.848559	1.6877674
12.51265759196746	2.812885	1.6771657
12.530289497023267	2.7694662	1.6641713
12.547921699928967	2.7879486	1.6697152
12.565554201117134	2.8594096	1.6909789
12.583187001020404	2.853309	1.689174
12.600820100071486	2.8201728	1.679337
12.618453498703152	2.7805367	1.6674942
12.636087197348235	2.7661648	1.6631792
12.65372119643964	2.748851	1.6579659
12.671355496410326	2.7692313	1.6641008
12.68899009769333	2.8169246	1.6783696
12.706625000721749	2.8669615	1.6932104
12.724260205928752	2.9292305	1.7114995
12.741895713747551	2.9321063	1.7123394
12.759531524611454	2.9781756	1.7257391
12.777167638953818	2.9701653	1.7234167
12.794804057208072	3.0087883	1.7345859
12.812440779807702	3.056211	1.7482022
12.830077807186271	3.2286053	1.796832
12.847715139777405	3.2532961	1.8036896
12.865352778014795	3.43932	1.8545403
12.882990722332197	3.5831575	1.892923
12.90062897316344	3.6720464	1.9162585
12.918267530942412	3.751989	1.9370052
12.935906396103071	3.6442864	1.9090015
12.953545569079449	3.7920632	1.947322
12.971185050305628	3.6402612	1.9079468
12.988824840215775	3.6108851	1.9002329
13.006464939244115	3.6086316	1.8996398
13.024105347824943	3.4467356	1.8565387
13.041746066392617	3.5333803	1.8797288
13.05938709538157	3.3300037	1.8248298
13.077028435226296	3.3523347	1.8309382
13.094670086361363	3.3012984	1.8169476
13.112312049221401	3.1953657	1.7875586
13.129954324241112	3.119512	1.766214
13.147596911855258	2.8890336	1.6997157
13.165239812498685	2.8490884	1.6879243
13.182883026606293	2.7760854	1.6661589
13.200526554613058	2.7230568	1.6501687
13.218170396954017	2.7240834	1.6504798
13.235814554064284	2.7210948	1.6495742
13.253459026379034	2.7686994	1.6639409
13.271103814333523	2.7570343	1.660432
13.288748918363058	2.7460134	1.65711
13.306394338903031	2.7027996	1.6440194
13.32404007638889	2.6569645	1.6300198
13.341686131256164	2.6516414	1.6283861
13.359332503940449	2.6166923	1.6176193
13.376979194877402	2.6246445	1.6200755
13.394626204502751	2.6969361	1.6422352
13.412273533252307	2.7438269	1.65645
13.429921181561937	2.7678585	1.6636882
13.447569149867581	2.7578733	1.6606846
13.465217438605247	2.7628264	1.6621752
13.482866048211022	2.6958148	1.6418936
13.500514979121052	2.6631937	1.6319294
13.518164231771568	2.6428568	1.6256865
13.535813806598844	2.6519125	1.6284693
13.553463704039254	2.695158	1.6416936
13.571113924529229	2.7166312	1.6482207
13.588764468505275	2.6842144	1.6383572
13.606415336403956	2.6726277	1.6348174
13.624066528661917	2.6707306	1.634237
13.641718045715882	2.7828336	1.6681827
13.659369888002635	2.8708372	1.6943545
13.67702205595903	2.9268084	1.7107917
13.694674550021993	2.9840846	1.7274504
13.712327370628532	3.0123851	1.7356224
13.729980518215713	3.0974627	1.759961
13.747633993220681	3.15943	1.7774786
13.765287796080647	3.2046335	1.790149
13.7829419272329	3.2592967	1.8053522
13.800596387114801	3.2667131	1.8074051
13.818251176163775	3.3123748	1.8199931
13.835906294817324	3.3844595	1.8396901
13.853561743513023	3.4766212	1.86457
13.871217522688525	3.5095274	1.8733733
13.888873632781538	3.4922423	1.8687543
13.906530074229858	3.4948196	1.8694437
13.92418684747135	3.5087695	1.873171
13.941843952943948	3.470719	1.8629866
13.959501391085665	3.3962986	1.8429049
13.977159162334578	3.3352213	1.8262588
13.994817267128846	3.3260329	1.8237414
14.012475705906693	3.2764504	1.8100967
14.030134479106424	3.2218692	1.7949566
14.047793587166414	3.147457	1.7741073
14.065453030525108	3.0965927	1.7597138
14.083112809621026	3.0136817	1.7359959
14.100772924892766	2.9038138	1.704058
14.118433376778997	2.8207102	1.679497
14.136094165718458	2.7502396	1.6583847
14.153755292149969	2.7375548	1.6545558
14.171416756512416	2.6837022	1.6382009
14.189078559244768	2.644635	1.6262333
14.20674070078606	2.5819974	1.6068594
14.224403181575408	2.5359123	1.5924548
14.242066002051999	2.4722967	1.5723538
14.259729162655093	2.4231722	1.5566542
14.277392663824022	2.4037454	1.5504017
14.295056505998208	2.3893144	1.5457407
14.312720689617128	2.4156237	1.5542277
14.330385215120348	2.4070148	1.5514557
14.348050082947497	2.3947244	1.5474896
14.3657152935383	2.396008	1.5479044
14.383380847332528	2.4161203	1.5543875
14.401046744770051	2.4302166	1.5589151
14.418712986290798	2.4138339	1.5536518
14.436379572334793	2.424535	1.5570918
14.454046503342123	2.3991034	1.548904
14.471713779752946	2.4147036	1.5539317
14.489381402007504	2.4012208	1.5495872
14.507049370546113	2.39395	1.5472394
14.524717685809168	2.3692718	1.5392439
14.542386348237134	2.3555222	1.5347711
14.560055358270553	2.3624048	1.5370116
14.577724716350051	2.371221	1.5398769
14.595394422916325	2.429289	1.5586177
14.61306447841015	2.4981651	1.5805585
14.63073488327237	2.5347564	1.5920918
14.648405637943917	2.5542555	1.5982038
14.6660767428658	2.5151803	1.585932
14.683748198479094	2.5218997	1.588049
14.701420005224954	2.5398552	1.5936923
14.719092163544628	2.6096413	1.6154385
14.73676467387942	2.6561847	1.6297805
14.754437536670727	2.654764	1.6293446
14.772110752360014	2.6582475	1.6304133
14.78978432138882	2.6722608	1.6347051
14.807458244198777	2.6998422	1.6431197
14.82513252123159	2.6966188	1.6421385
14.842807152929028	2.7232254	1.6502198
14.860482139732962	2.7312982	1.652664
14.87815748208531	2.7089348	1.6458842
14.8958331804281	2.7006817	1.643375
14.91350923520342	2.6584618	1.630479
14.931185646853438	2.6711724	1.6343721
14.948862415820408	2.6483214	1.6273664
14.966539542546656	2.698422	1.6426874
14.98421702747459	2.6450894	1.626373
15.001894871046696	2.625913	1.6204668
15.019573073705542	2.5743093	1.6044655
15.037251635893766	2.5553515	1.5985466
15.054930558054092	2.6132271	1.616548
15.072609840629323	2.7011292	1.6435113
15.090289484062351	2.8733256	1.6950886
15.107969488796124	3.186944	1.7852014
15.125649855273691	3.6037405	1.898352
15.14333058393817	4.103443	2.0256958
15.161011675232768	5.020006	2.240537
15.17869312960076	6.3862696	2.527107
15.196374947485506	8.304418	2.8817387
15.214057129330447	11.446146	3.3832154
15.231739675579114	15.994811	3.9993513
15.249422586675102	20.842016	4.5653057
15.267105863062092	23.8413	4.8827553
15.284789505183847	23.99459	4.8984275
15.302473513484218	21.74254	4.6628895
15.320157888407127	18.168	4.2623935
15.337842630396578	14.124135	3.758209
15.355527739896656	11.094265	3.3308055
15.37321321735153	8.653189	2.9416304
15.39089906320545	6.321807	2.5143204
15.408585277902748	4.726802	2.174121
15.42627186188783	3.6541088	1.9115723
15.443958815605198	3.2076318	1.7909863
15.461646139499424	2.9404936	1.7147868
15.479333834015168	2.7961872	1.6721804
15.497021899597165	2.7498758	1.6582749
15.514710336690234	2.736187	1.6541424
15.53239914573928	2.6523976	1.6286184
15.550088327189297	2.5644996	1.6014055
15.567777881485336	2.5031517	1.5821352
15.58546780907256	2.4867496	1.5769432
15.6031581103962	2.4747522	1.5731345
15.620848785901568	2.4342277	1.5602012
15.638539836034063	2.3949273	1.5475552
15.656231261239173	2.3812582	1.5431327
15.673923061962451	2.3690038	1.5391568
15.691615238649552	2.3953607	1.5476953
15.709307791746202	2.4095428	1.5522702
15.727000721698221	2.4415064	1.5625321
15.744694028951498	2.4269998	1.5578831
15.76238771395202	2.411307	1.5528384
15.780081777145844	2.3863494	1.5447813
15.797776218979125	2.3272681	1.5255387
15.815471039898094	2.2938776	1.5145552
15.833166240349064	2.3060813	1.5185788
15.850861820778437	2.3526027	1.5338197
15.868557781632699	2.3744774	1.540934
15.886254123358412	2.350317	1.5330744
15.903950846402232	2.3267245	1.5253605
15.921647951210897	2.3645804	1.5377192
15.939345438231225	2.3853462	1.5444566
15.957043307910133	2.4000802	1.5492193
15.974741560694602	2.4015405	1.5496905
15.992440197031714	2.4020805	1.5498646
16.01013921736862	2.39201	1.5466124
16.02783862215259	2.3655915	1.5380479
16.045538411830933	2.372756	1.5403752
16.06323858685107	2.3344681	1.5278966
16.080939147660512	2.3269017	1.5254185
16.09864009470684	2.31467	1.521404
16.11634142843774	2.3360403	1.528411
16.134043149300954	2.3432093	1.5307544
16.15174525774433	2.3658054	1.5381175
16.169447754215817	2.3844318	1.5441606
16.18715063916342	2.4195156	1.5554792
16.204853913035244	2.443446	1.5631526
16.222557576279478	2.442383	1.5628126
16.240261629344403	22.420006	4.734977
16.257966072678386	42.97799	6.55576
16.275670906729868	38.1175	6.1739373
16.293376131947387	2.5571883	1.5991211
16.31108174877957	2.603191	1.6134408
16.328787757675133	2.6341305	1.6230005
16.34649415908287	2.6818538	1.6376367
16.364200953451657	2.7115526	1.6466793
16.38190814123048	2.7171457	1.6483767
16.39961572286839	2.6898215	1.6400676
16.41732369881455	2.6881628	1.6395618
16.43503206951817	2.720156	1.6492895
16.45274083542859	2.7828255	1.6681803
16.47044999699522	2.8271666	1.6814181
16.488159554667558	2.8656135	1.6928123
16.505869508895184	2.8799622	1.6970451
16.523579860127786	2.9061108	1.7047318
16.541290608815117	2.9349332	1.7131647
16.559001755407035	2.965041	1.7219294
16.57671330035348	3.0152493	1.7364473
16.59442524410448	3.0677671	1.7515043
16.61213758711015	3.1223447	1.7670158
16.629850329820705	3.1748974	1.7818242
16.647563472686436	3.2951016	1.8152415
16.665277016157724	3.4058878	1.8455048
16.682990960685053	3.5034573	1.8717525
16.70070530671898	3.4882128	1.8676758
16.718420054710155	3.4687617	1.8624612
16.736135205109335	3.5162122	1.8751566
16.753850758367335	3.5869977	1.8939371
16.771566714935087	3.6717758	1.9161879
16.789283075263597	3.6933684	1.9218138
16.80699983980398	3.756459	1.9381586
16.82471700900741	3.8118312	1.9523911
16.84243458332518	3.8978355	1.9742937
16.860152563208665	3.9678578	1.9919482
16.87787094910932	3.9956725	1.9989178
16.89558974147871	4.023958	2.0059805
16.913308940768466	4.085883	2.0213568
16.931028547430333	4.1940637	2.0479412
16.94874856191613	4.2496743	2.0614738
16.966468984677785	4.338595	2.0829294
16.98418981616729	4.350997	2.0859044
17.00191105683676	4.415429	2.1012921
17.019632707138374	4.475308	2.1154923
17.03735476752442	4.556777	2.134661
17.05507723844728	4.626629	2.15096
17.072800120359403	4.6261697	2.1508532
17.090523413713353	4.6407123	2.1542313
17.108247118961785	4.612245	2.1476138
17.125971236557437	4.6077557	2.1465683
17.143695766953133	4.535213	2.1296039
17.161420710601806	4.594156	2.1433983
17.179146067956477	4.6021686	2.1452665
17.19687183947025	4.636901	2.1533465
17.21459802559634	4.594632	2.1435094
17.232324626788028	4.5976033	2.1442022
17.25005164349871	4.6411586	2.1543348
17.267779076181863	4.65474	2.1574845
17.285506925291074	4.618931	2.1491697
17.30323519127999	4.575869	2.1391282
17.320963874602384	4.5664754	2.1369314
17.33869297571211	4.5256596	2.1273599
17.356422495063114	4.511787	2.1240966
17.37415243310944	4.4936156	2.119815
17.391882790305218	4.4507174	2.1096723
17.40961356710468	4.41229	2.1005452
17.42734476396215	4.4514146	2.1098375
17.445076381332044	4.483884	2.1175184
17.462808419668868	4.536695	2.129952
17.48054087942723	4.651376	2.156705
17.498273761061835	4.9846063	2.232623
17.51600706502747	5.5016513	2.3455598
17.533740791779024	6.247513	2.4995024
17.551474941771485	7.694495	2.7738953
17.56920951545993	8.813341	2.968727
17.586944513299528	10.937662	3.3072135
17.60467993574556	12.445109	3.5277627
17.622415783253373	13.976108	3.7384632
17.64015205627843	15.213862	3.900495
17.657888755276293	16.204481	4.025479
17.675625880702604	16.608774	4.0753865
17.69336343301311	16.413284	4.051331
17.71110141266366	15.744892	3.9679835
17.728839820110178	14.968314	3.8688905
17.746578655808705	14.170968	3.7644346
17.764317920215372	12.798009	3.5774305
17.7820576137864	11.3050995	3.3623056
17.79979773697811	9.338077	3.0558267
17.81753829024692	7.492968	2.7373285
17.835279274049356	5.848946	2.4184594
17.85302068884201	4.802046	2.1913571
17.870762535081607	4.19211	2.0474644
17.888504813224934	3.8795679	1.9696618
17.90624752372891	3.6769018	1.9175249
17.923990667050536	3.5292385	1.8786267
17.941734243646895	3.471547	1.8632088
17.959478253975185	3.4764335	1.8645196
17.9772226984927	3.4518502	1.8579155
17.994967577656833	3.3794992	1.8383415
18.01271289192506	3.3449645	1.8289244
18.030458641754965	3.3145878	1.820601
18.04820482760425	3.270731	1.8085163
18.06595144993067	3.2303934	1.7973295
18.083698509192125	3.2254303	1.7959483
18.101446005846576	3.2931705	1.8147094
18.119193940352105	3.2823646	1.8117297
18.136942313166887	3.2699685	1.8083054
18.1546911247492	3.2370899	1.7991915
18.1724403755574	3.215577	1.793203
18.19019006604997	3.2021878	1.7894658
18.207940196685467	3.1697993	1.780393
18.225690767922575	3.0933907	1.7588037
18.243441780220046	3.0711021	1.7524561
18.261193234036764	3.0669053	1.7512581
18.278945129831676	3.0826206	1.7557393
18.29669746806386	3.0452824	1.7450738
18.314450249192483	3.0562396	1.7482104
18.3322034736768	3.068028	1.7515787
18.349957141976184	3.0639536	1.7504153
18.3677112545501	3.036772	1.7426337
18.385465811858108	3.0344262	1.7419604
18.403220814359884	3.0505614	1.7465856
18.420976262515172	3.0732105	1.7530575
18.43873215678387	3.092926	1.7586716
18.456488497625923	3.126387	1.7681592
18.474245285501407	3.2050765	1.7902727
18.492002520870486	3.334081	1.8259466
18.50976020419343	3.4236596	1.8503134
18.527518335930615	3.708277	1.9256887
18.545276916542516	4.331259	2.0811677
18.563035946489688	4.5189934	2.1257925
18.580795426232832	4.990326	2.2339036
18.598555356232698	4.8675013	2.2062414
18.616315736950185	5.176813	2.2752612
18.63407656884626	4.7422886	2.1776795
18.65183785238201	4.8856487	2.2103503
18.669599588018617	4.652968	2.157074
18.68736177621737	4.696005	2.1670268
18.705124417439652	4.7070217	2.169567
18.72288751214696	4.515988	2.1250854
18.740651060800886	4.6488094	2.1561098
18.758415063863115	4.3185863	2.078121
18.77617952179546	4.4495883	2.1094048
18.793944435059814	4.207973	2.0513344
18.811709804118184	4.280032	2.0688238
18.829475629432675	4.231877	2.0571525
18.8472419114655	4.0037136	2.0009282
18.86500865067897	4.126172	2.0312982
18.88277584753551	3.79964	1.9492666
18.90054350249763	3.8066132	1.9510543
18.918311616027957	3.418216	1.8488418
18.936080188589226	3.2886527	1.8134643
18.953849220644265	2.9654098	1.7220365
18.971618712656007	2.822867	1.680139
18.9893886650875	2.7796652	1.6672328
19.007159078401887	7.9928093	2.8271556
19.024929953062408	32.88293	5.734364
19.042701289532435	32.85174	5.7316437
19.060473088275405	25.38859	5.038709
19.07824534975489	2.6928632	1.6409945
19.096018074434568	2.6727972	1.6348692
19.113791262778197	2.6585379	1.6305023
19.13156491524966	2.6046383	1.6138892
19.149339032312945	2.5813558	1.6066599
19.167113614432136	2.5949419	1.6108823
19.184888662071433	2.5609558	1.6002986
19.202664175695123	2.5154207	1.5860078
19.220440155767623	2.5359278	1.5924597
19.238216602753447	2.5533202	1.5979112
19.2559935171172	2.5160818	1.5862162
19.27377089932361	2.473858	1.5728503
19.291548749837514	2.4798455	1.5747526
19.309327069123835	2.495057	1.579575
19.32710585764763	2.488774	1.5775849
19.344885115874032	2.471757	1.5721822
19.362664844268313	2.488048	1.5773548
19.380445043295822	2.5011823	1.5815127
19.39822571342203	2.505204	1.5827836
19.41600685511252	2.5180125	1.5868247
19.43378846883297	2.5309143	1.5908848
19.451570555049173	2.5403755	1.5938555
19.469353114227037	2.5312831	1.5910007
19.48713614683254	2.517092	1.5865346
19.50491965333182	2.4960382	1.5798855
19.52270363419109	2.4600415	1.568452
19.540488089876686	2.4592736	1.5682071
19.55827302085503	2.496243	1.5799503
19.576058427592674	2.4990458	1.5808371
19.593844310556282	2.5047178	1.58263
19.611630670212598	2.500799	1.5813915
19.629417507028506	2.4780886	1.5741946
19.64720482147098	2.4571552	1.5675316
19.6649926140071	2.4576473	1.5676886
19.682780885104084	2.4465764	1.5641536
19.70056963522921	2.4179683	1.5549817
19.718358864849908	2.4326835	1.5597062
19.7361485744337	2.458105	1.5678345
19.753938764448215	2.4621716	1.5691308
19.771729435361202	2.4398873	1.5620139
19.789520587640506	2.4603636	1.5685546
19.807312221754092	2.450267	1.5653329
19.825104338170043	2.474168	1.5729488
19.842896937356517	2.4810574	1.5751373
19.860690019781824	2.4763196	1.5736326
19.87848358591436	2.4540122	1.5665287
19.896277636222635	2.4554715	1.5669944
19.914072171175278	2.4666808	1.570567
19.931867191241015	2.5141592	1.58561
19.94966269688869	2.4898484	1.5779253
19.967458688587264	2.492762	1.5788484
19.985255166805807	2.4912474	1.5783685
20.00305213201348	2.5248773	1.5889863
20.020849584679578	2.4977834	1.5804378
20.038647525273507	2.4746823	1.5731122
20.05644595426477	2.4912753	1.5783775
20.07424487212299	2.523921	1.5886853
20.092044279317903	2.4871435	1.577068
20.109844176319353	2.4397948	1.5619843
20.127644563597304	2.4075952	1.5516428
20.145445441621817	2.3990142	1.5488751
20.16324681086307	2.4096215	1.5522956
20.181048671791373	2.4199588	1.5556217
20.198851024877122	2.4109554	1.5527252
20.216653870590836	2.3716612	1.5400199
20.234457209403146	2.3603103	1.5363301
20.252261041784802	2.3469362	1.5319713
20.270065368206662	2.3331316	1.5274591
20.287870189139685	2.2996745	1.5164678
20.305675505054968	2.3181868	1.5225593
20.323481316423702	2.3260436	1.5251372
20.341287623717207	2.3728359	1.5404012
20.359094427406884	2.3823566	1.5434885
20.376901727964288	2.3714075	1.5399375
20.39470952586107	2.3774326	1.5418925
20.41251782156899	2.3560069	1.5349289
20.430326615559935	2.3534017	1.53408
20.448135908305886	2.3363721	1.5285196
20.465945700278965	2.3687816	1.5390847
20.483755991951384	2.3625467	1.5370578
20.50156678379548	2.3492267	1.5327188
20.519378076283708	2.3314698	1.5269151
20.537189869888635	2.3253615	1.5249135
20.55500216508294	2.3695204	1.5393246
20.572814962339415	2.381433	1.5431893
20.59062826213098	2.372056	1.540148
20.60844206493066	2.3447857	1.5312693
20.626256371211593	2.3070023	1.5188819
20.644071181447032	2.2650027	1.5049926
20.66188649611036	2.2524967	1.500832
20.67970231567506	2.268943	1.5063012
20.697518640614742	2.3002164	1.5166464
20.715335471403122	2.2906718	1.5134965
20.73315280851404	2.3169947	1.5221678
20.750970652421447	2.305717	1.5184587
20.768789003599412	2.3301752	1.5264912
20.786607862522136	2.3061604	1.5186048
20.8044272296639	2.3057787	1.5184791
20.82224710549913	2.3178556	1.5224506
20.84006749050237	2.3267817	1.5253792
20.857888385148268	3.880074	1.9697903
20.8757097899116	45.97562	6.7805324
20.893531705267254	64.81766	8.050941
20.911354131690224	83.83659	9.156233
20.92917706965566	69.09363	8.312258
20.94700051963877	50.161766	7.082497
20.96482448211493	29.427696	5.42473
20.982648957559622	4.1699724	2.042051
21.00047394644843	2.2472162	1.4990718
21.01829944925707	2.259077	1.5030227
21.036125466461375	2.2521741	1.5007246
21.053951998537297	2.2140827	1.4879794
21.071779045960906	2.2211127	1.4903398
21.089606609208378	2.2405884	1.4968596
21.10743468875603	2.278356	1.5094224
21.12526328508028	2.2548387	1.5016121
21.143092398657675	2.2287734	1.4929076
21.16092202996488	2.2196534	1.4898502
21.17875217947867	2.2355716	1.4951828
21.19658284767596	2.231512	1.4938246
21.21441403503377	2.2193525	1.4897492
21.232245742029225	2.1947727	1.4814765
21.2500779691396	2.1788983	1.4761091
21.26791071684227	2.1815474	1.4770062
21.28574398561475	2.1752791	1.4748827
21.30357777593465	2.149741	1.4661995
21.321412088279704	2.131784	1.460063
21.339246923127792	2.137831	1.4621323
21.357082280956888	2.1617908	1.4703029
21.3749181622451	2.1737788	1.474374
21.392754567470647	2.1685433	1.4725975
21.41059149711187	2.1702259	1.4731686
21.42842895164726	2.1605923	1.4698954
21.446266931555378	2.125628	1.4579533
21.464105437314945	2.1015198	1.449662
21.481944469404798	2.0799782	1.4422129
21.49978402830388	2.088004	1.4449928
21.51762411449127	2.097871	1.4484029
21.53546472844617	2.0868797	1.4446037
21.553305870647876	2.0838778	1.4435643
21.571147541575865	2.0920148	1.4463799
21.58898974170967	2.088972	1.4453276
21.60683247152899	2.0518692	1.4324347
21.62467573151363	2.0449924	1.4300324
21.642519522143523	2.0524995	1.4326547
21.660363843898722	2.034525	1.4263678
21.6782086972594	2.0199249	1.4212406
21.696054082705864	2.01477	1.419426
21.713900000718535	2.0280652	1.4241016
21.73174645177795	2.04903	1.4314433
21.749593436364794	2.0472014	1.4308045
21.767440954959845	2.0421839	1.42905
21.785289008044032	2.0454586	1.4301953
21.803137596098388	2.0242927	1.4227765
21.820986719604086	2.0075462	1.416879
21.838836379042412	1.9945437	1.4122832
21.85668657489478	2.005499	1.4161564
21.87453730764273	2.0136359	1.4190264
21.892388577767914	2.0274005	1.4238682
21.91024038575213	2.0112813	1.4181964
21.928092732077285	1.9811096	1.407519
21.945945617225426	1.9541785	1.3979193
21.963799041678694	1.9574181	1.3990775
21.981653005919398	31.2812	5.59296
21.999507510429943	78.09244	8.836992
22.01736255569286	73.05078	8.546975
22.035218142190818	4.1462083	2.0362241
22.05307427040661	1.9823947	1.4079754
22.07093094082315	1.9892781	1.4104177
22.088788153923474	1.9938965	1.412054
22.106645910190746	1.9949883	1.4124405
22.12450421010827	1.9761373	1.4057515
22.142363054159464	1.9750888	1.4053786
22.16022244282787	1.9556887	1.3984594
22.178082376597164	1.9240952	1.3871176
22.195942855951145	1.9345937	1.3908967
22.213803881373742	1.9874098	1.4097552
22.231665453349002	1.9875537	1.4098063
22.24952757236111	1.9383595	1.3922498
22.26739023889438	1.9171721	1.3846198
22.28525345343323	1.9373707	1.3918946
22.30311721646225	1.9466544	1.3952256
22.320981528466113	1.9164845	1.3843715
22.33884638992964	1.8955686	1.3767965
22.356711801337788	1.9321053	1.3900019
22.37457776317561	1.937552	1.3919598
22.392444275928337	1.9589013	1.3996075
22.410311340081282	1.9362668	1.3914981
22.428178956119904	1.9254694	1.3876128
22.446047124529805	1.8786186	1.370627
22.46391584579669	1.8882529	1.3741372
22.481785120406414	1.9265553	1.3880041
22.49965494884496	1.941556	1.3933973
22.51752533159841	1.9152856	1.3839384
22.53539626915302	1.9053545	1.3803458
22.553267761995137	1.8932109	1.37594
22.571139810611264	1.8859011	1.3732811
22.589012415488025	1.8905962	1.3749895
22.60688557711216	1.9223306	1.3864814
22.624759295970566	1.93324	1.3904101
22.642633572550263	1.9575764	1.3991342
22.660508407338362	1.9354538	1.3912059
22.67838380082217	1.954999	1.3982128
22.696259753489077	1.9593316	1.3997613
22.714136265826614	1.9824682	1.4080015
22.73201333832246	1.9635725	1.4012753
22.74989097146439	1.9643508	1.401553
22.76776916574035	1.9323558	1.390092
22.785647921638393	1.9075	1.3811227
22.803527239646712	1.8862311	1.3734013
22.82140712025363	1.8937134	1.3761226
22.839287563947593	1.926012	1.3878083
22.85716857121719	1.9001397	1.3784555
22.875050142551135	1.8939458	1.376207
22.892932278438277	1.8726113	1.3684338
22.910814979367604	1.8391043	1.3561358
22.928698245828222	1.8260472	1.3513131
22.946582078309387	1.885454	1.3731184
22.96446647730047	1.9208336	1.3859414
22.98235144329098	1.9369076	1.3917283
23.000236976770562	1.9440439	1.3942897
23.018123078229	1.9491636	1.3961245
23.03600974815619	1.9367461	1.3916702
23.053896987042194	1.9252051	1.3875176
23.071784795377173	1.8976967	1.3775692
23.08967317365145	1.9095438	1.3818624
23.10756212235546	1.9085292	1.3814952
23.125451641979787	1.9167565	1.3844697
23.143341733015134	1.931024	1.3896129
23.161232395952357	1.9264177	1.3879545
23.179123631282426	1.9566946	1.398819
23.197015439496468	1.9512924	1.3968867
23.214907821085717	1.9312263	1.3896856
23.23280077654157	1.904732	1.3801203
23.250694306355538	1.9600546	1.4000195
23.268588411019277	2.0037975	1.4155556
23.28648309102458	2.0181317	1.4206096
23.304378346863356	1.9436265	1.3941401
23.322274179027676	1.8869787	1.3736734
23.340170588009723	1.8465285	1.3588703
23.358067574301852	1.8512424	1.3606037
23.37596513839651	1.8744727	1.3691138
23.39386328078629	1.8658967	1.3659782
23.411762001963947	1.8585548	1.3632883
23.429661302422353	1.8838915	1.3725493
23.4475611826545	1.9177977	1.3848457
23.46546164315356	1.9120979	1.3827863
23.48336268441279	1.8938974	1.3761895
23.501264306925638	1.9086835	1.3815511
23.51916651118564	1.9547509	1.3981241
23.537069297686497	1.9505509	1.3966212
23.554972666922037	1.9422238	1.393637
23.57287661938623	1.9248105	1.3873754
23.59078115557318	1.9392633	1.3925743
23.608686275977128	1.9243671	1.3872156
23.62659198109246	1.9043571	1.3799845
23.6444982714137	1.9327836	1.3902459
23.66240514743549	1.9266386	1.3880341
23.68031260965263	1.9196293	1.3855069
23.698220658560068	1.8705409	1.3676772
23.716129294652845	1.8938055	1.3761561
23.7340385184262	1.8885385	1.3742411
23.75194833037546	1.8705202	1.3676696
23.769858730996123	1.8692526	1.3672061
23.78776972078382	1.8807448	1.3714025
23.80568130023431	1.9049664	1.3802052
23.823593469843495	1.880608	1.3713526
23.841506230107424	1.8494992	1.3599629
23.859419581522275	1.8243648	1.3506905
23.87733352458438	1.8528861	1.3612076
23.89524805979019	1.8572661	1.3628155
23.913163187636318	1.8570586	1.3627394
23.931078908619508	1.8955555	1.3767917
23.948995223236633	1.9594111	1.3997897
23.966912131984735	2.0255337	1.4232124
23.98482963536096	2.098601	1.4486549
24.002747733862616	2.072266	1.4395368
24.020666427987155	2.040469	1.4284499
24.038585718232156	2.0676134	1.4379199
24.056505605095353	2.088641	1.4452131
24.074426089074617	2.0802257	1.4422988
24.092347170667946	2.0369372	1.4272131
24.110268850373515	2.01195	1.4184322
24.128191128689586	2.0440714	1.4297103
24.146114006114626	2.0336635	1.4260658
24.164037483147187	2.039533	1.4281222
24.181961560286005	2.0175161	1.420393
24.199886238029926	1.9728694	1.4045887
24.21781151687797	1.9705234	1.4037533
24.235737397329274	1.9704952	1.4037433
24.253663879883135	2.037752	1.4274985
24.271590965038975	2.0892103	1.44541
24.289518653296376	2.07868	1.4417628
24.30744694515505	2.0182378	1.420647
24.32537584111486	1.97578	1.4056244
24.34330534167581	1.9877745	1.4098846
24.361235447338046	2.0399013	1.4282511
24.379166158601876	2.0149302	1.4194824
24.39709747596772	1.956487	1.3987448
24.41502939993615	1.9597806	1.3999217
24.432961931007917	1.9781756	1.4064764
24.450895069683856	1.9908623	1.4109792
24.468828816465	1.9569654	1.3989158
24.4867631718525	1.9688516	1.4031577
24.504698136347656	1.9568062	1.3988589
24.52263371045192	1.9454266	1.3947855
24.540569894666874	1.9644463	1.401587
24.558506689494266	1.9656812	1.4020275
24.57644409543597	1.9742109	1.4050661
24.594382112994012	1.9578321	1.3992256
24.61232074267057	1.9564501	1.3987316
24.630259984967953	1.9398113	1.3927711
24.64819984038863	1.9546125	1.3980745
24.66614030943522	2.0096145	1.4176087
24.684081392610462	1.9941965	1.4121603
24.702023090417274	1.951475	1.396952
24.7199654033587	1.9701738	1.4036288
24.737908331937927	2.0079088	1.417007
24.755851876658305	2.0402	1.4283557
24.773796038023324	2.0909302	1.4460049
24.79174081653661	2.1329365	1.4604577
24.809686212701962	2.1139276	1.4539353
24.827632227023294	2.113466	1.4537765
24.8455788600047	2.0992517	1.4488795
24.8635261121504	2.0951962	1.4474792
24.88147398396475	2.1146398	1.4541801
24.899422475952303	2.1316044	1.4600015
24.917371588617698	2.1486726	1.4658351
24.935321322465768	2.1544929	1.4678191
24.953271678001478	2.2483103	1.4994366
24.97122265572994	2.4832115	1.5758209
24.989174256156414	2.7865171	1.6692864
25.00712647978632	3.21044	1.7917701
25.02507932712521	3.74982	1.9364452
25.043032798678798	4.2652936	2.0652587
25.060986894952933	4.8682294	2.2064064
25.078941616453637	5.5200124	2.3494706
25.096896963687055	6.385227	2.5269008
25.114852937159508	7.507202	2.7399273
25.132809537377444	8.031969	2.8340728
25.150766764847468	8.157867	2.856198
25.168724620076347	7.6171894	2.7599256
25.186683103570985	6.5309806	2.5555782
25.204642215838426	5.393369	2.322363
25.222601957385894	4.1921663	2.047478
25.24056232872074	3.276677	1.8101593
25.25852333035048	2.6624749	1.6317092
25.276484962782778	2.2761164	1.5086803
25.294447226525435	2.0786252	1.4417439
25.312410122086423	1.9773581	1.4061856
25.330373649973843	1.9782389	1.4064988
25.348337810695988	1.9665266	1.402329
25.366302604761245	1.9234871	1.3868984
25.384268032678207	1.8802761	1.3712316
25.40223409495558	1.9179008	1.3848829
25.420200792102257	1.8985804	1.3778899
25.438168124627246	1.8472532	1.3591369
25.45613609303974	1.843143	1.357624
25.474104697849057	1.8952469	1.3766797
25.492073939564698	1.8991652	1.3781021
25.510043818696285	1.861827	1.3644878
25.528014335753614	1.8195158	1.3488942
25.54598549124664	1.8149564	1.3472031
25.56395728568544	1.8186831	1.3485856
25.58192971958028	1.8204843	1.3492532
25.59990279344156	1.8351843	1.3546897
25.617876507779833	1.8708478	1.3677894
25.635850863105826	1.8974015	1.3774619
25.653825859930386	1.8937619	1.3761402
25.671801498764548	1.867669	1.3666269
25.68977778011949	1.832359	1.3536465
25.707754704506524	1.8088161	1.3449223
25.725732272437153	1.7922467	1.3387482
25.743710484423012	1.7940946	1.3394382
25.761689340975888	1.781209	1.3346194
25.77966884260774	1.7793756	1.3339324
25.797648989830662	1.7909327	1.3382573
25.815629783156922	1.8320857	1.3535457
25.83361122309895	1.8351749	1.3546863
25.85159331016929	1.8269522	1.351648
25.869576044880695	1.7977544	1.3408036
25.887559427746034	1.779519	1.3339862
25.90554345927836	1.8075249	1.3444422
25.92352813999086	1.8664982	1.3661984
25.94151347039689	1.8413367	1.3569586
25.959499451009965	1.8440815	1.3579696
25.97748608234374	1.8294336	1.3525655
25.995473364912062	1.8498101	1.3600773
26.013461299228904	1.8156681	1.3474673
26.03144988580839	1.833324	1.354003
26.04943912516483	1.8457339	1.3585778
26.067429017812675	1.8255054	1.3511126
26.085419564266537	1.8308687	1.353096
26.103410765041186	1.9166667	1.3844373
26.12140262065155	1.9512275	1.3968635
26.139395131612723	1.9152249	1.3839165
26.157388298439948	1.8678613	1.3666972
26.17538212164861	1.8414353	1.356995
26.193376601754295	1.8350128	1.3546264
26.211371739272714	1.8562747	1.3624518
26.229367534719746	1.8436973	1.3578281
26.247363988611433	1.7981908	1.3409663
26.26536110146397	1.7787589	1.3337013
26.283358873793727	1.7609384	1.3270036
26.301357306117204	1.7795352	1.3339922
26.319356398951104	1.8029451	1.3427379
26.33735615281224	1.8466278	1.3589069
26.35535656821762	1.8265017	1.3514813
26.373357645684404	1.7889026	1.3374987
26.39135938572991	1.6886438	1.2994783
26.409361788871614	1.6874341	1.2990128
26.427364855627165	1.7652496	1.328627
26.445368586514352	1.8164334	1.3477513
26.46337298205115	1.8262084	1.3513727
26.48137804275568	1.790053	1.3379287
26.499383769146217	1.7798196	1.3340988
26.517390161741215	1.8085554	1.3448254
26.53539722105928	1.8056751	1.3437542
26.553404947619182	1.789742	1.3378124
26.571413341939856	1.7757615	1.332577
26.589422404540397	1.7833655	1.335427
26.60743213594006	1.7819269	1.3348883
26.62544253665827	1.7740871	1.3319486
26.64345360721459	1.8399882	1.3564616
26.66146534812879	1.872574	1.3684202
26.679477759920758	1.8396314	1.3563302
26.69749084311057	1.7915211	1.3384771
26.71550459821847	1.8026106	1.3426133
26.733519025764842	1.8076882	1.3445029
26.751534126270258	1.7941228	1.3394487
26.769549900255434	1.7589012	1.3262358
26.787566348241267	1.8253715	1.3510631
26.80558347074881	1.8316993	1.3534029
26.823601268299267	1.8163531	1.3477215
26.841619741414036	1.8273114	1.3517808
26.85963889061465	1.832029	1.3535247
26.877658716422832	1.8395282	1.3562921
26.89567921936045	1.8206229	1.3493046
26.913700399949544	1.8158319	1.3475281
26.93172225871233	1.7813494	1.334672
26.949744796171174	1.810502	1.345549
26.967768012848605	1.8170235	1.3479701
26.98579190926733	1.8495469	1.3599805
27.003816485950225	1.8407223	1.3567322
27.021841743420318	1.7840672	1.3356898
27.039867682200814	1.7406926	1.3193531
27.057894302815072	1.7579885	1.3258916
27.07592160578664	1.8260692	1.3513213
27.0939495916392	1.8093628	1.3451256
27.111978260896635	1.7668109	1.3292143
27.13000761408296	1.7313755	1.3158174
27.148037651722397	1.7484351	1.3222841
27.166068374339304	1.7671217	1.3293313
27.184099782458215	1.7870022	1.336788
27.20213187660384	1.8065805	1.3440909
27.22016465730105	1.7641505	1.3282132
27.23819812507487	1.7582407	1.3259867
27.256232280450533	1.8136188	1.3467066
27.274267123953383	1.8272289	1.3517503
27.292302656108987	1.8176438	1.3482002
27.31033887744306	1.7806575	1.3344128
27.32837578848146	1.7617624	1.327314
27.34641338975026	1.7882385	1.3372504
27.364451681775673	1.8265812	1.3515108
27.382490665084074	1.7920437	1.3386724
27.400530340202046	1.7848443	1.3359807
27.41857070765629	1.8027881	1.3426795
27.436611767973726	1.8265686	1.351506
27.454653521681404	1.796299	1.3402607
27.472695969306564	1.8102356	1.3454499
27.490739111376627	1.81851	1.3485215
27.508782948419153	1.8015046	1.3422014
27.526827480961902	1.7970318	1.3405341
27.54487270953279	1.8022795	1.3424901
27.562918634659898	1.8082296	1.3447043
27.580965256871508	1.7827878	1.3352108
27.599012576696026	1.8154861	1.3473997
27.617060594662068	1.8228428	1.350127
27.63510931129842	1.861266	1.3642823
27.65315872713401	1.8850653	1.3729768
27.67120884269797	1.8553565	1.3621147
27.68925965851958	1.8060423	1.3438908
27.707311175128307	1.8272386	1.3517538
27.725363393053787	1.8963892	1.3770945
27.74341631282583	1.9081624	1.3813626
27.7614699349744	1.8394737	1.356272
27.77952426002968	2.0175219	1.420395
27.797579288521973	2.147008	1.4652672
27.815635020981784	2.6050043	1.6140026
27.83369145793979	2.6638992	1.6321455
27.85174859992682	2.4941754	1.5792959
27.869806447473923	2.3817527	1.5432928
27.887865001112267	2.0212724	1.4217147
27.905924261373233	1.8838084	1.372519
27.92398422878836	1.8661577	1.3660738
27.94204490388936	1.8732922	1.3686826
27.96010628720813	1.8372587	1.3554552
27.978168379276728	1.7763703	1.3328054
27.9962311806274	1.7440448	1.3206229
28.014294691792568	1.8008467	1.3419563
28.0323589133048	1.8288847	1.3523626
28.050423845696887	1.8694491	1.367278
28.068489489501758	1.8777792	1.3703208
28.086555845252523	1.815827	1.3475263
28.104622913482487	1.7869956	1.3367856
28.122690694725115	1.7937794	1.3393205
28.14075918951405	1.8104789	1.3455404
28.15882839838312	1.8588803	1.3634076
28.176898321866304	1.8586749	1.3633323
28.1949689604978	1.8307345	1.3530464
28.213040314811945	1.8483207	1.3595296
28.23111238534327	1.9044839	1.3800304
28.249185172626493	1.9268602	1.3881139
28.267258677196473	1.9259468	1.3877848
28.285332899588294	1.9729325	1.4046111
28.303407840337172	1.9746225	1.4052126
28.321483499978545	1.9152957	1.3839421
28.33955987904799	1.9004446	1.3785661
28.357636978081285	1.9007827	1.3786888
28.37571479761439	1.9283097	1.3886359
28.393793338183425	1.9499441	1.396404
28.41187260032469	1.9772617	1.4061514
28.429952584574686	1.9921559	1.4114375
28.448033291470065	2.0068946	1.4166491
28.46611472154769	2.011296	1.4182017
28.484196875344566	1.9987125	1.4137583
28.502279753397914	1.9956088	1.4126602
28.52036335624511	1.9761654	1.4057615
28.538447684423716	1.9201822	1.3857064
28.556532738471482	1.9083112	1.3814164
28.574618518926325	1.9833422	1.4083118
28.59270502632635	2.020118	1.4213085
28.61079226120985	2.041753	1.4288993
28.628880224115274	2.0220203	1.4219776
28.646968915581287	2.0526161	1.4326954
28.66505833614671	2.0364566	1.4270447
28.68314848635055	2.0215921	1.4218271
28.701239366732004	2.0264363	1.4235295
28.71933097783044	2.0083447	1.4171607
28.737423320185403	2.0786078	1.4417378
28.75551639433665	2.1346557	1.4610461
28.773610200824074	2.1427486	1.4638131
28.791704740187793	2.0999238	1.4491113
28.80980001296809	2.081144	1.442617
28.827896019705413	2.1121528	1.4533248
28.845992760940433	2.1500432	1.4663026
28.86409023721397	2.2203505	1.490084
28.88218844906704	2.1745043	1.4746201
28.900287397040845	2.1322637	1.4602273
28.918387081676755	2.1740882	1.474479
28.936487503516343	2.2860343	1.5119637
28.954588663101365	2.252525	1.5008415
28.97269056097374	2.279941	1.5099474
28.990793197675597	2.3298726	1.526392
29.00889657374923	2.3408682	1.5299896
29.027000689737125	2.3391373	1.5294238
29.04510554618196	2.3247736	1.5247208
29.06321114362659	2.3566267	1.5351309
29.08131748261405	2.3840039	1.544022
29.099424563687567	2.3725047	1.5402937
29.11753238739057	2.438564	1.5615902
29.13564095426663	2.5192072	1.5872011
29.15375026485954	2.5406191	1.593932
29.171860319713275	2.6040795	1.613716
29.18997111937199	2.6222506	1.6193365
29.20808266438002	2.6758487	1.6358021
29.226194955281898	2.7252133	1.650822
29.244307992622335	2.7670226	1.663437
29.26242177694624	2.7636304	1.662417
29.2805363087987	2.8177702	1.6786215
29.29865158872498	2.8538613	1.6893375
29.316767617270557	2.8595934	1.6910332
29.334884394981064	2.8806317	1.6972424
29.353001922402367	2.8938422	1.7011297
29.37112020008047	2.977778	1.725624
29.389239228561596	3.177562	1.7825718
29.407359008392152	3.3451412	1.8289727
29.42547954011872	3.71576	1.9276307
29.44360082428809	4.3326373	2.0814989
29.46172286144722	5.2769723	2.297166
29.479845652143283	6.695254	2.587519
29.497969196923606	8.715594	2.9522185
29.516093496335728	11.171989	3.3424525
29.5342185509274	13.840728	3.7203128
29.55234436124651	16.050163	4.0062656
29.570470927841175	17.316345	4.161291
29.588598251259686	16.928038	4.11437
29.60672633205055	15.723752	3.9653187
29.624855170762405	13.757566	3.7091193
29.642984767944146	11.209665	3.3480837
29.66111512414481	8.705406	2.9504926
29.67924623991366	6.543563	2.558039
29.697378115800138	5.0622816	2.2499514
29.71551075235387	4.278315	2.0684087
29.733644150124675	3.855494	1.9635412
29.751778309662576	3.550178	1.8841916
29.769913231517766	3.4049013	1.8452375
29.78804891624066	3.352329	1.8309367
29.806185364381818	3.3006392	1.8167661
29.82432257649206	3.271994	1.8088654
29.842460553122333	3.2151415	1.7930815
29.86059929482382	3.275115	1.8097279
29.878738802147872	3.3392425	1.8273594
29.896879075646048	3.3486695	1.829937
29.915020115870114	3.3528943	1.831091
29.933161923371976	3.291888	1.8143561
29.951304498703777	3.2487507	1.8024291
29.969447842417857	3.239873	1.7999647
29.987591955066733	3.2151775	1.7930917
30.005736837203123	3.2159412	1.7933046
30.023882489379943	3.1650016	1.7790451
30.04202891215028	3.1969478	1.7880011
30.060176106067455	3.2861552	1.8127756
30.078324071684946	3.2787554	1.8107334
30.09647280955646	3.166495	1.7794648
30.114622320235863	3.122196	1.7669736
30.132772604277257	3.1433074	1.7729375
30.1509236622349	3.1814318	1.7836568
30.16907549466328	3.170472	1.780582
30.18722810211705	3.1292708	1.7689745
30.205381485151097	3.0341947	1.741894
30.22353564432045	2.9590383	1.7201855
30.241690580180403	2.9902134	1.7292234
30.25984629328638	2.976847	1.7253542
30.278002784194037	2.9124305	1.7065845
30.296160053459246	2.9531531	1.718474
30.314318101638033	2.9861388	1.7280447
30.332476929286646	2.927716	1.711057
30.35063653696153	2.9213986	1.7092099
30.368796925219307	2.9185433	1.7083745
30.386958094616844	2.916085	1.7076548
30.40512004571115	2.9387465	1.7142773
30.423282779059463	2.9288971	1.711402
30.441446295219233	2.8764699	1.6960158
30.459610594748067	2.811727	1.6768205
30.47777567820382	2.773262	1.6653113
30.495941546144504	2.833122	1.6831881
30.51410819912835	2.8596761	1.6910577
30.532275637713795	2.8073065	1.6755018
30.55044386245946	2.7411356	1.6556375
30.56861287392416	2.694598	1.641523
30.586782672666956	2.7253268	1.6508564
30.604953259247047	2.807131	1.6754495
30.623124634223885	2.7927942	1.6711656
30.641296798157075	2.7671046	1.6634617
30.659469751606462	2.7830904	1.6682596
30.677643495132074	2.8187566	1.6789153
30.695818029294152	2.7792392	1.6671051
30.713993354653116	2.7033558	1.6441885
30.73216947176962	2.7779958	1.6667321
30.75034638120448	2.825535	1.6809328
30.768524083518756	2.7822409	1.6680051
30.786702579273673	2.7552552	1.6598961
30.80488186903069	2.7916915	1.6708356
30.82306195335144	2.936841	1.7137214
30.841242832797782	3.1296725	1.769088
30.85942450793176	3.407029	1.8458139
30.877606979315637	3.7348812	1.932584
30.895790247511883	4.0140867	2.0035186
30.913974313083134	4.2964444	2.0727866
30.932159176592283	4.659965	2.1586952
30.95034483860237	4.780025	2.1863267
30.968531299676698	4.5540814	2.1340294
30.98671856037873	4.2182627	2.0538409
31.00490662127215	3.9204953	1.9800241
31.023095482920848	3.5469003	1.8833216
31.04128514588892	3.063447	1.7502706
31.059475610740662	2.6499224	1.6278582
31.07766687804056	2.4964223	1.5800071
31.09585894835335	2.5139325	1.5855385
31.11405182224393	2.507934	1.5836458
31.132245500277417	2.4653492	1.5701431
31.15043998301914	2.4196951	1.555537
31.168635271034628	2.4279096	1.5581751
31.18683136488964	2.434729	1.5603619
31.20502826515008	2.3840606	1.5440403
31.223225972382135	2.339458	1.5295287
31.241424487152155	2.3921945	1.5466721
31.259623810026692	2.456578	1.5673474
31.27782394157253	2.4674444	1.5708101
31.296024882356644	2.417893	1.5549575
31.314226632946237	2.4197266	1.555547
31.332429193908684	2.4272132	1.5579516
31.350632565811598	2.438712	1.5616375
31.368836749222787	2.415965	1.5543375
31.387041744710295	2.4379995	1.5614095
31.40524755284232	2.500661	1.5813478
31.423454174187317	2.5424933	1.5945197
31.441661609313922	2.5322616	1.5913081
31.459869858791002	2.4549725	1.5668352
31.478078923187628	2.4350314	1.5604587
31.496288803073064	2.4078894	1.5517375
31.514499499016807	2.3668115	1.5384445
31.532711011588546	2.3194015	1.5229582
31.550923341358178	2.2908442	1.5135535
31.56913648889584	2.3048	1.5181568
31.587350454771844	2.2769375	1.5089525
31.605565239556732	2.2681594	1.5060409
31.62378084382127	2.2448633	1.4982867
31.641997268136382	2.204329	1.4846983
31.660214513073274	2.182662	1.4773835
31.67843257920331	2.1960418	1.4819047
31.6966514670981	2.2905777	1.5134654
31.71487117732944	2.2556121	1.5018696
31.733091710469346	2.2059495	1.4852439
31.751313067090052	2.2907917	1.5135362
31.769535247764008	2.3534415	1.534093
31.787758253063878	2.3939388	1.5472358
31.805982083562526	2.3864386	1.5448102
31.824206739833024	2.353698	1.5341767
31.84243222244869	2.3426144	1.5305601
31.860658531983013	2.341809	1.530297
31.878885669009737	2.3270874	1.5254794
31.897113634102784	2.2386968	1.4962275
31.91534242783632	2.2176876	1.4891902
31.933572050784694	2.2525837	1.500861
31.951802503522508	2.195344	1.4816693
31.970033786624548	2.1361744	1.4615657
31.988265900665834	2.1273532	1.4585449
32.006498846221575	2.140146	1.4629238
32.02473262386724	2.1482782	1.4657006
32.04296723417845	2.16165	1.470255
32.0612026777311	2.186038	1.4785256
32.07943895510129	2.1807365	1.4767317
32.097676066865304	2.1413193	1.4633248
32.115914013599685	2.0540502	1.4331958
32.13415279588115	2.0934687	1.4468824
32.152392414286666	2.096021	1.4477642
32.1706328693934	2.0563407	1.4339947
32.18887416177875	2.0321784	1.425545
32.20711629202032	2.1115673	1.4531233
32.225359260695924	2.1587162	1.469257
32.243603068383614	2.1651964	1.4714607
32.26184771566166	2.113954	1.4539443
32.28009320310852	2.0476177	1.4309499
32.2983395313029	2.056403	1.4340163
32.31658670082372	2.148827	1.4658878
32.33483471225012	2.1703582	1.4732136
32.35308356616143	2.1705637	1.4732833
32.371333263137245	2.1225858	1.4569097
32.38958380375734	2.093659	1.4469482
32.407835188601744	2.0764775	1.4409988
32.42608741825067	2.1268182	1.4583615
32.444340493284585	2.0563233	1.4339886
32.46259441428416	2.040172	1.4283459
32.48084918183028	2.0651755	1.4370719
32.49910479650405	2.0610883	1.435649
32.51736125888683	1.977822	1.4063506
32.53561856956014	1.9844996	1.4087226
32.5538767291058	2.0304792	1.4249488
32.572135738105764	1.9878826	1.409923
32.59039559714228	2.049961	1.4317685
32.608656306797776	2.0954354	1.4475619
32.62691786765491	1.9803305	1.4072422
32.645180280296586	1.9175689	1.3847631
32.663443545305896	1.9636834	1.4013149
32.68170766326619	1.9673474	1.4026216
32.69997263476099	1.9470863	1.3953804
32.7182384603741	1.9789011	1.4067342
32.7365051406895	1.9902552	1.4107641
32.75477267629144	2.0527077	1.4327273
32.77304106776434	2.0826974	1.4431554
32.79131031569289	1.979119	1.4068116
32.809580420661966	1.9913648	1.4111573
32.827851383256714	1.993658	1.4119695
32.84612320406245	1.9220685	1.3863869
32.86439588366476	1.8365325	1.3551873
32.88266942264945	1.8680308	1.3667592
32.9009438216025	1.8329504	1.353865
32.9192190811102	1.8379679	1.3557167
32.937495201758985	1.8880349	1.3740579
32.95577218413556	1.9521801	1.3972044
32.974050028826866	1.9692202	1.4032891
32.992328736420035	1.9368606	1.3917114
33.010608307502444	1.8837798	1.3725085
33.02888874266169	1.8739101	1.3689084
33.047170042485604	1.8984141	1.3778296
33.06545220756225	1.940099	1.3928744
33.083735238479896	1.9282529	1.3886155
33.10201913582707	1.9677615	1.4027692
33.12030390019248	1.9006566	1.378643
33.138589532165135	1.8520286	1.3608925
33.15687603233419	1.8858275	1.3732544
33.17516340128909	1.9691621	1.4032683
33.19345163961947	2.0508769	1.4320883
33.211740747915215	2.030892	1.4250937
33.23003072676643	1.9549364	1.3981904
33.248321576763466	1.8628008	1.3648446
33.266613298496885	1.8263757	1.3514347
33.28490589255747	1.8925371	1.3756951
33.30319935953626	1.9182409	1.3850057
33.32149370002451	1.8452615	1.358404
33.339788914613706	1.8670359	1.3663952
33.358085003895575	1.8453796	1.3584476
33.376381968462034	1.8082386	1.3447076
33.39467980890529	1.8610535	1.3642043
33.41297852581774	1.8760422	1.369687
33.43127811979204	1.8886303	1.3742745
33.44957859142105	1.9708326	1.4038634
33.467879941297866	2.046805	1.4306659
33.486182170015844	1.9833812	1.4083257
33.50448527816853	1.8015097	1.3422033
33.522789266349754	1.8507317	1.360416
33.541094135153514	1.9313815	1.3897415
33.55939988517411	1.9989833	1.413854
33.57770651700602	2.026542	1.4235666
33.59601403124398	2.0348067	1.4264665
33.61432242848296	1.9807154	1.4073789
33.632631709318154	1.9226388	1.3865925
33.650941874344994	1.8657401	1.3659209
33.66925292415916	1.8237493	1.3504627
33.68756485935654	1.8863784	1.3734549
33.70587768053328	1.9955844	1.4126515
33.724191388285746	2.0330372	1.4258461
33.74250598321054	1.9706053	1.4037825
33.760821465904506	1.9397333	1.3927431
33.77913783696474	1.8482137	1.3594903
33.79745509698852	1.8368509	1.3553047
33.815773246573414	1.8987577	1.3779541
33.8340922863172	1.9087834	1.3815873
33.852412216817896	1.9959005	1.4127635
33.87073303867377	2.1015394	1.4496688
33.889054752483304	1.9941707	1.4121511
33.907377358845245	1.8935947	1.3760794
33.92570085835853	1.8714552	1.3680114
33.94402525162239	1.8693031	1.3672246
33.96235053923627	1.7910424	1.3382983
33.980676721799824	1.8056856	1.343758
33.999003799912984	1.9751644	1.4054054
34.01733177417592	2.0168927	1.4201734
34.03566064518901	2.0103986	1.4178853
34.0539904135529	2.0505884	1.4319875
34.07232107986846	1.9875171	1.4097933
34.090652644736785	1.9256097	1.3876634
34.108985108759235	1.9250686	1.3874685
34.12731847253742	1.9384797	1.392293
34.14565273667313	1.9154679	1.3840042
34.16398790176847	1.9810624	1.4075022
34.18232396842574	1.9120361	1.3827639
34.20066093724749	1.8096573	1.345235
34.21899880883651	1.8256407	1.3511627
34.23733758379583	1.8997014	1.3782965
34.25567726272874	1.8347715	1.3545374
34.27401784623872	1.8642489	1.365375
34.29235933492957	1.9967885	1.4130777
34.31070172940526	2.183143	1.4775462
34.32904503027003	2.1162145	1.4547215
34.347389238128386	1.9741292	1.405037
34.36573435358502	2.045743	1.4302948
34.38408037724492	2.1121438	1.4533216
34.402427309713296	2.084853	1.443902
34.42077515159559	2.0157952	1.419787
34.43912390349752	1.9568583	1.3988775
34.45747356602499	1.9851251	1.4089446
34.47582413978423	1.8083013	1.344731
34.49417562538163	1.7626433	1.3276458
34.51252802342388	2.0194428	1.421071
34.53088133451789	2.0616517	1.4358453
34.54923555927084	1.7975755	1.3407369
34.567590698290104	1.8577863	1.3630064
34.58594675218336	1.9329392	1.3903018
34.6043037215585	1.9906104	1.4108899
34.62266160702365	1.9815165	1.4076635
34.641020409187234	2.0452201	1.4301119
34.65938012865785	2.130488	1.459619
34.677740766044394	2.190418	1.4800061
34.69610232195598	1.9818163	1.4077699
34.714464797002016	1.9573662	1.399059
34.73282819179208	2.076639	1.4410548
34.751192506936064	2.1196086	1.4558876
34.76955774304408	1.9902313	1.4107555
34.7879239007265	1.8506185	1.3603743
34.80629098059391	1.7920386	1.3386705
34.824658983257194	1.8777612	1.3703142
34.843027909327446	2.0353882	1.4266703
34.86139775941603	2.258029	1.502674
34.879768534134534	2.1269279	1.458399
34.89814023409483	1.9423748	1.3936911
34.91651285990901	1.8251911	1.3509964
34.93488641218944	1.8455982	1.358528
34.95326089154871	1.784621	1.3358971
34.97163629859967	1.7529421	1.3239872
34.99001263395542	1.8812476	1.3715858
35.00838989822934	1.9305804	1.3894533
35.02676809203499	1.8838902	1.3725488
35.04514721598624	1.9621192	1.4007567
35.063527270697215	1.8522328	1.3609676
35.081908256782256	1.9273977	1.3883075
35.10029017485597	2.1306818	1.4596854
35.11867302553321	2.0917826	1.4462997
35.137056809429104	1.8394302	1.356256
35.155441527159006	1.9659994	1.402141
35.173827179338524	2.0779648	1.4415147
35.19221376658354	1.8066003	1.3440983
35.21060128951017	1.8113006	1.3458457
35.2289897487348	1.9971337	1.4131998
35.24737914487405	1.8912884	1.3752412
35.26576947854479	1.8217027	1.3497046
35.28416075036418	1.8890587	1.3744303
35.30255296094958	2.075889	1.4407946
35.32094611091867	2.3385649	1.5292367
35.33934020088932	2.4548285	1.5667893
35.35773523147969	2.2074897	1.4857624
35.3761312033082	1.9091233	1.3817103
35.394528116993506	1.9636827	1.4013146
35.41292597315452	1.7400472	1.3191085
35.431324772410434	1.4364719	1.1985291
35.449724515380666	1.7103766	1.3078136
35.46812520268491	2.028993	1.4244273
35.486526834943106	1.9478185	1.3956426
35.504929412775454	1.8485464	1.3596126
35.52333293680242	1.8417042	1.357094
35.54173740764471	1.6065404	1.2674937
35.560142825923286	1.4294165	1.195582
35.5785491922594	1.2973843	1.1390277
35.59695650727454	0.83892	0.91592574
35.61536477159042	0.6898081	0.83054686
