0.008763373481513119	0.56609195	0.7523908
0.026290120649546365	0.36068255	0.60056853
0.043816868432600686	0.2109245	0.45926517
0.06134361724069026	0.094355136	0.3071728
0.07887036748382949	0.13519363	0.36768687
0.0963971195720331	0.11186998	0.3344697
0.11392387391531617	0.14200164	0.37683105
0.1314506309236943	0.09157163	0.30260804
0.1489773910071836	0.0613668	0.24772324
0.16650415457580078	0.03829727	0.19569688
0.18403092203956356	0.08947583	0.2991251
0.20155769380849	0.10372344	0.32206124
0.2190844702925996	0.101019174	0.31783512
0.2366112519019124	0.12753847	0.35712528
0.2541380390464497	0.19239679	0.43863058
0.27166483213623416	0.222771	0.47198623
0.28919163158128947	0.21197528	0.46040773
0.3067184377916406	0.25405714	0.50404084
0.324245251177314	0.28863403	0.5372467
0.34177207214833777	0.2808798	0.52998096
0.3592989011147415	0.2570776	0.5070282
0.37682573848655654	0.19074588	0.43674463
0.39435258467381573	0.16369937	0.4045978
0.41187944008655414	0.15495011	0.39363703
0.42940630513480854	0.1554249	0.39423963
0.446933180228618	0.14812191	0.3848661
0.4644600657780234	0.13292006	0.36458203
0.48198696219306775	0.09898578	0.31462005
0.49951386988379676	0.08384628	0.28956223
0.5170407892602581	0.14266153	0.3777056
0.5345677207325025	0.17953674	0.42371777
0.5520946647105822	0.2034466	0.45105055
0.5696216216045534	0.18056884	0.42493394
0.5871485918244737	0.20412587	0.4518029
0.6046755757804043	0.2293806	0.47893694
0.6222025738824094	0.22822371	0.47772765
0.6397295865405557	0.24057458	0.49048403
0.6572566141649129	0.24845888	0.4984565
0.6747836571655547	0.19697961	0.44382384
0.6923107159525568	0.17884322	0.4228986
0.7098377909359992	0.19241318	0.43864927
0.7273648825259653	0.24881531	0.4988139
0.7448919911325411	0.27974114	0.52890563
0.762419117165817	0.22497505	0.47431535
0.7799462610358868	0.20325305	0.45083594
0.7974734231528482	0.16983211	0.4121069
0.8150006039268024	0.18053904	0.42489886
0.8325278037678551	0.19645374	0.44323102
0.8500550230861152	0.19271494	0.4389931
0.8675822622916969	0.22706194	0.47651017
0.8851095217947171	0.25805646	0.50799257
0.9026368020052984	0.3039373	0.55130506
0.9201641033335665	0.2773212	0.52661294
0.9376914261896523	0.23479359	0.48455504
0.9552187709836915	0.1856778	0.43090346
0.9727461381258234	0.22576089	0.47514302
0.990273528026193	0.28092504	0.53002363
1.0078009410949496	0.30331787	0.55074304
1.0253283777422473	0.27143747	0.52099663
1.0428558383782454	0.271051	0.5206256
1.0603833234131086	0.25316003	0.5031501
1.0779108332570058	0.27196485	0.5215025
1.0954383683201119	0.3030922	0.5505381
1.112965929012607	0.38260058	0.61854714
1.1304935157446763	0.5613847	0.7492561
1.1480211289265108	0.6449149	0.80306596
1.1655487689683062	1.4887778	1.2201548
1.1830764362802655	1.7350111	1.3171982
1.200604131272596	2.1075943	1.4517555
1.2181318543555117	2.399286	1.5489628
1.235659605939232	2.4428616	1.5629656
1.253187386433982	4.031755	2.0079231
1.270715196249994	6.304309	2.5108383
1.2882430357975057	11.7097435	3.4219503
1.3057709054867608	16.45292	4.05622
1.3232988057280106	22.44364	4.737472
1.3408267369315112	27.402954	5.234783
1.358354699507526	31.287716	5.5935426
1.3758826938663256	35.538387	5.961408
1.3934107204181858	37.520943	6.125434
1.410938779573391	37.825336	6.1502304
1.4284668717422309	38.38947	6.195924
1.4459949973350033	37.931053	6.158819
1.4635231567620117	38.15152	6.1766915
1.4810513504335687	37.353386	6.1117415
1.4985795787599925	36.66856	6.055457
1.5161078421516088	35.87556	5.989621
1.5336361410187505	35.134827	5.9274635
1.5511644757717598	35.136528	5.927607
1.5686928468209842	35.698	5.9747806
1.58622125457678	36.292744	6.024346
1.6037496994495108	37.038795	6.085951
1.621278181849548	37.147057	6.0948386
1.6388067021872719	37.696175	6.139721
1.6563352608730693	37.37331	6.1133714
1.673863858317336	36.42106	6.034986
1.6913924949304753	36.11757	6.0097895
1.7089211711228998	34.95075	5.911916
1.7264498873050296	34.068382	5.8368125
1.7439786438872935	32.845905	5.731135
1.7615074412801288	31.774801	5.6369143
1.779036279893981	31.129036	5.57934
1.796565160139305	30.070854	5.48369
1.814094082426564	29.519794	5.4332123
1.8316230471662298	28.67728	5.3551173
1.849152054768784	27.821611	5.2746196
1.8666811056447168	27.490948	5.243181
1.8842102002045273	27.105028	5.2062488
1.901739338858724	26.517843	5.149548
1.9192685220178245	25.75475	5.0749135
1.9367977500923557	24.83334	4.983306
1.9543270234928547	24.55704	4.955506
1.971856342629867	24.039204	4.902979
1.9893857079139496	23.729553	4.871299
2.006915119755667	23.235106	4.8202806
2.0244445785655945	22.620153	4.756065
2.0419740847543175	22.120703	4.703265
2.0595036387324317	21.548523	4.642039
2.0770332409105414	21.280388	4.613067
2.094562891699263	21.11697	4.59532
2.1120925915092217	20.459003	4.523163
2.129622340751053	19.871033	4.4576936
2.1471521398354043	187.66792	13.699194
2.1646819891729323	444.04404	21.072353
2.182211889174303	440.5207	20.988585
2.1997418402501974	452.88254	21.281036
2.2172718428113023	432.96948	20.807919
2.234801897268317	320.85968	17.912556
2.2523320040319548	17.331411	4.163101
2.269862163512935	16.865906	4.106812
2.287392376121992	16.641535	4.079404
2.304922642269869	16.398916	4.0495577
2.322452962367322	16.127607	4.015919
2.3399833368251164	15.857394	3.9821343
2.357513766054032	15.727475	3.9657881
2.3750442504648586	15.528249	3.94059
2.3925747904683963	15.135452	3.890431
2.410105386475459	14.803738	3.8475626
2.4276360388968707	14.333345	3.7859404
2.445166748143469	14.145869	3.7610996
2.4626975146261025	13.995729	3.7410867
2.4802283387556323	13.932761	3.7326615
2.4977592209429305	13.893522	3.7274015
2.5152901615988825	13.517625	3.6766322
2.5328211611343865	13.054203	3.61306
2.5503522199603523	12.758296	3.5718758
2.5678833384877024	12.447227	3.5280628
2.5854145171273712	12.101408	3.4787078
2.6029457562903064	11.930337	3.454032
2.620477056387469	11.904276	3.4502573
2.6380084178298326	11.909006	3.4509428
2.655539841028383	11.850155	3.4424055
2.673071326394119	11.6094885	3.40727
2.6906028743380523	11.384076	3.3740296
2.708134485271211	11.009082	3.3179936
2.7256661596046325	10.678311	3.2677686
2.743197897749369	10.469567	3.235671
2.760729700116486	10.412138	3.2267845
2.778261567117063	10.172769	3.1894777
2.795793499162193	10.039763	3.1685586
2.8133254966629817	9.906894	3.1475217
2.830857560030551	9.790994	3.1290565
2.8483896896760337	9.824169	3.1343532
2.865921886010578	9.880509	3.1433277
2.883454149445347	9.891431	3.1450646
2.9009864803915177	9.726429	3.1187224
2.91851887926028	9.359363	3.0593076
2.9360513464628384	9.005714	3.0009522
2.953583882410413	8.794995	2.9656358
2.9711164875142373	8.7839775	2.9637775
2.9886491621855606	8.723607	2.9535754
3.0061819068356455	8.554685	2.9248393
3.023714721875769	8.43102	2.903622
3.041247607717225	8.278235	2.8771923
3.0587805647713213	8.303403	2.8815625
3.0763135934493806	8.325121	2.8853285
3.0938466941627407	8.31519	2.8836071
3.1113798673227544	8.151294	2.855047
3.1289131133407904	7.9971952	2.8279312
3.1464464326282315	7.841945	2.8003473
3.1639798255964786	7.696462	2.7742498
3.1815132926569443	7.5208497	2.7424169
3.1990468342210603	7.381304	2.7168555
3.216580450700272	7.3576207	2.7124934
3.2341141425060416	7.375664	2.7158175
3.251647910049847	7.389733	2.7184062
3.2691817537431813	7.3220506	2.7059288
3.286715673997555	7.218678	2.6867597
3.3042496712244938	7.122198	2.6687446
3.32178374583554	7.0439067	2.6540358
3.339317898242251	6.90274	2.6273067
3.3568521288562034	6.718565	2.5920196
3.3743864380889876	6.6455584	2.577898
3.3919208263522127	6.6365356	2.5761476
3.4094552940575023	6.638849	2.5765963
3.4269898416164972	6.6153007	2.5720227
3.444524469440858	6.527686	2.5549338
3.4620591779422587	6.5470285	2.5587163
3.479593967532391	6.514441	2.5523403
3.4971288386229658	6.5171328	2.5528677
3.5146637916257086	6.485043	2.5465748
3.5321988269523628	6.4520464	2.540088
3.5497339450146903	6.3913727	2.5281165
3.5672691462244708	6.354507	2.5208147
3.5848044309934988	6.348019	2.5195277
3.60233979973359	6.379545	2.5257761
3.619875252856575	6.2827206	2.5065355
3.6374107907743034	6.1963882	2.4892545
3.6549464138986427	6.197339	2.4894454
3.6724821226414788	6.2489624	2.4997926
3.690017917414714	6.2214766	2.4942887
3.7075537986302702	6.2643666	2.5028718
3.7250897667000857	6.2866354	2.5073164
3.7426258220361235	6.4733663	2.544281
3.7601619650503553	6.868276	2.6207397
3.777698196154779	7.5662823	2.7506876
3.7952345157614067	8.629368	2.9375787
3.8127709242822716	9.377741	3.0623097
3.830307422129425	11.316872	3.3640559
3.847844009714936	30.052826	5.4820457
3.8653806874508954	97.509	9.874664
3.882917455749409	96.74756	9.836034
3.900454315022606	96.63196	9.830155
3.917991265682631	41.297695	6.426328
3.9355283081416506	10.939725	3.3075254
3.9530654428118495	8.706267	2.9506385
3.970602670105433	7.4229007	2.7245002
3.9881399904346244	6.4913006	2.5478032
4.005677404211669	6.4640503	2.5424497
4.023214911848827	6.4165707	2.5330951
4.0407525137583855	6.280155	2.506024
4.058290210352644	6.3081226	2.5115976
4.075828002043927	6.3044066	2.5108578
4.0933658892445814	6.3596225	2.5218291
4.110903872366966	6.290301	2.508047
4.128441951823468	6.217833	2.4935584
4.145980128026488	6.1122937	2.4723053
4.163518401388452	6.0722365	2.464191
4.181056772321807	6.009743	2.4514778
4.1985952412390155	5.9130063	2.4316673
4.216133808552567	6.019393	2.4534452
4.233672474674966	6.2019916	2.4903798
4.251211240018741	6.4747744	2.5445578
4.268750104996445	6.7364016	2.5954578
4.286289070020643	7.6982846	2.7745783
4.303828135503928	9.396148	3.0653136
4.3213673018589125	29.671741	5.4471774
4.3389065694982305	90.821625	9.530038
4.356445938834537	165.93945	12.881749
4.3739854102805085	171.5174	13.096465
4.391524984248844	172.39821	13.13005
4.409064661152262	136.53412	11.684781
4.426604441403504	96.86099	9.841798
4.444144325415337	75.86025	8.709779
4.461684313600543	21.81622	4.6707835
4.47922440637193	22.211512	4.712909
4.496764604142329	20.412529	4.5180225
4.5143049073245916	18.593098	4.3119717
4.531845316331589	16.410957	4.051044
4.5493858315762195	13.510567	3.6756723
4.566926453471405	11.271887	3.357363
4.584467182430081	9.357169	3.058949
4.602008018865218	8.251612	2.872562
4.619548963189798	7.5410104	2.74609
4.637090015816834	7.009535	2.6475527
4.654631177159353	6.793499	2.606434
4.672172447630417	6.495569	2.5486407
4.689713827643102	6.2289944	2.4957952
4.7072553176105085	5.9326544	2.435704
4.724796917945764	5.770426	2.4021711
4.742338629062015	5.721515	2.391969
4.759880451372434	5.8481717	2.4182994
4.777422385290215	5.8118825	2.4107847
4.794964431228581	5.7541604	2.3987832
4.812506589600768	5.744815	2.3968344
4.830048860820047	5.736894	2.3951814
4.847591245299709	5.6949596	2.3864114
4.8651337434530655	5.6399245	2.3748524
4.882676355693457	5.6037292	2.3672197
4.900219082434242	5.596787	2.365753
4.917761924088813	5.5498357	2.355809
4.935304881070575	5.5669456	2.3594375
4.952847953792969	5.585391	2.3633432
4.970391142669449	5.640127	2.374895
4.9879344481135055	5.5901604	2.364352
5.005477870538642	5.485143	2.3420382
5.023021410358394	5.4349527	2.3312986
5.040565067986324	5.3464084	2.31223
5.05810884383601	5.436607	2.3316534
5.075652738321066	5.5319343	2.3520064
5.09319675185512	5.562523	2.3585002
5.110740884851836	5.563953	2.3588033
5.128285137724894	5.518872	2.349228
5.145829510888007	5.479796	2.3408964
5.163374004754908	5.4633236	2.3373754
5.1809186197393595	5.391448	2.3219492
5.198463356255145	5.4213586	2.328381
5.216008214716077	5.44841	2.334183
5.233553195535998	5.324258	2.3074353
5.251098299128764	5.300986	2.302387
5.268643525908272	5.3129907	2.3049924
5.286188876288432	5.341813	2.3112364
5.3037343506831895	5.3786025	2.3191814
5.32127994950651	5.316133	2.305674
5.3388256731723915	5.2878075	2.2995234
5.356371522094851	5.248844	2.2910357
5.373917496687938	5.2470255	2.2906387
5.391463597365729	5.209514	2.282436
5.40900982454232	5.181388	2.2762663
5.426556178631843	5.195966	2.2794662
5.444102660048449	5.2814474	2.29814
5.4616492692063225	5.298436	2.3018332
5.479196006519669	5.2736993	2.2964537
5.496742872402727	5.15888	2.2713168
5.514289867269756	5.1475396	2.268819
5.531836991535049	5.1588087	2.271301
5.549384245612924	5.215777	2.2838075
5.566931629917724	5.1794157	2.275833
5.584479144863822	5.1096234	2.2604475
5.6020267908656205	5.0677114	2.2511578
5.619574568337545	5.03537	2.243963
5.637122477694054	5.0875344	2.2555563
5.654670519349629	5.162628	2.2721417
5.672218693718784	5.260474	2.2935724
5.689767001216059	5.243119	2.2897859
5.707315442256021	5.2355995	2.2881432
5.724864017253266	5.22158	2.2850776
5.7424127266224225	5.2150393	2.283646
5.75996157077814	5.2057548	2.2816124
5.777510550135105	5.204529	2.2813437
5.795059665108022	5.19557	2.2793794
5.812608916111639	5.239889	2.2890804
5.830158303560715	5.3213415	2.3068032
5.847707827870055	5.3443995	2.3117957
5.86525748945448	5.3935604	2.322404
5.8828072887288485	5.4391694	2.3322027
5.900357226108044	5.5538945	2.3566701
5.917907302006979	5.640869	2.3750515
5.9354575168406	6.302187	2.5104158
5.9530078710238765	6.9066157	2.6280441
5.970558364971812	7.5062213	2.7397485
5.988108999099438	7.811925	2.7949822
6.005659773821818	8.407483	2.899566
6.023210689554039	8.165639	2.8575583
6.040761746711227	8.502976	2.9159863
6.058312945708531	7.812085	2.7950108
6.075864286961132	7.320275	2.7056007
6.093415770884244	6.776559	2.6031826
6.1109673978931065	6.3356504	2.5170717
6.128519168402993	5.76558	2.4011621
6.146071082829204	5.524895	2.3505096
6.163623141587075	5.3593054	2.3150175
6.181175345091969	5.2768173	2.2971325
6.198727693759281	5.2629414	2.29411
6.216280188004435	5.2725234	2.2961977
6.233832828242885	5.2243323	2.2856798
6.251385614890126	5.1888046	2.2778947
6.268938548361669	5.1341004	2.2658553
6.286491629073067	5.0610876	2.249686
6.304044857439898	5.0686316	2.251362
6.321598233877777	4.9740987	2.2302687
6.339151758802344	4.944886	2.22371
6.356705432629277	4.948323	2.2244825
6.37425925577428	4.911609	2.2162151
6.391813228653095	4.902596	2.2141807
6.409367351681486	4.9683514	2.2289798
6.426921625275259	5.0571313	2.2488067
6.44447604985025	5.0466533	2.2464757
6.46203062582232	4.9522486	2.225365
6.47958535360737	4.95	2.2248595
6.497140233621328	4.9914594	2.2341573
6.514695266280161	5.0082493	2.2379117
6.532250451999859	5.0215497	2.2408814
6.549805791196454	5.0114255	2.2386212
6.567361284286002	5.092802	2.2567236
6.584916931684597	5.114865	2.2616067
6.602472733808367	5.0832186	2.2545993
6.6200286910734665	5.06664	2.2509198
6.637584803896092	5.106553	2.2597685
6.655141072692462	5.1442227	2.2680879
6.672697497878842	5.1216197	2.2630997
6.690254079871514	5.020894	2.240735
6.707810819086808	4.9733186	2.230094
6.725367715941078	4.95829	2.2267218
6.742924770850719	4.980743	2.2317579
6.760481984232151	5.0566173	2.2486923
6.778039356501836	5.0732393	2.2523851
6.795596888076266	5.120804	2.2629194
6.813154579371963	5.167479	2.2732089
6.830712430805492	5.1461015	2.268502
6.84827044279344	5.106763	2.2598147
6.865828615752445	5.049385	2.2470837
6.883386950099159	5.0255594	2.241776
6.900945446250287	5.086899	2.2554154
6.918504104622553	5.122352	2.2632613
6.936062925632727	5.179886	2.2759364
6.953621909697607	5.129554	2.2648518
6.971181057234028	5.094597	2.2571213
6.988740368658859	5.080325	2.2539577
7.006299844389007	5.139348	2.267013
7.023859484841407	5.1636767	2.2723725
7.041419290433036	5.3077	2.3038447
7.058979261580902	5.495834	2.3443196
7.0765393987020495	5.741427	2.3961275
7.094099702213559	6.204	2.490783
7.111660172532549	6.4899993	2.5475478
7.129220810076164	6.843498	2.616008
7.146781615261595	7.4042544	2.721076
7.16434258850606	7.700301	2.7749417
7.181903730226821	8.1842985	2.8608212
7.1994650408411704	8.274265	2.8765023
7.217026520766437	8.394085	2.8972547
7.234588170419983	8.63186	2.9380026
7.252149990219215	8.611722	2.9345737
7.269711980581568	8.460722	2.908732
7.2872741419245175	8.228111	2.8684685
7.304836474665574	7.8212934	2.7966576
7.322398979222286	7.590899	2.7551587
7.339961656012233	7.2350087	2.6897972
7.357524505453039	6.893523	2.625552
7.375087527962357	6.6202087	2.5729766
7.392650723957886	6.365005	2.522896
7.410214093857353	5.962756	2.4418755
7.427777638078528	5.735429	2.3948755
7.445341357039213	5.511869	2.347737
7.4629052511572525	5.4097395	2.3258846
7.480469320850524	5.332474	2.309215
7.498033566536948	5.2856064	2.2990446
7.5155979886344735	5.2266746	2.2861922
7.5331625875610975	5.154232	2.2702935
7.550727363734844	5.180885	2.2761557
7.568292317573788	5.132319	2.2654622
7.585857449496025	5.1058846	2.2596204
7.603422759919705	5.0847154	2.2549314
7.620988249263007	5.128789	2.264683
7.638553917944147	5.141462	2.2674792
7.656119766381391	5.1470857	2.268719
7.673685794993023	5.1780167	2.2755256
7.691252004197388	5.236224	2.2882798
7.70881839441285	5.268718	2.2953687
7.726384966057826	5.2393107	2.288954
7.743951719550762	5.1657004	2.2728176
7.761518655310149	5.145378	2.2683425
7.779085773754511	5.151818	2.2697616
7.796653075302419	5.1931973	2.2788587
7.814220560372475	5.298247	2.3017921
7.831788229383323	5.3445387	2.3118258
7.8493560827536495	5.3779845	2.3190482
7.866924120902174	5.3461947	2.312184
7.884492344247663	5.3211684	2.3067658
7.9020607532089135	5.334012	2.309548
7.919629348204771	5.372106	2.3177805
7.937198129654115	5.425748	2.3293235
7.954767097975865	5.445494	2.3335583
7.972336253588986	5.444089	2.3332572
7.989905596912472	5.3862696	2.320834
8.007475128365371	5.331895	2.3090897
8.025044848366756	5.389098	2.321443
8.042614757335754	5.5609326	2.3581629
8.060184855691523	5.6335835	2.373517
8.07775514385327	5.807087	2.4097898
8.095325622240228	5.836409	2.4158661
8.112896291271687	5.8790045	2.424666
8.130467151366968	5.95716	2.4407294
8.148038202945436	6.044464	2.4585493
8.165609446426497	6.098348	2.4694834
8.183180882229594	6.1267815	2.4752336
8.200752510774217	6.105069	2.4708438
8.218324332479893	6.152412	2.4804056
8.235896347766193	6.1015635	2.4701343
8.253468557052724	6.0708466	2.463909
8.27104096075914	6.046912	2.459047
8.288613559305137	6.1722417	2.4843996
8.306186353110448	6.2717466	2.5043457
8.32375934259485	6.336812	2.5173025
8.341332528178162	6.302845	2.5105467
8.358905910280246	6.26009	2.5020173
8.376479489321003	6.267409	2.5034792
8.394053265720377	6.341034	2.518141
8.411627239898356	6.3825707	2.526375
8.42920141227497	6.357688	2.5214455
8.44677578327029	6.30262	2.5105019
8.464350353304427	6.20729	2.4914434
8.48192512279754	6.1762347	2.4852033
8.499500092169827	6.1937547	2.4887254
8.51707526184153	6.1783986	2.4856384
8.534650632232934	6.1922355	2.4884202
8.552226203764365	6.1507387	2.4800682
8.569801976856192	6.2155485	2.4931002
8.587377951928834	6.255567	2.5011132
8.60495412940274	6.277871	2.505568
8.622530509698416	6.3662357	2.52314
8.6401070932364	6.517536	2.5529466
8.657683880437283	6.6071153	2.570431
8.675260871721695	6.6788926	2.5843554
8.692838067510303	6.736951	2.5955637
8.710415468223834	6.9133434	2.6293237
8.727993074283043	7.1471543	2.6734161
8.745570886108737	7.1603246	2.6758783
8.763148904121765	7.2203007	2.6870618
8.78072712874302	7.2057037	2.6843443
8.798305560393441	7.4526777	2.7299592
8.815884199494006	7.5935802	2.7556453
8.833463046465745	7.759534	2.785594
8.851042101729728	7.887162	2.8084092
8.86862136570707	8.23365	2.8694339
8.886200838818924	8.3966465	2.8976967
8.903780521486505	8.432464	2.9038703
8.921360414131055	8.544248	2.9230545
8.938940517173874	8.699593	2.9495072
8.956520831036297	8.819349	2.969739
8.97410135613971	9.07555	3.0125654
8.99168209290554	9.277912	3.0459666
9.009263041755265	9.542198	3.0890448
9.026844203110405	9.739698	3.120849
9.044425577392525	9.816991	3.1332078
9.062007165023239	9.896879	3.1459305
9.079588966424197	10.289924	3.207791
9.097170982017108	10.442728	3.2315211
9.11475321222372	11.425264	3.380128
9.132335657465825	12.272341	3.50319
9.149918318165264	12.2752075	3.5035992
9.167501194743924	12.875619	3.5882614
9.18508428762374	12.654895	3.5573719
9.202667597226693	12.649265	3.5565805
9.220251123974803	12.187912	3.491119
9.237834868290143	11.813577	3.4370885
9.255418830594836	11.60571	3.4067154
9.273003011311046	11.115953	3.3340597
9.290587410860985	11.012149	3.3184557
9.308172029666911	10.457685	3.2338345
9.32575686815113	10.234096	3.1990774
9.343341926735997	8.841187	2.9734132
9.360927205843916	8.493166	2.9143038
9.378512705897327	8.255369	2.873216
9.396098427318728	8.022168	2.8323433
9.413684370530664	8.032067	2.8340902
9.431270535955722	7.9511786	2.8197834
9.448856924016539	7.9104304	2.8125486
9.466443535135806	7.792272	2.791464
9.484030369736251	7.821775	2.7967436
9.501617428240658	7.8274083	2.7977505
9.519204711071852	7.808199	2.7943156
9.536792218652714	7.7619686	2.786031
9.55437995140617	7.7985935	2.792596
9.571967909755191	7.87542	2.8063178
9.589556094122802	7.9452696	2.8187354
9.60714450493207	7.948969	2.8193915
9.624733142606116	7.9921803	2.8270445
9.642322007568108	8.018136	2.8316314
9.659911100241267	8.053078	2.8377945
9.677500421048851	8.117934	2.8491988
9.695089970414175	8.1522875	2.855221
9.712679748760609	8.182547	2.860515
9.730269756511557	8.149026	2.8546498
9.747859994090492	8.139435	2.8529694
9.765450461920915	8.106498	2.847191
9.78304116042639	8.188799	2.8616078
9.800632090030527	8.31216	2.8830817
9.81822325115699	8.362217	2.8917499
9.835814644229481	8.311213	2.8829174
9.853406269671762	8.186968	2.8612878
9.870998127907646	8.211673	2.8656015
9.888590219360985	8.262784	2.8745058
9.906182544455698	8.33054	2.8862674
9.923775103615734	8.342403	2.8883219
9.941367897265108	8.399039	2.8981097
9.958960925827878	8.437511	2.9047394
9.97655418972816	8.400699	2.8983958
9.994147689390106	8.395591	2.8975146
10.011741425237934	8.356101	2.8906922
10.029335397695904	8.388773	2.8963377
10.04692960718833	8.363044	2.8918927
10.06452405413958	8.33517	2.8870695
10.082118738974064	8.324822	2.8852768
10.099713662116246	8.36385	2.8920321
10.117308823990651	8.378622	2.894585
10.134904225021844	8.372994	2.8936126
10.152499865634445	8.379177	2.8946807
10.170095746253125	8.261715	2.8743198
10.18769186730261	8.216861	2.8665068
10.205288229207675	8.178853	2.8598695
10.222884832393145	8.227774	2.8684096
10.2404816772839	8.278783	2.8772874
10.258078764304868	8.242292	2.8709393
10.275676093881035	8.174663	2.8591366
10.293273666437438	8.082324	2.842943
10.310871482399158	8.075998	2.84183
10.32846954219134	8.083251	2.8431058
10.346067846239173	8.114052	2.8485174
10.363666394967908	8.097974	2.8456938
10.38126518880283	8.159292	2.8564475
10.398864228169298	8.177939	2.8597097
10.416463513492713	8.183555	2.8606913
10.434063045198531	8.220767	2.867188
10.451662823712262	8.179466	2.8599765
10.469262849459467	8.200648	2.8636775
10.486863122865758	8.201178	2.8637698
10.504463644356806	8.253847	2.872951
10.522064414358338	8.139719	2.8530192
10.539665433296118	8.009122	2.8300393
10.557266701595987	7.9391932	2.8176575
10.574868219683818	7.873247	2.8059306
10.592469987985552	7.7972484	2.7923553
10.610072006927185	7.676212	2.7705977
10.627674276934751	7.5317187	2.7443976
10.64527679843435	7.3563085	2.7122517
10.662879571852143	7.20832	2.6848314
10.680482597614331	7.155033	2.6748893
10.698085876147173	7.04144	2.6535711
10.715689407876988	6.9166417	2.629951
10.733293193230146	6.893077	2.625467
10.750897232633072	6.84436	2.6161728
10.76850152651225	6.753183	2.5986886
10.786106075294207	6.6792626	2.5844269
10.803710879405534	6.562515	2.5617406
10.821315939272877	6.5009537	2.5496967
10.83892125532294	6.467859	2.5431986
10.856526827982472	6.394338	2.528703
10.874132657678285	6.32797	2.5155456
10.891738744837243	6.3213854	2.5142365
10.909345089886271	6.3173585	2.5134356
10.926951693252343	6.2977166	2.509525
10.944558555362494	6.175231	2.485001
10.96216567664381	6.0404487	2.4577324
10.979773057523436	5.970842	2.4435306
10.997380698428573	5.958174	2.4409373
11.014988599786477	5.927003	2.4345436
11.032596762024461	5.862086	2.4211745
11.050205185569892	5.747597	2.3974147
11.067813870850198	5.6147976	2.3695564
11.085422818292859	5.563574	2.358723
11.10303202832541	5.558907	2.3577335
11.120641501375454	5.5997343	2.3663757
11.138251237870636	5.5030594	2.34586
11.155861238238671	5.409637	2.3258626
11.173471502907317	5.313713	2.3051493
11.191082032304402	5.227203	2.2863078
11.208692826857805	5.159755	2.2715094
11.226303886995465	5.0822053	2.2543747
11.243915213145371	5.0407314	2.2451572
11.261526805735578	5.0071006	2.2376552
11.279138665194196	4.915567	2.2171078
11.296750791949393	4.860387	2.2046285
11.314363186429393	4.795173	2.1897883
11.331975849062479	4.7840915	2.1872566
11.34958878027699	4.7003717	2.168034
11.36720198050133	4.652961	2.1570723
11.384815450163948	4.6088414	2.1468213
11.402429189693366	4.573507	2.1385758
11.420043199518153	4.54201	2.1311991
11.437657480066942	63.516468	7.969722
11.455272031768422	85.24696	9.232928
11.472886855051353	107.58199	10.372174
11.490501950344528	99.167175	9.958272
11.508117318076819	84.49571	9.192155
11.52573295867715	45.914253	6.7760057
11.543348872574514	4.179968	2.044497
11.560965060197946	4.13972	2.03463
11.57858152197655	4.1010695	2.0251098
11.59619825833949	4.092709	2.0230446
11.613815269715985	4.0460925	2.01149
11.631432556535323	38.553173	6.2091203
11.649050119226837	83.00697	9.110816
11.666667958219929	93.43093	9.665968
11.68428607394406	107.727486	10.379186
11.701904466828756	82.59683	9.08828
11.719523137303586	65.39385	8.086646
11.737142085798196	4.5990195	2.1445324
11.754761312742286	3.7106237	1.9262979
11.772380818565619	3.7028131	1.9242696
11.790000603698015	3.666286	1.9147549
11.80762066856935	3.5975068	1.8967094
11.825241013609572	3.5432312	1.8823472
11.842861639248683	3.530031	1.8788377
11.860482545916748	3.48913	1.8679214
11.878103734043883	3.4617262	1.8605715
11.895725204060282	3.4540117	1.8584971
11.91334695639619	3.3976371	1.843268
11.930968991481919	3.4179657	1.8487741
11.948591309747824	3.4066725	1.8457173
11.966213911624347	3.3681216	1.8352443
11.98383679754198	3.3145294	1.8205849
12.001459967931268	3.2847316	1.8123828
12.019083423222835	3.308594	1.8189541
12.036707163847352	3.2930567	1.8146782
12.05433119023556	3.2252731	1.7959045
12.071955502818259	3.1816058	1.7837056
12.089580102026313	3.229511	1.797084
12.107204988290643	3.2618155	1.8060497
12.12483016204224	3.2044537	1.7900988
12.142455623712152	3.133681	1.7702206
12.16008137373149	3.0929391	1.7586753
12.177707412531431	3.0732424	1.7530665
12.19533374054321	3.0748265	1.7535183
12.212960358198126	3.0565286	1.748293
12.230587265927545	3.0684085	1.7516873
12.248214464162889	3.0458782	1.7452445
12.265841953335649	3.0354736	1.742261
12.283469733877375	2.9909146	1.729426
12.301097806219685	2.9953089	1.7306961
12.31872617079425	2.9821954	1.7269034
12.336354828032825	2.9540608	1.7187382
12.353983778367205	2.924771	1.7101963
12.371613022229262	2.9286058	1.711317
12.389242560050928	2.9193623	1.7086141
12.406872392264201	2.8861227	1.6988592
12.424502519301143	2.899646	1.7028347
12.442132941593874	2.9074323	1.7051195
12.459763659574586	2.909231	1.7056468
12.477394673675532	2.9234803	1.7098188
12.49502598432903	2.9096901	1.7057813
12.51265759196746	2.8645368	1.6924943
12.530289497023267	2.8076234	1.6755965
12.547921699928967	2.8040123	1.6745186
12.565554201117134	2.8211317	1.6796225
12.583187001020404	2.8454065	1.6868333
12.600820100071486	2.833959	1.6834368
12.618453498703152	2.8299565	1.6822475
12.636087197348235	2.8349133	1.6837201
12.65372119643964	2.8759582	1.695865
12.671355496410326	2.8906608	1.7001944
12.68899009769333	2.885866	1.6987836
12.706625000721749	2.8868687	1.6990788
12.724260205928752	2.930643	1.7119122
12.741895713747551	2.9444458	1.7159388
12.759531524611454	3.0045805	1.7333726
12.777167638953818	3.002419	1.732749
12.794804057208072	3.0001035	1.7320807
12.812440779807702	3.0188615	1.7374871
12.830077807186271	3.2079062	1.7910628
12.847715139777405	3.2578053	1.8049392
12.865352778014795	3.4554036	1.8588716
12.882990722332197	3.5417385	1.8819507
12.90062897316344	3.6457112	1.9093746
12.918267530942412	3.7363727	1.9329699
12.935906396103071	3.6672213	1.914999
12.953545569079449	3.8188863	1.954197
12.971185050305628	3.6006646	1.8975418
12.988824840215775	3.6093874	1.8998388
13.006464939244115	3.5877907	1.8941464
13.024105347824943	3.4386382	1.8543565
13.041746066392617	3.5072353	1.8727614
13.05938709538157	3.3299258	1.8248085
13.077028435226296	3.3526256	1.8310176
13.094670086361363	3.3212197	1.8224214
13.112312049221401	3.2068224	1.7907603
13.129954324241112	3.128303	1.768701
13.147596911855258	2.9289713	1.7114238
13.165239812498685	2.928303	1.7112285
13.182883026606293	2.8746727	1.695486
13.200526554613058	2.7825944	1.6681111
13.218170396954017	2.7688832	1.6639962
13.235814554064284	2.77984	1.6672852
13.253459026379034	2.7938743	1.6714886
13.271103814333523	2.7435646	1.6563709
13.288748918363058	2.7104263	1.6463373
13.306394338903031	2.6580248	1.630345
13.32404007638889	2.673624	1.6351221
13.341686131256164	2.7058794	1.6449558
13.359332503940449	2.7078636	1.6455587
13.376979194877402	2.71566	1.647926
13.394626204502751	2.7404132	1.6554193
13.412273533252307	2.7649724	1.6628206
13.429921181561937	2.7505827	1.658488
13.447569149867581	2.7228596	1.6501089
13.465217438605247	2.6970847	1.6422803
13.482866048211022	2.6877625	1.6394397
13.500514979121052	2.7176251	1.6485221
13.518164231771568	2.6859126	1.6388754
13.535813806598844	2.6473768	1.6270761
13.553463704039254	2.6211743	1.6190041
13.571113924529229	2.663664	1.6320735
13.588764468505275	2.6891406	1.6398599
13.606415336403956	2.7481108	1.6577426
13.624066528661917	2.7755694	1.6660041
13.641718045715882	2.8251345	1.6808137
13.659369888002635	2.8582556	1.6906376
13.67702205595903	2.9086785	1.7054849
13.694674550021993	2.9539156	1.7186959
13.712327370628532	3.03696	1.7426876
13.729980518215713	3.1029139	1.761509
13.747633993220681	3.1530757	1.7756902
13.765287796080647	3.2016306	1.7893101
13.7829419272329	3.2857962	1.8126765
13.800596387114801	3.3421648	1.8281589
13.818251176163775	3.3226936	1.8228257
13.835906294817324	3.3522835	1.8309243
13.853561743513023	3.3982725	1.8434404
13.871217522688525	3.4411435	1.855032
13.888873632781538	3.4821477	1.8660513
13.906530074229858	3.4880946	1.8676441
13.92418684747135	3.514037	1.8745764
13.941843952943948	3.552308	1.8847568
13.959501391085665	3.5621252	1.8873593
13.977159162334578	3.5168726	1.8753327
13.994817267128846	3.4499338	1.8573997
14.012475705906693	3.3200142	1.8220906
14.030134479106424	3.217429	1.7937193
14.047793587166414	3.1499183	1.7748009
14.065453030525108	3.1049705	1.7620926
14.083112809621026	3.0406263	1.7437391
14.100772924892766	2.9584088	1.7200025
14.118433376778997	2.9140785	1.7070673
14.136094165718458	2.8496656	1.6880952
14.153755292149969	2.8130436	1.6772131
14.171416756512416	2.7570817	1.6604463
14.189078559244768	2.7043514	1.6444912
14.20674070078606	2.6351442	1.6233127
14.224403181575408	2.5680764	1.6025219
14.242066002051999	2.5189776	1.5871288
14.259729162655093	2.4783	1.5742618
14.277392663824022	2.4782841	1.5742567
14.295056505998208	2.4854198	1.5765214
14.312720689617128	2.4646642	1.569925
14.330385215120348	2.4370625	1.5611094
14.348050082947497	2.438947	1.5617129
14.3657152935383	2.4370828	1.5611159
14.383380847332528	2.4313524	1.5592794
14.401046744770051	2.4397273	1.5619626
14.418712986290798	2.441906	1.5626599
14.436379572334793	2.4620357	1.5690875
14.454046503342123	2.435321	1.5605515
14.471713779752946	2.4128199	1.5533254
14.489381402007504	2.3739414	1.54076
14.507049370546113	2.3619568	1.536866
14.524717685809168	2.3650913	1.5378853
14.542386348237134	2.3769221	1.541727
14.560055358270553	2.4404116	1.5621817
14.577724716350051	2.4672794	1.5707576
14.595394422916325	2.50007	1.581161
14.61306447841015	2.5347588	1.5920926
14.63073488327237	2.549109	1.5965929
14.648405637943917	2.5688858	1.6027744
14.6660767428658	2.5341241	1.5918932
14.683748198479094	2.5260725	1.5893623
14.701420005224954	2.5428572	1.5946338
14.719092163544628	2.615966	1.6173948
14.73676467387942	2.6810188	1.6373817
14.754437536670727	2.7006292	1.6433592
14.772110752360014	2.6897123	1.6400342
14.78978432138882	2.6467907	1.626896
14.807458244198777	2.6905248	1.6402819
14.82513252123159	2.6844213	1.6384203
14.842807152929028	2.732355	1.6529837
14.860482139732962	2.7350433	1.6537967
14.87815748208531	2.7295823	1.6521448
14.8958331804281	2.6990478	1.6428779
14.91350923520342	2.6650321	1.6324927
14.931185646853438	2.6919208	1.6407074
14.948862415820408	2.6757	1.6357567
14.966539542546656	2.719924	1.6492192
14.98421702747459	2.7122588	1.6468937
15.001894871046696	2.7355535	1.6539509
15.019573073705542	2.709271	1.6459863
15.037251635893766	2.6853302	1.6386977
15.054930558054092	2.6928172	1.6409806
15.072609840629323	2.772203	1.6649934
15.090289484062351	2.9384549	1.7141922
15.107969488796124	3.2455611	1.8015441
15.125649855273691	3.6319377	1.9057643
15.14333058393817	4.0987387	2.0245342
15.161011675232768	5.0371146	2.2443516
15.17869312960076	6.3977065	2.5293689
15.196374947485506	8.216197	2.866391
15.214057129330447	11.229016	3.3509724
15.231739675579114	15.91684	3.9895914
15.249422586675102	20.83599	4.564646
15.267105863062092	24.02229	4.9012537
15.284789505183847	24.3251	4.9320483
15.302473513484218	22.434887	4.736548
15.320157888407127	18.916603	4.3493223
15.337842630396578	14.824801	3.850299
15.355527739896656	11.483846	3.3887823
15.37321321735153	8.906075	2.9843047
15.39089906320545	6.5456305	2.558443
15.408585277902748	4.913887	2.216729
15.42627186188783	3.7857478	1.9456998
15.443958815605198	3.2390082	1.7997245
15.461646139499424	2.9379632	1.7140487
15.479333834015168	2.8068497	1.6753656
15.497021899597165	2.7355168	1.6539397
15.514710336690234	2.637943	1.6241746
15.53239914573928	2.5665903	1.6020582
15.550088327189297	2.5030336	1.5820979
15.567777881485336	2.5168886	1.5864705
15.58546780907256	2.512856	1.585199
15.6031581103962	2.515528	1.5860416
15.620848785901568	2.485278	1.5764765
15.638539836034063	2.4577458	1.5677199
15.656231261239173	2.447989	1.5646051
15.673923061962451	2.4469953	1.5642874
15.691615238649552	2.4430623	1.5630299
15.709307791746202	2.4303937	1.558972
15.727000721698221	2.4323933	1.5596132
15.744694028951498	2.4472442	1.564367
15.76238771395202	2.4592686	1.5682055
15.780081777145844	2.4358656	1.560726
15.797776218979125	2.405259	1.5508897
15.815471039898094	2.378367	1.5421954
15.833166240349064	2.3431003	1.5307189
15.850861820778437	2.323475	1.5242949
15.868557781632699	2.3429394	1.5306664
15.886254123358412	2.3731713	1.54051
15.903950846402232	2.439663	1.561942
15.921647951210897	2.4209194	1.5559304
15.939345438231225	2.4007096	1.5494224
15.957043307910133	2.3847635	1.5442679
15.974741560694602	2.3997266	1.549105
15.992440197031714	2.4138856	1.5536684
16.01013921736862	2.4517894	1.565819
16.02783862215259	2.425652	1.5574505
16.045538411830933	2.3786356	1.5422826
16.06323858685107	2.3353744	1.5281931
16.080939147660512	2.3527396	1.5338643
16.09864009470684	2.3730154	1.5404595
16.11634142843774	2.3802853	1.5428174
16.134043149300954	2.3846269	1.5442237
16.15174525774433	2.3946857	1.5474772
16.169447754215817	2.3956883	1.5478011
16.18715063916342	2.419229	1.5553871
16.204853913035244	2.4799874	1.5747975
16.222557576279478	2.4866536	1.5769126
16.240261629344403	22.446898	4.737816
16.257966072678386	42.960766	6.554446
16.275670906729868	38.073883	6.170404
16.293376131947387	2.5361469	1.5925285
16.31108174877957	2.5579476	1.5993586
16.328787757675133	2.593117	1.6103158
16.34649415908287	2.621213	1.619016
16.364200953451657	2.6349404	1.6232499
16.38190814123048	2.642146	1.625468
16.39961572286839	2.6578155	1.6302807
16.41732369881455	2.7077477	1.6455235
16.43503206951817	2.77344	1.6653647
16.45274083542859	2.784756	1.6687587
16.47044999699522	2.784429	1.6686609
16.488159554667558	2.799454	1.6731569
16.505869508895184	2.8467717	1.6872379
16.523579860127786	2.9076257	1.7051761
16.541290608815117	2.9723642	1.7240546
16.559001755407035	3.0367172	1.742618
16.57671330035348	3.095808	1.7594908
16.59442524410448	3.1501644	1.7748703
16.61213758711015	3.1870694	1.7852365
16.629850329820705	3.2386558	1.7996266
16.647563472686436	3.334446	1.8260466
16.665277016157724	3.4094925	1.8464811
16.682990960685053	3.4189112	1.8490298
16.70070530671898	3.448168	1.8569243
16.718420054710155	3.485829	1.8670375
16.736135205109335	3.575364	1.8908633
16.753850758367335	3.6204019	1.9027354
16.771566714935087	3.710194	1.9261864
16.789283075263597	3.7577035	1.9384797
16.80699983980398	3.8612106	1.9649963
16.82471700900741	3.9099133	1.9773501
16.84243458332518	3.9572191	1.989276
16.860152563208665	3.9860165	1.9965011
16.87787094910932	4.0449567	2.0112078
16.89558974147871	4.0671163	2.0167093
16.913308940768466	4.124506	2.030888
16.931028547430333	4.1712723	2.0423694
16.94874856191613	4.2417955	2.059562
16.966468984677785	4.351148	2.0859406
16.98418981616729	4.4293737	2.1046078
17.00191105683676	4.4882684	2.1185534
17.019632707138374	4.507449	2.1230755
17.03735476752442	4.5373435	2.130104
17.05507723844728	4.539777	2.1306753
17.072800120359403	4.5522394	2.1335979
17.090523413713353	4.568776	2.1374695
17.108247118961785	4.6140046	2.1480234
17.125971236557437	4.6554527	2.1576498
17.143695766953133	4.681305	2.1636324
17.161420710601806	4.669898	2.1609948
17.179146067956477	4.672273	2.161544
17.19687183947025	4.6503315	2.1564627
17.21459802559634	4.6704164	2.1611147
17.232324626788028	4.713904	2.1711526
17.25005164349871	4.712552	2.1708412
17.267779076181863	4.70569	2.1692603
17.285506925291074	4.6796083	2.1632402
17.30323519127999	4.6443353	2.155072
17.320963874602384	4.584013	2.1410308
17.33869297571211	4.5433297	2.1315088
17.356422495063114	4.530054	2.1283925
17.37415243310944	4.556305	2.1345503
17.391882790305218	4.5392733	2.130557
17.40961356710468	4.556362	2.1345637
17.42734476396215	4.5195665	2.1259272
17.445076381332044	4.5008717	2.1215258
17.462808419668868	4.54086	2.1309295
17.48054087942723	4.6594553	2.1585772
17.498273761061835	4.982613	2.2321768
17.51600706502747	5.465052	2.3377452
17.533740791779024	6.195505	2.489077
17.551474941771485	7.5784807	2.752904
17.56920951545993	8.727165	2.9541776
17.586944513299528	10.9203205	3.304591
17.60467993574556	12.596823	3.5492003
17.622415783253373	14.233298	3.7727044
17.64015205627843	15.607995	3.9506955
17.657888755276293	16.750317	4.0927153
17.675625880702604	17.310019	4.160531
17.69336343301311	17.064465	4.1309156
17.71110141266366	16.256624	4.0319505
17.728839820110178	15.31943	3.9140043
17.746578655808705	14.422273	3.7976668
17.764317920215372	12.991725	3.6044035
17.7820576137864	11.512429	3.392997
17.79979773697811	9.494764	3.0813575
17.81753829024692	7.522703	2.7427547
17.835279274049356	5.791039	2.4064577
17.85302068884201	4.752912	2.1801174
17.870762535081607	4.1742725	2.0431037
17.888504813224934	3.9084764	1.9769866
17.90624752372891	3.7459905	1.9354562
17.923990667050536	3.6097407	1.8999318
17.941734243646895	3.4715352	1.8632057
17.959478253975185	3.4044805	1.8451234
17.9772226984927	3.412267	1.8472322
17.994967577656833	3.417922	1.8487623
18.01271289192506	3.3988311	1.8435919
18.030458641754965	3.3818474	1.83898
18.04820482760425	3.354794	1.8316097
18.06595144993067	3.3304367	1.8249484
18.083698509192125	3.3089461	1.8190509
18.101446005846576	3.2819014	1.8116019
18.119193940352105	3.2558365	1.8043936
18.136942313166887	3.2182865	1.7939583
18.1546911247492	3.2090466	1.7913812
18.1724403755574	3.189524	1.7859238
18.19019006604997	3.151027	1.7751132
18.207940196685467	3.146457	1.7738255
18.225690767922575	3.1311781	1.7695135
18.243441780220046	3.154889	1.7762008
18.261193234036764	3.127382	1.7684406
18.278945129831676	3.1057823	1.762323
18.29669746806386	3.0948932	1.7592309
18.314450249192483	3.0745006	1.7534254
18.3322034736768	3.0666082	1.7511734
18.349957141976184	3.0639474	1.7504135
18.3677112545501	3.0430014	1.74442
18.385465811858108	2.993407	1.7301465
18.403220814359884	2.9985564	1.731634
18.420976262515172	3.0785618	1.7545831
18.43873215678387	3.1364484	1.771002
18.456488497625923	3.1434045	1.7729648
18.474245285501407	3.2073612	1.7909107
18.492002520870486	3.3407547	1.8277732
18.50976020419343	3.4316263	1.8524649
18.527518335930615	3.7164571	1.9278115
18.545276916542516	4.2687564	2.0660968
18.563035946489688	4.4799557	2.1165905
18.580795426232832	4.9383926	2.2222495
18.598555356232698	4.8357816	2.1990411
18.616315736950185	5.0857167	2.2551534
18.63407656884626	4.6728277	2.1616724
18.65183785238201	4.8729253	2.2074704
18.669599588018617	4.694908	2.1667736
18.68736177621737	4.7109923	2.1704822
18.705124417439652	4.7395716	2.1770556
18.72288751214696	4.56408	2.136371
18.740651060800886	4.7333364	2.1756232
18.758415063863115	4.4296865	2.104682
18.77617952179546	4.5840974	2.1410506
18.793944435059814	4.343304	2.0840595
18.811709804118184	4.3485017	2.0853062
18.829475629432675	4.2938266	2.072155
18.8472419114655	4.0419087	2.01045
18.86500865067897	4.1173964	2.029137
18.88277584753551	3.7879639	1.9462693
18.90054350249763	3.799777	1.9493017
18.918311616027957	3.4402668	1.8547957
18.936080188589226	3.3157988	1.8209335
18.953849220644265	3.0232866	1.7387601
18.971618712656007	2.9168305	1.7078731
18.9893886650875	2.8791482	1.6968054
19.007159078401887	8.027177	2.8332274
19.024929953062408	32.92695	5.7382007
19.042701289532435	32.84747	5.7312713
19.060473088275405	25.439194	5.0437284
19.07824534975489	2.6458292	1.6266005
19.096018074434568	2.615536	1.6172619
19.113791262778197	2.604243	1.6137667
19.13156491524966	2.6346407	1.6231576
19.149339032312945	2.6194448	1.61847
19.167113614432136	2.5864503	1.6082445
19.184888662071433	2.5567412	1.5989813
19.202664175695123	2.545574	1.5954854
19.220440155767623	2.54886	1.5965149
19.238216602753447	2.597218	1.6115887
19.2559935171172	2.5965457	1.6113801
19.27377089932361	2.5630152	1.600942
19.291548749837514	2.5267205	1.5895661
19.309327069123835	2.495855	1.5798275
19.32710585764763	2.4868953	1.5769893
19.344885115874032	2.481016	1.5751241
19.362664844268313	2.4746828	1.5731125
19.380445043295822	2.4918609	1.5785629
19.39822571342203	2.4901938	1.5780348
19.41600685511252	2.5170317	1.5865155
19.43378846883297	2.5441246	1.5950313
19.451570555049173	2.5718927	1.6037122
19.469353114227037	2.5788093	1.6058671
19.48713614683254	2.5571082	1.5990961
19.50491965333182	2.5276597	1.5898615
19.52270363419109	2.520702	1.5876719
19.540488089876686	2.5203915	1.5875741
19.55827302085503	2.5262115	1.589406
19.576058427592674	2.530346	1.5907061
19.593844310556282	2.5471325	1.5959738
19.611630670212598	2.5420682	1.5943865
19.629417507028506	2.5415099	1.5942113
19.64720482147098	2.5278442	1.5899196
19.6649926140071	2.5051544	1.582768
19.682780885104084	2.4816868	1.575337
19.70056963522921	2.468451	1.5711305
19.718358864849908	2.478391	1.5742906
19.7361485744337	2.5101142	1.584334
19.753938764448215	2.5121071	1.5849628
19.771729435361202	2.506233	1.5831087
19.789520587640506	2.5072002	1.5834141
19.807312221754092	2.5183897	1.5869435
19.825104338170043	2.5583465	1.5994833
19.842896937356517	2.5660899	1.601902
19.860690019781824	2.5526178	1.5976914
19.87848358591436	2.5204213	1.5875834
19.896277636222635	2.5222747	1.5881671
19.914072171175278	2.5230896	1.5884236
19.931867191241015	2.4869268	1.5769993
19.94966269688869	2.4804387	1.5749408
19.967458688587264	2.4707785	1.571871
19.985255166805807	2.4847372	1.5763049
20.00305213201348	2.4800062	1.5748036
20.020849584679578	2.4668274	1.5706137
20.038647525273507	2.442531	1.5628599
20.05644595426477	2.4081185	1.5518113
20.07424487212299	2.4152992	1.5541233
20.092044279317903	2.402368	1.5499574
20.109844176319353	2.4175994	1.5548632
20.127644563597304	2.4296172	1.558723
20.145445441621817	2.425457	1.5573878
20.16324681086307	2.395155	1.5476288
20.181048671791373	2.388294	1.5454106
20.198851024877122	2.4283097	1.5583035
20.216653870590836	2.4503355	1.5653547
20.234457209403146	2.4397314	1.5619639
20.252261041784802	2.3881352	1.5453593
20.270065368206662	2.3727612	1.540377
20.287870189139685	2.3732169	1.5405248
20.305675505054968	2.390067	1.5459841
20.323481316423702	2.3969922	1.5482223
20.341287623717207	2.3855422	1.54452
20.359094427406884	2.3751013	1.5411364
20.376901727964288	2.353243	1.5340284
20.39470952586107	2.3432498	1.5307677
20.41251782156899	2.3252974	1.5248926
20.430326615559935	2.308739	1.5194535
20.448135908305886	2.2958586	1.5152091
20.465945700278965	2.329606	1.5263047
20.483755991951384	2.3377376	1.5289662
20.50156678379548	2.3516483	1.5335085
20.519378076283708	2.3828712	1.5436552
20.537189869888635	2.3720148	1.5401347
20.55500216508294	2.3624125	1.5370141
20.572814962339415	2.3160815	1.5218678
20.59062826213098	2.307681	1.5191053
20.60844206493066	2.2738452	1.5079274
20.626256371211593	2.2663956	1.5054553
20.644071181447032	2.2586033	1.5028651
20.66188649611036	2.2617793	1.5039213
20.67970231567506	2.2841752	1.5113488
20.697518640614742	2.323365	1.5242589
20.715335471403122	2.3164914	1.5220025
20.73315280851404	2.2789743	1.5096272
20.750970652421447	2.2443929	1.4981298
20.768789003599412	2.2706504	1.5068678
20.786607862522136	2.321185	1.5235436
20.8044272296639	2.2931364	1.5143105
20.82224710549913	2.2791247	1.509677
20.84006749050237	2.2815213	1.5104705
20.857888385148268	3.8462582	1.961188
20.8757097899116	45.934914	6.77753
20.893531705267254	64.77445	8.048258
20.911354131690224	83.78698	9.1535225
20.92917706965566	69.0486	8.309548
20.94700051963877	50.074654	7.0763445
20.96482448211493	29.33475	5.4161563
20.982648957559622	4.0744042	2.0185153
21.00047394644843	2.211831	1.4872226
21.01829944925707	2.1971316	1.4822725
21.036125466461375	2.2108972	1.4869086
21.053951998537297	2.2360394	1.4953393
21.071779045960906	2.2546985	1.5015653
21.089606609208378	2.266378	1.5054494
21.10743468875603	2.2606902	1.5035592
21.12526328508028	2.2298255	1.49326
21.143092398657675	2.183952	1.47782
21.16092202996488	2.1849113	1.4781445
21.17875217947867	2.1936982	1.4811138
21.19658284767596	2.203208	1.4843208
21.21441403503377	2.2118373	1.4872247
21.232245742029225	2.2094047	1.4864067
21.2500779691396	2.1759093	1.4750963
21.26791071684227	2.1469996	1.4652643
21.28574398561475	2.150727	1.4665357
21.30357777593465	2.15638	1.4684618
21.321412088279704	2.1578703	1.4689691
21.339246923127792	2.1758862	1.4750885
21.357082280956888	2.1769655	1.4754543
21.3749181622451	2.1709323	1.4734083
21.392754567470647	2.1583192	1.4691219
21.41059149711187	2.1622381	1.470455
21.42842895164726	2.1434996	1.4640695
21.446266931555378	2.1360874	1.4615359
21.464105437314945	2.134596	1.4610257
21.481944469404798	2.128524	1.4589462
21.49978402830388	2.102417	1.4499713
21.51762411449127	2.097172	1.4481616
21.53546472844617	2.0876162	1.4448586
21.553305870647876	2.0976021	1.4483101
21.571147541575865	2.0938563	1.4470164
21.58898974170967	2.0769594	1.4411659
21.60683247152899	2.0751157	1.4405261
21.62467573151363	2.0973654	1.4482284
21.642519522143523	2.1132784	1.453712
21.660363843898722	2.1333444	1.4605973
21.6782086972594	2.115161	1.4543593
21.696054082705864	2.0962522	1.447844
21.713900000718535	2.0739818	1.4401325
21.73174645177795	2.0485845	1.4312876
21.749593436364794	2.0177803	1.420486
21.767440954959845	2.011264	1.4181905
21.785289008044032	2.0389993	1.4279354
21.803137596098388	2.0413077	1.4287434
21.820986719604086	2.0345602	1.4263802
21.838836379042412	2.0199769	1.4212589
21.85668657489478	2.0381827	1.4276494
21.87453730764273	2.051271	1.4322258
21.892388577767914	2.0506568	1.4320115
21.91024038575213	2.0249972	1.4230239
21.928092732077285	2.0142763	1.419252
21.945945617225426	2.0189936	1.420913
21.963799041678694	2.0480406	1.4310977
21.981653005919398	31.36765	5.6006827
21.999507510429943	78.14033	8.839702
22.01736255569286	73.08051	8.548714
22.035218142190818	4.195308	2.0482452
22.05307427040661	2.0198612	1.4212183
22.07093094082315	2.0582762	1.4346694
22.088788153923474	2.062808	1.436248
22.106645910190746	2.0340703	1.4262084
22.12450421010827	2.0075414	1.4168774
22.142363054159464	2.017736	1.4204704
22.16022244282787	2.0158007	1.419789
22.178082376597164	1.9965038	1.412977
22.195942855951145	1.9606681	1.4002386
22.213803881373742	1.9506764	1.3966662
22.231665453349002	1.9803735	1.4072574
22.24952757236111	1.9860986	1.4092901
22.26739023889438	1.9889051	1.4102855
22.28525345343323	1.9543291	1.3979732
22.30311721646225	1.9570601	1.3989496
22.320981528466113	1.947534	1.3955407
22.33884638992964	1.9455212	1.3948194
22.356711801337788	1.9442532	1.3943648
22.37457776317561	1.9555919	1.3984247
22.392444275928337	1.9469092	1.3953168
22.410311340081282	1.9645553	1.401626
22.428178956119904	1.9658339	1.402082
22.446047124529805	1.9497043	1.3963181
22.46391584579669	1.9558595	1.3985205
22.481785120406414	1.9619939	1.4007119
22.49965494884496	1.9395083	1.3926623
22.51752533159841	1.8952053	1.3766645
22.53539626915302	1.8846316	1.3728188
22.553267761995137	1.9071566	1.3809984
22.571139810611264	1.9510726	1.396808
22.589012415488025	1.9590524	1.3996615
22.60688557711216	1.9652554	1.4018756
22.624759295970566	1.9538356	1.3977968
22.642633572550263	1.9539561	1.3978398
22.660508407338362	1.9142077	1.383549
22.67838380082217	1.8880886	1.3740773
22.696259753489077	1.9065673	1.380785
22.714136265826614	1.9576222	1.3991505
22.73201333832246	1.9749167	1.4053173
22.74989097146439	1.9815344	1.4076698
22.76776916574035	1.9786228	1.4066353
22.785647921638393	1.9755756	1.4055517
22.803527239646712	1.9475727	1.3955547
22.82140712025363	1.936433	1.3915577
22.839287563947593	1.9113019	1.3824984
22.85716857121719	1.9476304	1.3955753
22.875050142551135	1.9921951	1.4114515
22.892932278438277	1.9764847	1.4058751
22.910814979367604	1.932909	1.390291
22.928698245828222	1.891324	1.3752542
22.946582078309387	1.93828	1.3922212
22.96446647730047	1.9324468	1.3901248
22.98235144329098	1.9232491	1.3868126
23.000236976770562	1.8788556	1.3707135
23.018123078229	1.8965127	1.3771393
23.03600974815619	1.8932112	1.3759401
23.053896987042194	1.9026176	1.379354
23.071784795377173	1.903552	1.3796928
23.08967317365145	1.9091481	1.3817192
23.10756212235546	1.9258631	1.3877547
23.125451641979787	1.91307	1.3831377
23.143341733015134	1.927725	1.3884254
23.161232395952357	1.9370458	1.3917779
23.179123631282426	1.9104353	1.382185
23.197015439496468	1.911571	1.3825958
23.214907821085717	1.9162314	1.3842801
23.23280077654157	1.8921856	1.3755673
23.250694306355538	1.8841692	1.3726504
23.268588411019277	1.884693	1.3728412
23.28648309102458	1.9374281	1.3919153
23.304378346863356	1.9924427	1.4115391
23.322274179027676	2.0292854	1.4245299
23.340170588009723	1.9935166	1.4119195
23.358067574301852	1.97488	1.4053042
23.37596513839651	1.928925	1.3888575
23.39386328078629	1.8964442	1.3771144
23.411762001963947	1.9044416	1.380015
23.429661302422353	1.9596852	1.3998876
23.4475611826545	1.951016	1.3967878
23.46546164315356	1.9065803	1.3807898
23.48336268441279	1.8970228	1.3773246
23.501264306925638	1.9021425	1.3791819
23.51916651118564	1.8782972	1.3705099
23.537069297686497	1.8797174	1.3710278
23.554972666922037	1.910937	1.3823664
23.57287661938623	1.9168985	1.384521
23.59078115557318	1.8873847	1.3738211
23.608686275977128	1.9170146	1.384563
23.62659198109246	1.9142708	1.3835717
23.6444982714137	1.9206669	1.3858813
23.66240514743549	1.885875	1.3732716
23.68031260965263	1.8440726	1.3579663
23.698220658560068	1.8622392	1.3646389
23.716129294652845	1.9197172	1.3855386
23.7340385184262	1.9689871	1.403206
23.75194833037546	1.9286244	1.3887492
23.769858730996123	1.8941612	1.3762853
23.78776972078382	1.8814597	1.3716631
23.80568130023431	1.870427	1.3676356
23.823593469843495	1.8831885	1.3722931
23.841506230107424	1.8884116	1.3741949
23.859419581522275	1.892424	1.375654
23.87733352458438	1.8885398	1.3742416
23.89524805979019	1.8945665	1.3764325
23.913163187636318	1.8743343	1.3690633
23.931078908619508	1.8663636	1.3661492
23.948995223236633	1.9027638	1.379407
23.966912131984735	1.9780186	1.4064205
23.98482963536096	2.0562108	1.4339494
24.002747733862616	2.0759425	1.4408132
24.020666427987155	2.0639944	1.4366609
24.038585718232156	2.0915408	1.446216
24.056505605095353	2.0956702	1.447643
24.074426089074617	2.1074274	1.4516981
24.092347170667946	2.0743454	1.4402587
24.110268850373515	2.0614157	1.4357631
24.128191128689586	2.0736737	1.4400256
24.146114006114626	2.0672386	1.4377894
24.164037483147187	2.0652857	1.4371102
24.181961560286005	2.025527	1.4232101
24.199886238029926	2.0290434	1.4244449
24.21781151687797	2.053939	1.4331571
24.235737397329274	2.0339463	1.4261649
24.253663879883135	1.985951	1.4092377
24.271590965038975	2.0397203	1.4281877
24.289518653296376	2.0785146	1.4417055
24.30744694515505	2.0820644	1.4429361
24.32537584111486	2.071741	1.4393544
24.34330534167581	2.089315	1.4454463
24.361235447338046	2.0557852	1.4338009
24.379166158601876	2.047056	1.4307536
24.39709747596772	2.0304615	1.4249426
24.41502939993615	2.0216212	1.4218373
24.432961931007917	1.9971721	1.4132134
24.450895069683856	1.9547654	1.3981292
24.468828816465	1.9436669	1.3941545
24.4867631718525	1.9465877	1.3952017
24.504698136347656	1.9976062	1.4133669
24.52263371045192	2.0183513	1.420687
24.540569894666874	2.0494468	1.4315889
24.558506689494266	2.012523	1.4186342
24.57644409543597	1.9679832	1.4028482
24.594382112994012	1.9008466	1.3787119
24.61232074267057	1.9030666	1.3795168
24.630259984967953	1.9487766	1.3959858
24.64819984038863	1.9528457	1.3974426
24.66614030943522	1.9418257	1.3934941
24.684081392610462	1.9590484	1.3996601
24.702023090417274	1.9687339	1.4031157
24.7199654033587	2.0011306	1.4146132
24.737908331937927	2.0077388	1.416947
24.755851876658305	2.040449	1.4284428
24.773796038023324	2.0572858	1.4343241
24.79174081653661	2.0875015	1.4448189
24.809686212701962	2.1609802	1.4700273
24.827632227023294	2.187943	1.4791697
24.8455788600047	2.1297023	1.45935
24.8635261121504	2.0994234	1.4489387
24.88147398396475	2.1152065	1.4543749
24.899422475952303	2.126075	1.4581066
24.917371588617698	2.1122494	1.4533579
24.935321322465768	2.1386762	1.4624213
24.953271678001478	2.2308831	1.4936141
24.97122265572994	2.4394047	1.5618594
24.989174256156414	2.7992532	1.6730969
25.00712647978632	3.2417464	1.800485
25.02507932712521	3.753689	1.937444
25.043032798678798	4.2995515	2.073536
25.060986894952933	4.9042296	2.2145495
25.078941616453637	5.6516843	2.3773272
25.096896963687055	6.543613	2.5580487
25.114852937159508	7.777412	2.7888012
25.132809537377444	8.334169	2.8868961
25.150766764847468	8.468446	2.9100595
25.168724620076347	7.883027	2.807673
25.186683103570985	6.8290014	2.6132357
25.204642215838426	5.6120925	2.3689857
25.222601957385894	4.214199	2.0528514
25.24056232872074	3.211565	1.792084
25.25852333035048	2.6190674	1.6183534
25.276484962782778	2.2594914	1.5031605
25.294447226525435	2.0639849	1.4366575
25.312410122086423	2.0106585	1.4179769
25.330373649973843	2.0389297	1.4279109
25.348337810695988	2.0571918	1.4342914
25.366302604761245	2.0227425	1.4222316
25.384268032678207	1.9847915	1.4088262
25.40223409495558	1.9385346	1.3923126
25.420200792102257	1.8943924	1.3763692
25.438168124627246	1.8897173	1.3746699
25.45613609303974	1.8762953	1.3697793
25.474104697849057	1.882152	1.3719155
25.492073939564698	1.89615	1.3770076
25.510043818696285	1.9418614	1.3935069
25.528014335753614	1.9159459	1.384177
25.54598549124664	1.9097197	1.3819261
25.56395728568544	1.9234812	1.3868963
25.58192971958028	1.8874358	1.3738399
25.59990279344156	1.8031226	1.3428041
25.617876507779833	1.8164203	1.3477464
25.635850863105826	1.8387204	1.3559942
25.653825859930386	1.8393676	1.3562329
25.671801498764548	1.8596634	1.3636948
25.68977778011949	1.8630797	1.3649467
25.707754704506524	1.8465794	1.3588891
25.725732272437153	1.8680513	1.3667667
25.743710484423012	1.9027433	1.3793997
25.761689340975888	1.9159673	1.3841847
25.77966884260774	1.892794	1.3757885
25.797648989830662	1.8482846	1.3595163
25.815629783156922	1.8240569	1.3505765
25.83361122309895	1.7903625	1.3380443
25.85159331016929	1.7992105	1.3413465
25.869576044880695	1.8277797	1.351954
25.887559427746034	1.8683679	1.3668826
25.90554345927836	1.881149	1.3715498
25.92352813999086	1.8862603	1.3734119
25.94151347039689	1.8625258	1.3647438
25.959499451009965	1.8346273	1.3544841
25.97748608234374	1.8342862	1.3543582
25.995473364912062	1.8431011	1.3576086
26.013461299228904	1.841404	1.3569834
26.03144988580839	1.8608444	1.3641278
26.04943912516483	1.8723066	1.3683225
26.067429017812675	1.8690805	1.3671432
26.085419564266537	1.8555613	1.3621899
26.103410765041186	1.8507483	1.3604221
26.12140262065155	1.8140116	1.3468524
26.139395131612723	1.7630236	1.327789
26.157388298439948	1.7862995	1.3365252
26.17538212164861	1.8842398	1.3726761
26.193376601754295	1.9222268	1.386444
26.211371739272714	1.8914388	1.3752959
26.229367534719746	1.8092312	1.3450767
26.247363988611433	1.7972038	1.3405983
26.26536110146397	1.8000067	1.3416433
26.283358873793727	1.8423517	1.3573326
26.301357306117204	1.8524642	1.3610526
26.319356398951104	1.8584858	1.3632629
26.33735615281224	1.8355074	1.354809
26.35535656821762	1.8181732	1.3483965
26.373357645684404	1.8171961	1.3480341
26.39135938572991	1.8110267	1.3457439
26.409361788871614	1.8023072	1.3425003
26.427364855627165	1.8063873	1.344019
26.445368586514352	1.835898	1.3549532
26.46337298205115	1.8554943	1.3621653
26.48137804275568	1.8092005	1.3450652
26.499383769146217	1.7849869	1.336034
26.517390161741215	1.7839199	1.3356347
26.53539722105928	1.8023859	1.3425297
26.553404947619182	1.8192263	1.348787
26.571413341939856	1.8193235	1.3488231
26.589422404540397	1.8370436	1.3553759
26.60743213594006	1.8703674	1.3676138
26.62544253665827	1.8470778	1.3590724
26.64345360721459	1.8269502	1.3516473
26.66146534812879	1.8555665	1.3621918
26.679477759920758	1.859388	1.3635938
26.69749084311057	1.8585389	1.3632824
26.71550459821847	1.8327941	1.3538072
26.733519025764842	1.8384235	1.3558848
26.751534126270258	1.8188558	1.3486496
26.769549900255434	1.77997	1.3341552
26.787566348241267	1.7936534	1.3392735
26.80558347074881	1.8316499	1.3533846
26.823601268299267	1.872488	1.3683889
26.841619741414036	1.9233876	1.3868625
26.85963889061465	1.9212519	1.3860923
26.877658716422832	1.8457198	1.3585727
26.89567921936045	1.8473427	1.3591698
26.913700399949544	1.8887534	1.3743192
26.93172225871233	1.9051454	1.38027
26.949744796171174	1.8887701	1.3743253
26.967768012848605	1.8546586	1.3618585
26.98579190926733	1.8430421	1.3575869
27.003816485950225	1.820422	1.3492302
27.021841743420318	1.8259922	1.3512928
27.039867682200814	1.8352453	1.3547122
27.057894302815072	1.9002699	1.3785027
27.07592160578664	1.8816988	1.3717502
27.0939495916392	1.811016	1.34574
27.111978260896635	1.775479	1.332471
27.13000761408296	1.7633355	1.3279064
27.148037651722397	1.7690953	1.3300735
27.166068374339304	1.7663381	1.3290366
27.184099782458215	1.759973	1.3266398
27.20213187660384	1.8024604	1.3425574
27.22016465730105	1.7772243	1.3331257
27.23819812507487	1.7546519	1.3246328
27.256232280450533	1.7847655	1.3359512
27.274267123953383	1.7950159	1.339782
27.292302656108987	1.7927754	1.3389456
27.31033887744306	1.7962645	1.340248
27.32837578848146	1.8320318	1.3535258
27.34641338975026	1.8354908	1.3548028
27.364451681775673	1.832685	1.3537669
27.382490665084074	1.8212453	1.3495352
27.400530340202046	1.8184903	1.3485141
27.41857070765629	1.8206608	1.3493186
27.436611767973726	1.815839	1.3475307
27.454653521681404	1.8189838	1.3486971
27.472695969306564	1.7805841	1.3343853
27.490739111376627	1.7624336	1.3275669
27.508782948419153	1.7269368	1.3141297
27.526827480961902	1.7311791	1.3157429
27.54487270953279	1.7380018	1.318333
27.562918634659898	1.776197	1.3327404
27.580965256871508	1.7890478	1.3375529
27.599012576696026	1.7983634	1.3410307
27.617060594662068	1.757476	1.3256983
27.63510931129842	1.7895783	1.3377513
27.65315872713401	1.7815981	1.3347652
27.67120884269797	1.8227649	1.3500981
27.68925965851958	1.8825903	1.3720752
27.707311175128307	1.946326	1.3951079
27.725363393053787	1.9062425	1.3806674
27.74341631282583	1.8442113	1.3580174
27.7614699349744	1.818259	1.3484284
27.77952426002968	2.0280175	1.4240848
27.797579288521973	2.052381	1.4326134
27.815635020981784	2.4734063	1.5727067
27.83369145793979	2.573979	1.6043625
27.85174859992682	2.4862816	1.5767947
27.869806447473923	2.3678327	1.5387764
27.887865001112267	2.006162	1.4163904
27.905924261373233	1.8938618	1.3761765
27.92398422878836	1.8592101	1.3635286
27.94204490388936	1.8163227	1.3477101
27.96010628720813	1.7969524	1.3405045
27.978168379276728	1.8171296	1.3480095
27.9962311806274	1.8895717	1.3746169
28.014294691792568	1.9202895	1.3857452
28.0323589133048	1.9122542	1.3828428
28.050423845696887	1.8294475	1.3525707
28.068489489501758	1.8041035	1.3431692
28.086555845252523	1.8123792	1.3462464
28.104622913482487	1.8053128	1.3436192
28.122690694725115	1.792516	1.3388487
28.14075918951405	1.8421857	1.3572714
28.15882839838312	1.9353144	1.3911558
28.176898321866304	1.9518238	1.3970768
28.1949689604978	1.8745793	1.3691528
28.213040314811945	1.8678923	1.3667085
28.23111238534327	1.9161804	1.3842617
28.249185172626493	1.9059697	1.3805686
28.267258677196473	1.91321	1.3831884
28.285332899588294	1.9893254	1.4104345
28.303407840337172	1.9799051	1.407091
28.321483499978545	1.9355873	1.3912538
28.33955987904799	1.9362342	1.3914863
28.357636978081285	1.962786	1.4009947
28.37571479761439	1.9753252	1.4054626
28.393793338183425	1.9767408	1.4059662
28.41187260032469	1.9688786	1.4031674
28.429952584574686	1.9501634	1.3964825
28.448033291470065	1.9256573	1.3876805
28.46611472154769	1.910884	1.3823473
28.484196875344566	1.9406477	1.3930713
28.502279753397914	1.981685	1.4077233
28.52036335624511	1.9414169	1.3933474
28.538447684423716	1.9159176	1.3841667
28.556532738471482	1.8875425	1.3738786
28.574618518926325	1.9260169	1.3878101
28.59270502632635	1.9479088	1.3956751
28.61079226120985	2.0114508	1.4182563
28.628880224115274	2.0046601	1.4158602
28.646968915581287	2.0195394	1.421105
28.66505833614671	2.0087326	1.4172976
28.68314848635055	2.0553813	1.4336601
28.701239366732004	2.1036532	1.4503976
28.71933097783044	2.1345625	1.4610142
28.737423320185403	2.1487155	1.4658498
28.75551639433665	2.185288	1.478272
28.773610200824074	2.1920807	1.4805677
28.791704740187793	2.1997263	1.4831475
28.80980001296809	2.191245	1.4802855
28.827896019705413	2.1870105	1.4788544
28.845992760940433	2.1473362	1.4653792
28.86409023721397	2.1703107	1.4731975
28.88218844906704	2.2051108	1.4849615
28.900287397040845	2.2009335	1.4835544
28.918387081676755	2.1776388	1.4756825
28.936487503516343	2.2166262	1.4888338
28.954588663101365	2.3050847	1.5182506
28.97269056097374	2.3376381	1.5289336
28.990793197675597	2.3026578	1.517451
29.00889657374923	2.3165052	1.522007
29.027000689737125	2.4062083	1.5511957
29.04510554618196	2.4836762	1.5759684
29.06321114362659	2.4955351	1.5797263
29.08131748261405	2.4493997	1.5650558
29.099424563687567	2.4673278	1.570773
29.11753238739057	2.5127745	1.5851734
29.13564095426663	2.5685596	1.6026727
29.15375026485954	2.6245313	1.6200405
29.171860319713275	2.7036214	1.6442692
29.18997111937199	2.713975	1.6474147
29.20808266438002	2.7584922	1.6608709
29.226194955281898	2.849091	1.6879251
29.244307992622335	2.8805957	1.6972318
29.26242177694624	2.8402624	1.6853079
29.2805363087987	2.845918	1.6869849
29.29865158872498	2.8796875	1.6969643
29.316767617270557	2.8677416	1.6934408
29.334884394981064	2.9551163	1.7190452
29.353001922402367	3.0381572	1.743031
29.37112020008047	3.1127272	1.7642922
29.389239228561596	3.1882348	1.7855629
29.407359008392152	3.3535004	1.8312565
29.42547954011872	3.6646206	1.9143199
29.44360082428809	4.3110814	2.0763144
29.46172286144722	5.3757253	2.318561
29.479845652143283	6.915338	2.629703
29.497969196923606	8.843334	2.9737744
29.516093496335728	11.262779	3.3560064
29.5342185509274	14.046215	3.747828
29.55234436124651	16.412802	4.0512714
29.570470927841175	17.83013	4.2225738
29.588598251259686	17.501528	4.1834826
29.60672633205055	16.308418	4.038368
29.624855170762405	14.243691	3.7740815
29.642984767944146	11.500896	3.391297
29.66111512414481	8.745256	2.957238
29.67924623991366	6.53042	2.5554686
29.697378115800138	5.0016346	2.2364335
29.71551075235387	4.1483226	2.0367432
29.733644150124675	3.7231505	1.9295467
29.751778309662576	3.5516474	1.8845814
29.769913231517766	3.4983122	1.8703775
29.78804891624066	3.432312	1.85265
29.806185364381818	3.4033713	1.8448229
29.82432257649206	3.3677506	1.8351432
29.842460553122333	3.3436356	1.8285611
29.86059929482382	3.287054	1.8130234
29.878738802147872	3.2899292	1.8138162
29.896879075646048	3.3125253	1.8200344
29.915020115870114	3.3174253	1.82138
29.933161923371976	3.2770643	1.8102664
29.951304498703777	3.2379751	1.7994374
29.969447842417857	3.2365732	1.7990478
29.987591955066733	3.2160861	1.793345
30.005736837203123	3.1830912	1.784122
30.023882489379943	3.1874576	1.7853452
30.04202891215028	3.1669772	1.7796003
30.060176106067455	3.1689863	1.7801647
30.078324071684946	3.1266143	1.7682235
30.09647280955646	3.12181	1.7668644
30.114622320235863	3.0811965	1.7553338
30.132772604277257	3.0934374	1.7588171
30.1509236622349	3.1212304	1.7667004
30.16907549466328	3.1055431	1.7622551
30.18722810211705	3.035786	1.7423507
30.205381485151097	3.0008054	1.7322832
30.22353564432045	3.0345356	1.7419919
30.241690580180403	3.0826974	1.7557611
30.25984629328638	3.0608828	1.7495378
30.278002784194037	2.9599035	1.720437
30.296160053459246	2.930491	1.7118677
30.314318101638033	2.9325478	1.7124684
30.332476929286646	2.9375021	1.7139143
30.35063653696153	2.9420972	1.7152543
30.368796925219307	2.9605026	1.7206111
30.386958094616844	2.8911083	1.700326
30.40512004571115	2.8043242	1.6746117
30.423282779059463	2.7594125	1.661148
30.441446295219233	2.7516565	1.6588118
30.459610594748067	2.7557116	1.6600336
30.47777567820382	2.787102	1.6694616
30.495941546144504	2.826599	1.6812493
30.51410819912835	2.7982621	1.6728007
30.532275637713795	2.8204994	1.6794343
30.55044386245946	2.8805213	1.6972098
30.56861287392416	2.931088	1.7120421
30.586782672666956	2.85975	1.6910795
30.604953259247047	2.8602958	1.6912409
30.623124634223885	2.826217	1.6811357
30.641296798157075	2.7153554	1.6478336
30.659469751606462	2.7024817	1.6439227
30.677643495132074	2.717393	1.6484517
30.695818029294152	2.710127	1.6462463
30.713993354653116	2.7033572	1.6441889
30.73216947176962	2.696294	1.6420397
30.75034638120448	2.65503	1.6294262
30.768524083518756	2.6715639	1.6344919
30.786702579273673	2.7541676	1.6595684
30.80488186903069	2.8227868	1.6801151
30.82306195335144	2.878414	1.6965889
30.841242832797782	3.0829072	1.755821
30.85942450793176	3.4214375	1.8497128
30.877606979315637	3.6810994	1.9186192
30.895790247511883	4.02389	2.0059636
30.913974313083134	4.5428014	2.1313848
30.932159176592283	4.9103365	2.2159278
30.95034483860237	4.855782	2.203584
30.968531299676698	4.6058574	2.146126
30.98671856037873	4.265953	2.0654185
31.00490662127215	3.9447093	1.9861293
31.023095482920848	3.569267	1.8892504
31.04128514588892	3.181244	1.7836041
31.059475610740662	2.8749876	1.6955788
31.07766687804056	2.6666334	1.632983
31.09585894835335	2.5519707	1.5974889
31.11405182224393	2.4741464	1.5729419
31.132245500277417	2.4209306	1.555934
31.15043998301914	2.4432042	1.5630752
31.168635271034628	2.4510915	1.5655962
31.18683136488964	2.4011705	1.549571
31.20502826515008	2.4052005	1.5508709
31.223225972382135	2.4502015	1.5653119
31.241424487152155	2.4190347	1.5553247
31.259623810026692	2.414865	1.5539836
31.27782394157253	2.4561594	1.5672139
31.296024882356644	2.467849	1.570939
31.314226632946237	2.4747908	1.5731468
31.332429193908684	2.5092998	1.584077
31.350632565811598	2.4772587	1.573931
31.368836749222787	2.4265792	1.5577481
31.387041744710295	2.376671	1.5416455
31.40524755284232	2.4447255	1.5635618
31.423454174187317	2.4879396	1.5773203
31.441661609313922	2.4864566	1.5768502
31.459869858791002	2.441672	1.5625851
31.478078923187628	2.4414792	1.5625234
31.496288803073064	2.4797113	1.5747099
31.514499499016807	2.5232062	1.5884603
31.532711011588546	2.4320252	1.5594952
31.550923341358178	2.3295577	1.5262889
31.56913648889584	2.304248	1.517975
31.587350454771844	2.382215	1.5434426
31.605565239556732	2.41364	1.5535893
31.62378084382127	2.4398704	1.5620084
31.641997268136382	2.4003356	1.5493016
31.660214513073274	2.3339493	1.5277269
31.67843257920331	2.2862341	1.5120298
31.6966514670981	2.282194	1.5106932
31.71487117732944	2.3181593	1.5225502
31.733091710469346	2.3140419	1.5211976
31.751313067090052	2.3125799	1.5207169
31.769535247764008	2.2635345	1.5045048
31.787758253063878	2.221494	1.4904677
31.805982083562526	2.234666	1.49488
31.824206739833024	2.2771602	1.5090263
31.84243222244869	2.226595	1.492178
31.860658531983013	2.1763873	1.4752584
31.878885669009737	2.160883	1.4699942
31.897113634102784	2.2167373	1.4888711
31.91534242783632	2.2258434	1.4919261
31.933572050784694	2.2830377	1.5109724
31.951802503522508	2.3024538	1.5173838
31.970033786624548	2.3031468	1.5176122
31.988265900665834	2.2074504	1.4857491
32.006498846221575	2.1372025	1.4619174
32.02473262386724	2.1643784	1.4711827
32.04296723417845	2.258866	1.5029525
32.0612026777311	2.2837157	1.5111967
32.07943895510129	2.2100759	1.4866323
32.097676066865304	2.1505077	1.466461
32.115914013599685	2.1189644	1.4556663
32.13415279588115	2.15126	1.4667174
32.152392414286666	2.1317282	1.4600439
32.1706328693934	2.0498767	1.4317391
32.18887416177875	2.0213718	1.4217496
32.20711629202032	2.104359	1.4506409
32.225359260695924	2.1397808	1.462799
32.243603068383614	2.077287	1.4412796
32.26184771566166	2.0885053	1.4451662
32.28009320310852	2.1542025	1.4677202
32.2983395313029	2.1208458	1.4563124
32.31658670082372	2.051098	1.4321655
32.33483471225012	2.0876212	1.4448602
32.35308356616143	2.1320634	1.4601587
32.371333263137245	2.1361125	1.4615445
32.38958380375734	2.056775	1.4341462
32.407835188601744	2.0375147	1.4274154
32.42608741825067	2.023897	1.4226373
32.444340493284585	2.01951	1.4210947
32.46259441428416	1.9887652	1.4102359
32.48084918183028	1.9865392	1.4094465
32.49910479650405	2.0278237	1.4240167
32.51736125888683	2.0183961	1.4207027
32.53561856956014	1.9730802	1.4046637
32.5538767291058	1.9732891	1.4047381
32.572135738105764	2.0277855	1.4240034
32.59039559714228	2.067129	1.4377513
32.608656306797776	2.1227918	1.4569803
32.62691786765491	2.0656168	1.4372253
32.645180280296586	1.9825902	1.4080448
32.663443545305896	1.9646082	1.4016448
32.68170766326619	2.048887	1.4313934
32.69997263476099	2.0518808	1.4324387
32.7182384603741	1.9162173	1.384275
32.7365051406895	1.9020181	1.3791367
32.75477267629144	2.0399046	1.4282523
32.77304106776434	2.1231976	1.4571196
32.79131031569289	2.0474923	1.430906
32.809580420661966	1.9045384	1.3800502
32.827851383256714	1.9579345	1.3992621
32.84612320406245	2.015453	1.4196665
32.86439588366476	1.9940464	1.4121071
32.88266942264945	1.9829476	1.4081718
32.9009438216025	1.9897852	1.4105974
32.9192190811102	2.01039	1.4178822
32.937495201758985	1.9715294	1.4041116
32.95577218413556	1.911269	1.3824865
32.974050028826866	1.9532384	1.397583
32.992328736420035	1.9765512	1.4058987
33.010608307502444	1.9727762	1.4045556
33.02888874266169	1.981797	1.4077631
33.047170042485604	1.9860116	1.4092592
33.06545220756225	1.9449961	1.3946311
33.083735238479896	1.9262218	1.3878839
33.10201913582707	1.990886	1.4109876
33.12030390019248	1.9797449	1.407034
33.138589532165135	2.0272415	1.4238123
33.15687603233419	2.0146372	1.4193791
33.17516340128909	2.0179725	1.4205536
33.19345163961947	2.0063508	1.416457
33.211740747915215	1.9066564	1.3808173
33.23003072676643	1.9189303	1.3852546
33.248321576763466	2.0215926	1.4218272
33.266613298496885	2.1438406	1.464186
33.28490589255747	2.0249245	1.4229984
33.30319935953626	1.8314164	1.3532983
33.32149370002451	1.8449404	1.3582858
33.339788914613706	1.996839	1.4130956
33.358085003895575	2.013804	1.4190856
33.376381968462034	1.9930822	1.4117656
33.39467980890529	2.0535903	1.4330354
33.41297852581774	2.0250008	1.4230253
33.43127811979204	1.9152728	1.3839338
33.44957859142105	1.8655411	1.3658482
33.467879941297866	1.9040774	1.3798832
33.486182170015844	1.9415073	1.3933798
33.50448527816853	2.0117264	1.4183534
33.522789266349754	2.0170193	1.420218
33.541094135153514	1.9120306	1.382762
33.55939988517411	1.9482515	1.3957978
33.57770651700602	1.9505682	1.3966274
33.59601403124398	1.9737589	1.4049053
33.61432242848296	1.9198586	1.3855896
33.632631709318154	1.8514975	1.3606974
33.650941874344994	1.8440531	1.3579592
33.66925292415916	1.876842	1.3699788
33.68756485935654	1.8588865	1.3634099
33.70587768053328	1.7974881	1.3407043
33.724191388285746	1.8459507	1.3586577
33.74250598321054	2.029403	1.4245712
33.760821465904506	2.049676	1.4316689
33.77913783696474	1.9684294	1.4030073
33.79745509698852	2.0151856	1.4195724
33.815773246573414	2.0503967	1.4319206
33.8340922863172	1.8970431	1.3773319
33.852412216817896	1.6997706	1.3037525
33.87073303867377	1.8044202	1.3432871
33.889054752483304	1.8587625	1.3633645
33.907377358845245	1.9103703	1.3821615
33.92570085835853	1.9289659	1.3888721
33.94402525162239	1.974812	1.4052801
33.96235053923627	1.9647636	1.4017003
33.980676721799824	1.9557021	1.3984642
33.999003799912984	2.0070496	1.4167038
34.01733177417592	1.9861466	1.4093071
34.03566064518901	1.9212282	1.3860837
34.0539904135529	1.8214394	1.3496071
34.07232107986846	1.8572412	1.3628063
34.090652644736785	1.9215426	1.3861972
34.108985108759235	1.9659214	1.4021132
34.12731847253742	2.0290143	1.4244348
34.14565273667313	2.0126898	1.418693
34.16398790176847	1.9615549	1.4005553
34.18232396842574	2.0095258	1.4175774
34.20066093724749	2.0756955	1.4407275
34.21899880883651	2.0738482	1.4400862
34.23733758379583	2.1463392	1.465039
34.25567726272874	2.141164	1.4632717
34.27401784623872	2.0169287	1.4201862
34.29235933492957	2.0460842	1.430414
34.31070172940526	2.0480359	1.4310961
34.32904503027003	1.9960521	1.4128171
34.347389238128386	1.9955882	1.4126529
34.36573435358502	2.0048587	1.4159304
34.38408037724492	1.9807463	1.4073899
34.402427309713296	1.944356	1.3944017
34.42077515159559	2.073925	1.4401128
34.43912390349752	2.1639776	1.4710464
34.45747356602499	2.045409	1.4301779
34.47582413978423	1.9881115	1.410004
34.49417562538163	2.0549219	1.4334998
34.51252802342388	1.8745397	1.3691384
34.53088133451789	1.7572038	1.3255956
34.54923555927084	1.7364253	1.317735
34.567590698290104	1.809161	1.3450506
34.58594675218336	1.9839865	1.4085406
34.6043037215585	2.1205704	1.4562179
34.62266160702365	2.222296	1.4907367
34.641020409187234	2.0901918	1.4457495
34.65938012865785	1.9901505	1.4107269
34.677740766044394	2.0753207	1.4405973
34.69610232195598	2.0612094	1.4356912
34.714464797002016	2.121968	1.4566977
34.73282819179208	1.9998382	1.4141563
34.751192506936064	1.7015754	1.3044444
34.76955774304408	1.6077589	1.2679744
34.7879239007265	1.7752566	1.3323876
34.80629098059391	1.7789675	1.3337795
34.824658983257194	1.8739477	1.3689221
34.843027909327446	2.1169434	1.4549719
34.86139775941603	2.1308877	1.459756
34.879768534134534	2.0461006	1.4304197
34.89814023409483	2.0115871	1.4183043
34.91651285990901	1.9489564	1.3960503
34.93488641218944	1.9203287	1.3857592
34.95326089154871	1.8572493	1.3628093
34.97163629859967	1.8904867	1.3749497
34.99001263395542	1.96638	1.4022768
35.00838989822934	1.8615419	1.3643833
35.02676809203499	1.8242761	1.3506577
35.04514721598624	1.9373975	1.3919042
35.063527270697215	1.87222	1.3682909
35.081908256782256	1.7790415	1.3338071
35.10029017485597	1.90701	1.3809453
35.11867302553321	2.0032837	1.415374
35.137056809429104	1.9525787	1.397347
35.155441527159006	2.033622	1.4260513
35.173827179338524	2.0131156	1.418843
35.19221376658354	2.0802991	1.4423242
35.21060128951017	2.2148442	1.4882352
35.2289897487348	2.362161	1.5369323
35.24737914487405	2.2866764	1.512176
35.26576947854479	2.079677	1.4421085
35.28416075036418	2.0450387	1.4300485
35.30255296094958	2.2110596	1.4869632
35.32094611091867	2.0582147	1.4346479
35.33934020088932	1.9407371	1.3931034
35.35773523147969	1.7706655	1.3306636
35.3761312033082	1.9997277	1.4141173
35.394528116993506	2.1452875	1.46468
35.41292597315452	1.7456	1.3212116
35.431324772410434	1.6793662	1.2959037
35.449724515380666	1.7175734	1.3105623
35.46812520268491	1.7289343	1.3148894
35.486526834943106	1.894595	1.3764429
35.504929412775454	2.4474208	1.5644234
35.52333293680242	2.784276	1.668615
35.54173740764471	2.4687045	1.5712111
35.560142825923286	2.1416094	1.4634238
35.5785491922594	1.4441624	1.2017331
35.59695650727454	1.0918541	1.0449182
35.61536477159042	1.3578206	1.1652557
