0.008763373481513119	0.0	0.0
0.026290120649546365	0.0	0.0
0.043816868432600686	0.0	0.0
0.06134361724069026	0.011486674	0.1071759
0.07887036748382949	0.096539974	0.31070882
0.0963971195720331	0.11128223	0.3335899
0.11392387391531617	0.14597136	0.382062
0.1314506309236943	0.16598387	0.4074112
0.1489773910071836	0.24228196	0.49222144
0.16650415457580078	0.20186667	0.44929576
0.18403092203956356	0.20050302	0.44777563
0.20155769380849	0.16482665	0.40598848
0.2190844702925996	0.20367222	0.4513006
0.2366112519019124	0.28070942	0.52982014
0.2541380390464497	0.26336953	0.5131954
0.27166483213623416	0.22626975	0.4756782
0.28919163158128947	0.15418181	0.3926599
0.3067184377916406	0.16164584	0.40205204
0.324245251177314	0.1424748	0.37745833
0.34177207214833777	0.15039231	0.38780448
0.3592989011147415	0.14949326	0.3866436
0.37682573848655654	0.12994577	0.36047992
0.39435258467381573	0.108040094	0.32869452
0.41187944008655414	0.102325454	0.3198835
0.42940630513480854	0.10779979	0.3283288
0.446933180228618	0.12389171	0.35198253
0.4644600657780234	0.13911301	0.37297857
0.48198696219306775	0.1479206	0.38460445
0.49951386988379676	0.14886776	0.38583386
0.5170407892602581	0.1365211	0.3694876
0.5345677207325025	0.16587062	0.40727216
0.5520946647105822	0.16632466	0.4078292
0.5696216216045534	0.18854153	0.4342137
0.5871485918244737	0.20418377	0.45186698
0.6046755757804043	0.23972683	0.48961908
0.6222025738824094	0.24120495	0.4911262
0.6397295865405557	0.23094152	0.48056376
0.6572566141649129	0.20320587	0.4507836
0.6747836571655547	0.17670432	0.42036211
0.6923107159525568	0.14321695	0.37844017
0.7098377909359992	0.13226268	0.36367935
0.7273648825259653	0.11761657	0.34295273
0.7448919911325411	0.14556766	0.3815333
0.762419117165817	0.17998649	0.42424816
0.7799462610358868	0.2401858	0.49008754
0.7974734231528482	0.27250245	0.52201766
0.8150006039268024	0.25579962	0.5057664
0.8325278037678551	0.23896565	0.48884112
0.8500550230861152	0.18474858	0.42982388
0.8675822622916969	0.16932032	0.4114855
0.8851095217947171	0.18367477	0.42857295
0.9026368020052984	0.2039877	0.45164996
0.9201641033335665	0.21797085	0.4668735
0.9376914261896523	0.21774745	0.46663418
0.9552187709836915	0.2065045	0.45442766
0.9727461381258234	0.22729966	0.47675955
0.990273528026193	0.26565588	0.5154182
1.0078009410949496	0.30375805	0.5511425
1.0253283777422473	0.3256732	0.5706778
1.0428558383782454	0.28899387	0.5375815
1.0603833234131086	0.26511776	0.51489586
1.0779108332570058	0.32029927	0.56594986
1.0954383683201119	0.3285458	0.57318914
1.112965929012607	0.39459944	0.6281715
1.1304935157446763	0.45544848	0.67486924
1.1480211289265108	0.46317047	0.6805663
1.1655487689683062	1.3795459	1.1745408
1.1830764362802655	1.7396369	1.3189529
1.200604131272596	2.2052157	1.4849969
1.2181318543555117	2.4723094	1.5723579
1.235659605939232	2.4816117	1.5753132
1.253187386433982	3.9685526	1.9921227
1.270715196249994	6.116161	2.4730873
1.2882430357975057	11.595199	3.4051723
1.3057709054867608	16.630009	4.0779905
1.3232988057280106	22.654352	4.759659
1.3408267369315112	27.67167	5.260387
1.358354699507526	30.906635	5.559374
1.3758826938663256	34.873047	5.9053407
1.3934107204181858	36.830822	6.06884
1.410938779573391	37.831806	6.1507564
1.4284668717422309	38.689125	6.2200584
1.4459949973350033	38.002483	6.1646156
1.4635231567620117	38.01422	6.1655674
1.4810513504335687	37.04174	6.0861926
1.4985795787599925	36.54129	6.044939
1.5161078421516088	35.814148	5.9844923
1.5336361410187505	34.933872	5.910488
1.5511644757717598	34.534325	5.876591
1.5686928468209842	35.255024	5.937594
1.58622125457678	36.060688	6.0050554
1.6037496994495108	37.487736	6.122723
1.621278181849548	37.46888	6.121183
1.6388067021872719	38.18622	6.1794996
1.6563352608730693	37.541683	6.1271267
1.673863858317336	36.504395	6.041887
1.6913924949304753	35.707954	5.975613
1.7089211711228998	34.46583	5.870761
1.7264498873050296	33.61287	5.797661
1.7439786438872935	32.753063	5.723029
1.7615074412801288	32.152256	5.6702957
1.779036279893981	31.572466	5.618938
1.796565160139305	30.61694	5.5332575
1.814094082426564	29.952055	5.472847
1.8316230471662298	29.142765	5.398404
1.849152054768784	28.272953	5.3172317
1.8666811056447168	27.40469	5.234949
1.8842102002045273	26.715397	5.168694
1.901739338858724	26.077423	5.106606
1.9192685220178245	25.507986	5.0505433
1.9367977500923557	24.595644	4.9593997
1.9543270234928547	24.00855	4.8998523
1.971856342629867	23.402687	4.837632
1.9893857079139496	22.959387	4.7915955
2.006915119755667	22.587332	4.752613
2.0244445785655945	22.127968	4.704037
2.0419740847543175	21.653662	4.6533494
2.0595036387324317	21.263704	4.6112585
2.0770332409105414	20.97639	4.579999
2.094562891699263	20.861362	4.567424
2.1120925915092217	20.343904	4.5104218
2.129622340751053	20.015804	4.4739027
2.1471521398354043	188.22525	13.719521
2.1646819891729323	444.55386	21.084446
2.182211889174303	440.6853	20.992506
2.1997418402501974	452.93042	21.282162
2.2172718428113023	432.70535	20.80157
2.234801897268317	320.7545	17.90962
2.2523320040319548	17.352268	4.1656055
2.269862163512935	17.16037	4.1425076
2.287392376121992	16.72211	4.0892677
2.304922642269869	16.327751	4.040761
2.322452962367322	15.963413	3.995424
2.3399833368251164	15.632256	3.9537647
2.357513766054032	15.311724	3.9130197
2.3750442504648586	14.786758	3.8453555
2.3925747904683963	14.604194	3.8215435
2.410105386475459	14.54794	3.8141763
2.4276360388968707	14.512335	3.809506
2.445166748143469	14.332998	3.7858946
2.4626975146261025	14.004903	3.7423124
2.4802283387556323	13.550929	3.6811585
2.4977592209429305	13.15382	3.6268196
2.5152901615988825	12.902577	3.5920157
2.5328211611343865	12.957772	3.5996907
2.5503522199603523	12.731424	3.5681121
2.5678833384877024	12.613705	3.5515778
2.5854145171273712	12.442693	3.52742
2.6029457562903064	12.257626	3.501089
2.620477056387469	11.896121	3.4490755
2.6380084178298326	11.585973	3.4038174
2.655539841028383	11.342764	3.367902
2.673071326394119	11.235955	3.3520076
2.6906028743380523	11.051911	3.3244414
2.708134485271211	10.831288	3.2910922
2.7256661596046325	10.834104	3.2915199
2.743197897749369	10.701642	3.2713363
2.760729700116486	10.567405	3.2507546
2.778261567117063	10.27703	3.2057807
2.795793499162193	10.151574	3.1861534
2.8133254966629817	10.068666	3.1731162
2.830857560030551	9.875389	3.1425133
2.8483896896760337	9.694602	3.1136155
2.865921886010578	9.69718	3.1140294
2.883454149445347	9.560185	3.091955
2.9009864803915177	9.294318	3.0486584
2.91851887926028	9.0166645	3.0027761
2.9360513464628384	9.021808	3.0036323
2.953583882410413	9.035651	3.005936
2.9711164875142373	8.952482	2.99207
2.9886491621855606	8.7438135	2.956994
3.0061819068356455	8.691076	2.9480631
3.023714721875769	8.709236	2.9511416
3.041247607717225	8.71579	2.9522517
3.0587805647713213	8.494948	2.9146094
3.0763135934493806	8.351175	2.8898401
3.0938466941627407	8.18106	2.8602552
3.1113798673227544	8.079668	2.8424757
3.1289131133407904	7.9275084	2.8155832
3.1464464326282315	7.6941347	2.7738304
3.1639798255964786	7.6337204	2.7629187
3.1815132926569443	7.5542483	2.7484994
3.1990468342210603	7.4994273	2.7385082
3.216580450700272	7.4082394	2.7218082
3.2341141425060416	7.3356843	2.7084467
3.251647910049847	7.318177	2.705213
3.2691817537431813	7.271151	2.6965072
3.286715673997555	7.250484	2.6926723
3.3042496712244938	7.1436133	2.6727538
3.32178374583554	7.0986032	2.6643205
3.339317898242251	6.94116	2.6346083
3.3568521288562034	6.9203987	2.630665
3.3743864380889876	6.797628	2.6072261
3.3919208263522127	6.7526565	2.5985875
3.4094552940575023	6.708054	2.589991
3.4269898416164972	6.6835155	2.5852497
3.444524469440858	6.5962563	2.568318
3.4620591779422587	6.5487356	2.5590498
3.479593967532391	6.461827	2.5420125
3.4971288386229658	6.5260067	2.554605
3.5146637916257086	6.5263767	2.5546775
3.5321988269523628	6.523457	2.554106
3.5497339450146903	6.456616	2.5409873
3.5672691462244708	6.396849	2.5291994
3.5848044309934988	6.312334	2.512436
3.60233979973359	6.3287206	2.5156949
3.619875252856575	6.416841	2.5331485
3.6374107907743034	6.40802	2.5314066
3.6549464138986427	6.409055	2.5316112
3.6724821226414788	6.3667283	2.5232377
3.690017917414714	6.376403	2.525154
3.7075537986302702	6.4107733	2.5319505
3.7250897667000857	6.378416	2.5255525
3.7426258220361235	6.4000187	2.529826
3.7601619650503553	6.732186	2.5946455
3.777698196154779	7.4305315	2.7259002
3.7952345157614067	8.619494	2.9358976
3.8127709242822716	9.50972	3.0837834
3.830307422129425	11.690582	3.4191494
3.847844009714936	30.388605	5.512586
3.8653806874508954	97.6575	9.882181
3.882917455749409	96.86552	9.842028
3.900454315022606	96.51562	9.824236
3.917991265682631	41.07076	6.408647
3.9355283081416506	10.766719	3.281268
3.9530654428118495	8.6023035	2.9329684
3.970602670105433	7.440361	2.7277026
3.9881399904346244	6.5940423	2.5678868
4.005677404211669	6.5056143	2.5506105
4.023214911848827	6.439382	2.5375938
4.0407525137583855	6.447978	2.5392869
4.058290210352644	6.4046245	2.530736
4.075828002043927	6.371627	2.524208
4.0933658892445814	6.2549624	2.5009923
4.110903872366966	6.241313	2.498262
4.128441951823468	6.1682096	2.483588
4.145980128026488	6.172026	2.4843564
4.163518401388452	6.1518407	2.4802904
4.181056772321807	6.069397	2.4636147
4.1985952412390155	6.043061	2.4582639
4.216133808552567	6.121828	2.474233
4.233672474674966	6.2295847	2.4959135
4.251211240018741	6.5319033	2.555759
4.268750104996445	6.7576985	2.5995574
4.286289070020643	7.5974226	2.7563422
4.303828135503928	9.264615	3.043783
4.3213673018589125	29.545498	5.435577
4.3389065694982305	90.83793	9.530893
4.356445938834537	166.15721	12.890199
4.3739854102805085	171.52934	13.096921
4.391524984248844	172.37955	13.129339
4.409064661152262	136.38982	11.678605
4.426604441403504	96.73713	9.835504
4.444144325415337	75.90917	8.712587
4.461684313600543	21.978642	4.6881385
4.47922440637193	22.351053	4.72769
4.496764604142329	20.647425	4.543944
4.5143049073245916	18.754686	4.330668
4.531845316331589	16.519564	4.0644264
4.5493858315762195	13.533328	3.6787672
4.566926453471405	11.362362	3.3708103
4.584467182430081	9.263701	3.043633
4.602008018865218	8.144505	2.8538578
4.619548963189798	7.538168	2.7455723
4.637090015816834	7.1506352	2.6740673
4.654631177159353	6.978595	2.641703
4.672172447630417	6.601481	2.5693347
4.689713827643102	6.370208	2.523927
4.7072553176105085	6.103293	2.4704843
4.724796917945764	5.988378	2.4471164
4.742338629062015	5.8556848	2.4198523
4.759880451372434	5.783019	2.4047909
4.777422385290215	5.760959	2.4002
4.794964431228581	5.7309566	2.3939416
4.812506589600768	5.678322	2.382923
4.830048860820047	5.576636	2.3614902
4.847591245299709	5.554672	2.3568351
4.8651337434530655	5.566648	2.3593745
4.882676355693457	5.5918016	2.3646991
4.900219082434242	5.613977	2.3693833
4.917761924088813	5.5189385	2.3492422
4.935304881070575	5.4626503	2.3372314
4.952847953792969	5.397297	2.3232083
4.970391142669449	5.4488473	2.3342767
4.9879344481135055	5.53457	2.3525667
5.005477870538642	5.5255265	2.3506439
5.023021410358394	5.4566565	2.3359487
5.040565067986324	5.523752	2.3502665
5.05810884383601	5.5217695	2.3498445
5.075652738321066	5.624836	2.3716736
5.09319675185512	5.495225	2.3441896
5.110740884851836	5.41389	2.3267767
5.128285137724894	5.407935	2.3254967
5.145829510888007	5.383585	2.3202553
5.163374004754908	5.423038	2.3287418
5.1809186197393595	5.369707	2.317263
5.198463356255145	5.3621078	2.3156226
5.216008214716077	5.4002256	2.3238385
5.233553195535998	5.3590655	2.3149655
5.251098299128764	5.318361	2.306157
5.268643525908272	5.2364893	2.2883377
5.286188876288432	5.2565665	2.2927203
5.3037343506831895	5.277744	2.297334
5.32127994950651	5.295401	2.301174
5.3388256731723915	5.282891	2.298454
5.356371522094851	5.2499166	2.2912695
5.373917496687938	5.2200756	2.2847486
5.391463597365729	5.2032757	2.281069
5.40900982454232	5.1612334	2.2718349
5.426556178631843	5.1721487	2.274236
5.444102660048449	5.2046256	2.281365
5.4616492692063225	5.2103724	2.282624
5.479196006519669	5.2360964	2.2882519
5.496742872402727	5.218115	2.2843194
5.514289867269756	5.2597957	2.2934244
5.531836991535049	5.2100286	2.2825487
5.549384245612924	5.251227	2.2915556
5.566931629917724	5.211812	2.2829394
5.584479144863822	5.149193	2.2691834
5.6020267908656205	5.218602	2.284426
5.619574568337545	5.212432	2.283075
5.637122477694054	5.2395267	2.2890012
5.654670519349629	5.2004676	2.2804534
5.672218693718784	5.08049	2.2539942
5.689767001216059	5.0664797	2.2508843
5.707315442256021	5.040331	2.245068
5.724864017253266	5.115405	2.2617261
5.7424127266224225	5.149181	2.2691808
5.75996157077814	5.1691065	2.273567
5.777510550135105	5.1204004	2.2628303
5.795059665108022	5.152685	2.2699528
5.812608916111639	5.207111	2.2819095
5.830158303560715	5.3158836	2.30562
5.847707827870055	5.3566465	2.314443
5.86525748945448	5.4446187	2.3333707
5.8828072887288485	5.586979	2.3636792
5.900357226108044	5.632443	2.373277
5.917907302006979	5.697739	2.3869936
5.9354575168406	6.3087316	2.5117188
5.9530078710238765	6.9716578	2.6403897
5.970558364971812	7.495621	2.7378132
5.988108999099438	7.738718	2.781855
6.005659773821818	8.248283	2.8719826
6.023210689554039	7.9120154	2.8128304
6.040761746711227	8.316916	2.8839064
6.058312945708531	7.7885146	2.790791
6.075864286961132	7.3388534	2.7090318
6.093415770884244	6.7345214	2.5950956
6.1109673978931065	6.1930904	2.4885921
6.128519168402993	5.5908017	2.3644876
6.146071082829204	5.40371	2.324588
6.163623141587075	5.212453	2.2830796
6.181175345091969	5.125637	2.263987
6.198727693759281	5.0840726	2.2547889
6.216280188004435	5.150809	2.2695394
6.233832828242885	5.256906	2.2927945
6.251385614890126	5.342476	2.3113797
6.268938548361669	5.283932	2.2986805
6.286491629073067	5.2384906	2.288775
6.304044857439898	5.232813	2.2875342
6.321598233877777	5.1524963	2.269911
6.339151758802344	5.0179486	2.2400777
6.356705432629277	4.922157	2.2185934
6.37425925577428	4.856853	2.203827
6.391813228653095	4.911851	2.2162695
6.409367351681486	4.8846855	2.2101324
6.426921625275259	4.9415827	2.2229671
6.44447604985025	4.9630585	2.2277923
6.46203062582232	4.996946	2.235385
6.47958535360737	5.012177	2.238789
6.497140233621328	5.037348	2.2444036
6.514695266280161	4.9672575	2.2287345
6.532250451999859	4.9036903	2.2144277
6.549805791196454	4.857403	2.2039516
6.567361284286002	4.8985286	2.213262
6.584916931684597	4.9959846	2.23517
6.602472733808367	5.1110897	2.260772
6.6200286910734665	5.198254	2.279968
6.637584803896092	5.1161737	2.2618961
6.655141072692462	5.0480585	2.2467885
6.672697497878842	4.899414	2.213462
6.690254079871514	4.8120937	2.1936486
6.707810819086808	4.7942367	2.1895745
6.725367715941078	4.861733	2.204934
6.742924770850719	4.9403386	2.2226872
6.760481984232151	5.0400314	2.2450013
6.778039356501836	5.028697	2.2424757
6.795596888076266	5.0459175	2.246312
6.813154579371963	4.991131	2.234084
6.830712430805492	4.904975	2.2147179
6.84827044279344	4.873242	2.207542
6.865828615752445	4.8814435	2.209399
6.883386950099159	4.930859	2.2205539
6.900945446250287	4.9373684	2.222019
6.918504104622553	4.9815226	2.2319324
6.936062925632727	5.0370317	2.2443333
6.953621909697607	5.128556	2.2646315
6.971181057234028	5.2283955	2.2865684
6.988740368658859	5.196243	2.279527
7.006299844389007	5.195652	2.2793972
7.023859484841407	5.2224407	2.285266
7.041419290433036	5.328988	2.30846
7.058979261580902	5.4600515	2.3366754
7.0765393987020495	5.739572	2.3957405
7.094099702213559	6.1420226	2.4783103
7.111660172532549	6.4385133	2.5374227
7.129220810076164	6.7615237	2.600293
7.146781615261595	7.3188963	2.7053459
7.16434258850606	7.6196404	2.7603695
7.181903730226821	8.065837	2.8400416
7.1994650408411704	8.24157	2.8708136
7.217026520766437	8.3619585	2.891705
7.234588170419983	8.54935	2.923927
7.252149990219215	8.491606	2.914036
7.269711980581568	8.346885	2.8890975
7.2872741419245175	8.158743	2.8563514
7.304836474665574	7.714622	2.777521
7.322398979222286	7.4122458	2.722544
7.339961656012233	7.1513953	2.6742094
7.357524505453039	6.8624134	2.6196208
7.375087527962357	6.5406594	2.5574713
7.392650723957886	6.251237	2.5002475
7.410214093857353	5.9678364	2.4429154
7.427777638078528	5.788684	2.4059684
7.445341357039213	5.605197	2.3675296
7.4629052511572525	5.384025	2.3203502
7.480469320850524	5.282599	2.2983906
7.498033566536948	5.2877326	2.2995071
7.5155979886344735	5.30969	2.3042765
7.5331625875610975	5.2275085	2.2863746
7.550727363734844	5.170938	2.2739697
7.568292317573788	5.0882297	2.2557104
7.585857449496025	5.0808105	2.2540653
7.603422759919705	5.1335397	2.2657316
7.620988249263007	5.190263	2.278215
7.638553917944147	5.234936	2.2879982
7.656119766381391	5.284695	2.2988465
7.673685794993023	5.241689	2.2894735
7.691252004197388	5.1889634	2.2779295
7.70881839441285	5.153763	2.27019
7.726384966057826	5.204128	2.2812557
7.743951719550762	5.27651	2.2970655
7.761518655310149	5.2890377	2.2997909
7.779085773754511	5.2492046	2.2911143
7.796653075302419	5.2280645	2.2864962
7.814220560372475	5.222569	2.285294
7.831788229383323	5.2655973	2.294689
7.8493560827536495	5.3112836	2.3046222
7.866924120902174	5.3421407	2.3113072
7.884492344247663	5.387846	2.3211734
7.9020607532089135	5.383544	2.3202465
7.919629348204771	5.3609657	2.315376
7.937198129654115	5.349262	2.3128471
7.954767097975865	5.3816805	2.319845
7.972336253588986	5.4341884	2.3311346
7.989905596912472	5.4245863	2.3290741
8.007475128365371	5.41805	2.3276706
8.025044848366756	5.4462028	2.3337102
8.042614757335754	5.564627	2.358946
8.060184855691523	5.6338873	2.3735812
8.07775514385327	5.7308826	2.3939261
8.095325622240228	5.7385464	2.3955264
8.112896291271687	5.7854085	2.4052875
8.130467151366968	5.8371825	2.416026
8.148038202945436	5.906567	2.430343
8.165609446426497	5.973983	2.4441733
8.183180882229594	6.001092	2.4497125
8.200752510774217	5.9613547	2.4415886
8.218324332479893	5.9343596	2.436054
8.235896347766193	5.931824	2.4355338
8.253468557052724	5.9446964	2.4381747
8.27104096075914	5.949817	2.4392247
8.288613559305137	6.065364	2.462796
8.306186353110448	6.1629863	2.4825363
8.32375934259485	6.2158422	2.493159
8.341332528178162	6.215408	2.493072
8.358905910280246	6.248188	2.4996376
8.376479489321003	6.2648535	2.502969
8.394053265720377	6.361352	2.522172
8.411627239898356	6.349162	2.5197544
8.42920141227497	6.3143125	2.5128295
8.44677578327029	6.3022118	2.5104206
8.464350353304427	6.1763773	2.4852319
8.48192512279754	6.1311088	2.4761076
8.499500092169827	6.125311	2.4749365
8.51707526184153	6.0754075	2.4648342
8.534650632232934	6.1117215	2.4721897
8.552226203764365	6.121395	2.4741454
8.569801976856192	6.2446957	2.4989388
8.587377951928834	6.365744	2.5230427
8.60495412940274	6.4014473	2.5301082
8.622530509698416	6.398176	2.5294616
8.6401070932364	6.4592204	2.5414996
8.657683880437283	6.5209336	2.553612
8.675260871721695	6.6613784	2.5809646
8.692838067510303	6.7872367	2.6052325
8.710415468223834	6.9765124	2.6413088
8.727993074283043	7.1368866	2.6714952
8.745570886108737	7.092776	2.6632266
8.763148904121765	7.153722	2.6746442
8.78072712874302	7.125777	2.669415
8.798305560393441	7.4146047	2.7229772
8.815884199494006	7.6280704	2.7618961
8.833463046465745	7.7995324	2.7927642
8.851042101729728	7.9448485	2.8186607
8.86862136570707	8.183619	2.8607025
8.886200838818924	8.281876	2.8778248
8.903780521486505	8.342162	2.8882802
8.921360414131055	8.434953	2.904299
8.938940517173874	8.615546	2.935225
8.956520831036297	8.754711	2.958836
8.97410135613971	8.993539	2.998923
8.99168209290554	9.126633	3.0210316
9.009263041755265	9.377315	3.0622401
9.026844203110405	9.6237755	3.102221
9.044425577392525	9.798319	3.1302266
9.062007165023239	9.987626	3.1603205
9.079588966424197	10.312989	3.2113843
9.097170982017108	10.445621	3.2319686
9.11475321222372	11.335415	3.3668108
9.132335657465825	12.106169	3.479392
9.149918318165264	12.19834	3.4926124
9.167501194743924	12.764524	3.5727475
9.18508428762374	12.458904	3.5297172
9.202667597226693	12.513489	3.537441
9.220251123974803	12.296386	3.5066202
9.237834868290143	12.019612	3.4669313
9.255418830594836	11.809862	3.436548
9.273003011311046	11.235174	3.351891
9.290587410860985	10.936794	3.3070824
9.308172029666911	10.267936	3.204362
9.32575686815113	9.96487	3.1567183
9.343341926735997	8.62829	2.937395
9.360927205843916	8.424846	2.9025586
9.378512705897327	8.299719	2.8809233
9.396098427318728	8.096846	2.8454957
9.413684370530664	8.017654	2.8315463
9.431270535955722	7.9384694	2.817529
9.448856924016539	7.862788	2.8040664
9.466443535135806	7.6966414	2.7742822
9.484030369736251	7.6944046	2.773879
9.501617428240658	7.711795	2.7770119
9.519204711071852	7.763368	2.786282
9.536792218652714	7.719772	2.7784476
9.55437995140617	7.7431345	2.7826488
9.571967909755191	7.8012033	2.7930634
9.589556094122802	7.812733	2.7951267
9.60714450493207	7.871109	2.8055496
9.624733142606116	7.901895	2.8110309
9.642322007568108	7.9960833	2.8277347
9.659911100241267	8.09317	2.8448498
9.677500421048851	8.118171	2.8492403
9.695089970414175	8.204344	2.8643227
9.712679748760609	8.20928	2.865184
9.730269756511557	8.263449	2.8746214
9.747859994090492	8.278292	2.877202
9.765450461920915	8.275209	2.8766663
9.78304116042639	8.21232	2.8657146
9.800632090030527	8.1203985	2.8496313
9.81822325115699	8.125241	2.8504808
9.835814644229481	8.09765	2.8456368
9.853406269671762	8.19146	2.8620727
9.870998127907646	8.228439	2.8685257
9.888590219360985	8.283657	2.8781343
9.906182544455698	8.320114	2.8844607
9.923775103615734	8.272857	2.8762574
9.941367897265108	8.3070755	2.8821998
9.958960925827878	8.326338	2.8855395
9.97655418972816	8.399219	2.8981404
9.994147689390106	8.4007845	2.8984108
10.011741425237934	8.3502245	2.8896756
10.029335397695904	8.26494	2.874881
10.04692960718833	8.286538	2.8786347
10.06452405413958	8.241251	2.8707578
10.082118738974064	8.211461	2.8655646
10.099713662116246	8.192137	2.862191
10.117308823990651	8.263529	2.8746355
10.134904225021844	8.2917595	2.8795416
10.152499865634445	8.29101	2.8794115
10.170095746253125	8.2271595	2.8683026
10.18769186730261	8.166061	2.8576322
10.205288229207675	8.19089	2.861973
10.222884832393145	8.135595	2.8522966
10.2404816772839	8.160921	2.8567326
10.258078764304868	8.143744	2.8537247
10.275676093881035	8.121657	2.849852
10.293273666437438	8.086711	2.8437142
10.310871482399158	8.076518	2.8419216
10.32846954219134	8.099521	2.8459656
10.346067846239173	8.14893	2.854633
10.363666394967908	8.125044	2.8504462
10.38126518880283	8.080133	2.8425577
10.398864228169298	8.157906	2.8562047
10.416463513492713	8.183767	2.8607285
10.434063045198531	8.173099	2.858863
10.451662823712262	8.154559	2.855619
10.469262849459467	8.143816	2.853737
10.486863122865758	8.137083	2.8525572
10.504463644356806	8.175659	2.8593109
10.522064414358338	8.10212	2.8464224
10.539665433296118	8.027044	2.8332038
10.557266701595987	7.9056015	2.81169
10.574868219683818	7.8602467	2.8036132
10.592469987985552	7.7358317	2.7813363
10.610072006927185	7.6289945	2.7620635
10.627674276934751	7.5172386	2.7417583
10.64527679843435	7.3998322	2.7202632
10.662879571852143	7.3406906	2.7093709
10.680482597614331	7.219788	2.6869664
10.698085876147173	7.1286845	2.6699595
10.715689407876988	7.0366592	2.6526701
10.733293193230146	6.9347773	2.6333966
10.750897232633072	6.8675284	2.620597
10.76850152651225	6.79115	2.6059835
10.786106075294207	6.6590514	2.5805137
10.803710879405534	6.5130377	2.5520654
10.821315939272877	6.3798842	2.5258434
10.83892125532294	6.3081894	2.511611
10.856526827982472	6.276114	2.5052173
10.874132657678285	6.3496876	2.5198586
10.891738744837243	6.356353	2.5211809
10.909345089886271	6.2960067	2.5091844
10.926951693252343	6.193819	2.4887385
10.944558555362494	6.152949	2.4805138
10.96216567664381	6.098287	2.469471
10.979773057523436	6.020549	2.4536808
10.997380698428573	5.9298186	2.4351218
11.014988599786477	5.788708	2.4059734
11.032596762024461	5.664908	2.3801067
11.050205185569892	5.620309	2.370719
11.067813870850198	5.582946	2.3628259
11.085422818292859	5.5127563	2.347926
11.10303202832541	5.4370413	2.3317463
11.120641501375454	5.4782114	2.3405578
11.138251237870636	5.422939	2.3287203
11.155861238238671	5.392013	2.3220708
11.173471502907317	5.27493	2.2967215
11.191082032304402	5.175197	2.274906
11.208692826857805	5.125104	2.2638693
11.226303886995465	5.071391	2.2519748
11.243915213145371	5.011648	2.238671
11.261526805735578	4.956915	2.226413
11.279138665194196	4.8707175	2.2069702
11.296750791949393	4.836103	2.199114
11.314363186429393	4.80024	2.190945
11.331975849062479	4.7645116	2.1827762
11.34958878027699	4.6790643	2.1631145
11.36720198050133	4.633445	2.1525438
11.384815450163948	4.598964	2.1445196
11.402429189693366	4.5511994	2.133354
11.420043199518153	4.475476	2.115532
11.437657480066942	63.39714	7.962232
11.455272031768422	85.13082	9.226637
11.472886855051353	107.53128	10.369729
11.490501950344528	99.1414	9.956978
11.508117318076819	84.45092	9.189718
11.52573295867715	45.851982	6.771409
11.543348872574514	4.1393547	2.0345404
11.560965060197946	4.0650826	2.016205
11.57858152197655	4.06342	2.0157926
11.59619825833949	4.052417	2.0130615
11.613815269715985	4.052153	2.012996
11.631432556535323	38.560944	6.209746
11.649050119226837	83.05725	9.113575
11.666667958219929	93.478264	9.668416
11.68428607394406	107.714485	10.378559
11.701904466828756	82.49286	9.082558
11.719523137303586	65.363266	8.084755
11.737142085798196	4.616645	2.148638
11.754761312742286	3.7654185	1.9404687
11.772380818565619	3.6925619	1.921604
11.790000603698015	3.6387222	1.9075435
11.80762066856935	3.5691595	1.8892219
11.825241013609572	3.5507867	1.8843532
11.842861639248683	3.510847	1.8737254
11.860482545916748	3.4807048	1.8656647
11.878103734043883	3.4384422	1.8543037
11.895725204060282	3.42489	1.8506459
11.91334695639619	3.3958995	1.8427967
11.930968991481919	3.320709	1.8222812
11.948591309747824	3.28524	1.8125231
11.966213911624347	3.289327	1.8136501
11.98383679754198	3.3267205	1.8239299
12.001459967931268	3.305054	1.8179808
12.019083423222835	3.250478	1.8029082
12.036707163847352	3.2146275	1.7929382
12.05433119023556	3.1932967	1.7869798
12.071955502818259	3.17147	1.7808621
12.089580102026313	3.1333191	1.7701184
12.107204988290643	3.1140933	1.7646794
12.12483016204224	3.081018	1.7552829
12.142455623712152	3.1044338	1.7619404
12.16008137373149	3.069393	1.7519683
12.177707412531431	3.0601637	1.7493324
12.19533374054321	3.0698442	1.7520971
12.212960358198126	3.0897155	1.7577586
12.230587265927545	3.1229155	1.7671772
12.248214464162889	3.1074154	1.7627863
12.265841953335649	3.1070685	1.7626879
12.283469733877375	3.0849524	1.7564032
12.301097806219685	3.0555162	1.7480035
12.31872617079425	3.003389	1.7330288
12.336354828032825	2.9692745	1.7231582
12.353983778367205	2.9181542	1.7082605
12.371613022229262	2.898355	1.7024556
12.389242560050928	2.8564963	1.6901172
12.406872392264201	2.853942	1.6893613
12.424502519301143	2.8328156	1.683097
12.442132941593874	2.8694987	1.6939595
12.459763659574586	2.8711796	1.6944555
12.477394673675532	2.8830433	1.6979526
12.49502598432903	2.856214	1.6900338
12.51265759196746	2.821128	1.6796213
12.530289497023267	2.7916012	1.6708086
12.547921699928967	2.807806	1.675651
12.565554201117134	2.810738	1.6765256
12.583187001020404	2.8238778	1.6804397
12.600820100071486	2.7795944	1.6672115
12.618453498703152	2.743313	1.656295
12.636087197348235	2.7301052	1.652303
12.65372119643964	2.7654214	1.6629556
12.671355496410326	2.7815714	1.6678044
12.68899009769333	2.7985616	1.6728902
12.706625000721749	2.8465087	1.68716
12.724260205928752	2.9044576	1.7042469
12.741895713747551	2.9490345	1.7172753
12.759531524611454	2.9445693	1.7159748
12.777167638953818	2.935851	1.7134326
12.794804057208072	2.965491	1.7220601
12.812440779807702	3.0019412	1.7326111
12.830077807186271	3.159962	1.7776282
12.847715139777405	3.1843126	1.7844642
12.865352778014795	3.4155257	1.8481141
12.882990722332197	3.564011	1.8878589
12.90062897316344	3.6884277	1.9205279
12.918267530942412	3.7868347	1.9459791
12.935906396103071	3.6570616	1.9123446
12.953545569079449	3.7800107	1.944225
12.971185050305628	3.5643725	1.8879546
12.988824840215775	3.5776556	1.8914691
13.006464939244115	3.5782456	1.8916252
13.024105347824943	3.4156375	1.8481443
13.041746066392617	3.5133245	1.8743864
13.05938709538157	3.3469877	1.8294774
13.077028435226296	3.3995056	1.8437748
13.094670086361363	3.2941992	1.8149929
13.112312049221401	3.1728966	1.7812626
13.129954324241112	3.0780754	1.7544445
13.147596911855258	2.9027524	1.7037466
13.165239812498685	2.875757	1.6958057
13.182883026606293	2.796442	1.6722566
13.200526554613058	2.714038	1.6474338
13.218170396954017	2.669528	1.633869
13.235814554064284	2.6494029	1.6276987
13.253459026379034	2.6534832	1.6289515
13.271103814333523	2.632326	1.6224444
13.288748918363058	2.638589	1.6243734
13.306394338903031	2.6867452	1.6391294
13.32404007638889	2.6791606	1.6368141
13.341686131256164	2.67338	1.6350473
13.359332503940449	2.6243205	1.6199754
13.376979194877402	2.6149037	1.6170664
13.394626204502751	2.677289	1.6362424
13.412273533252307	2.718793	1.6488763
13.429921181561937	2.7271745	1.651416
13.447569149867581	2.7324183	1.6530029
13.465217438605247	2.7187703	1.6488694
13.482866048211022	2.708125	1.6456382
13.500514979121052	2.722688	1.650057
13.518164231771568	2.6976013	1.6424376
13.535813806598844	2.6909957	1.6404254
13.553463704039254	2.657462	1.6301724
13.571113924529229	2.6543639	1.6292219
13.588764468505275	2.6548066	1.6293577
13.606415336403956	2.6931791	1.6410909
13.624066528661917	2.7195332	1.6491008
13.641718045715882	2.7675107	1.6635836
13.659369888002635	2.8144429	1.6776302
13.67702205595903	2.8777592	1.696396
13.694674550021993	2.954009	1.718723
13.712327370628532	3.030039	1.7407007
13.729980518215713	3.1244402	1.7676086
13.747633993220681	3.211528	1.7920737
13.765287796080647	3.2199726	1.7944282
13.7829419272329	3.2491276	1.8025336
13.800596387114801	3.2336638	1.7982391
13.818251176163775	3.2741654	1.8094655
13.835906294817324	3.3643568	1.8342183
13.853561743513023	3.443998	1.8558012
13.871217522688525	3.5013447	1.871188
13.888873632781538	3.51078	1.8737075
13.906530074229858	3.5224907	1.87683
13.92418684747135	3.4936562	1.8691325
13.941843952943948	3.4874296	1.8674661
13.959501391085665	3.4710834	1.8630844
13.977159162334578	3.438648	1.8543591
13.994817267128846	3.392439	1.8418574
14.012475705906693	3.2213852	1.7948217
14.030134479106424	3.155968	1.7765044
14.047793587166414	3.118105	1.7658156
14.065453030525108	3.105518	1.762248
14.083112809621026	3.0063865	1.7338935
14.100772924892766	2.9184692	1.7083528
14.118433376778997	2.8546517	1.6895715
14.136094165718458	2.7857692	1.6690624
14.153755292149969	2.7179856	1.6486315
14.171416756512416	2.680535	1.637234
14.189078559244768	2.6380599	1.6242105
14.20674070078606	2.602249	1.6131488
14.224403181575408	2.5380125	1.5931141
14.242066002051999	2.4626567	1.5692854
14.259729162655093	2.4228256	1.5565429
14.277392663824022	2.4222612	1.5563616
14.295056505998208	2.4204497	1.5557795
14.312720689617128	2.3923507	1.5467225
14.330385215120348	2.414546	1.5538809
14.348050082947497	2.432692	1.559709
14.3657152935383	2.387892	1.5452806
14.383380847332528	2.3586345	1.5357846
14.401046744770051	2.35111	1.533333
14.418712986290798	2.3749018	1.5410717
14.436379572334793	2.3930745	1.5469565
14.454046503342123	2.402243	1.5499171
14.471713779752946	2.4267874	1.557815
14.489381402007504	2.4182653	1.5550773
14.507049370546113	2.3877912	1.5452479
14.524717685809168	2.3907847	1.5462162
14.542386348237134	2.3886106	1.545513
14.560055358270553	2.3916438	1.546494
14.577724716350051	2.4097507	1.5523372
14.595394422916325	2.4149954	1.5540255
14.61306447841015	2.4789255	1.5744604
14.63073488327237	2.4662907	1.5704428
14.648405637943917	2.4890807	1.577682
14.6660767428658	2.4463134	1.5640695
14.683748198479094	2.5206935	1.5876693
14.701420005224954	2.5654604	1.6017054
14.719092163544628	2.6121411	1.616212
14.73676467387942	2.6444495	1.6261764
14.754437536670727	2.677276	1.6362383
14.772110752360014	2.7037802	1.6443175
14.78978432138882	2.6961374	1.6419919
14.807458244198777	2.690621	1.6403112
14.82513252123159	2.6736975	1.6351445
14.842807152929028	2.6902084	1.6401855
14.860482139732962	2.679454	1.6369038
14.87815748208531	2.6471348	1.6270018
14.8958331804281	2.6215906	1.6191326
14.91350923520342	2.604635	1.6138881
14.931185646853438	2.6640174	1.6321818
14.948862415820408	2.6461053	1.6266854
14.966539542546656	2.6514084	1.6283146
14.98421702747459	2.626139	1.6205366
15.001894871046696	2.6708722	1.6342803
15.019573073705542	2.7270064	1.651365
15.037251635893766	2.715239	1.6477983
15.054930558054092	2.7305672	1.6524428
15.072609840629323	2.768777	1.6639642
15.090289484062351	2.8947105	1.7013849
15.107969488796124	3.1795714	1.7831353
15.125649855273691	3.5532286	1.885001
15.14333058393817	4.06751	2.0168068
15.161011675232768	5.0167627	2.239813
15.17869312960076	6.369191	2.5237257
15.196374947485506	8.141917	2.8534045
15.214057129330447	11.180566	3.3437352
15.231739675579114	15.925257	3.9906461
15.249422586675102	21.032482	4.586118
15.267105863062092	24.25122	4.924553
15.284789505183847	24.5363	4.953413
15.302473513484218	22.57324	4.7511306
15.320157888407127	19.039545	4.363433
15.337842630396578	14.863552	3.8553278
15.355527739896656	11.537926	3.396752
15.37321321735153	8.892286	2.9819937
15.39089906320545	6.470783	2.5437734
15.408585277902748	4.852098	2.2027478
15.42627186188783	3.6967165	1.9226847
15.443958815605198	3.1290853	1.7689221
15.461646139499424	2.8612785	1.6915314
15.479333834015168	2.7490256	1.6580186
15.497021899597165	2.709482	1.6460505
15.514710336690234	2.6575954	1.6302133
15.53239914573928	2.6127393	1.616397
15.550088327189297	2.573906	1.6043397
15.567777881485336	2.5789855	1.605922
15.58546780907256	2.5258112	1.5892801
15.6031581103962	2.4892912	1.5777488
15.620848785901568	2.4272373	1.5579593
15.638539836034063	2.428425	1.5583404
15.656231261239173	2.4298124	1.5587856
15.673923061962451	2.4249656	1.5572301
15.691615238649552	2.423227	1.5566717
15.709307791746202	2.4214473	1.5561
15.727000721698221	2.4116538	1.55295
15.744694028951498	2.3735244	1.5406247
15.76238771395202	2.3667266	1.538417
15.780081777145844	2.3846693	1.5442375
15.797776218979125	2.3716547	1.5400177
15.815471039898094	2.3684835	1.5389879
15.833166240349064	2.3909419	1.546267
15.850861820778437	2.4229007	1.556567
15.868557781632699	2.4189296	1.5552908
15.886254123358412	2.408847	1.5520461
15.903950846402232	2.3990543	1.5488881
15.921647951210897	2.421241	1.5560337
15.939345438231225	2.4338548	1.5600817
15.957043307910133	2.3928485	1.5468835
15.974741560694602	2.3519447	1.5336051
15.992440197031714	2.3392012	1.5294447
16.01013921736862	2.3515787	1.5334858
16.02783862215259	2.3497891	1.5329022
16.045538411830933	2.3574371	1.5353948
16.06323858685107	2.3995278	1.5490409
16.080939147660512	2.4282186	1.5582743
16.09864009470684	2.4345639	1.5603089
16.11634142843774	2.4503057	1.5653453
16.134043149300954	2.4333534	1.559921
16.15174525774433	2.4173725	1.5547901
16.169447754215817	2.424213	1.5569884
16.18715063916342	2.4386876	1.5616298
16.204853913035244	2.4417222	1.5626011
16.222557576279478	2.4353971	1.560576
16.240261629344403	22.43421	4.7364764
16.257966072678386	42.996994	6.5572095
16.275670906729868	38.123405	6.1744156
16.293376131947387	2.567751	1.6024203
16.31108174877957	2.5519257	1.5974748
16.328787757675133	2.5349195	1.592143
16.34649415908287	2.5367148	1.5927068
16.364200953451657	2.583276	1.6072572
16.38190814123048	2.6366792	1.6237855
16.39961572286839	2.6686385	1.6335968
16.41732369881455	2.6949625	1.6416341
16.43503206951817	2.6919239	1.6407083
16.45274083542859	2.7581894	1.6607797
16.47044999699522	2.8317785	1.682789
16.488159554667558	2.8780913	1.6964939
16.505869508895184	2.9085953	1.7054604
16.523579860127786	2.9302583	1.7117997
16.541290608815117	2.9395623	1.7145152
16.559001755407035	2.9752977	1.7249051
16.57671330035348	3.0332537	1.7416239
16.59442524410448	3.1120737	1.764107
16.61213758711015	3.1756587	1.7820379
16.629850329820705	3.2417564	1.8004879
16.647563472686436	3.296167	1.8155348
16.665277016157724	3.3416374	1.8280146
16.682990960685053	3.361253	1.833372
16.70070530671898	3.4088674	1.8463118
16.718420054710155	3.4771824	1.8647205
16.736135205109335	3.5760977	1.8910573
16.753850758367335	3.646942	1.9096968
16.771566714935087	3.669155	1.9155039
16.789283075263597	3.693775	1.9219196
16.80699983980398	3.7503133	1.9365726
16.82471700900741	3.8259149	1.9559946
16.84243458332518	3.8947282	1.9735066
16.860152563208665	3.9494941	1.9873334
16.87787094910932	4.027083	2.0067594
16.89558974147871	4.154204	2.0381863
16.913308940768466	4.2331553	2.0574634
16.931028547430333	4.278264	2.0683966
16.94874856191613	4.2982264	2.0732164
16.966468984677785	4.314798	2.0772092
16.98418981616729	4.3529067	2.0863621
17.00191105683676	4.421608	2.102762
17.019632707138374	4.4668274	2.113487
17.03735476752442	4.478884	2.1163375
17.05507723844728	4.460343	2.1119523
17.072800120359403	4.4800496	2.1166127
17.090523413713353	4.549537	2.1329644
17.108247118961785	4.608049	2.1466367
17.125971236557437	4.646143	2.1554914
17.143695766953133	4.6591287	2.1585014
17.161420710601806	4.6717033	2.1614122
17.179146067956477	4.6558533	2.1577427
17.19687183947025	4.61478	2.1482038
17.21459802559634	4.640841	2.154261
17.232324626788028	4.637194	2.1534145
17.25005164349871	4.6241336	2.15038
17.267779076181863	4.621524	2.149773
17.285506925291074	4.6058617	2.1461272
17.30323519127999	4.600658	2.1449144
17.320963874602384	4.5712333	2.1380444
17.33869297571211	4.566858	2.1370208
17.356422495063114	4.5443196	2.131741
17.37415243310944	4.5218983	2.1264756
17.391882790305218	4.4850135	2.117785
17.40961356710468	4.5073204	2.123045
17.42734476396215	4.5413175	2.1310368
17.445076381332044	4.569548	2.1376503
17.462808419668868	4.6180964	2.1489756
17.48054087942723	4.7407413	2.1773243
17.498273761061835	5.0336537	2.2435806
17.51600706502747	5.520297	2.3495312
17.533740791779024	6.2008677	2.490154
17.551474941771485	7.555058	2.7486465
17.56920951545993	8.655197	2.9419715
17.586944513299528	10.894338	3.3006573
17.60467993574556	12.591998	3.5485206
17.622415783253373	14.396798	3.7943113
17.64015205627843	15.855656	3.9819162
17.657888755276293	16.982471	4.1209793
17.675625880702604	17.458715	4.178363
17.69336343301311	17.243029	4.1524725
17.71110141266366	16.357935	4.0444946
17.728839820110178	15.411968	3.925808
17.746578655808705	14.410829	3.7961597
17.764317920215372	12.822095	3.5807953
17.7820576137864	11.259893	3.3555765
17.79979773697811	9.26519	3.0438774
17.81753829024692	7.420645	2.724086
17.835279274049356	5.8266068	2.4138365
17.85302068884201	4.8468733	2.2015615
17.870762535081607	4.238672	2.0588036
17.888504813224934	3.9249103	1.9811386
17.90624752372891	3.6885767	1.9205668
17.923990667050536	3.6248024	1.9038913
17.941734243646895	3.543648	1.882458
17.959478253975185	3.5528169	1.8848917
17.9772226984927	3.4764152	1.8645147
17.994967577656833	3.4272435	1.8512815
18.01271289192506	3.369552	1.8356339
18.030458641754965	3.3312788	1.8251791
18.04820482760425	3.3200812	1.822109
18.06595144993067	3.298368	1.816141
18.083698509192125	3.3074298	1.818634
18.101446005846576	3.273223	1.809205
18.119193940352105	3.274613	1.8095891
18.136942313166887	3.2792432	1.8108681
18.1546911247492	3.2417035	1.8004731
18.1724403755574	3.1980243	1.7883021
18.19019006604997	3.145907	1.7736704
18.207940196685467	3.1268368	1.7682863
18.225690767922575	3.0907192	1.7580441
18.243441780220046	3.0438106	1.744652
18.261193234036764	3.0435462	1.7445762
18.278945129831676	3.05214	1.7470375
18.29669746806386	3.062412	1.7499748
18.314450249192483	3.0626483	1.7500423
18.3322034736768	3.0925162	1.7585552
18.349957141976184	3.0658958	1.75097
18.3677112545501	3.070251	1.7522131
18.385465811858108	3.0360937	1.742439
18.403220814359884	3.0357745	1.7423474
18.420976262515172	3.0723145	1.7528019
18.43873215678387	3.1231773	1.7672514
18.456488497625923	3.1642714	1.77884
18.474245285501407	3.2381806	1.7994945
18.492002520870486	3.2663717	1.8073106
18.50976020419343	3.318651	1.8217165
18.527518335930615	3.5888572	1.8944279
18.545276916542516	4.210795	2.0520222
18.563035946489688	4.3708816	2.0906653
18.580795426232832	4.7998943	2.1908662
18.598555356232698	4.714794	2.1713576
18.616315736950185	5.038323	2.2446208
18.63407656884626	4.727787	2.1743474
18.65183785238201	4.879358	2.208927
18.669599588018617	4.67256	2.1616106
18.68736177621737	4.6502695	2.1564484
18.705124417439652	4.592257	2.1429553
18.72288751214696	4.3916736	2.095632
18.740651060800886	4.561922	2.1358657
18.758415063863115	4.2958612	2.072646
18.77617952179546	4.472848	2.1149108
18.793944435059814	4.1905913	2.0470934
18.811709804118184	4.1937265	2.047859
18.829475629432675	4.160414	2.0397093
18.8472419114655	4.022457	2.0056064
18.86500865067897	4.125399	2.031108
18.88277584753551	3.7338557	1.9323187
18.90054350249763	3.719335	1.9285578
18.918311616027957	3.4138427	1.8476588
18.936080188589226	3.3462877	1.8292861
18.953849220644265	3.0951366	1.7593
18.971618712656007	2.9634738	1.7214743
18.9893886650875	2.8855305	1.6986849
19.007159078401887	8.042578	2.835944
19.024929953062408	32.915657	5.737217
19.042701289532435	32.83445	5.7301354
19.060473088275405	25.368015	5.036667
19.07824534975489	2.650763	1.6281164
19.096018074434568	2.6155896	1.6172785
19.113791262778197	2.5797918	1.606173
19.13156491524966	2.5625443	1.6007949
19.149339032312945	2.5586429	1.5995759
19.167113614432136	2.5187495	1.5870569
19.184888662071433	2.5173144	1.5866047
19.202664175695123	2.4963324	1.5799786
19.220440155767623	2.5288296	1.5902294
19.238216602753447	2.5529995	1.5978109
19.2559935171172	2.5518622	1.5974549
19.27377089932361	2.536624	1.5926782
19.291548749837514	2.5130239	1.5852519
19.309327069123835	2.4930856	1.5789508
19.32710585764763	2.47567	1.5734262
19.344885115874032	2.5078557	1.583621
19.362664844268313	2.5293832	1.5904034
19.380445043295822	2.525612	1.5892174
19.39822571342203	2.5239444	1.5886927
19.41600685511252	2.5010872	1.5814826
19.43378846883297	2.5201278	1.587491
19.451570555049173	2.5087295	1.5838969
19.469353114227037	2.5037022	1.5823091
19.48713614683254	2.4723914	1.572384
19.50491965333182	2.458271	1.5678874
19.52270363419109	2.4413528	1.562483
19.540488089876686	2.4399114	1.5620216
19.55827302085503	2.430682	1.5590644
19.576058427592674	2.4356525	1.5606577
19.593844310556282	2.4910815	1.578316
19.611630670212598	2.4956207	1.5797534
19.629417507028506	2.5050142	1.5827236
19.64720482147098	2.4855814	1.5765727
19.6649926140071	2.4409442	1.5623522
19.682780885104084	2.4339905	1.5601251
19.70056963522921	2.4413247	1.5624739
19.718358864849908	2.4615545	1.5689342
19.7361485744337	2.4765031	1.5736909
19.753938764448215	2.5140996	1.5855912
19.771729435361202	2.5401547	1.5937862
19.789520587640506	2.4993885	1.5809454
19.807312221754092	2.496743	1.5801085
19.825104338170043	2.4911335	1.5783325
19.842896937356517	2.485821	1.5766487
19.860690019781824	2.5085635	1.5838445
19.87848358591436	2.5397727	1.5936664
19.896277636222635	2.5521996	1.5975605
19.914072171175278	2.515903	1.5861598
19.931867191241015	2.4569128	1.5674542
19.94966269688869	2.461348	1.5688684
19.967458688587264	2.4966128	1.5800673
19.985255166805807	2.4780161	1.5741715
20.00305213201348	2.4802582	1.5748836
20.020849584679578	2.4405394	1.5622226
20.038647525273507	2.404492	1.5506424
20.05644595426477	2.3813477	1.5431616
20.07424487212299	2.4141195	1.5537437
20.092044279317903	2.4141688	1.5537596
20.109844176319353	2.432116	1.5595243
20.127644563597304	2.431231	1.5592406
20.145445441621817	2.4584622	1.5679485
20.16324681086307	2.4274008	1.5580118
20.181048671791373	2.4002311	1.5492679
20.198851024877122	2.402033	1.5498494
20.216653870590836	2.429105	1.5585587
20.234457209403146	2.3990264	1.548879
20.252261041784802	2.3616896	1.5367789
20.270065368206662	2.3330743	1.5274404
20.287870189139685	2.3549826	1.5345953
20.305675505054968	2.3778229	1.5420191
20.323481316423702	2.3540118	1.5342789
20.341287623717207	2.3223166	1.5239149
20.359094427406884	2.3181508	1.5225475
20.376901727964288	2.3038595	1.517847
20.39470952586107	2.3088784	1.5194994
20.41251782156899	2.3147933	1.5214444
20.430326615559935	2.3402283	1.5297805
20.448135908305886	2.351286	1.5333903
20.465945700278965	2.3158753	1.5218
20.483755991951384	2.313354	1.5209714
20.50156678379548	2.3067863	1.5188109
20.519378076283708	2.303434	1.5177068
20.537189869888635	2.315325	1.5216192
20.55500216508294	2.3540893	1.5343041
20.572814962339415	2.3662632	1.5382663
20.59062826213098	2.3306947	1.5266613
20.60844206493066	2.2913787	1.51373
20.626256371211593	2.303926	1.5178689
20.644071181447032	2.285531	1.5117973
20.66188649611036	2.3000176	1.5165809
20.67970231567506	2.3141854	1.5212446
20.697518640614742	2.313347	1.5209692
20.715335471403122	2.2681692	1.5060443
20.73315280851404	2.2512276	1.5004091
20.750970652421447	2.2770658	1.5089949
20.768789003599412	2.2915225	1.5137776
20.786607862522136	2.2921367	1.5139804
20.8044272296639	2.2717674	1.5072383
20.82224710549913	2.2830656	1.5109817
20.84006749050237	2.2985241	1.5160885
20.857888385148268	3.8888516	1.9720172
20.8757097899116	45.950977	6.778715
20.893531705267254	64.78066	8.048643
20.911354131690224	83.7925	9.153825
20.92917706965566	69.07348	8.311046
20.94700051963877	50.14597	7.081382
20.96482448211493	29.421383	5.424148
20.982648957559622	4.1403656	2.0347888
21.00047394644843	2.227412	1.4924517
21.01829944925707	2.2214785	1.4904625
21.036125466461375	2.2468262	1.4989417
21.053951998537297	2.2673473	1.5057714
21.071779045960906	2.2640615	1.5046798
21.089606609208378	2.2532017	1.5010668
21.10743468875603	2.262862	1.5042812
21.12526328508028	2.2598546	1.5032812
21.143092398657675	2.2726471	1.5075301
21.16092202996488	2.2427843	1.4975928
21.17875217947867	2.2063568	1.485381
21.19658284767596	2.1812031	1.4768897
21.21441403503377	2.1973586	1.482349
21.232245742029225	2.2144828	1.4881139
21.2500779691396	2.197939	1.4825448
21.26791071684227	2.17868	1.4760352
21.28574398561475	2.1538434	1.4675978
21.30357777593465	2.133316	1.4605876
21.321412088279704	2.167396	1.4722079
21.339246923127792	2.2127602	1.487535
21.357082280956888	2.20502	1.484931
21.3749181622451	2.1631298	1.4707582
21.392754567470647	2.1517074	1.46687
21.41059149711187	2.121746	1.4566214
21.42842895164726	2.1268997	1.4583894
21.446266931555378	2.1371243	1.4618907
21.464105437314945	2.1485603	1.4657968
21.481944469404798	2.1143427	1.454078
21.49978402830388	2.086752	1.4445595
21.51762411449127	2.0734982	1.4399647
21.53546472844617	2.0987093	1.4486923
21.553305870647876	2.1065686	1.4514023
21.571147541575865	2.0847375	1.4438621
21.58898974170967	2.0810196	1.4425739
21.60683247152899	2.0781798	1.4415894
21.62467573151363	2.0613813	1.4357512
21.642519522143523	2.071862	1.4393964
21.660363843898722	2.0852027	1.4440231
21.6782086972594	2.0824838	1.4430814
21.696054082705864	2.050891	1.4320931
21.713900000718535	2.041082	1.4286643
21.73174645177795	2.0302587	1.4248714
21.749593436364794	2.013754	1.419068
21.767440954959845	2.0088425	1.4173363
21.785289008044032	2.0159614	1.4198456
21.803137596098388	2.004454	1.4157873
21.820986719604086	2.0180779	1.4205906
21.838836379042412	2.0429235	1.4293088
21.85668657489478	2.0488129	1.4313675
21.87453730764273	2.045586	1.4302399
21.892388577767914	2.0453022	1.4301406
21.91024038575213	2.014501	1.4193312
21.928092732077285	1.9820473	1.407852
21.945945617225426	1.9649382	1.4017625
21.963799041678694	1.9588379	1.3995849
21.981653005919398	31.285748	5.5933666
21.999507510429943	78.09217	8.836977
22.01736255569286	73.05477	8.547209
22.035218142190818	4.127938	2.0317328
22.05307427040661	1.9726311	1.4045038
22.07093094082315	1.9970883	1.4131838
22.088788153923474	1.9845059	1.4087249
22.106645910190746	1.9308593	1.3895537
22.12450421010827	1.9094347	1.381823
22.142363054159464	1.9232714	1.3868207
22.16022244282787	1.9412881	1.3933011
22.178082376597164	1.9670416	1.4025126
22.195942855951145	1.958761	1.3995575
22.213803881373742	1.9558555	1.398519
22.231665453349002	1.9715064	1.4041034
22.24952757236111	1.9556344	1.39844
22.26739023889438	1.9504788	1.3965955
22.28525345343323	1.96928	1.4033104
22.30311721646225	2.0000513	1.4142317
22.320981528466113	1.9873573	1.4097366
22.33884638992964	1.9461197	1.395034
22.356711801337788	1.8953431	1.3767146
22.37457776317561	1.9235425	1.3869183
22.392444275928337	1.9486251	1.3959316
22.410311340081282	1.9543097	1.3979663
22.428178956119904	1.9388793	1.3924364
22.446047124529805	1.9534397	1.3976551
22.46391584579669	1.9846362	1.4087712
22.481785120406414	1.941225	1.3932785
22.49965494884496	1.9399021	1.3928037
22.51752533159841	1.9253759	1.3875792
22.53539626915302	1.9726545	1.4045122
22.553267761995137	1.958443	1.3994439
22.571139810611264	1.9460386	1.3950049
22.589012415488025	1.9420295	1.3935672
22.60688557711216	1.9666065	1.4023575
22.624759295970566	2.0028772	1.4152305
22.642633572550263	1.99519	1.412512
22.660508407338362	1.9595063	1.3998237
22.67838380082217	1.9159653	1.384184
22.696259753489077	1.9029671	1.3794807
22.714136265826614	1.9172162	1.3846358
22.73201333832246	1.936353	1.391529
22.74989097146439	1.9460868	1.3950222
22.76776916574035	1.9320413	1.3899789
22.785647921638393	1.9387391	1.3923861
22.803527239646712	1.9430252	1.3939244
22.82140712025363	1.9272859	1.3882673
22.839287563947593	1.9021721	1.3791926
22.85716857121719	1.893289	1.3759683
22.875050142551135	1.8997287	1.3783064
22.892932278438277	1.8949714	1.3765796
22.910814979367604	1.9068234	1.3808777
22.928698245828222	1.9027598	1.3794056
22.946582078309387	1.8796334	1.3709972
22.96446647730047	1.8875341	1.3738756
22.98235144329098	1.9058112	1.3805112
23.000236976770562	1.9292734	1.3889829
23.018123078229	1.9253445	1.3875679
23.03600974815619	1.9272444	1.3882523
23.053896987042194	1.9382368	1.3922057
23.071784795377173	1.9242182	1.387162
23.08967317365145	1.904815	1.3801503
23.10756212235546	1.8744956	1.3691223
23.125451641979787	1.8881946	1.374116
23.143341733015134	1.9087807	1.3815863
23.161232395952357	1.9238045	1.3870128
23.179123631282426	1.9199206	1.385612
23.197015439496468	1.8903356	1.3748947
23.214907821085717	1.9229153	1.3866923
23.23280077654157	1.9785212	1.4065992
23.250694306355538	2.0360622	1.4269066
23.268588411019277	1.9995261	1.414046
23.28648309102458	1.9598172	1.3999346
23.304378346863356	1.9322437	1.3900517
23.322274179027676	1.9369843	1.3917558
23.340170588009723	1.9423727	1.3936903
23.358067574301852	1.9226582	1.3865995
23.37596513839651	1.9055318	1.38041
23.39386328078629	1.9209799	1.3859942
23.411762001963947	1.9180923	1.3849521
23.429661302422353	1.887382	1.3738202
23.4475611826545	1.9061712	1.3806416
23.46546164315356	1.9239149	1.3870527
23.48336268441279	1.9162	1.3842688
23.501264306925638	1.910309	1.3821393
23.51916651118564	1.8998581	1.3783534
23.537069297686497	1.9038571	1.3798033
23.554972666922037	1.8989639	1.378029
23.57287661938623	1.892724	1.375763
23.59078115557318	1.8870608	1.3737034
23.608686275977128	1.8992655	1.3781384
23.62659198109246	1.8946255	1.376454
23.6444982714137	1.9061831	1.3806459
23.66240514743549	1.9436784	1.3941587
23.68031260965263	1.9967767	1.4130735
23.698220658560068	1.9496999	1.3963165
23.716129294652845	1.8964103	1.3771021
23.7340385184262	1.885328	1.3730725
23.75194833037546	1.8748336	1.3692456
23.769858730996123	1.8663098	1.3661295
23.78776972078382	1.8771887	1.3701054
23.80568130023431	1.9120083	1.3827538
23.823593469843495	1.9350343	1.3910551
23.841506230107424	1.9448972	1.3945957
23.859419581522275	1.8587714	1.3633677
23.87733352458438	1.8136849	1.3467312
23.89524805979019	1.8493241	1.3598986
23.913163187636318	1.9086168	1.381527
23.931078908619508	1.9148464	1.3837798
23.948995223236633	1.956557	1.3987699
23.966912131984735	1.9734675	1.4048016
23.98482963536096	2.012753	1.4187152
24.002747733862616	1.9850662	1.4089237
24.020666427987155	2.0107176	1.4179977
24.038585718232156	2.048202	1.4311541
24.056505605095353	2.078645	1.4417506
24.074426089074617	2.0684643	1.4382156
24.092347170667946	2.035872	1.4268398
24.110268850373515	2.0167897	1.4201372
24.128191128689586	2.0216146	1.421835
24.146114006114626	2.0130665	1.4188257
24.164037483147187	2.0095248	1.4175771
24.181961560286005	2.0403626	1.4284126
24.199886238029926	2.0435874	1.429541
24.21781151687797	2.0662549	1.4374473
24.235737397329274	2.0546572	1.4334075
24.253663879883135	2.0311878	1.4251975
24.271590965038975	2.034983	1.4265283
24.289518653296376	2.0019689	1.4149095
24.30744694515505	2.0119884	1.4184458
24.32537584111486	1.9989793	1.4138527
24.34330534167581	2.0005605	1.4144117
24.361235447338046	2.005074	1.4160063
24.379166158601876	1.9993932	1.413999
24.39709747596772	1.990199	1.4107441
24.41502939993615	1.9803247	1.4072402
24.432961931007917	1.955344	1.3983362
24.450895069683856	1.9451737	1.3946948
24.468828816465	1.9144013	1.383619
24.4867631718525	1.9212791	1.3861021
24.504698136347656	1.9630606	1.4010926
24.52263371045192	2.0019455	1.4149013
24.540569894666874	1.9946215	1.4123107
24.558506689494266	1.973215	1.4047117
24.57644409543597	1.9578698	1.399239
24.594382112994012	1.9701332	1.4036143
24.61232074267057	1.9102362	1.382113
24.630259984967953	1.8848122	1.3728846
24.64819984038863	1.9113576	1.3825185
24.66614030943522	1.9470944	1.3953832
24.684081392610462	1.9242662	1.3871793
24.702023090417274	1.9458829	1.3949491
24.7199654033587	2.0014174	1.4147146
24.737908331937927	2.0064385	1.416488
24.755851876658305	2.0445864	1.4298904
24.773796038023324	2.0595088	1.4350989
24.79174081653661	2.0830383	1.4432734
24.809686212701962	2.1038055	1.4504501
24.827632227023294	2.1295443	1.4592957
24.8455788600047	2.1072805	1.4516475
24.8635261121504	2.093726	1.4469713
24.88147398396475	2.0542686	1.433272
24.899422475952303	2.0568638	1.434177
24.917371588617698	2.057141	1.4342737
24.935321322465768	2.1432097	1.4639705
24.953271678001478	2.281175	1.5103558
24.97122265572994	2.519247	1.5872136
24.989174256156414	2.848163	1.6876501
25.00712647978632	3.2775357	1.8103966
25.02507932712521	3.813454	1.9528067
25.043032798678798	4.370116	2.0904822
25.060986894952933	5.080309	2.2539542
25.078941616453637	5.8752384	2.4238892
25.096896963687055	6.8304296	2.613509
25.114852937159508	7.884313	2.8079019
25.132809537377444	8.302186	2.8813515
25.150766764847468	8.299192	2.880832
25.168724620076347	7.72091	2.7786527
25.186683103570985	6.6825314	2.5850592
25.204642215838426	5.5557537	2.3570647
25.222601957385894	4.2974844	2.0730374
25.24056232872074	3.282631	1.8118032
25.25852333035048	2.7078876	1.6455661
25.276484962782778	2.3229632	1.524127
25.294447226525435	2.1339211	1.4607947
25.312410122086423	2.039783	1.4282097
25.330373649973843	1.966579	1.4023477
25.348337810695988	1.9122615	1.3828454
25.366302604761245	1.8812113	1.3715726
25.384268032678207	1.9016827	1.3790151
25.40223409495558	1.9373548	1.391889
25.420200792102257	1.9670045	1.4024994
25.438168124627246	1.904597	1.3800714
25.45613609303974	1.8636836	1.365168
25.474104697849057	1.8579956	1.3630831
25.492073939564698	1.8681313	1.366796
25.510043818696285	1.8455058	1.3584939
25.528014335753614	1.8503191	1.3602644
25.54598549124664	1.8988843	1.3780001
25.56395728568544	1.9277825	1.3884461
25.58192971958028	1.8875489	1.373881
25.59990279344156	1.8567091	1.3626112
25.617876507779833	1.8276416	1.351903
25.635850863105826	1.8030367	1.342772
25.653825859930386	1.7933478	1.3391594
25.671801498764548	1.8172646	1.3480595
25.68977778011949	1.8680396	1.3667624
25.707754704506524	1.8499742	1.3601376
25.725732272437153	1.8189617	1.3486888
25.743710484423012	1.767907	1.3296267
25.761689340975888	1.7731006	1.3315783
25.77966884260774	1.8097264	1.3452607
25.797648989830662	1.8320415	1.3535293
25.815629783156922	1.8791398	1.3708172
25.83361122309895	1.8542488	1.361708
25.85159331016929	1.8378803	1.3556844
25.869576044880695	1.8164775	1.3477676
25.887559427746034	1.8385264	1.3559227
25.90554345927836	1.7908584	1.3382295
25.92352813999086	1.7571884	1.3255899
25.94151347039689	1.7734135	1.3316958
25.959499451009965	1.8713313	1.3679662
25.97748608234374	1.9136924	1.3833627
25.995473364912062	1.8741496	1.3689958
26.013461299228904	1.8093628	1.3451256
26.03144988580839	1.7897046	1.3377984
26.04943912516483	1.7934474	1.3391966
26.067429017812675	1.7931657	1.3390914
26.085419564266537	1.8153819	1.3473611
26.103410765041186	1.7800723	1.3341935
26.12140262065155	1.7768623	1.3329899
26.139395131612723	1.7768387	1.3329811
26.157388298439948	1.7994195	1.3414245
26.17538212164861	1.8113672	1.3458704
26.193376601754295	1.8104708	1.3455374
26.211371739272714	1.808677	1.3448706
26.229367534719746	1.8575448	1.3629178
26.247363988611433	1.8339269	1.3542256
26.26536110146397	1.7541287	1.3244352
26.283358873793727	1.741924	1.3198197
26.301357306117204	1.7856401	1.3362784
26.319356398951104	1.8234186	1.3503401
26.33735615281224	1.8130251	1.3464862
26.35535656821762	1.816349	1.3477199
26.373357645684404	1.852465	1.3610529
26.39135938572991	1.8297901	1.3526974
26.409361788871614	1.8166088	1.3478163
26.427364855627165	1.8228062	1.3501134
26.445368586514352	1.8339125	1.3542203
26.46337298205115	1.8300521	1.3527942
26.48137804275568	1.8179085	1.3482984
26.499383769146217	1.8309728	1.3531344
26.517390161741215	1.8353204	1.3547399
26.53539722105928	1.8170345	1.3479742
26.553404947619182	1.8051509	1.343559
26.571413341939856	1.7974977	1.3407079
26.589422404540397	1.8505402	1.3603456
26.60743213594006	1.8558716	1.3623037
26.62544253665827	1.7814859	1.3347231
26.64345360721459	1.7558148	1.3250716
26.66146534812879	1.7930988	1.3390664
26.679477759920758	1.776441	1.332832
26.69749084311057	1.7669784	1.3292774
26.71550459821847	1.7893496	1.3376657
26.733519025764842	1.841307	1.3569477
26.751534126270258	1.8437927	1.3578633
26.769549900255434	1.8561394	1.3624021
26.787566348241267	1.8663973	1.3661615
26.80558347074881	1.8798283	1.3710684
26.823601268299267	1.8459089	1.3586423
26.841619741414036	1.8190283	1.3487135
26.85963889061465	1.7797664	1.3340789
26.877658716422832	1.831753	1.3534228
26.89567921936045	1.8247627	1.3508378
26.913700399949544	1.8185506	1.3485365
26.93172225871233	1.7770004	1.3330418
26.949744796171174	1.7754525	1.3324611
26.967768012848605	1.8211666	1.349506
26.98579190926733	1.83802	1.3557359
27.003816485950225	1.8190782	1.3487321
27.021841743420318	1.8264576	1.351465
27.039867682200814	1.8338175	1.3541852
27.057894302815072	1.833994	1.3542503
27.07592160578664	1.8099462	1.3453424
27.0939495916392	1.7976624	1.3407693
27.111978260896635	1.8310959	1.3531799
27.13000761408296	1.8976216	1.3775419
27.148037651722397	1.9193755	1.3854153
27.166068374339304	1.8249947	1.3509237
27.184099782458215	1.7946969	1.339663
27.20213187660384	1.850345	1.3602738
27.22016465730105	1.8529012	1.3612131
27.23819812507487	1.833067	1.3539081
27.256232280450533	1.8014817	1.3421929
27.274267123953383	1.7884595	1.337333
27.292302656108987	1.793968	1.3393909
27.31033887744306	1.7889197	1.337505
27.32837578848146	1.768666	1.3299121
27.34641338975026	1.7607558	1.3269347
27.364451681775673	1.8140621	1.3468713
27.382490665084074	1.8090866	1.3450229
27.400530340202046	1.7694955	1.3302238
27.41857070765629	1.7660228	1.3289179
27.436611767973726	1.8054188	1.3436588
27.454653521681404	1.8293852	1.3525476
27.472695969306564	1.8133736	1.3466156
27.490739111376627	1.7667365	1.3291864
27.508782948419153	1.7797688	1.3340797
27.526827480961902	1.8032937	1.3428677
27.54487270953279	1.767646	1.3295285
27.562918634659898	1.7254326	1.3135573
27.580965256871508	1.7611924	1.3270992
27.599012576696026	1.8543081	1.3617299
27.617060594662068	1.9102435	1.3821156
27.63510931129842	1.9016548	1.3790051
27.65315872713401	1.8592424	1.3635404
27.67120884269797	1.842475	1.357378
27.68925965851958	1.8323394	1.3536394
27.707311175128307	1.8319035	1.3534783
27.725363393053787	1.8313539	1.3532753
27.74341631282583	1.8689287	1.3670876
27.7614699349744	1.9389641	1.3924669
27.77952426002968	2.1044161	1.4506606
27.797579288521973	2.0884829	1.4451584
27.815635020981784	2.4017315	1.5497521
27.83369145793979	2.5234492	1.5885369
27.85174859992682	2.4451735	1.5637051
27.869806447473923	2.2612085	1.5037315
27.887865001112267	1.9455667	1.3948357
27.905924261373233	1.8638438	1.3652266
27.92398422878836	1.8000728	1.3416679
27.94204490388936	1.7501471	1.3229313
27.96010628720813	1.7796891	1.3340498
27.978168379276728	1.7794687	1.3339672
27.9962311806274	1.807346	1.3443757
28.014294691792568	1.8238126	1.350486
28.0323589133048	1.8085585	1.3448266
28.050423845696887	1.7766464	1.332909
28.068489489501758	1.7739317	1.3318903
28.086555845252523	1.7728889	1.3314987
28.104622913482487	1.8117145	1.3459995
28.122690694725115	1.8626604	1.3647932
28.14075918951405	1.924765	1.387359
28.15882839838312	1.9298744	1.3891993
28.176898321866304	1.9109925	1.3823866
28.1949689604978	1.9423937	1.3936979
28.213040314811945	1.9462893	1.3950948
28.23111238534327	1.9139746	1.3834647
28.249185172626493	1.8978008	1.3776069
28.267258677196473	1.905747	1.3804879
28.285332899588294	1.8986226	1.3779051
28.303407840337172	1.9156795	1.3840808
28.321483499978545	1.9306301	1.3894712
28.33955987904799	1.9340768	1.390711
28.357636978081285	1.9332259	1.3904049
28.37571479761439	1.9196239	1.385505
28.393793338183425	1.9329914	1.3903207
28.41187260032469	1.9710344	1.4039353
28.429952584574686	1.9595845	1.3998516
28.448033291470065	1.9575962	1.3991412
28.46611472154769	1.9245872	1.3872949
28.484196875344566	1.9534999	1.3976766
28.502279753397914	1.9863555	1.4093813
28.52036335624511	1.9947059	1.4123405
28.538447684423716	1.9638884	1.401388
28.556532738471482	1.9657562	1.4020543
28.574618518926325	1.9783945	1.4065541
28.59270502632635	1.9866614	1.4094898
28.61079226120985	1.9926369	1.4116079
28.628880224115274	1.9745097	1.4051725
28.646968915581287	2.0142076	1.4192278
28.66505833614671	2.0703413	1.438868
28.68314848635055	2.0945146	1.4472438
28.701239366732004	2.1542003	1.4677194
28.71933097783044	2.1535547	1.4674995
28.737423320185403	2.1571896	1.4687374
28.75551639433665	2.1575627	1.4688644
28.773610200824074	2.177127	1.475509
28.791704740187793	2.1710653	1.4734535
28.80980001296809	2.1474063	1.4654031
28.827896019705413	2.141336	1.4633304
28.845992760940433	2.13396	1.460808
28.86409023721397	2.1574237	1.4688171
28.88218844906704	2.1331794	1.4605408
28.900287397040845	2.204923	1.4848983
28.918387081676755	2.2347383	1.4949042
28.936487503516343	2.2866416	1.5121646
28.954588663101365	2.326444	1.5252684
28.97269056097374	2.3820121	1.5433768
28.990793197675597	2.3714747	1.5399593
29.00889657374923	2.3743546	1.5408942
29.027000689737125	2.3983204	1.5486512
29.04510554618196	2.414813	1.5539669
29.06321114362659	2.4070199	1.5514573
29.08131748261405	2.4306393	1.5590508
29.099424563687567	2.4413683	1.5624878
29.11753238739057	2.4681296	1.5710282
29.13564095426663	2.509645	1.584186
29.15375026485954	2.5035543	1.5822624
29.171860319713275	2.567415	1.6023155
29.18997111937199	2.6728373	1.6348814
29.20808266438002	2.718491	1.6487848
29.226194955281898	2.7486682	1.6579108
29.244307992622335	2.8073244	1.6755072
29.26242177694624	2.8476572	1.6875002
29.2805363087987	2.9034722	1.7039578
29.29865158872498	2.93249	1.7124515
29.316767617270557	2.9594634	1.7203091
29.334884394981064	2.9572575	1.7196678
29.353001922402367	2.9699326	1.7233492
29.37112020008047	3.0447648	1.7449254
29.389239228561596	3.1111372	1.7638416
29.407359008392152	3.1981409	1.7883346
29.42547954011872	3.5282583	1.8783659
29.44360082428809	4.2211967	2.0545552
29.46172286144722	5.2690535	2.2954419
29.479845652143283	6.913001	2.6292586
29.497969196923606	8.987736	2.9979553
29.516093496335728	11.532621	3.3959713
29.5342185509274	14.316242	3.7836812
29.55234436124651	16.758718	4.0937414
29.570470927841175	18.188452	4.264792
29.588598251259686	18.063036	4.250063
29.60672633205055	16.723373	4.089422
29.624855170762405	14.369723	3.7907417
29.642984767944146	11.659568	3.4146109
29.66111512414481	8.875796	2.9792275
29.67924623991366	6.559822	2.561215
29.697378115800138	5.118777	2.2624714
29.71551075235387	4.251219	2.0618484
29.733644150124675	3.781843	1.9446961
29.751778309662576	3.5154648	1.8749573
29.769913231517766	3.3874192	1.8404943
29.78804891624066	3.3653944	1.8345011
29.806185364381818	3.4014812	1.8443105
29.82432257649206	3.3376453	1.8269223
29.842460553122333	3.311688	1.8198043
29.86059929482382	3.3207092	1.8222814
29.878738802147872	3.3329382	1.8256336
29.896879075646048	3.3279114	1.8242564
29.915020115870114	3.3431652	1.8284324
29.933161923371976	3.328518	1.8244226
29.951304498703777	3.2504573	1.8029025
29.969447842417857	3.136317	1.770965
29.987591955066733	3.0546367	1.747752
30.005736837203123	3.1220353	1.7669282
30.023882489379943	3.1674676	1.7797381
30.04202891215028	3.216969	1.7935911
30.060176106067455	3.2482688	1.8022954
30.078324071684946	3.1989717	1.788567
30.09647280955646	3.1970026	1.7880164
30.114622320235863	3.1840017	1.7843771
30.132772604277257	3.1632504	1.7785529
30.1509236622349	3.1425972	1.7727373
30.16907549466328	3.151666	1.7752932
30.18722810211705	3.104911	1.7620758
30.205381485151097	3.0978374	1.7600675
30.22353564432045	3.0895262	1.7577049
30.241690580180403	3.094395	1.7590892
30.25984629328638	3.064007	1.7504306
30.278002784194037	3.0804496	1.755121
30.296160053459246	3.0844254	1.7562532
30.314318101638033	3.0304186	1.7408098
30.332476929286646	2.8898995	1.6999705
30.35063653696153	2.8814003	1.6974688
30.368796925219307	2.9423544	1.7153293
30.386958094616844	2.9726863	1.724148
30.40512004571115	2.9101036	1.7059026
30.423282779059463	2.855632	1.6898615
30.441446295219233	2.8442814	1.6864997
30.459610594748067	2.81007	1.6763264
30.47777567820382	2.7537067	1.6594297
30.495941546144504	2.7465641	1.6572762
30.51410819912835	2.7787578	1.6669606
30.532275637713795	2.8141644	1.6775471
30.55044386245946	2.786226	1.6691992
30.56861287392416	2.7590153	1.6610284
30.586782672666956	2.802075	1.67394
30.604953259247047	2.8228726	1.6801406
30.623124634223885	2.7684307	1.6638602
30.641296798157075	2.7117536	1.6467403
30.659469751606462	2.7134726	1.6472621
30.677643495132074	2.7089303	1.6458828
30.695818029294152	2.696877	1.6422172
30.713993354653116	2.7020237	1.6437833
30.73216947176962	2.697299	1.6423455
30.75034638120448	2.6646824	1.6323855
30.768524083518756	2.6177478	1.6179456
30.786702579273673	2.6867578	1.6391332
30.80488186903069	2.8276594	1.6815646
30.82306195335144	2.980412	1.726387
30.841242832797782	3.0997145	1.7606006
30.85942450793176	3.317928	1.8215181
30.877606979315637	3.6593919	1.9129537
30.895790247511883	4.117465	2.0291538
30.913974313083134	4.5674214	2.1371527
30.932159176592283	4.877382	2.2084794
30.95034483860237	4.9360223	2.2217162
30.968531299676698	4.751167	2.179717
30.98671856037873	4.4465957	2.1086953
31.00490662127215	4.0867434	2.0215695
31.023095482920848	3.659244	1.9129151
31.04128514588892	3.1335747	1.7701906
31.059475610740662	2.71102	1.6465175
31.07766687804056	2.555828	1.5986958
31.09585894835335	2.5086815	1.5838817
31.11405182224393	2.4745111	1.5730579
31.132245500277417	2.4513128	1.5656669
31.15043998301914	2.448971	1.5649189
31.168635271034628	2.4285533	1.5583817
31.18683136488964	2.3931117	1.5469686
31.20502826515008	2.4088662	1.5520523
31.223225972382135	2.394148	1.5473034
31.241424487152155	2.3716617	1.54002
31.259623810026692	2.3815713	1.543234
31.27782394157253	2.4073863	1.5515754
31.296024882356644	2.4078133	1.551713
31.314226632946237	2.401829	1.5497836
31.332429193908684	2.4165606	1.5545291
31.350632565811598	2.5248163	1.5889671
31.368836749222787	2.5640295	1.6012588
31.387041744710295	2.5173194	1.5866063
31.40524755284232	2.5054374	1.5828574
31.423454174187317	2.4873307	1.5771273
31.441661609313922	2.5056183	1.5829145
31.459869858791002	2.473583	1.5727628
31.478078923187628	2.4365861	1.5609568
31.496288803073064	2.3163261	1.5219481
31.514499499016807	2.2923965	1.5140662
31.532711011588546	2.3135874	1.5210482
31.550923341358178	2.2844806	1.5114498
31.56913648889584	2.1616988	1.4702717
31.587350454771844	2.1513753	1.4667567
31.605565239556732	2.2229676	1.490962
31.62378084382127	2.2501893	1.5000631
31.641997268136382	2.2161934	1.4886885
31.660214513073274	2.2084906	1.4860991
31.67843257920331	2.2235537	1.4911585
31.6966514670981	2.2070684	1.4856206
31.71487117732944	2.2131293	1.487659
31.733091710469346	2.28662	1.5121573
31.751313067090052	2.280665	1.510187
31.769535247764008	2.2685382	1.5061667
31.787758253063878	2.350584	1.5331614
31.805982083562526	2.4123077	1.5531605
31.824206739833024	2.4046428	1.5506911
31.84243222244869	2.2860982	1.5119848
31.860658531983013	2.2933314	1.514375
31.878885669009737	2.343918	1.530986
31.897113634102784	2.3163128	1.5219438
31.91534242783632	2.2588756	1.5029557
31.933572050784694	2.2797792	1.5098938
31.951802503522508	2.2655284	1.5051672
31.970033786624548	2.2198713	1.4899232
31.988265900665834	2.172141	1.4738185
32.006498846221575	2.2145684	1.4881426
32.02473262386724	2.2022796	1.484008
32.04296723417845	2.1337857	1.4607483
32.0612026777311	2.0862327	1.4443797
32.07943895510129	2.1184394	1.4554859
32.097676066865304	2.1314802	1.459959
32.115914013599685	2.0607557	1.4355333
32.13415279588115	2.0618184	1.4359033
32.152392414286666	2.1077888	1.4518226
32.1706328693934	2.116412	1.4547893
32.18887416177875	2.182529	1.4773384
32.20711629202032	2.2169254	1.4889343
32.225359260695924	2.181537	1.4770026
32.243603068383614	2.112382	1.4534036
32.26184771566166	2.0915308	1.4462125
32.28009320310852	2.1126547	1.4534974
32.2983395313029	2.055279	1.4336244
32.31658670082372	2.0539696	1.4331677
32.33483471225012	2.125875	1.4580381
32.35308356616143	2.2130156	1.4876207
32.371333263137245	2.2545402	1.5015126
32.38958380375734	2.2108297	1.4868859
32.407835188601744	2.1235478	1.4572397
32.42608741825067	2.145136	1.4646283
32.444340493284585	2.1913383	1.480317
32.46259441428416	2.2195382	1.4898114
32.48084918183028	2.2078357	1.4858787
32.49910479650405	2.128757	1.4590261
32.51736125888683	2.007387	1.4168228
32.53561856956014	2.0122406	1.4185346
32.5538767291058	2.0130243	1.4188108
32.572135738105764	1.9719046	1.4042453
32.59039559714228	2.039788	1.4282115
32.608656306797776	1.9894856	1.4104912
32.62691786765491	1.989412	1.4104651
32.645180280296586	1.9731188	1.4046775
32.663443545305896	1.9008667	1.3787192
32.68170766326619	1.9318043	1.3898937
32.69997263476099	2.0248053	1.4229566
32.7182384603741	2.0331955	1.4259017
32.7365051406895	2.029901	1.4247459
32.75477267629144	2.058171	1.4346327
32.77304106776434	2.0656407	1.4372337
32.79131031569289	2.065788	1.437285
32.809580420661966	2.0259943	1.4233743
32.827851383256714	1.9930164	1.4117423
32.84612320406245	1.906278	1.3806803
32.86439588366476	1.9056743	1.3804617
32.88266942264945	1.9553205	1.3983277
32.9009438216025	1.9221647	1.3864216
32.9192190811102	1.8936969	1.3761166
32.937495201758985	1.9939845	1.4120852
32.95577218413556	2.040766	1.4285538
32.974050028826866	1.9303149	1.3893577
32.992328736420035	1.8961028	1.3769904
33.010608307502444	1.9029716	1.3794824
33.02888874266169	1.8574305	1.3628758
33.047170042485604	1.8709911	1.3678417
33.06545220756225	1.9514414	1.39694
33.083735238479896	1.9602728	1.4000974
33.10201913582707	1.8832155	1.372303
33.12030390019248	1.8309577	1.3531288
33.138589532165135	1.8917089	1.3753941
33.15687603233419	1.9476194	1.3955714
33.17516340128909	1.9977928	1.413433
33.19345163961947	1.9785849	1.4066218
33.211740747915215	1.8784062	1.3705496
33.23003072676643	1.7816749	1.3347939
33.248321576763466	1.7703645	1.3305504
33.266613298496885	1.7686212	1.3298951
33.28490589255747	1.7794957	1.3339775
33.30319935953626	1.8025972	1.3426083
33.32149370002451	1.8214145	1.3495979
33.339788914613706	1.783682	1.3355455
33.358085003895575	1.8838395	1.3725303
33.376381968462034	2.1053247	1.4509737
33.39467980890529	2.1309025	1.4597611
33.41297852581774	1.973741	1.404899
33.43127811979204	1.9209607	1.3859873
33.44957859142105	2.0045233	1.4158119
33.467879941297866	2.0575352	1.434411
33.486182170015844	1.9691797	1.4032747
33.50448527816853	1.9219614	1.3863482
33.522789266349754	1.915733	1.3841001
33.541094135153514	1.826815	1.3515972
33.55939988517411	1.7977408	1.3407986
33.57770651700602	1.9155333	1.384028
33.59601403124398	2.0570006	1.4342247
33.61432242848296	1.9671054	1.4025353
33.632631709318154	1.8309819	1.3531377
33.650941874344994	1.7681888	1.3297327
33.66925292415916	1.8006102	1.3418682
33.68756485935654	1.8983114	1.3777922
33.70587768053328	1.9011774	1.3788319
33.724191388285746	2.0071561	1.4167414
33.74250598321054	2.0125196	1.418633
33.760821465904506	1.9604249	1.4001517
33.77913783696474	1.9779989	1.4064134
33.79745509698852	2.0370386	1.4272486
33.815773246573414	2.0919213	1.4463476
33.8340922863172	1.9662898	1.4022446
33.852412216817896	1.9144964	1.3836533
33.87073303867377	1.9495842	1.3962752
33.889054752483304	1.9957434	1.4127078
33.907377358845245	1.9494528	1.3962281
33.92570085835853	2.0322914	1.4255846
33.94402525162239	2.0614667	1.4357809
33.96235053923627	1.9829817	1.4081838
33.980676721799824	1.9601899	1.4000678
33.999003799912984	2.0020974	1.4149549
34.01733177417592	1.9313698	1.3897372
34.03566064518901	1.8457372	1.3585792
34.0539904135529	1.9075476	1.38114
34.07232107986846	2.006518	1.4165161
34.090652644736785	1.9313788	1.3897406
34.108985108759235	1.8297318	1.3526758
34.12731847253742	1.8958147	1.3768859
34.14565273667313	1.9897372	1.4105804
34.16398790176847	2.0437167	1.4295862
34.18232396842574	2.0120852	1.4184799
34.20066093724749	2.0294664	1.4245934
34.21899880883651	1.9938749	1.4120463
34.23733758379583	1.9274691	1.3883332
34.25567726272874	1.8087862	1.3449112
34.27401784623872	1.7211246	1.3119164
34.29235933492957	1.8403176	1.3565831
34.31070172940526	1.9322206	1.3900434
34.32904503027003	2.1187603	1.4555962
34.347389238128386	2.295902	1.5152234
34.36573435358502	2.1420052	1.463559
34.38408037724492	1.9330003	1.3903239
34.402427309713296	1.7548056	1.3246907
34.42077515159559	1.7256705	1.3136477
34.43912390349752	1.8649852	1.3656446
34.45747356602499	2.0476358	1.4309562
34.47582413978423	2.087451	1.4448013
34.49417562538163	2.0331109	1.425872
34.51252802342388	2.0941727	1.4471257
34.53088133451789	2.0847821	1.4438775
34.54923555927084	1.9272096	1.3882397
34.567590698290104	1.9369707	1.3917509
34.58594675218336	2.017182	1.4202753
34.6043037215585	1.9296564	1.3891207
34.62266160702365	1.9107324	1.3822924
34.641020409187234	1.9635911	1.401282
34.65938012865785	2.0157168	1.4197594
34.677740766044394	1.9839231	1.4085181
34.69610232195598	1.8993444	1.378167
34.714464797002016	1.9672931	1.4026023
34.73282819179208	1.8973101	1.3774288
34.751192506936064	1.9212483	1.386091
34.76955774304408	1.9990193	1.4138668
34.7879239007265	1.9753832	1.4054832
34.80629098059391	1.8753935	1.3694501
34.824658983257194	1.994913	1.4124138
34.843027909327446	2.1276076	1.4586321
34.86139775941603	1.9611837	1.4004227
34.879768534134534	1.8208841	1.3494014
34.89814023409483	1.9140049	1.3834757
34.91651285990901	2.0535684	1.4330277
34.93488641218944	2.0030837	1.4153033
34.95326089154871	2.0006394	1.4144397
34.97163629859967	1.95439	1.397995
34.99001263395542	1.9142765	1.3835738
35.00838989822934	1.8457952	1.3586005
35.02676809203499	1.7795328	1.3339913
35.04514721598624	1.8826423	1.3720942
35.063527270697215	1.9530314	1.397509
35.081908256782256	2.0730212	1.439799
35.10029017485597	2.1247325	1.4576463
35.11867302553321	1.936353	1.391529
35.137056809429104	1.8129838	1.3464708
35.155441527159006	1.7704597	1.3305862
35.173827179338524	1.6585978	1.2878656
35.19221376658354	1.7106346	1.3079123
35.21060128951017	1.6043996	1.266649
35.2289897487348	1.4975147	1.2237298
35.24737914487405	1.7800726	1.3341936
35.26576947854479	1.9949951	1.4124429
35.28416075036418	1.9366366	1.3916309
35.30255296094958	1.9460491	1.3950087
35.32094611091867	2.074055	1.440158
35.33934020088932	2.119383	1.4558101
35.35773523147969	2.2347677	1.4949139
35.3761312033082	2.1875997	1.4790536
35.394528116993506	1.8592983	1.3635609
35.41292597315452	2.0099967	1.4177436
35.431324772410434	2.3964174	1.5480366
35.449724515380666	2.375427	1.541242
35.46812520268491	2.414415	1.5538387
35.486526834943106	2.6615293	1.6314194
35.504929412775454	2.347541	1.5321687
35.52333293680242	2.5269866	1.5896498
35.54173740764471	2.6697702	1.6339432
35.560142825923286	2.203842	1.4845343
35.5785491922594	1.7167771	1.3102584
35.59695650727454	1.5939943	1.2625349
35.61536477159042	2.5249293	1.5890026
