0.008763373481513119	0.0	0.0
0.026290120649546365	0.17179282	0.414479
0.043816868432600686	0.12005361	0.34648752
0.06134361724069026	0.082868464	0.28786883
0.07887036748382949	0.038731266	0.1968026
0.0963971195720331	0.0	0.0
0.11392387391531617	0.020255666	0.1423224
0.1314506309236943	0.040553942	0.20138009
0.1489773910071836	0.074658	0.27323616
0.16650415457580078	0.10897211	0.33010924
0.18403092203956356	0.12464797	0.35305518
0.20155769380849	0.13705073	0.37020364
0.2190844702925996	0.14015548	0.37437344
0.2366112519019124	0.14590459	0.38197458
0.2541380390464497	0.10025304	0.3166276
0.27166483213623416	0.10265067	0.32039145
0.28919163158128947	0.11493762	0.3390245
0.3067184377916406	0.099897176	0.31606513
0.324245251177314	0.12294838	0.35063997
0.34177207214833777	0.08782373	0.2963507
0.3592989011147415	0.15693596	0.39615142
0.37682573848655654	0.20901784	0.4571847
0.39435258467381573	0.27385727	0.52331376
0.41187944008655414	0.21180451	0.46022224
0.42940630513480854	0.15085526	0.3884009
0.446933180228618	0.105952285	0.32550314
0.4644600657780234	0.16090149	0.40112528
0.48198696219306775	0.18857747	0.4342551
0.49951386988379676	0.1804719	0.42481983
0.5170407892602581	0.18024905	0.42455748
0.5345677207325025	0.18059917	0.4249696
0.5520946647105822	0.19262418	0.4388897
0.5696216216045534	0.20760831	0.45564055
0.5871485918244737	0.1799025	0.42414916
0.6046755757804043	0.16294718	0.40366715
0.6222025738824094	0.13408162	0.36617157
0.6397295865405557	0.15565708	0.39453402
0.6572566141649129	0.19703808	0.4438897
0.6747836571655547	0.2219943	0.4711627
0.6923107159525568	0.23669519	0.4865133
0.7098377909359992	0.24402235	0.4939862
0.7273648825259653	0.19255178	0.43880722
0.7448919911325411	0.16094664	0.40118155
0.762419117165817	0.1420277	0.37686563
0.7799462610358868	0.19325173	0.43960407
0.7974734231528482	0.20663331	0.45456937
0.8150006039268024	0.19457278	0.44110405
0.8325278037678551	0.19183123	0.43798542
0.8500550230861152	0.21054186	0.45884842
0.8675822622916969	0.2545616	0.504541
0.8851095217947171	0.25224644	0.50224143
0.9026368020052984	0.2524512	0.5024452
0.9201641033335665	0.22709583	0.47654572
0.9376914261896523	0.22819932	0.4777021
0.9552187709836915	0.22624722	0.4756545
0.9727461381258234	0.22710755	0.47655803
0.990273528026193	0.23471934	0.4844784
1.0078009410949496	0.23755482	0.48739594
1.0253283777422473	0.24008094	0.48998055
1.0428558383782454	0.27851188	0.52774227
1.0603833234131086	0.28263363	0.53163296
1.0779108332570058	0.3328168	0.57690275
1.0954383683201119	0.31786904	0.5637988
1.112965929012607	0.34782624	0.58976793
1.1304935157446763	0.4644527	0.6815077
1.1480211289265108	0.49716458	0.705099
1.1655487689683062	1.3418897	1.1583997
1.1830764362802655	1.6103512	1.2689961
1.200604131272596	2.0689244	1.4383756
1.2181318543555117	2.4852917	1.5764807
1.235659605939232	2.5699122	1.6030946
1.253187386433982	4.1494317	2.0370154
1.270715196249994	6.450215	2.5397272
1.2882430357975057	11.863241	3.4443057
1.3057709054867608	16.48716	4.060438
1.3232988057280106	22.569979	4.7507873
1.3408267369315112	27.682919	5.261456
1.358354699507526	31.698652	5.6301556
1.3758826938663256	35.79132	5.982585
1.3934107204181858	37.44463	6.1192017
1.410938779573391	37.406845	6.1161137
1.4284668717422309	37.82339	6.1500726
1.4459949973350033	37.217995	6.100655
1.4635231567620117	37.489864	6.1228967
1.4810513504335687	36.901134	6.0746303
1.4985795787599925	36.346245	6.0287848
1.5161078421516088	36.169094	6.014075
1.5336361410187505	35.581745	5.9650435
1.5511644757717598	35.601246	5.966678
1.5686928468209842	35.978973	5.9982476
1.58622125457678	36.429028	6.0356464
1.6037496994495108	37.366215	6.112791
1.621278181849548	37.201866	6.0993333
1.6388067021872719	38.01356	6.165514
1.6563352608730693	37.437775	6.1186414
1.673863858317336	36.565475	6.0469394
1.6913924949304753	35.683506	5.9735675
1.7089211711228998	34.82017	5.9008617
1.7264498873050296	33.804695	5.8141804
1.7439786438872935	33.04947	5.7488666
1.7615074412801288	32.401836	5.692261
1.779036279893981	31.843563	5.64301
1.796565160139305	30.666756	5.5377574
1.814094082426564	29.752634	5.4545975
1.8316230471662298	29.005627	5.3856874
1.849152054768784	28.152067	5.305852
1.8666811056447168	27.933735	5.2852373
1.8842102002045273	27.235044	5.2187204
1.901739338858724	26.795963	5.1764817
1.9192685220178245	26.08494	5.107342
1.9367977500923557	25.274788	5.027404
1.9543270234928547	24.898172	4.9898067
1.971856342629867	24.15103	4.9143696
1.9893857079139496	23.75903	4.8743234
2.006915119755667	22.990349	4.794825
2.0244445785655945	22.182858	4.709868
2.0419740847543175	21.716557	4.660103
2.0595036387324317	21.220709	4.606594
2.0770332409105414	20.823936	4.563325
2.094562891699263	20.504835	4.5282264
2.1120925915092217	20.039152	4.476511
2.129622340751053	19.731997	4.442071
2.1471521398354043	187.85696	13.706092
2.1646819891729323	444.47388	21.08255
2.182211889174303	440.7589	20.994259
2.1997418402501974	453.0881	21.285866
2.2172718428113023	432.89505	20.80613
2.234801897268317	320.8017	17.910938
2.2523320040319548	17.244326	4.152629
2.269862163512935	16.825851	4.1019325
2.287392376121992	16.454388	4.056401
2.304922642269869	16.128883	4.016078
2.322452962367322	16.00457	4.0005713
2.3399833368251164	15.769414	3.9710722
2.357513766054032	15.4288435	3.9279566
2.3750442504648586	15.047682	3.8791342
2.3925747904683963	14.810764	3.8484757
2.410105386475459	14.535155	3.8124998
2.4276360388968707	14.461337	3.8028064
2.445166748143469	14.463599	3.803104
2.4626975146261025	14.190715	3.7670565
2.4802283387556323	13.850643	3.721645
2.4977592209429305	13.380741	3.6579695
2.5152901615988825	13.204263	3.6337671
2.5328211611343865	12.915616	3.5938303
2.5503522199603523	12.953833	3.5991433
2.5678833384877024	12.765905	3.5729408
2.5854145171273712	12.507166	3.5365472
2.6029457562903064	12.174755	3.4892342
2.620477056387469	11.935832	3.4548273
2.6380084178298326	11.744508	3.427026
2.655539841028383	11.774928	3.4314616
2.673071326394119	11.629913	3.410266
2.6906028743380523	11.588058	3.4041238
2.708134485271211	11.274466	3.357747
2.7256661596046325	10.988649	3.3149133
2.743197897749369	10.769789	3.2817357
2.760729700116486	10.666222	3.2659183
2.778261567117063	10.408473	3.2262166
2.795793499162193	10.296764	3.208857
2.8133254966629817	10.042268	3.1689537
2.830857560030551	9.923732	3.1501956
2.8483896896760337	9.939864	3.152755
2.865921886010578	9.816805	3.133178
2.883454149445347	9.677495	3.1108673
2.9009864803915177	9.460456	3.0757854
2.91851887926028	9.319384	3.0527666
2.9360513464628384	9.229729	3.0380468
2.953583882410413	9.110392	3.0183425
2.9711164875142373	8.934917	2.9891331
2.9886491621855606	8.73714	2.9558654
3.0061819068356455	8.639797	2.9393532
3.023714721875769	8.535141	2.9214964
3.041247607717225	8.443771	2.9058168
3.0587805647713213	8.31338	2.8832934
3.0763135934493806	8.269693	2.8757074
3.0938466941627407	8.204273	2.8643103
3.1113798673227544	8.068516	2.8405132
3.1289131133407904	8.04363	2.8361294
3.1464464326282315	7.926879	2.8154714
3.1639798255964786	7.7985187	2.7925828
3.1815132926569443	7.7051544	2.775816
3.1990468342210603	7.5876045	2.7545607
3.216580450700272	7.480809	2.7351067
3.2341141425060416	7.397564	2.7198462
3.251647910049847	7.368863	2.714565
3.2691817537431813	7.162352	2.6762571
3.286715673997555	7.0921235	2.663104
3.3042496712244938	7.007424	2.6471539
3.32178374583554	7.019172	2.649372
3.339317898242251	7.0735345	2.6596117
3.3568521288562034	7.0260444	2.6506686
3.3743864380889876	6.8993955	2.6266701
3.3919208263522127	6.75815	2.5996442
3.4094552940575023	6.7298083	2.5941875
3.4269898416164972	6.8169584	2.6109307
3.444524469440858	6.8023033	2.6081226
3.4620591779422587	6.767431	2.6014285
3.479593967532391	6.6235704	2.5736299
3.4971288386229658	6.4733324	2.5442743
3.5146637916257086	6.4925313	2.5480447
3.5321988269523628	6.516354	2.552715
3.5497339450146903	6.5791283	2.5649812
3.5672691462244708	6.5487823	2.559059
3.5848044309934988	6.5554852	2.5603683
3.60233979973359	6.444753	2.538652
3.619875252856575	6.4063225	2.5310714
3.6374107907743034	6.4231772	2.5343988
3.6549464138986427	6.506108	2.5507073
3.6724821226414788	6.5284123	2.555076
3.690017917414714	6.471374	2.5438895
3.7075537986302702	6.4476476	2.5392218
3.7250897667000857	6.5137615	2.5522072
3.7426258220361235	6.7035255	2.5891168
3.7601619650503553	6.959929	2.6381676
3.777698196154779	7.383591	2.7172763
3.7952345157614067	8.347647	2.8892295
3.8127709242822716	9.106095	3.0176308
3.830307422129425	11.453675	3.384328
3.847844009714936	30.377905	5.5116153
3.8653806874508954	97.88006	9.8934355
3.882917455749409	97.12078	9.854987
3.900454315022606	97.00865	9.849297
3.917991265682631	41.557575	6.4465165
3.9355283081416506	11.229566	3.3510544
3.9530654428118495	8.83217	2.9718966
3.970602670105433	7.584688	2.7540312
3.9881399904346244	6.703193	2.5890527
4.005677404211669	6.6243224	2.573776
4.023214911848827	6.46138	2.5419245
4.0407525137583855	6.4280806	2.535366
4.058290210352644	6.435731	2.5368743
4.075828002043927	6.3705754	2.524
4.0933658892445814	6.3047132	2.5109189
4.110903872366966	6.225165	2.495028
4.128441951823468	6.243039	2.4986074
4.145980128026488	6.2947764	2.5089393
4.163518401388452	6.259207	2.5018406
4.181056772321807	6.235081	2.4970145
4.1985952412390155	6.170768	2.484103
4.216133808552567	6.269698	2.5039365
4.233672474674966	6.359342	2.5217736
4.251211240018741	6.5662336	2.5624664
4.268750104996445	6.726742	2.5935962
4.286289070020643	7.625487	2.7614284
4.303828135503928	9.231408	3.0383232
4.3213673018589125	29.496563	5.4310737
4.3389065694982305	90.64479	9.520756
4.356445938834537	165.92456	12.881171
4.3739854102805085	171.6058	13.09984
4.391524984248844	172.52032	13.134699
4.409064661152262	136.7238	11.692895
4.426604441403504	96.97272	9.847472
4.444144325415337	76.09919	8.723485
4.461684313600543	22.092346	4.7002497
4.47922440637193	22.4176	4.734723
4.496764604142329	20.538656	4.5319595
4.5143049073245916	18.598	4.3125396
4.531845316331589	16.600712	4.074397
4.5493858315762195	13.828186	3.718627
4.566926453471405	11.559664	3.3999505
4.584467182430081	9.501795	3.082498
4.602008018865218	8.358319	2.8910758
4.619548963189798	7.6541553	2.7666144
4.637090015816834	7.0682726	2.6586223
4.654631177159353	6.7440157	2.5969243
4.672172447630417	6.444805	2.5386622
4.689713827643102	6.3741903	2.524716
4.7072553176105085	6.216371	2.4932652
4.724796917945764	6.1251082	2.4748957
4.742338629062015	5.9579196	2.440885
4.759880451372434	5.8182526	2.4121053
4.777422385290215	5.6420054	2.3752906
4.794964431228581	5.6037726	2.367229
4.812506589600768	5.5974746	2.3658984
4.830048860820047	5.5918574	2.3647108
4.847591245299709	5.565783	2.3591912
4.8651337434530655	5.637033	2.3742437
4.882676355693457	5.6269627	2.372122
4.900219082434242	5.6048183	2.3674498
4.917761924088813	5.5330977	2.3522537
4.935304881070575	5.526458	2.350842
4.952847953792969	5.505959	2.346478
4.970391142669449	5.478553	2.3406308
4.9879344481135055	5.4667935	2.3381176
5.005477870538642	5.4809175	2.341136
5.023021410358394	5.4607115	2.3368165
5.040565067986324	5.4320374	2.3306732
5.05810884383601	5.4383893	2.3320355
5.075652738321066	5.551945	2.3562567
5.09319675185512	5.5498233	2.3558064
5.110740884851836	5.489841	2.343041
5.128285137724894	5.3653564	2.316324
5.145829510888007	5.378733	2.3192096
5.163374004754908	5.4516354	2.3348737
5.1809186197393595	5.4859557	2.3422117
5.198463356255145	5.419055	2.3278863
5.216008214716077	5.335845	2.3099449
5.233553195535998	5.273351	2.296378
5.251098299128764	5.284321	2.2987652
5.268643525908272	5.3259587	2.3078039
5.286188876288432	5.2705193	2.295761
5.3037343506831895	5.273549	2.2964208
5.32127994950651	5.133904	2.265812
5.3388256731723915	5.112524	2.261089
5.356371522094851	5.137279	2.2665567
5.373917496687938	5.188795	2.2778926
5.391463597365729	5.2481728	2.290889
5.40900982454232	5.2259793	2.28604
5.426556178631843	5.2216177	2.285086
5.444102660048449	5.154914	2.2704434
5.4616492692063225	5.1187887	2.262474
5.479196006519669	5.1605616	2.271687
5.496742872402727	5.1495514	2.2692623
5.514289867269756	5.2340918	2.2878137
5.531836991535049	5.2063932	2.2817523
5.549384245612924	5.173937	2.2746289
5.566931629917724	5.0526257	2.2478046
5.584479144863822	5.0725346	2.2522287
5.6020267908656205	5.11892	2.262503
5.619574568337545	5.1676674	2.2732503
5.637122477694054	5.2137227	2.2833579
5.654670519349629	5.196388	2.2795587
5.672218693718784	5.1310697	2.2651865
5.689767001216059	5.0925736	2.256673
5.707315442256021	5.12998	2.264946
5.724864017253266	5.0995526	2.258219
5.7424127266224225	5.1365857	2.2664037
5.75996157077814	5.126366	2.264148
5.777510550135105	5.1687365	2.2734854
5.795059665108022	5.1638703	2.2724152
5.812608916111639	5.2111077	2.2827852
5.830158303560715	5.3565755	2.3144276
5.847707827870055	5.407726	2.3254519
5.86525748945448	5.501272	2.345479
5.8828072887288485	5.595639	2.3655105
5.900357226108044	5.653936	2.3778007
5.917907302006979	5.8204384	2.4125586
5.9354575168406	6.3860397	2.5270615
5.9530078710238765	6.8957367	2.6259735
5.970558364971812	7.4035683	2.72095
5.988108999099438	7.7344666	2.781091
6.005659773821818	8.323789	2.8850977
6.023210689554039	8.080432	2.8426101
6.040761746711227	8.468106	2.910001
6.058312945708531	7.8254085	2.797393
6.075864286961132	7.379143	2.7164578
6.093415770884244	6.6957135	2.5876076
6.1109673978931065	6.131605	2.4762077
6.128519168402993	5.5606656	2.3581064
6.146071082829204	5.3835297	2.3202434
6.163623141587075	5.3130403	2.3050034
6.181175345091969	5.2510977	2.2915273
6.198727693759281	5.2416573	2.2894666
6.216280188004435	5.2021923	2.2808316
6.233832828242885	5.1954565	2.2793543
6.251385614890126	5.2104797	2.2826476
6.268938548361669	5.1863866	2.277364
6.286491629073067	5.077573	2.253347
6.304044857439898	5.018083	2.2401078
6.321598233877777	4.899982	2.2135904
6.339151758802344	4.8712797	2.2070975
6.356705432629277	4.892361	2.2118683
6.37425925577428	4.9002967	2.2136614
6.391813228653095	4.9991803	2.2358847
6.409367351681486	5.0783253	2.253514
6.426921625275259	5.0960894	2.257452
6.44447604985025	5.076802	2.253176
6.46203062582232	5.053893	2.2480865
6.47958535360737	5.124007	2.263627
6.497140233621328	5.1620502	2.2720146
6.514695266280161	5.0954356	2.257307
6.532250451999859	5.08974	2.256045
6.549805791196454	5.0831757	2.2545898
6.567361284286002	5.0674496	2.2510996
6.584916931684597	5.062732	2.2500515
6.602472733808367	5.0918407	2.2565107
6.6200286910734665	5.0749097	2.252756
6.637584803896092	5.0827336	2.2544918
6.655141072692462	5.0758038	2.2529545
6.672697497878842	5.0828514	2.254518
6.690254079871514	5.056466	2.2486587
6.707810819086808	5.0704513	2.2517662
6.725367715941078	5.0768805	2.2531934
6.742924770850719	5.054385	2.248196
6.760481984232151	5.030214	2.2428138
6.778039356501836	5.039638	2.2449138
6.795596888076266	4.986972	2.2331529
6.813154579371963	4.8965907	2.212824
6.830712430805492	4.8049397	2.1920173
6.84827044279344	4.8611774	2.2048078
6.865828615752445	4.9522824	2.2253723
6.883386950099159	5.004047	2.2369728
6.900945446250287	4.9923787	2.234363
6.918504104622553	5.042798	2.2456176
6.936062925632727	5.116601	2.2619905
6.953621909697607	5.0851917	2.255037
6.971181057234028	5.1286645	2.2646556
6.988740368658859	5.1393995	2.2670243
7.006299844389007	5.254221	2.2922087
7.023859484841407	5.374662	2.3183317
7.041419290433036	5.47586	2.3400555
7.058979261580902	5.6094456	2.3684268
7.0765393987020495	5.7600346	2.4000072
7.094099702213559	6.0987515	2.4695652
7.111660172532549	6.396109	2.529053
7.129220810076164	6.791612	2.6060722
7.146781615261595	7.450066	2.729481
7.16434258850606	7.805081	2.7937574
7.181903730226821	8.235358	2.8697314
7.1994650408411704	8.280912	2.8776574
7.217026520766437	8.362855	2.89186
7.234588170419983	8.576345	2.9285398
7.252149990219215	8.529446	2.9205215
7.269711980581568	8.387605	2.8961363
7.2872741419245175	8.236101	2.869861
7.304836474665574	7.8699746	2.8053474
7.322398979222286	7.5983877	2.7565174
7.339961656012233	7.290011	2.700002
7.357524505453039	6.911283	2.628932
7.375087527962357	6.5740585	2.5639927
7.392650723957886	6.2330246	2.4966025
7.410214093857353	5.9327936	2.4357326
7.427777638078528	5.711054	2.3897812
7.445341357039213	5.5807247	2.3623557
7.4629052511572525	5.417732	2.3276021
7.480469320850524	5.3739405	2.318176
7.498033566536948	5.3244457	2.307476
7.5155979886344735	5.3144956	2.305319
7.5331625875610975	5.266679	2.2949245
7.550727363734844	5.179538	2.2758598
7.568292317573788	5.092293	2.2566109
7.585857449496025	5.0715666	2.252014
7.603422759919705	5.088902	2.2558594
7.620988249263007	5.0986786	2.2580254
7.638553917944147	5.107287	2.2599308
7.656119766381391	5.1438694	2.26801
7.673685794993023	5.2108083	2.2827194
7.691252004197388	5.2205753	2.2848577
7.70881839441285	5.1898527	2.2781248
7.726384966057826	5.217963	2.2842863
7.743951719550762	5.30459	2.3031695
7.761518655310149	5.370587	2.3174527
7.779085773754511	5.3822956	2.3199775
7.796653075302419	5.3800936	2.3195028
7.814220560372475	5.4030952	2.324456
7.831788229383323	5.3927674	2.3222332
7.8493560827536495	5.3851523	2.320593
7.866924120902174	5.333808	2.3095038
7.884492344247663	5.332644	2.3092518
7.9020607532089135	5.275125	2.2967641
7.919629348204771	5.2617707	2.293855
7.937198129654115	5.2318625	2.2873266
7.954767097975865	5.2577868	2.2929864
7.972336253588986	5.311808	2.304736
7.989905596912472	5.435292	2.3313713
8.007475128365371	5.5360765	2.352887
8.025044848366756	5.5577106	2.3574798
8.042614757335754	5.656091	2.3782537
8.060184855691523	5.679434	2.3831563
8.07775514385327	5.7678285	2.4016304
8.095325622240228	5.730012	2.3937442
8.112896291271687	5.775543	2.403236
8.130467151366968	5.870558	2.4229233
8.148038202945436	5.9421096	2.4376442
8.165609446426497	5.963889	2.4421074
8.183180882229594	6.01114	2.4517627
8.200752510774217	5.9947643	2.4484208
8.218324332479893	6.0294366	2.455491
8.235896347766193	5.955906	2.4404724
8.253468557052724	5.9806714	2.4455411
8.27104096075914	6.048429	2.4593554
8.288613559305137	6.221931	2.49438
8.306186353110448	6.1994276	2.489865
8.32375934259485	6.206702	2.4913254
8.341332528178162	6.1835546	2.4866755
8.358905910280246	6.302066	2.5103915
8.376479489321003	6.366542	2.5232008
8.394053265720377	6.426158	2.5349867
8.411627239898356	6.4073215	2.5312688
8.42920141227497	6.326796	2.5153124
8.44677578327029	6.2751274	2.5050204
8.464350353304427	6.2100134	2.4919899
8.48192512279754	6.210037	2.4919946
8.499500092169827	6.2140703	2.4928038
8.51707526184153	6.1727195	2.4844959
8.534650632232934	6.1443567	2.4787812
8.552226203764365	6.1407676	2.4780571
8.569801976856192	6.193454	2.488665
8.587377951928834	6.2985806	2.5096974
8.60495412940274	6.368576	2.5236037
8.622530509698416	6.424101	2.534581
8.6401070932364	6.551573	2.559604
8.657683880437283	6.596212	2.568309
8.675260871721695	6.7333174	2.5948637
8.692838067510303	6.9130497	2.629268
8.710415468223834	7.082731	2.66134
8.727993074283043	7.175406	2.6786947
8.745570886108737	7.0790315	2.660645
8.763148904121765	7.171838	2.6780288
8.78072712874302	7.276265	2.6974554
8.798305560393441	7.6125984	2.7590938
8.815884199494006	7.760719	2.7858067
8.833463046465745	7.895182	2.8098366
8.851042101729728	7.9624724	2.8217852
8.86862136570707	8.20917	2.865165
8.886200838818924	8.351647	2.8899217
8.903780521486505	8.439526	2.9050863
8.921360414131055	8.545365	2.9232457
8.938940517173874	8.645272	2.9402845
8.956520831036297	8.782928	2.9636006
8.97410135613971	9.037916	3.0063126
8.99168209290554	9.222739	3.0368962
9.009263041755265	9.538305	3.0884147
9.026844203110405	9.772528	3.1261044
9.044425577392525	9.986645	3.1601653
9.062007165023239	10.11104	3.1797862
9.079588966424197	10.439279	3.2309873
9.097170982017108	10.499374	3.2402737
9.11475321222372	11.494908	3.3904142
9.132335657465825	12.368255	3.5168529
9.149918318165264	12.466935	3.5308547
9.167501194743924	13.081166	3.6167896
9.18508428762374	12.694947	3.5629969
9.202667597226693	12.7064495	3.5646107
9.220251123974803	12.408704	3.522599
9.237834868290143	12.185174	3.490727
9.255418830594836	12.057724	3.4724233
9.273003011311046	11.378426	3.3731923
9.290587410860985	11.089096	3.3300295
9.308172029666911	10.389594	3.2232893
9.32575686815113	10.187738	3.1918237
9.343341926735997	8.92767	2.9879205
9.360927205843916	8.703837	2.9502268
9.378512705897327	8.4550705	2.9077604
9.396098427318728	8.2156725	2.8662994
9.413684370530664	8.107396	2.847349
9.431270535955722	8.062589	2.83947
9.448856924016539	7.9061604	2.8117895
9.466443535135806	7.7718983	2.7878125
9.484030369736251	7.8300996	2.7982316
9.501617428240658	7.8741	2.8060827
9.519204711071852	7.866703	2.8047643
9.536792218652714	7.773225	2.7880504
9.55437995140617	7.7855554	2.7902608
9.571967909755191	7.8350644	2.7991185
9.589556094122802	7.899016	2.8105187
9.60714450493207	8.002765	2.8289158
9.624733142606116	7.9824195	2.8253176
9.642322007568108	8.083187	2.8430946
9.659911100241267	8.046653	2.8366623
9.677500421048851	8.106993	2.847278
9.695089970414175	8.160653	2.8566856
9.712679748760609	8.134623	2.852126
9.730269756511557	8.14827	2.8545175
9.747859994090492	8.100928	2.8462129
9.765450461920915	8.169811	2.858288
9.78304116042639	8.241792	2.870852
9.800632090030527	8.356915	2.890833
9.81822325115699	8.407415	2.8995543
9.835814644229481	8.460164	2.908636
9.853406269671762	8.450659	2.9070017
9.870998127907646	8.388179	2.8962352
9.888590219360985	8.382641	2.8952792
9.906182544455698	8.302487	2.8814037
9.923775103615734	8.299886	2.8809521
9.941367897265108	8.256897	2.8734818
9.958960925827878	8.288476	2.8789713
9.97655418972816	8.304574	2.8817658
9.994147689390106	8.343258	2.88847
10.011741425237934	8.374345	2.893846
10.029335397695904	8.393639	2.8971777
10.04692960718833	8.3573065	2.8909006
10.06452405413958	8.374298	2.893838
10.082118738974064	8.354703	2.8904502
10.099713662116246	8.308225	2.882399
10.117308823990651	8.284995	2.8783667
10.134904225021844	8.33428	2.8869152
10.152499865634445	8.3402	2.8879404
10.170095746253125	8.283576	2.8781202
10.18769186730261	8.224488	2.867837
10.205288229207675	8.167436	2.8578725
10.222884832393145	8.2040205	2.8642662
10.2404816772839	8.13518	2.8522239
10.258078764304868	8.116582	2.8489616
10.275676093881035	8.1234665	2.8501697
10.293273666437438	8.175633	2.8593066
10.310871482399158	8.227987	2.8684468
10.32846954219134	8.21629	2.8664072
10.346067846239173	8.205771	2.8645718
10.363666394967908	8.222189	2.867436
10.38126518880283	8.29021	2.8792725
10.398864228169298	8.356704	2.8907964
10.416463513492713	8.346205	2.88898
10.434063045198531	8.315898	2.88373
10.451662823712262	8.194413	2.8625886
10.469262849459467	8.132102	2.851684
10.486863122865758	8.125162	2.850467
10.504463644356806	8.145777	2.8540807
10.522064414358338	8.118612	2.8493178
10.539665433296118	8.015862	2.83123
10.557266701595987	7.974431	2.8239036
10.574868219683818	7.897408	2.8102326
10.592469987985552	7.8373384	2.7995248
10.610072006927185	7.6883	2.7727785
10.627674276934751	7.598378	2.7565155
10.64527679843435	7.4964175	2.7379587
10.662879571852143	7.448548	2.7292027
10.680482597614331	7.3623166	2.7133589
10.698085876147173	7.2540264	2.69333
10.715689407876988	7.173001	2.6782458
10.733293193230146	7.065691	2.6581368
10.750897232633072	6.8994746	2.6266851
10.76850152651225	6.7414346	2.5964272
10.786106075294207	6.6637154	2.5814173
10.803710879405534	6.5857773	2.566277
10.821315939272877	6.5360856	2.556577
10.83892125532294	6.4023733	2.530291
10.856526827982472	6.28854	2.5076962
10.874132657678285	6.2722006	2.5044363
10.891738744837243	6.2866583	2.507321
10.909345089886271	6.2626157	2.5025218
10.926951693252343	6.203216	2.4906256
10.944558555362494	6.1100574	2.471853
10.96216567664381	6.0173597	2.4530308
10.979773057523436	5.9203124	2.4331691
10.997380698428573	5.8841014	2.4257166
11.014988599786477	5.8711314	2.4230418
11.032596762024461	5.842199	2.4170642
11.050205185569892	5.7311378	2.3939795
11.067813870850198	5.695059	2.3864322
11.085422818292859	5.6550145	2.3780274
11.10303202832541	5.53825	2.3533487
11.120641501375454	5.4388576	2.332136
11.138251237870636	5.301717	2.3025458
11.155861238238671	5.204845	2.2814128
11.173471502907317	5.207911	2.2820847
11.191082032304402	5.2535434	2.2920609
11.208692826857805	5.2455034	2.2903063
11.226303886995465	5.16647	2.2729871
11.243915213145371	5.0716357	2.2520292
11.261526805735578	5.017561	2.2399912
11.279138665194196	4.981244	2.2318702
11.296750791949393	4.929349	2.2202137
11.314363186429393	4.847565	2.2017186
11.331975849062479	4.809067	2.1929584
11.34958878027699	4.713547	2.1710706
11.36720198050133	4.7306695	2.1750102
11.384815450163948	4.648779	2.1561027
11.402429189693366	4.558225	2.135
11.420043199518153	4.5053887	2.12259
11.437657480066942	63.507973	7.969189
11.455272031768422	85.22124	9.231535
11.472886855051353	107.55409	10.370829
11.490501950344528	99.12352	9.9560795
11.508117318076819	84.45491	9.189936
11.52573295867715	45.84881	6.771175
11.543348872574514	4.143274	2.0355034
11.560965060197946	4.0791435	2.019689
11.57858152197655	4.06623	2.0164895
11.59619825833949	4.080959	2.0201383
11.613815269715985	4.1315355	2.0326178
11.631432556535323	38.654053	6.2172384
11.649050119226837	83.15626	9.119005
11.666667958219929	93.51251	9.670187
11.68428607394406	107.72698	10.379161
11.701904466828756	82.51251	9.08364
11.719523137303586	65.32561	8.082426
11.737142085798196	4.574988	2.1389222
11.754761312742286	3.7059093	1.9250739
11.772380818565619	3.659643	1.9130193
11.790000603698015	3.6361306	1.906864
11.80762066856935	3.595208	1.8961034
11.825241013609572	3.5893192	1.8945498
11.842861639248683	3.553178	1.8849876
11.860482545916748	3.5368629	1.8806549
11.878103734043883	3.4997058	1.8707501
11.895725204060282	3.4757783	1.864344
11.91334695639619	3.4739926	1.863865
11.930968991481919	3.4582472	1.8596363
11.948591309747824	3.4066224	1.8457037
11.966213911624347	3.3482754	1.8298293
11.98383679754198	3.2989943	1.8163134
12.001459967931268	3.3199873	1.8220832
12.019083423222835	3.3132925	1.8202451
12.036707163847352	3.3087301	1.8189915
12.05433119023556	3.2499776	1.8027694
12.071955502818259	3.1954334	1.7875775
12.089580102026313	3.223983	1.7955453
12.107204988290643	3.2377336	1.7993703
12.12483016204224	3.2651172	1.8069636
12.142455623712152	3.218103	1.7939072
12.16008137373149	3.179891	1.7832249
12.177707412531431	3.179753	1.7831862
12.19533374054321	3.205776	1.7904681
12.212960358198126	3.1575665	1.7769543
12.230587265927545	3.1302416	1.7692488
12.248214464162889	3.0450585	1.7450095
12.265841953335649	3.0295367	1.7405565
12.283469733877375	2.97274	1.7241635
12.301097806219685	2.9427147	1.7154343
12.31872617079425	2.9431279	1.7155547
12.336354828032825	2.9619107	1.7210202
12.353983778367205	2.9779212	1.7256655
12.371613022229262	2.9575932	1.7197654
12.389242560050928	2.9173226	1.7080171
12.406872392264201	2.8689775	1.6938057
12.424502519301143	2.8307283	1.6824769
12.442132941593874	2.8705406	1.694267
12.459763659574586	2.9162977	1.7077171
12.477394673675532	2.9452457	1.7161719
12.49502598432903	2.9033499	1.7039219
12.51265759196746	2.8478737	1.6875644
12.530289497023267	2.834638	1.6836383
12.547921699928967	2.8383045	1.6847268
12.565554201117134	2.8143046	1.6775889
12.583187001020404	2.7743871	1.6656492
12.600820100071486	2.770206	1.6643935
12.618453498703152	2.805613	1.6749964
12.636087197348235	2.7860475	1.6691457
12.65372119643964	2.8030007	1.6742164
12.671355496410326	2.8238835	1.6804415
12.68899009769333	2.8597736	1.6910865
12.706625000721749	2.8946302	1.7013613
12.724260205928752	2.9358885	1.7134435
12.741895713747551	2.9727252	1.7241592
12.759531524611454	3.0356247	1.7423044
12.777167638953818	3.021707	1.7383058
12.794804057208072	3.0484796	1.7459896
12.812440779807702	3.1006017	1.7608526
12.830077807186271	3.207024	1.7908165
12.847715139777405	3.2360187	1.7988937
12.865352778014795	3.4544454	1.8586138
12.882990722332197	3.646788	1.9096565
12.90062897316344	3.754767	1.9377221
12.918267530942412	3.8079054	1.9513855
12.935906396103071	3.650676	1.9106742
12.953545569079449	3.8156683	1.9533736
12.971185050305628	3.641763	1.9083403
12.988824840215775	3.7173586	1.9280453
13.006464939244115	3.7426453	1.9345918
13.024105347824943	3.5707753	1.8896495
13.041746066392617	3.6114748	1.900388
13.05938709538157	3.3768766	1.837628
13.077028435226296	3.3885262	1.840795
13.094670086361363	3.3143044	1.8205231
13.112312049221401	3.2243085	1.7956359
13.129954324241112	3.1088612	1.7631963
13.147596911855258	2.8976815	1.7022578
13.165239812498685	2.86582	1.6928732
13.182883026606293	2.8460271	1.6870172
13.200526554613058	2.814903	1.6777673
13.218170396954017	2.7703304	1.664431
13.235814554064284	2.7534356	1.6593479
13.253459026379034	2.7293742	1.6520817
13.271103814333523	2.7054877	1.6448367
13.288748918363058	2.6863499	1.6390088
13.306394338903031	2.680208	1.6371341
13.32404007638889	2.6498034	1.6278217
13.341686131256164	2.6633132	1.631966
13.359332503940449	2.6254113	1.6203121
13.376979194877402	2.6785648	1.6366322
13.394626204502751	2.7092423	1.6459776
13.412273533252307	2.7708962	1.664601
13.429921181561937	2.7838895	1.6684992
13.447569149867581	2.782732	1.6681523
13.465217438605247	2.767684	1.6636357
13.482866048211022	2.711195	1.6465707
13.500514979121052	2.6752968	1.6356335
13.518164231771568	2.6073523	1.6147298
13.535813806598844	2.5816598	1.6067544
13.553463704039254	2.6141436	1.6168313
13.571113924529229	2.6957595	1.6418768
13.588764468505275	2.7639184	1.6625036
13.606415336403956	2.7939732	1.6715182
13.624066528661917	2.7461627	1.657155
13.641718045715882	2.784388	1.6686486
13.659369888002635	2.860256	1.6912291
13.67702205595903	2.9448826	1.716066
13.694674550021993	3.0350897	1.7421509
13.712327370628532	3.075731	1.7537762
13.729980518215713	3.1741397	1.7816116
13.747633993220681	3.204284	1.7900513
13.765287796080647	3.2400632	1.8000176
13.7829419272329	3.2977984	1.8159841
13.800596387114801	3.3472223	1.8295416
13.818251176163775	3.3805292	1.8386215
13.835906294817324	3.4380794	1.8542058
13.853561743513023	3.4833386	1.8663704
13.871217522688525	3.5488224	1.8838319
13.888873632781538	3.5604134	1.8869058
13.906530074229858	3.575773	1.8909714
13.92418684747135	3.5560334	1.8857448
13.941843952943948	3.5243757	1.8773321
13.959501391085665	3.501784	1.8713055
13.977159162334578	3.4640305	1.8611906
13.994817267128846	3.3963566	1.8429207
14.012475705906693	3.296382	1.8155941
14.030134479106424	3.2444236	1.8012284
14.047793587166414	3.1989949	1.7885734
14.065453030525108	3.1353195	1.7706833
14.083112809621026	3.0882986	1.7573556
14.100772924892766	2.9926608	1.7299309
14.118433376778997	2.9591846	1.7202281
14.136094165718458	2.8384626	1.6847738
14.153755292149969	2.801973	1.6739095
14.171416756512416	2.7460232	1.657113
14.189078559244768	2.6869948	1.6392056
14.20674070078606	2.6199195	1.6186166
14.224403181575408	2.5627158	1.6008484
14.242066002051999	2.5274496	1.5897955
14.259729162655093	2.4854872	1.5765429
14.277392663824022	2.4337592	1.5600511
14.295056505998208	2.4374692	1.5612396
14.312720689617128	2.42627	1.5576489
14.330385215120348	2.3991156	1.5489079
14.348050082947497	2.402152	1.5498878
14.3657152935383	2.421702	1.5561818
14.383380847332528	2.407084	1.551478
14.401046744770051	2.433843	1.5600779
14.418712986290798	2.4446332	1.5635324
14.436379572334793	2.4641004	1.5697453
14.454046503342123	2.4268968	1.55785
14.471713779752946	2.413529	1.5535537
14.489381402007504	2.3820815	1.5433993
14.507049370546113	2.3583853	1.5357035
14.524717685809168	2.3738513	1.5407307
14.542386348237134	2.418306	1.5550904
14.560055358270553	2.459961	1.5684263
14.577724716350051	2.454496	1.566683
14.595394422916325	2.4415815	1.562556
14.61306447841015	2.4444935	1.5634876
14.63073488327237	2.4429884	1.5630062
14.648405637943917	2.4661167	1.5703875
14.6660767428658	2.453533	1.5663757
14.683748198479094	2.493539	1.5790944
14.701420005224954	2.5325189	1.591389
14.719092163544628	2.6367779	1.6238159
14.73676467387942	2.740665	1.6554954
14.754437536670727	2.796984	1.6724186
14.772110752360014	2.7955644	1.6719941
14.78978432138882	2.7214148	1.6496711
14.807458244198777	2.713914	1.6473961
14.82513252123159	2.6830487	1.6380014
14.842807152929028	2.6990786	1.6428872
14.860482139732962	2.6529145	1.628777
14.87815748208531	2.644127	1.6260772
14.8958331804281	2.62186	1.6192158
14.91350923520342	2.649288	1.6276634
14.931185646853438	2.687654	1.6394066
14.948862415820408	2.7165518	1.6481966
14.966539542546656	2.7008522	1.643427
14.98421702747459	2.6764493	1.6359857
15.001894871046696	2.674344	1.6353422
15.019573073705542	2.6557782	1.6296558
15.037251635893766	2.6352868	1.6233567
15.054930558054092	2.6717896	1.634561
15.072609840629323	2.7324543	1.6530137
15.090289484062351	2.8912306	1.7003618
15.107969488796124	3.2078578	1.7910494
15.125649855273691	3.6388383	1.9075739
15.14333058393817	4.165219	2.0408869
15.161011675232768	5.196153	2.2795072
15.17869312960076	6.520105	2.5534496
15.196374947485506	8.318944	2.884258
15.214057129330447	11.307767	3.3627024
15.231739675579114	15.994533	3.9993165
15.249422586675102	21.18906	4.6031575
15.267105863062092	24.402037	4.9398417
15.284789505183847	24.823982	4.982367
15.302473513484218	22.727896	4.7673783
15.320157888407127	19.121073	4.372765
15.337842630396578	14.867281	3.8558114
15.355527739896656	11.571345	3.401668
15.37321321735153	9.032016	3.0053313
15.39089906320545	6.631121	2.5750964
15.408585277902748	4.9608293	2.2272918
15.42627186188783	3.8602004	1.9647393
15.443958815605198	3.2807198	1.8112757
15.461646139499424	2.9401066	1.7146739
15.479333834015168	2.7759812	1.6661276
15.497021899597165	2.7156181	1.6479132
15.514710336690234	2.669425	1.6338375
15.53239914573928	2.6067264	1.6145359
15.550088327189297	2.5718012	1.6036836
15.567777881485336	2.5608823	1.6002758
15.58546780907256	2.5054836	1.5828719
15.6031581103962	2.5000732	1.581162
15.620848785901568	2.4601588	1.5684893
15.638539836034063	2.4723198	1.5723612
15.656231261239173	2.4584904	1.5679574
15.673923061962451	2.4563313	1.5672687
15.691615238649552	2.4466662	1.5641823
15.709307791746202	2.4258735	1.5575216
15.727000721698221	2.4280572	1.5582224
15.744694028951498	2.4398274	1.5619947
15.76238771395202	2.4355807	1.5606347
15.780081777145844	2.4327235	1.5597191
15.797776218979125	2.4200478	1.5556502
15.815471039898094	2.4022784	1.5499285
15.833166240349064	2.3373985	1.5288553
15.850861820778437	2.3354623	1.528222
15.868557781632699	2.3357005	1.5282999
15.886254123358412	2.3439841	1.5310075
15.903950846402232	2.3645668	1.5377148
15.921647951210897	2.3682706	1.5389186
15.939345438231225	2.3680842	1.538858
15.957043307910133	2.376327	1.541534
15.974741560694602	2.3851094	1.54438
15.992440197031714	2.3854978	1.5445057
16.01013921736862	2.3891551	1.5456892
16.02783862215259	2.4393222	1.561833
16.045538411830933	2.4571505	1.56753
16.06323858685107	2.480234	1.5748758
16.080939147660512	2.4335864	1.5599957
16.09864009470684	2.3878906	1.5452801
16.11634142843774	2.3623438	1.5369918
16.134043149300954	2.4037943	1.5504174
16.15174525774433	2.4407864	1.5623016
16.169447754215817	2.4756958	1.5734344
16.18715063916342	2.4679801	1.5709807
16.204853913035244	2.479042	1.5744973
16.222557576279478	2.50196	1.5817585
16.240261629344403	22.489258	4.742284
16.257966072678386	42.995228	6.5570745
16.275670906729868	38.070915	6.170163
16.293376131947387	2.5026898	1.5819892
16.31108174877957	2.532072	1.5912486
16.328787757675133	2.573392	1.6041795
16.34649415908287	2.6059573	1.6142977
16.364200953451657	2.5985613	1.6120054
16.38190814123048	2.5961325	1.6112518
16.39961572286839	2.6197238	1.6185561
16.41732369881455	2.6604702	1.6310948
16.43503206951817	2.6932487	1.6411121
16.45274083542859	2.7580783	1.6607463
16.47044999699522	2.7818882	1.6678994
16.488159554667558	2.8706067	1.6942865
16.505869508895184	2.918058	1.7082324
16.523579860127786	2.9712532	1.7237324
16.541290608815117	2.9869285	1.7282733
16.559001755407035	3.022906	1.7386507
16.57671330035348	3.0871525	1.7570294
16.59442524410448	3.1239326	1.767465
16.61213758711015	3.2019122	1.7893888
16.629850329820705	3.226281	1.7961851
16.647563472686436	3.3300185	1.8248339
16.665277016157724	3.381502	1.838886
16.682990960685053	3.4368677	1.8538791
16.70070530671898	3.457323	1.8593879
16.718420054710155	3.5312583	1.8791642
16.736135205109335	3.6157029	1.9015001
16.753850758367335	3.65667	1.9122422
16.771566714935087	3.6976626	1.9229307
16.789283075263597	3.7641377	1.9401386
16.80699983980398	3.8456712	1.9610382
16.82471700900741	3.889104	1.9720811
16.84243458332518	3.94616	1.9864944
16.860152563208665	3.981862	1.9954604
16.87787094910932	4.0417385	2.0104074
16.89558974147871	4.1101174	2.0273426
16.913308940768466	4.2510786	2.0618143
16.931028547430333	4.3056164	2.074998
16.94874856191613	4.3534307	2.0864878
16.966468984677785	4.4177246	2.1018384
16.98418981616729	4.489791	2.1189127
17.00191105683676	4.53268	2.1290092
17.019632707138374	4.5318165	2.1288064
17.03735476752442	4.5619106	2.135863
17.05507723844728	4.599342	2.1446075
17.072800120359403	4.62753	2.1511695
17.090523413713353	4.655856	2.1577432
17.108247118961785	4.6654835	2.1599731
17.125971236557437	4.6667323	2.160262
17.143695766953133	4.6948833	2.1667678
17.161420710601806	4.756891	2.1810298
17.179146067956477	4.788758	2.188323
17.19687183947025	4.76397	2.182652
17.21459802559634	4.730833	2.1750479
17.232324626788028	4.696074	2.1670427
17.25005164349871	4.6587367	2.1584108
17.267779076181863	4.6269	2.1510231
17.285506925291074	4.6512094	2.1566663
17.30323519127999	4.6232886	2.1501834
17.320963874602384	4.636235	2.1531918
17.33869297571211	4.5996265	2.144674
17.356422495063114	4.6042814	2.1457589
17.37415243310944	4.558347	2.1350286
17.391882790305218	4.575333	2.1390028
17.40961356710468	4.5760117	2.1391613
17.42734476396215	4.560607	2.1355577
17.445076381332044	4.5603433	2.1354961
17.462808419668868	4.63145	2.1520805
17.48054087942723	4.785579	2.1875966
17.498273761061835	5.0320854	2.243231
17.51600706502747	5.499486	2.3450983
17.533740791779024	6.1889243	2.4877548
17.551474941771485	7.584466	2.753991
17.56920951545993	8.639274	2.939264
17.586944513299528	10.803367	3.2868476
17.60467993574556	12.582382	3.5471654
17.622415783253373	14.404558	3.7953336
17.64015205627843	15.964589	3.9955711
17.657888755276293	17.004087	4.1236014
17.675625880702604	17.425785	4.1744204
17.69336343301311	17.141727	4.140257
17.71110141266366	16.297533	4.03702
17.728839820110178	15.379135	3.921624
17.746578655808705	14.48078	3.805362
17.764317920215372	13.024009	3.608879
17.7820576137864	11.534686	3.3962753
17.79979773697811	9.57509	3.0943644
17.81753829024692	7.705976	2.775964
17.835279274049356	5.977014	2.4447932
17.85302068884201	4.9012566	2.2138782
17.870762535081607	4.19493	2.048153
17.888504813224934	3.8908255	1.9725176
17.90624752372891	3.7040834	1.9245995
17.923990667050536	3.5892792	1.8945394
17.941734243646895	3.5326977	1.8795472
17.959478253975185	3.4833903	1.8663843
17.9772226984927	3.4742434	1.8639323
17.994967577656833	3.3962839	1.842901
18.01271289192506	3.3827176	1.8392166
18.030458641754965	3.3706293	1.8359274
18.04820482760425	3.3619566	1.8335639
18.06595144993067	3.3174222	1.8213792
18.083698509192125	3.3222299	1.8226985
18.101446005846576	3.2912745	1.814187
18.119193940352105	3.2871795	1.813058
18.136942313166887	3.23142	1.797615
18.1546911247492	3.2425463	1.8007072
18.1724403755574	3.1996312	1.7887512
18.19019006604997	3.179025	1.782982
18.207940196685467	3.1468713	1.7739424
18.225690767922575	3.1071093	1.7626995
18.243441780220046	3.0954192	1.7593803
18.261193234036764	3.081683	1.7554723
18.278945129831676	3.1167262	1.7654252
18.29669746806386	3.1473212	1.7740691
18.314450249192483	3.122674	1.7671089
18.3322034736768	3.058473	1.748849
18.349957141976184	3.0386112	1.7431612
18.3677112545501	3.054898	1.7478267
18.385465811858108	3.0839632	1.7561216
18.403220814359884	3.1086094	1.763125
18.420976262515172	3.1331363	1.7700667
18.43873215678387	3.1129665	1.7643601
18.456488497625923	3.0835028	1.7559905
18.474245285501407	3.1511154	1.7751381
18.492002520870486	3.3041244	1.8177251
18.50976020419343	3.3912559	1.8415363
18.527518335930615	3.670093	1.9157487
18.545276916542516	4.2225046	2.0548735
18.563035946489688	4.390105	2.0952578
18.580795426232832	4.9459696	2.2239535
18.598555356232698	4.866319	2.2059736
18.616315736950185	5.16775	2.2732685
18.63407656884626	4.7208505	2.172752
18.65183785238201	4.912828	2.21649
18.669599588018617	4.718109	2.1721208
18.68736177621737	4.7312403	2.1751413
18.705124417439652	4.7102356	2.1703076
18.72288751214696	4.4969087	2.1205916
18.740651060800886	4.6060767	2.1461773
18.758415063863115	4.277778	2.068279
18.77617952179546	4.422356	2.1029398
18.793944435059814	4.2108684	2.05204
18.811709804118184	4.268922	2.0661368
18.829475629432675	4.2402163	2.0591786
18.8472419114655	4.050874	2.0126784
18.86500865067897	4.1085806	2.0269635
18.88277584753551	3.8225577	1.9551362
18.90054350249763	3.8231838	1.9552964
18.918311616027957	3.5094576	1.8733547
18.936080188589226	3.4128442	1.8473885
18.953849220644265	3.1003623	1.7607846
18.971618712656007	2.9184961	1.7083607
18.9893886650875	2.8433225	1.6862154
19.007159078401887	8.005552	2.8294084
19.024929953062408	32.885815	5.7346153
19.042701289532435	32.805885	5.727642
19.060473088275405	25.37753	5.0376115
19.07824534975489	2.6431906	1.6257893
19.096018074434568	2.612814	1.6164201
19.113791262778197	2.594927	1.6108778
19.13156491524966	2.6124167	1.6162972
19.149339032312945	2.6317425	1.6222646
19.167113614432136	2.6203961	1.6187638
19.184888662071433	2.590448	1.6094868
19.202664175695123	2.5686595	1.6027038
19.220440155767623	2.5532107	1.5978769
19.238216602753447	2.548568	1.5964235
19.2559935171172	2.5808854	1.6065134
19.27377089932361	2.5821745	1.6069146
19.291548749837514	2.5496204	1.5967531
19.309327069123835	2.5151336	1.5859172
19.32710585764763	2.5193787	1.5872551
19.344885115874032	2.5264888	1.5894933
19.362664844268313	2.529209	1.5903487
19.380445043295822	2.525217	1.5890932
19.39822571342203	2.4972503	1.5802691
19.41600685511252	2.500248	1.5812173
19.43378846883297	2.4924765	1.5787579
19.451570555049173	2.4673944	1.5707942
19.469353114227037	2.458381	1.5679225
19.48713614683254	2.4529116	1.5661774
19.50491965333182	2.4768	1.5737852
19.52270363419109	2.4883044	1.577436
19.540488089876686	2.4868774	1.5769837
19.55827302085503	2.4611855	1.5688165
19.576058427592674	2.4780319	1.5741765
19.593844310556282	2.52333	1.5884993
19.611630670212598	2.5534523	1.5979525
19.629417507028506	2.5566301	1.5989466
19.64720482147098	2.5389607	1.5934117
19.6649926140071	2.4941897	1.5793004
19.682780885104084	2.4890664	1.5776775
19.70056963522921	2.5262825	1.5894284
19.718358864849908	2.570241	1.6031971
19.7361485744337	2.5649803	1.6015556
19.753938764448215	2.538951	1.5934086
19.771729435361202	2.5425398	1.5945344
19.789520587640506	2.5453916	1.5954283
19.807312221754092	2.5430202	1.594685
19.825104338170043	2.5417535	1.5942878
19.842896937356517	2.5492616	1.5966407
19.860690019781824	2.556006	1.5987514
19.87848358591436	2.5636284	1.6011335
19.896277636222635	2.5823681	1.6069748
19.914072171175278	2.564791	1.6014965
19.931867191241015	2.5447	1.5952115
19.94966269688869	2.519216	1.5872039
19.967458688587264	2.4857783	1.5766351
19.985255166805807	2.4741974	1.5729581
20.00305213201348	2.504983	1.5827138
20.020849584679578	2.5187364	1.5870527
20.038647525273507	2.5053442	1.5828279
20.05644595426477	2.4712117	1.5720088
20.07424487212299	2.4760432	1.5735447
20.092044279317903	2.4702458	1.5717015
20.109844176319353	2.4512053	1.5656326
20.127644563597304	2.3973777	1.5483468
20.145445441621817	2.3987641	1.5487944
20.16324681086307	2.4020054	1.5498405
20.181048671791373	2.4181285	1.5550333
20.198851024877122	2.4208925	1.5559218
20.216653870590836	2.4160273	1.5543575
20.234457209403146	2.4194095	1.5554451
20.252261041784802	2.4160829	1.5543754
20.270065368206662	2.4095316	1.5522666
20.287870189139685	2.3874803	1.5451473
20.305675505054968	2.3567789	1.5351804
20.323481316423702	2.3652093	1.5379237
20.341287623717207	2.411629	1.552942
20.359094427406884	2.4307	1.5590702
20.376901727964288	2.4142935	1.5537997
20.39470952586107	2.401885	1.5498016
20.41251782156899	2.3803244	1.54283
20.430326615559935	2.374011	1.5407826
20.448135908305886	2.330186	1.5264946
20.465945700278965	2.301459	1.5170561
20.483755991951384	2.284703	1.5115234
20.50156678379548	2.2821922	1.5106926
20.519378076283708	2.2807164	1.5102041
20.537189869888635	2.2971377	1.5156311
20.55500216508294	2.314372	1.521306
20.572814962339415	2.3319592	1.5270754
20.59062826213098	2.3372607	1.5288103
20.60844206493066	2.3416033	1.5302298
20.626256371211593	2.3115551	1.5203799
20.644071181447032	2.3016124	1.5171065
20.66188649611036	2.3221524	1.523861
20.67970231567506	2.2869258	1.5122585
20.697518640614742	2.2652571	1.5050771
20.715335471403122	2.2652948	1.5050896
20.73315280851404	2.2924564	1.514086
20.750970652421447	2.3302195	1.5265057
20.768789003599412	2.345574	1.5315267
20.786607862522136	2.344764	1.5312623
20.8044272296639	2.3100305	1.5198784
20.82224710549913	2.2971115	1.5156225
20.84006749050237	2.3061168	1.5185905
20.857888385148268	3.854619	1.9633183
20.8757097899116	46.00524	6.7827163
20.893531705267254	64.86843	8.054094
20.911354131690224	83.89938	9.15966
20.92917706965566	69.13146	8.314533
20.94700051963877	50.191612	7.084604
20.96482448211493	29.447954	5.426597
20.982648957559622	4.2087893	2.0515335
21.00047394644843	2.2898376	1.5132209
21.01829944925707	2.2667887	1.5055858
21.036125466461375	2.2965183	1.5154268
21.053951998537297	2.2964518	1.5154048
21.071779045960906	2.2570233	1.5023392
21.089606609208378	2.268811	1.5062573
21.10743468875603	2.3191357	1.5228709
21.12526328508028	2.3010674	1.5169269
21.143092398657675	2.2627563	1.5042461
21.16092202996488	2.2369792	1.4956535
21.17875217947867	2.229302	1.4930847
21.19658284767596	2.235397	1.4951245
21.21441403503377	2.2365174	1.495499
21.232245742029225	2.2213955	1.4904346
21.2500779691396	2.175973	1.4751179
21.26791071684227	2.131389	1.4599277
21.28574398561475	2.1402133	1.4629468
21.30357777593465	2.173947	1.4744312
21.321412088279704	2.2010958	1.4836091
21.339246923127792	2.1946266	1.4814272
21.357082280956888	2.1744998	1.4746186
21.3749181622451	2.152673	1.4671991
21.392754567470647	2.1776853	1.4756982
21.41059149711187	2.1632578	1.4708017
21.42842895164726	2.1456246	1.4647951
21.446266931555378	2.1244245	1.4575405
21.464105437314945	2.1307926	1.4597235
21.481944469404798	2.1476018	1.4654698
21.49978402830388	2.1311967	1.4598619
21.51762411449127	2.1391754	1.462592
21.53546472844617	2.1066632	1.4514349
21.553305870647876	2.1003895	1.449272
21.571147541575865	2.0741715	1.4401984
21.58898974170967	2.0961	1.4477915
21.60683247152899	2.1243057	1.4574999
21.62467573151363	2.1374898	1.4620156
21.642519522143523	2.1315494	1.4599826
21.660363843898722	2.141666	1.4634432
21.6782086972594	2.1363251	1.4616174
21.696054082705864	2.152194	1.4670358
21.713900000718535	2.1070719	1.4515756
21.73174645177795	2.079935	1.442198
21.749593436364794	2.064276	1.4367589
21.767440954959845	2.0802531	1.4423083
21.785289008044032	2.086821	1.4445834
21.803137596098388	2.0747166	1.4403876
21.820986719604086	2.054268	1.4332718
21.838836379042412	2.042929	1.4293107
21.85668657489478	2.0382376	1.4276686
21.87453730764273	2.008474	1.4172064
21.892388577767914	1.9917473	1.4112928
21.91024038575213	2.0061407	1.4163829
21.928092732077285	2.0395632	1.4281328
21.945945617225426	2.0218356	1.4219127
21.963799041678694	1.9710927	1.403956
21.981653005919398	31.271397	5.5920835
21.999507510429943	78.11224	8.838113
22.01736255569286	73.08659	8.549069
22.035218142190818	4.2358813	2.0581257
22.05307427040661	2.044714	1.429935
22.07093094082315	2.0246081	1.4228872
22.088788153923474	1.9935676	1.4119375
22.106645910190746	1.9866078	1.4094708
22.12450421010827	1.9964097	1.4129436
22.142363054159464	2.033931	1.4261595
22.16022244282787	2.045652	1.4302629
22.178082376597164	2.0430486	1.4293525
22.195942855951145	2.0102322	1.4178265
22.213803881373742	2.002687	1.4151633
22.231665453349002	1.9723334	1.4043978
22.24952757236111	1.9865787	1.4094604
22.26739023889438	2.00034	1.4143337
22.28525345343323	2.0088916	1.4173537
22.30311721646225	2.0168996	1.4201759
22.320981528466113	2.013263	1.418895
22.33884638992964	2.0057914	1.4162596
22.356711801337788	1.9867724	1.4095291
22.37457776317561	2.000599	1.4144253
22.392444275928337	2.0099535	1.4177283
22.410311340081282	1.9892391	1.4104038
22.428178956119904	1.9705151	1.4037504
22.446047124529805	1.9527912	1.397423
22.46391584579669	1.9735494	1.4048307
22.481785120406414	1.9728688	1.4045885
22.49965494884496	1.9785725	1.4066174
22.51752533159841	1.9637119	1.401325
22.53539626915302	1.9276322	1.388392
22.553267761995137	1.945418	1.3947824
22.571139810611264	1.973311	1.4047458
22.589012415488025	1.9764982	1.4058799
22.60688557711216	1.9557542	1.3984828
22.624759295970566	1.9273243	1.3882811
22.642633572550263	1.9391699	1.3925408
22.660508407338362	1.9033116	1.3796057
22.67838380082217	1.9039687	1.3798437
22.696259753489077	1.8670428	1.3663977
22.714136265826614	1.8736795	1.3688241
22.73201333832246	1.8916922	1.375388
22.74989097146439	1.9158108	1.3841282
22.76776916574035	1.9570602	1.3989497
22.785647921638393	1.9794961	1.4069457
22.803527239646712	1.9609346	1.4003338
22.82140712025363	1.8971751	1.3773798
22.839287563947593	1.8870174	1.3736875
22.85716857121719	1.8913743	1.3752725
22.875050142551135	1.92801	1.388528
22.892932278438277	1.9062853	1.380683
22.910814979367604	1.9249514	1.3874261
22.928698245828222	1.9300181	1.3892509
22.946582078309387	1.9325248	1.3901528
22.96446647730047	1.8833649	1.3723575
22.98235144329098	1.8168806	1.3479171
23.000236976770562	1.8350822	1.354652
23.018123078229	1.8831367	1.3722743
23.03600974815619	1.914473	1.3836448
23.053896987042194	1.9479989	1.3957072
23.071784795377173	1.9469326	1.3953253
23.08967317365145	1.9524415	1.3972979
23.10756212235546	1.9280382	1.3885381
23.125451641979787	1.9168391	1.3844995
23.143341733015134	1.9062223	1.38066
23.161232395952357	1.8673778	1.3665203
23.179123631282426	1.9023407	1.3792536
23.197015439496468	1.9198593	1.3855898
23.214907821085717	1.9499378	1.3964018
23.23280077654157	1.929827	1.3891821
23.250694306355538	1.9701742	1.403629
23.268588411019277	1.9954201	1.4125934
23.28648309102458	1.9871234	1.4096537
23.304378346863356	1.9565276	1.3987592
23.322274179027676	1.9308834	1.3895622
23.340170588009723	1.9203328	1.3857608
23.358067574301852	1.9636244	1.4012939
23.37596513839651	1.9596804	1.3998859
23.39386328078629	1.9448465	1.3945775
23.411762001963947	1.8927613	1.3757766
23.429661302422353	1.8775353	1.3702319
23.4475611826545	1.883399	1.3723699
23.46546164315356	1.8988388	1.3779836
23.48336268441279	1.9012352	1.3788528
23.501264306925638	1.9137081	1.3833684
23.51916651118564	1.9067906	1.3808659
23.537069297686497	1.9156566	1.3840724
23.554972666922037	1.9555091	1.3983952
23.57287661938623	1.9190352	1.3852924
23.59078115557318	1.8781618	1.3704604
23.608686275977128	1.8895485	1.3746085
23.62659198109246	1.9202758	1.3857402
23.6444982714137	1.89393	1.3762013
23.66240514743549	1.873689	1.3688276
23.68031260965263	1.9027857	1.3794149
23.698220658560068	1.9298335	1.3891845
23.716129294652845	1.9356043	1.39126
23.7340385184262	1.9311877	1.3896718
23.75194833037546	1.9021205	1.3791739
23.769858730996123	1.9279367	1.3885016
23.78776972078382	1.9202573	1.3857335
23.80568130023431	1.9583737	1.3994191
23.823593469843495	1.9442182	1.3943522
23.841506230107424	1.9374776	1.3919331
23.859419581522275	1.9019171	1.3791001
23.87733352458438	1.8868454	1.3736249
23.89524805979019	1.8933787	1.376001
23.913163187636318	1.9233915	1.386864
23.931078908619508	1.9568831	1.3988863
23.948995223236633	2.0237145	1.4225732
23.966912131984735	2.0598109	1.4352041
23.98482963536096	2.0742948	1.4402412
24.002747733862616	2.011688	1.4183398
24.020666427987155	1.9952117	1.4125197
24.038585718232156	2.007082	1.4167153
24.056505605095353	2.0176315	1.4204335
24.074426089074617	2.078873	1.4418297
24.092347170667946	2.1351426	1.4612128
24.110268850373515	2.126235	1.4581615
24.128191128689586	2.1168437	1.4549377
24.146114006114626	2.080963	1.4425544
24.164037483147187	2.0883439	1.4451103
24.181961560286005	2.082772	1.4431812
24.199886238029926	2.072331	1.4395593
24.21781151687797	2.0546687	1.4334116
24.235737397329274	2.0364265	1.4270341
24.253663879883135	2.0355725	1.4267349
24.271590965038975	2.0728364	1.4397348
24.289518653296376	2.0671725	1.4377666
24.30744694515505	2.0351872	1.4265999
24.32537584111486	2.005041	1.4159946
24.34330534167581	1.9820273	1.4078449
24.361235447338046	2.0356941	1.4267775
24.379166158601876	2.04071	1.4285342
24.39709747596772	2.0454257	1.4301838
24.41502939993615	2.0838764	1.4435638
24.432961931007917	2.0442712	1.4297801
24.450895069683856	2.0207696	1.4215378
24.468828816465	1.9691156	1.4032518
24.4867631718525	1.9804598	1.4072881
24.504698136347656	1.977826	1.406352
24.52263371045192	1.968171	1.4029151
24.540569894666874	1.9591349	1.399691
24.558506689494266	1.952757	1.3974109
24.57644409543597	2.003267	1.4153682
24.594382112994012	2.0018888	1.4148812
24.61232074267057	1.9941187	1.4121326
24.630259984967953	1.9855409	1.4090922
24.64819984038863	1.977917	1.4063843
24.66614030943522	1.9883208	1.4100783
24.684081392610462	2.0094204	1.4175403
24.702023090417274	2.0113761	1.4182299
24.7199654033587	2.0025272	1.4151068
24.737908331937927	2.0480146	1.4310886
24.755851876658305	2.1233618	1.457176
24.773796038023324	2.096075	1.4477828
24.79174081653661	2.09136	1.4461535
24.809686212701962	2.1067562	1.4514669
24.827632227023294	2.161447	1.4701861
24.8455788600047	2.1533215	1.46742
24.8635261121504	2.1548193	1.4679303
24.88147398396475	2.1437335	1.4641494
24.899422475952303	2.174143	1.4744976
24.917371588617698	2.1695514	1.4729397
24.935321322465768	2.2043276	1.4846978
24.953271678001478	2.340958	1.530019
24.97122265572994	2.5420177	1.5943706
24.989174256156414	2.804312	1.674608
25.00712647978632	3.2512054	1.8031099
25.02507932712521	3.7864664	1.9458845
25.043032798678798	4.3844385	2.093905
25.060986894952933	5.0079427	2.2378433
25.078941616453637	5.7358046	2.394954
25.096896963687055	6.683237	2.5851958
25.114852937159508	7.9089184	2.81228
25.132809537377444	8.37128	2.8933163
25.150766764847468	8.414464	2.9007695
25.168724620076347	7.7979293	2.7924774
25.186683103570985	6.7976475	2.60723
25.204642215838426	5.6793246	2.3831334
25.222601957385894	4.366126	2.0895276
25.24056232872074	3.300491	1.8167254
25.25852333035048	2.6371226	1.623922
25.276484962782778	2.2613516	1.503779
25.294447226525435	2.0753613	1.4406114
25.312410122086423	1.9922125	1.4114575
25.330373649973843	1.9657842	1.4020642
25.348337810695988	1.9849632	1.4088873
25.366302604761245	1.9737816	1.4049134
25.384268032678207	1.9131615	1.3831708
25.40223409495558	1.9005039	1.3785876
25.420200792102257	1.883589	1.372439
25.438168124627246	1.8519939	1.3608798
25.45613609303974	1.8516277	1.3607453
25.474104697849057	1.8888416	1.3743514
25.492073939564698	1.9141353	1.3835227
25.510043818696285	1.8868959	1.3736433
25.528014335753614	1.8899544	1.3747561
25.54598549124664	1.8966793	1.3771998
25.56395728568544	1.9159138	1.3841654
25.58192971958028	1.8906717	1.375017
25.59990279344156	1.9267069	1.3880587
25.617876507779833	1.9390932	1.3925133
25.635850863105826	1.9447162	1.3945308
25.653825859930386	1.9381776	1.3921845
25.671801498764548	1.9098372	1.3819686
25.68977778011949	1.9011694	1.378829
25.707754704506524	1.8518587	1.3608302
25.725732272437153	1.8341945	1.3543243
25.743710484423012	1.8704268	1.3676355
25.761689340975888	1.9005305	1.3785973
25.77966884260774	1.8585058	1.3632703
25.797648989830662	1.8585888	1.3633007
25.815629783156922	1.8569915	1.3627148
25.83361122309895	1.8753824	1.369446
25.85159331016929	1.8651185	1.3656934
25.869576044880695	1.8442712	1.3580395
25.887559427746034	1.823343	1.3503122
25.90554345927836	1.8348324	1.3545599
25.92352813999086	1.8735064	1.368761
25.94151347039689	1.9129175	1.3830826
25.959499451009965	1.8913981	1.3752811
25.97748608234374	1.8207971	1.3493692
25.995473364912062	1.7810407	1.3345563
26.013461299228904	1.8172182	1.3480424
26.03144988580839	1.8457348	1.3585782
26.04943912516483	1.80782	1.3445519
26.067429017812675	1.8349385	1.354599
26.085419564266537	1.8744689	1.3691125
26.103410765041186	1.8682775	1.3668495
26.12140262065155	1.8657697	1.3659319
26.139395131612723	1.8730274	1.368586
26.157388298439948	1.884973	1.3729432
26.17538212164861	1.8783876	1.3705428
26.193376601754295	1.8239982	1.3505548
26.211371739272714	1.8138269	1.3467839
26.229367534719746	1.7939891	1.3393987
26.247363988611433	1.7682022	1.3297377
26.26536110146397	1.7796088	1.3340198
26.283358873793727	1.8122522	1.3461992
26.301357306117204	1.8405714	1.3566766
26.319356398951104	1.84537	1.358444
26.33735615281224	1.8645102	1.3654706
26.35535656821762	1.8287364	1.3523078
26.373357645684404	1.856552	1.3625535
26.39135938572991	1.8735441	1.3687747
26.409361788871614	1.9308788	1.3895606
26.427364855627165	1.9138473	1.3834187
26.445368586514352	1.8813236	1.3716135
26.46337298205115	1.8363751	1.3551292
26.48137804275568	1.8047557	1.3434119
26.499383769146217	1.8120959	1.3461411
26.517390161741215	1.8075335	1.3444455
26.53539722105928	1.8298538	1.3527209
26.553404947619182	1.811885	1.3460628
26.571413341939856	1.8056288	1.3437369
26.589422404540397	1.8003659	1.3417772
26.60743213594006	1.8498989	1.3601099
26.62544253665827	1.8533776	1.3613881
26.64345360721459	1.8566805	1.3626007
26.66146534812879	1.8175211	1.3481547
26.679477759920758	1.8007324	1.3419137
26.69749084311057	1.8017874	1.3423067
26.71550459821847	1.8202734	1.3491751
26.733519025764842	1.8167077	1.3478531
26.751534126270258	1.8091956	1.3450634
26.769549900255434	1.812003	1.3461066
26.787566348241267	1.7998198	1.3415736
26.80558347074881	1.8035592	1.3429666
26.823601268299267	1.8266062	1.35152
26.841619741414036	1.8617626	1.3644643
26.85963889061465	1.8379864	1.3557235
26.877658716422832	1.7933487	1.3391597
26.89567921936045	1.7644914	1.3283416
26.913700399949544	1.8132002	1.3465512
26.93172225871233	1.8874102	1.3738304
26.949744796171174	1.8925288	1.3756921
26.967768012848605	1.8560623	1.3623738
26.98579190926733	1.8052756	1.3436054
27.003816485950225	1.8056071	1.3437288
27.021841743420318	1.7987531	1.341176
27.039867682200814	1.7670288	1.3292964
27.057894302815072	1.7950705	1.3398024
27.07592160578664	1.858286	1.3631897
27.0939495916392	1.8944821	1.3764019
27.111978260896635	1.8781796	1.370467
27.13000761408296	1.8118516	1.3460504
27.148037651722397	1.7945251	1.3395989
27.166068374339304	1.7809408	1.3345189
27.184099782458215	1.7726537	1.3314104
27.20213187660384	1.7980864	1.3409275
27.22016465730105	1.7923421	1.3387839
27.23819812507487	1.7803886	1.3343121
27.256232280450533	1.8097682	1.3452762
27.274267123953383	1.843983	1.3579334
27.292302656108987	1.8639529	1.3652666
27.31033887744306	1.8688021	1.3670413
27.32837578848146	1.8302742	1.3528763
27.34641338975026	1.8019307	1.3423601
27.364451681775673	1.7991024	1.3413062
27.382490665084074	1.8079404	1.3445967
27.400530340202046	1.8150592	1.3472413
27.41857070765629	1.814559	1.3470557
27.436611767973726	1.8481189	1.3594553
27.454653521681404	1.8313488	1.3532734
27.472695969306564	1.8163329	1.347714
27.490739111376627	1.8193369	1.348828
27.508782948419153	1.8288205	1.3523389
27.526827480961902	1.832452	1.353681
27.54487270953279	1.8413178	1.3569516
27.562918634659898	1.8517737	1.360799
27.580965256871508	1.8470283	1.3590542
27.599012576696026	1.8245919	1.3507745
27.617060594662068	1.8205388	1.3492734
27.63510931129842	1.857169	1.3627799
27.65315872713401	1.8603476	1.3639456
27.67120884269797	1.8253249	1.3510458
27.68925965851958	1.8147643	1.3471318
27.707311175128307	1.8242769	1.3506579
27.725363393053787	1.8197529	1.3489822
27.74341631282583	1.876109	1.3697113
27.7614699349744	1.907286	1.3810452
27.77952426002968	2.0838614	1.4435586
27.797579288521973	2.195667	1.4817784
27.815635020981784	2.5581882	1.5994337
27.83369145793979	2.5465147	1.5957803
27.85174859992682	2.3907518	1.5462056
27.869806447473923	2.2805777	1.5101582
27.887865001112267	1.9547769	1.3981334
27.905924261373233	1.8360398	1.3550055
27.92398422878836	1.8203349	1.3491979
27.94204490388936	1.8485231	1.359604
27.96010628720813	1.840742	1.3567395
27.978168379276728	1.864749	1.3655581
27.9962311806274	1.830448	1.3529406
28.014294691792568	1.8162569	1.3476857
28.0323589133048	1.8001333	1.3416905
28.050423845696887	1.7951694	1.3398393
28.068489489501758	1.7882962	1.3372719
28.086555845252523	1.8257949	1.3512198
28.104622913482487	1.8944478	1.3763894
28.122690694725115	1.9213687	1.3861345
28.14075918951405	1.9377179	1.3920194
28.15882839838312	1.9166358	1.3844261
28.176898321866304	1.8986313	1.3779083
28.1949689604978	1.8741016	1.3689783
28.213040314811945	1.902349	1.3792567
28.23111238534327	1.9240199	1.3870904
28.249185172626493	1.9020727	1.3791565
28.267258677196473	1.8848412	1.3728952
28.285332899588294	1.9230595	1.3867441
28.303407840337172	1.9484875	1.3958824
28.321483499978545	1.9572178	1.399006
28.33955987904799	1.9376345	1.3919894
28.357636978081285	1.9521952	1.3972098
28.37571479761439	1.9330882	1.3903555
28.393793338183425	1.9844217	1.4086951
28.41187260032469	2.0209439	1.421599
28.429952584574686	1.9983084	1.4136153
28.448033291470065	2.0189238	1.4208884
28.46611472154769	2.0513277	1.4322457
28.484196875344566	2.0754294	1.4406351
28.502279753397914	2.0749123	1.4404556
28.52036335624511	2.0171318	1.4202577
28.538447684423716	1.9332777	1.3904235
28.556532738471482	1.9570954	1.3989623
28.574618518926325	2.0048964	1.4159436
28.59270502632635	2.0523806	1.4326131
28.61079226120985	2.0765738	1.4410322
28.628880224115274	2.0367916	1.427162
28.646968915581287	1.9951117	1.4124843
28.66505833614671	2.006144	1.4163841
28.68314848635055	2.0857584	1.4442155
28.701239366732004	2.1257439	1.4579931
28.71933097783044	2.102737	1.4500817
28.737423320185403	2.0352533	1.426623
28.75551639433665	2.1081893	1.4519606
28.773610200824074	2.1341681	1.4608792
28.791704740187793	2.1281126	1.4588052
28.80980001296809	2.1941786	1.481276
28.827896019705413	2.2659364	1.5053028
28.845992760940433	2.2354426	1.4951397
28.86409023721397	2.2407615	1.4969174
28.88218844906704	2.2353096	1.4950951
28.900287397040845	2.2523344	1.500778
28.918387081676755	2.2911339	1.5136492
28.936487503516343	2.2790668	1.5096579
28.954588663101365	2.2534542	1.501151
28.97269056097374	2.2533724	1.5011237
28.990793197675597	2.2622216	1.5040684
29.00889657374923	2.3477085	1.5322233
29.027000689737125	2.4472337	1.5643637
29.04510554618196	2.4774563	1.5739938
29.06321114362659	2.4579623	1.567789
29.08131748261405	2.4352942	1.560543
29.099424563687567	2.4808598	1.5750746
29.11753238739057	2.5047338	1.582635
29.13564095426663	2.5254962	1.589181
29.15375026485954	2.6543865	1.6292288
29.171860319713275	2.7075555	1.6454651
29.18997111937199	2.730855	1.6525298
29.20808266438002	2.7174697	1.6484749
29.226194955281898	2.6856248	1.6387876
29.244307992622335	2.7547603	1.659747
29.26242177694624	2.845162	1.6867608
29.2805363087987	2.891328	1.7003906
29.29865158872498	2.9259837	1.7105507
29.316767617270557	2.9135733	1.7069192
29.334884394981064	2.9709651	1.7236488
29.353001922402367	3.0287573	1.7403325
29.37112020008047	3.0590127	1.7490033
29.389239228561596	3.1410244	1.7722936
29.407359008392152	3.330243	1.8248954
29.42547954011872	3.6571984	1.9123803
29.44360082428809	4.211816	2.052271
29.46172286144722	5.323654	2.3073046
29.479845652143283	6.9227886	2.6311193
29.497969196923606	8.982942	2.9971557
29.516093496335728	11.568749	3.4012864
29.5342185509274	14.437953	3.7997305
29.55234436124651	16.732666	4.090558
29.570470927841175	18.249968	4.271998
29.588598251259686	18.157469	4.261158
29.60672633205055	16.851526	4.105061
29.624855170762405	14.732662	3.838315
29.642984767944146	11.946637	3.4563909
29.66111512414481	9.178672	3.0296323
29.67924623991366	6.8012037	2.6079118
29.697378115800138	5.1811814	2.2762208
29.71551075235387	4.2050214	2.0506148
29.733644150124675	3.8121443	1.9524714
29.751778309662576	3.6091611	1.8997792
29.769913231517766	3.5010233	1.8711022
29.78804891624066	3.4663262	1.8618072
29.806185364381818	3.4534035	1.8583335
29.82432257649206	3.4306488	1.8522011
29.842460553122333	3.4044032	1.8451025
29.86059929482382	3.3536055	1.8312852
29.878738802147872	3.3162413	1.8210549
29.896879075646048	3.3281047	1.8243093
29.915020115870114	3.316233	1.8210527
29.933161923371976	3.2786822	1.8107132
29.951304498703777	3.2886107	1.8134527
29.969447842417857	3.2991736	1.8163627
29.987591955066733	3.2944217	1.8150542
30.005736837203123	3.2177906	1.7938201
30.023882489379943	3.130129	1.7692171
30.04202891215028	3.1125016	1.7642283
30.060176106067455	3.2373464	1.7992628
30.078324071684946	3.266637	1.807384
30.09647280955646	3.1834657	1.7842269
30.114622320235863	3.1368988	1.7711293
30.132772604277257	3.1047843	1.7620398
30.1509236622349	3.1426768	1.7727597
30.16907549466328	3.1259525	1.7680364
30.18722810211705	3.097942	1.7600971
30.205381485151097	3.0467925	1.7455064
30.22353564432045	3.0207167	1.7380209
30.241690580180403	3.0839536	1.7561189
30.25984629328638	3.08207	1.7555826
30.278002784194037	3.0592864	1.7490816
30.296160053459246	3.068402	1.7516855
30.314318101638033	3.0193522	1.7376283
30.332476929286646	2.9315662	1.7121817
30.35063653696153	2.9636772	1.7215334
30.368796925219307	3.0118394	1.7354652
30.386958094616844	3.0119138	1.7354866
30.40512004571115	3.0246518	1.7391526
30.423282779059463	2.9988616	1.7317221
30.441446295219233	2.9240003	1.7099708
30.459610594748067	2.852019	1.6887922
30.47777567820382	2.831391	1.6826738
30.495941546144504	2.8386579	1.6848317
30.51410819912835	2.8458147	1.6869543
30.532275637713795	2.840347	1.6853329
30.55044386245946	2.7643526	1.6626343
30.56861287392416	2.7463646	1.657216
30.586782672666956	2.793502	1.6713773
30.604953259247047	2.8180575	1.6787071
30.623124634223885	2.8260825	1.6810956
30.641296798157075	2.839045	1.6849467
30.659469751606462	2.8168592	1.6783502
30.677643495132074	2.7571948	1.6604803
30.695818029294152	2.789374	1.6701419
30.713993354653116	2.8152797	1.6778796
30.73216947176962	2.8510602	1.6885083
30.75034638120448	2.7945218	1.6716824
30.768524083518756	2.7442713	1.6565843
30.786702579273673	2.7272344	1.6514341
30.80488186903069	2.8096745	1.6762084
30.82306195335144	2.9468687	1.7166446
30.841242832797782	3.0697465	1.7520692
30.85942450793176	3.393017	1.8420144
30.877606979315637	3.8417883	1.9600481
30.895790247511883	4.246639	2.0607374
30.913974313083134	4.6297293	2.1516805
30.932159176592283	4.819983	2.195446
30.95034483860237	4.8715277	2.2071538
30.968531299676698	4.700171	2.1679878
30.98671856037873	4.3723145	2.091008
31.00490662127215	3.9973009	1.9993252
31.023095482920848	3.5926833	1.8954375
31.04128514588892	3.1094832	1.7633727
31.059475610740662	2.7666285	1.6633185
31.07766687804056	2.57976	1.6061631
31.09585894835335	2.553291	1.597902
31.11405182224393	2.5503585	1.5969841
31.132245500277417	2.4798384	1.5747503
31.15043998301914	2.4449534	1.5636346
31.168635271034628	2.4419994	1.5626898
31.18683136488964	2.4813752	1.5752381
31.20502826515008	2.4822204	1.5755064
31.223225972382135	2.416673	1.5545652
31.241424487152155	2.4199202	1.5556092
31.259623810026692	2.510876	1.5845743
31.27782394157253	2.4492607	1.5650114
31.296024882356644	2.3948107	1.5475175
31.314226632946237	2.3837476	1.543939
31.332429193908684	2.43377	1.5600544
31.350632565811598	2.4729168	1.572551
31.368836749222787	2.4543006	1.5666208
31.387041744710295	2.4441895	1.5633904
31.40524755284232	2.472042	1.5722729
31.423454174187317	2.5511804	1.5972415
31.441661609313922	2.585454	1.6079347
31.459869858791002	2.5369253	1.5927728
31.478078923187628	2.4419286	1.5626671
31.496288803073064	2.4191284	1.5553547
31.514499499016807	2.419005	1.555315
31.532711011588546	2.3294446	1.5262518
31.550923341358178	2.3080852	1.5192384
31.56913648889584	2.223547	1.4911562
31.587350454771844	2.222362	1.4907589
31.605565239556732	2.2816808	1.5105233
31.62378084382127	2.3364015	1.5285292
31.641997268136382	2.3549535	1.5345858
31.660214513073274	2.3427453	1.5306029
31.67843257920331	2.33523	1.528146
31.6966514670981	2.3166692	1.5220609
31.71487117732944	2.3437755	1.5309395
31.733091710469346	2.3101614	1.5199215
31.751313067090052	2.2747703	1.5082341
31.769535247764008	2.2648618	1.5049458
31.787758253063878	2.322961	1.5241263
31.805982083562526	2.2764137	1.5087789
31.824206739833024	2.31757	1.5223567
31.84243222244869	2.3818111	1.5433117
31.860658531983013	2.3846414	1.5442284
31.878885669009737	2.3205278	1.5233278
31.897113634102784	2.1850076	1.4781771
31.91534242783632	2.1694515	1.4729058
31.933572050784694	2.1738667	1.4744039
31.951802503522508	2.2422404	1.4974113
31.970033786624548	2.223444	1.4911218
31.988265900665834	2.2656755	1.5052161
32.006498846221575	2.336361	1.5285159
32.02473262386724	2.2821007	1.5106623
32.04296723417845	2.141522	1.4633939
32.0612026777311	2.0588315	1.4348629
32.07943895510129	2.071911	1.4394134
32.097676066865304	2.1252296	1.4578167
32.115914013599685	2.1346083	1.4610299
32.13415279588115	2.1504738	1.4664494
32.152392414286666	2.1215448	1.4565524
32.1706328693934	2.1485896	1.4658068
32.18887416177875	2.1626978	1.4706113
32.20711629202032	2.1759903	1.4751239
32.225359260695924	2.1951303	1.4815972
32.243603068383614	2.197345	1.4823444
32.26184771566166	2.1620119	1.4703782
32.28009320310852	2.12451	1.45757
32.2983395313029	2.1660855	1.4717627
32.31658670082372	2.2496612	1.4998871
32.33483471225012	2.2191508	1.4896815
32.35308356616143	2.1263294	1.4581939
32.371333263137245	2.093033	1.4467318
32.38958380375734	2.0525508	1.4326726
32.407835188601744	2.0405273	1.4284703
32.42608741825067	2.054469	1.433342
32.444340493284585	2.027877	1.4240355
32.46259441428416	1.9600868	1.400031
32.48084918183028	2.0472257	1.430813
32.49910479650405	2.122806	1.4569852
32.51736125888683	2.1746273	1.4746617
32.53561856956014	2.2004752	1.4833999
32.5538767291058	2.1906059	1.4800695
32.572135738105764	2.07345	1.439948
32.59039559714228	2.014989	1.4195031
32.608656306797776	1.9785126	1.4065961
32.62691786765491	2.071305	1.4392029
32.645180280296586	1.9938471	1.4120365
32.663443545305896	1.9702599	1.4036595
32.68170766326619	1.9662068	1.402215
32.69997263476099	1.9924191	1.4115307
32.7182384603741	1.9992099	1.4139342
32.7365051406895	1.9738812	1.4049488
32.75477267629144	1.9576554	1.3991624
32.77304106776434	1.9704158	1.403715
32.79131031569289	2.0201905	1.421334
32.809580420661966	2.0459864	1.4303799
32.827851383256714	2.0728385	1.4397355
32.84612320406245	2.1200376	1.4560349
32.86439588366476	2.1037138	1.4504185
32.88266942264945	2.0177734	1.4204835
32.9009438216025	1.9859799	1.409248
32.9192190811102	2.053594	1.4330367
32.937495201758985	2.0626042	1.4361769
32.95577218413556	2.0283678	1.4242078
32.974050028826866	2.0110183	1.4181038
32.992328736420035	2.060657	1.4354988
33.010608307502444	2.047492	1.430906
33.02888874266169	2.0467937	1.430662
33.047170042485604	2.0172389	1.4202954
33.06545220756225	1.9531987	1.3975688
33.083735238479896	1.9423739	1.3936907
33.10201913582707	1.9235619	1.3869253
33.12030390019248	1.9965554	1.4129952
33.138589532165135	2.0131273	1.4188472
33.15687603233419	1.9300915	1.3892773
33.17516340128909	1.9362968	1.3915088
33.19345163961947	1.9987555	1.4137735
33.211740747915215	1.9879091	1.4099323
33.23003072676643	1.9687395	1.4031178
33.248321576763466	2.0041332	1.4156741
33.266613298496885	2.0609841	1.4356128
33.28490589255747	2.0649438	1.4369912
33.30319935953626	2.0066962	1.416579
33.32149370002451	1.9521247	1.3971846
33.339788914613706	1.8474091	1.3591943
33.358085003895575	1.8149444	1.3471987
33.376381968462034	1.8858802	1.3732735
33.39467980890529	1.9760339	1.4057148
33.41297852581774	1.9389162	1.3924497
33.43127811979204	1.9474939	1.3955264
33.44957859142105	1.9615185	1.4005423
33.467879941297866	1.9149146	1.3838044
33.486182170015844	1.8664019	1.3661633
33.50448527816853	1.8730216	1.3685838
33.522789266349754	1.9427191	1.3938146
33.541094135153514	1.9645529	1.401625
33.55939988517411	1.9737238	1.4048928
33.57770651700602	1.9863442	1.4093772
33.59601403124398	1.9181077	1.3849577
33.61432242848296	1.903277	1.379593
33.632631709318154	1.864763	1.3655633
33.650941874344994	1.8243679	1.3506917
33.66925292415916	1.870706	1.3677375
33.68756485935654	1.8949713	1.3765795
33.70587768053328	1.860257	1.3639123
33.724191388285746	1.9335635	1.3905263
33.74250598321054	1.9948964	1.412408
33.760821465904506	1.8860832	1.3733474
33.77913783696474	1.7855066	1.3362285
33.79745509698852	1.8134966	1.3466613
33.815773246573414	1.8549144	1.3619524
33.8340922863172	1.9326544	1.3901994
33.852412216817896	1.9400109	1.3928428
33.87073303867377	1.9221195	1.3864052
33.889054752483304	1.9423683	1.3936887
33.907377358845245	1.9108957	1.3823515
33.92570085835853	1.8865644	1.3735226
33.94402525162239	1.8779521	1.370384
33.96235053923627	1.8943318	1.3763473
33.980676721799824	1.927031	1.3881755
33.999003799912984	2.0517328	1.4323871
34.01733177417592	2.0123258	1.4185647
34.03566064518901	1.9755956	1.4055588
34.0539904135529	1.9916778	1.4112681
34.07232107986846	1.9399337	1.392815
34.090652644736785	1.9669023	1.402463
34.108985108759235	1.9827628	1.4081061
34.12731847253742	1.9931713	1.4117972
34.14565273667313	1.9855175	1.409084
34.16398790176847	1.9727129	1.404533
34.18232396842574	1.9616882	1.4006028
34.20066093724749	1.924433	1.3872393
34.21899880883651	1.9621521	1.4007684
34.23733758379583	2.0309327	1.425108
34.25567726272874	2.0994587	1.4489509
34.27401784623872	1.9985484	1.4137002
34.29235933492957	1.9637128	1.4013253
34.31070172940526	2.0080452	1.4170551
34.32904503027003	2.059201	1.4349916
34.347389238128386	2.0619798	1.4359596
34.36573435358502	1.9384426	1.3922796
34.38408037724492	1.9333705	1.3904569
34.402427309713296	1.960138	1.4000493
34.42077515159559	2.0058568	1.4162828
34.43912390349752	2.0629923	1.4363121
34.45747356602499	1.9513956	1.3969237
34.47582413978423	1.9028975	1.3794554
34.49417562538163	2.0406046	1.4284973
34.51252802342388	2.1613324	1.470147
34.53088133451789	2.1140783	1.453987
34.54923555927084	2.0312908	1.4252336
34.567590698290104	2.0526986	1.4327242
34.58594675218336	2.0044873	1.4157991
34.6043037215585	1.9148084	1.383766
34.62266160702365	1.9152181	1.3839141
34.641020409187234	2.025672	1.423261
34.65938012865785	2.0383286	1.4277005
34.677740766044394	1.9921974	1.4114522
34.69610232195598	2.0182884	1.4206648
34.714464797002016	2.0705369	1.438936
34.73282819179208	2.2054665	1.4850813
34.751192506936064	2.1498547	1.4662383
34.76955774304408	1.958999	1.3996425
34.7879239007265	1.9048877	1.3801767
34.80629098059391	2.0151277	1.419552
34.824658983257194	1.9327109	1.3902197
34.843027909327446	1.80093	1.3419874
34.86139775941603	1.8400826	1.3564965
34.879768534134534	2.0818114	1.4428483
34.89814023409483	2.1531146	1.4673495
34.91651285990901	2.0987709	1.4487135
34.93488641218944	2.033744	1.426094
34.95326089154871	1.9524778	1.397311
34.97163629859967	1.9529611	1.3974838
34.99001263395542	2.1028202	1.4501104
35.00838989822934	2.022369	1.4221002
35.02676809203499	1.9871767	1.4096725
35.04514721598624	1.9337317	1.3905869
35.063527270697215	1.8084468	1.344785
35.081908256782256	1.7247441	1.3132951
35.10029017485597	1.818124	1.3483783
35.11867302553321	1.9718719	1.4042336
35.137056809429104	1.938379	1.3922569
35.155441527159006	1.9818176	1.4077704
35.173827179338524	2.220027	1.4899755
35.19221376658354	2.136396	1.4616416
35.21060128951017	1.7236438	1.3128761
35.2289897487348	1.6421306	1.2814565
35.24737914487405	1.8054397	1.3436666
35.26576947854479	1.8739992	1.368941
35.28416075036418	1.8719311	1.3681853
35.30255296094958	1.8946781	1.3764731
35.32094611091867	2.0596752	1.4351568
35.33934020088932	2.0929215	1.4466933
35.35773523147969	2.0518117	1.4324147
35.3761312033082	2.0645003	1.436837
35.394528116993506	2.040855	1.4285849
35.41292597315452	2.1602392	1.4697752
35.431324772410434	2.1838415	1.4777826
35.449724515380666	1.9435109	1.3940986
35.46812520268491	1.893864	1.3761773
35.486526834943106	2.0950553	1.4474306
35.504929412775454	2.1578007	1.4689454
35.52333293680242	2.0953875	1.4475453
35.54173740764471	2.0273185	1.4238393
35.560142825923286	1.6274154	1.2757019
35.5785491922594	1.2660159	1.1251737
35.59695650727454	1.3944688	1.1808763
35.61536477159042	1.9100077	1.3820302
