0.008763373481513119	0.0	0.0
0.026290120649546365	0.0	0.0
0.043816868432600686	0.0046239095	0.06799933
0.06134361724069026	0.10102613	0.3178461
0.07887036748382949	0.13899292	0.37281755
0.0963971195720331	0.11491725	0.33899447
0.11392387391531617	0.06866152	0.26203343
0.1314506309236943	0.026983535	0.16426666
0.1489773910071836	0.03828013	0.19565308
0.16650415457580078	0.03376313	0.18374746
0.18403092203956356	0.018042587	0.1343227
0.20155769380849	0.040495206	0.2012342
0.2190844702925996	0.10165606	0.31883547
0.2366112519019124	0.13813381	0.37166357
0.2541380390464497	0.10809067	0.32877144
0.27166483213623416	0.08014046	0.2830909
0.28919163158128947	0.049279597	0.22199008
0.3067184377916406	0.08748982	0.29578677
0.324245251177314	0.1056581	0.32505092
0.34177207214833777	0.14937519	0.38649085
0.3592989011147415	0.14587265	0.3819328
0.37682573848655654	0.16870739	0.41074005
0.39435258467381573	0.19894856	0.44603652
0.41187944008655414	0.26927102	0.5189133
0.42940630513480854	0.2720311	0.52156603
0.446933180228618	0.19923261	0.4463548
0.4644600657780234	0.15957873	0.39947307
0.48198696219306775	0.12233171	0.3497595
0.49951386988379676	0.14532886	0.38122022
0.5170407892602581	0.12916155	0.35939053
0.5345677207325025	0.15517282	0.39391983
0.5520946647105822	0.18289414	0.42766124
0.5696216216045534	0.20477583	0.45252162
0.5871485918244737	0.22053075	0.46960703
0.6046755757804043	0.21057329	0.45888266
0.6222025738824094	0.20454954	0.45227152
0.6397295865405557	0.182929	0.42770198
0.6572566141649129	0.15701655	0.39625314
0.6747836571655547	0.17028569	0.41265687
0.6923107159525568	0.14733614	0.3838439
0.7098377909359992	0.17622817	0.4197954
0.7273648825259653	0.18865865	0.43434855
0.7448919911325411	0.21240588	0.46087512
0.762419117165817	0.19852912	0.44556606
0.7799462610358868	0.17404705	0.41718948
0.7974734231528482	0.16434027	0.40538904
0.8150006039268024	0.17942116	0.42358133
0.8325278037678551	0.2006699	0.44796193
0.8500550230861152	0.21566407	0.46439648
0.8675822622916969	0.2218014	0.47095796
0.8851095217947171	0.21478583	0.46344993
0.9026368020052984	0.2388482	0.48872098
0.9201641033335665	0.24924344	0.49924287
0.9376914261896523	0.26542625	0.51519537
0.9552187709836915	0.26215267	0.5120085
0.9727461381258234	0.27157557	0.52112913
0.990273528026193	0.24241397	0.49235553
1.0078009410949496	0.24953446	0.49953425
1.0253283777422473	0.26707667	0.5167946
1.0428558383782454	0.26379967	0.5136143
1.0603833234131086	0.28435618	0.5332506
1.0779108332570058	0.26320985	0.5130398
1.0954383683201119	0.270351	0.5199529
1.112965929012607	0.32356393	0.5688268
1.1304935157446763	0.4519323	0.6722591
1.1480211289265108	0.5075273	0.7124095
1.1655487689683062	1.2757618	1.1294963
1.1830764362802655	1.5698656	1.2529428
1.200604131272596	2.016657	1.4200906
1.2181318543555117	2.5377862	1.5930431
1.235659605939232	2.606663	1.6145164
1.253187386433982	4.1395483	2.034588
1.270715196249994	6.3342423	2.516792
1.2882430357975057	11.806216	3.4360175
1.3057709054867608	16.634455	4.078536
1.3232988057280106	22.74142	4.7687964
1.3408267369315112	27.849897	5.2773004
1.358354699507526	31.679857	5.628486
1.3758826938663256	35.572517	5.96427
1.3934107204181858	37.810474	6.149022
1.410938779573391	37.88875	6.1553836
1.4284668717422309	38.112778	6.173555
1.4459949973350033	37.39323	6.1150002
1.4635231567620117	37.600082	6.131891
1.4810513504335687	36.974125	6.080635
1.4985795787599925	36.07316	6.0060935
1.5161078421516088	35.38094	5.948188
1.5336361410187505	34.785015	5.8978825
1.5511644757717598	34.996384	5.9157743
1.5686928468209842	36.26133	6.021738
1.58622125457678	37.2499	6.1032696
1.6037496994495108	38.598995	6.212809
1.621278181849548	38.362022	6.1937084
1.6388067021872719	38.862343	6.233967
1.6563352608730693	37.8418	6.151569
1.673863858317336	36.68026	6.056423
1.6913924949304753	35.826	5.9854827
1.7089211711228998	34.557034	5.878523
1.7264498873050296	34.053368	5.8355265
1.7439786438872935	33.030262	5.747196
1.7615074412801288	32.319256	5.685003
1.779036279893981	31.496698	5.612192
1.796565160139305	30.682888	5.5392137
1.814094082426564	30.367687	5.5106883
1.8316230471662298	29.743395	5.4537506
1.849152054768784	28.946342	5.3801804
1.8666811056447168	27.99081	5.290634
1.8842102002045273	26.880888	5.184678
1.901739338858724	26.062542	5.105149
1.9192685220178245	25.563625	5.0560484
1.9367977500923557	24.985802	4.99858
1.9543270234928547	25.0604	5.0060363
1.971856342629867	24.495506	4.9492936
1.9893857079139496	24.047054	4.9037795
2.006915119755667	23.119444	4.808268
2.0244445785655945	22.72906	4.7675004
2.0419740847543175	22.159481	4.707386
2.0595036387324317	21.677504	4.6559105
2.0770332409105414	21.040367	4.586978
2.094562891699263	20.6745	4.546922
2.1120925915092217	20.038145	4.4763985
2.129622340751053	19.702543	4.4387546
2.1471521398354043	187.67577	13.69948
2.1646819891729323	444.17398	21.075436
2.182211889174303	440.80087	20.995258
2.1997418402501974	453.23984	21.28943
2.2172718428113023	433.20108	20.813482
2.234801897268317	321.00943	17.916737
2.2523320040319548	17.479118	4.180804
2.269862163512935	17.256771	4.154127
2.287392376121992	16.911564	4.112367
2.304922642269869	16.705254	4.087206
2.322452962367322	16.389439	4.048387
2.3399833368251164	16.008142	4.0010176
2.357513766054032	15.6658745	3.958014
2.3750442504648586	15.392709	3.9233544
2.3925747904683963	15.167257	3.8945162
2.410105386475459	14.877769	3.857171
2.4276360388968707	14.464288	3.8031945
2.445166748143469	14.338315	3.7865968
2.4626975146261025	14.200574	3.768365
2.4802283387556323	13.939183	3.7335215
2.4977592209429305	13.710289	3.7027407
2.5152901615988825	13.157458	3.627321
2.5328211611343865	12.975747	3.6021864
2.5503522199603523	12.835024	3.5826
2.5678833384877024	12.7021055	3.5640013
2.5854145171273712	12.629349	3.5537796
2.6029457562903064	12.14407	3.4848342
2.620477056387469	11.9680605	3.4594884
2.6380084178298326	11.91831	3.4522905
2.655539841028383	12.014738	3.4662282
2.673071326394119	11.779574	3.4321384
2.6906028743380523	11.455894	3.3846557
2.708134485271211	11.17701	3.3432035
2.7256661596046325	11.067605	3.326801
2.743197897749369	11.01979	3.3196068
2.760729700116486	10.933458	3.306578
2.778261567117063	10.718664	3.273937
2.795793499162193	10.430613	3.229646
2.8133254966629817	10.079488	3.174821
2.830857560030551	9.967112	3.1570733
2.8483896896760337	9.919463	3.149518
2.865921886010578	9.819628	3.1336286
2.883454149445347	9.745343	3.1217532
2.9009864803915177	9.500366	3.0822663
2.91851887926028	9.284467	3.0470424
2.9360513464628384	9.051733	3.0086098
2.953583882410413	8.834578	2.9723017
2.9711164875142373	8.826858	2.9710028
2.9886491621855606	8.834781	2.9723358
3.0061819068356455	8.739571	2.9562764
3.023714721875769	8.585582	2.9301164
3.041247607717225	8.354826	2.8904717
3.0587805647713213	8.3125	2.8831406
3.0763135934493806	8.35322	2.8901937
3.0938466941627407	8.241761	2.8708467
3.1113798673227544	8.065678	2.8400137
3.1289131133407904	7.9392176	2.8176618
3.1464464326282315	7.9181957	2.8139288
3.1639798255964786	7.9127493	2.8129609
3.1815132926569443	7.6942754	2.7738557
3.1990468342210603	7.5093646	2.7403219
3.216580450700272	7.450611	2.7295806
3.2341141425060416	7.4319024	2.7261515
3.251647910049847	7.384963	2.7175288
3.2691817537431813	7.2267528	2.688262
3.286715673997555	7.1695127	2.6775947
3.3042496712244938	7.1878266	2.6810122
3.32178374583554	7.115745	2.6675353
3.339317898242251	7.1490955	2.6737792
3.3568521288562034	7.042953	2.6538563
3.3743864380889876	6.873121	2.6216638
3.3919208263522127	6.7644825	2.6008618
3.4094552940575023	6.6801867	2.5846057
3.4269898416164972	6.6746097	2.5835266
3.444524469440858	6.668848	2.5824113
3.4620591779422587	6.7163796	2.5915978
3.479593967532391	6.655835	2.5798905
3.4971288386229658	6.560097	2.5612686
3.5146637916257086	6.495064	2.5485415
3.5321988269523628	6.507964	2.5510712
3.5497339450146903	6.487649	2.5470865
3.5672691462244708	6.491813	2.5479038
3.5848044309934988	6.2963977	2.5092623
3.60233979973359	6.267846	2.5035667
3.619875252856575	6.2347045	2.496939
3.6374107907743034	6.282848	2.506561
3.6549464138986427	6.357214	2.5213516
3.6724821226414788	6.3990936	2.529643
3.690017917414714	6.3482223	2.519568
3.7075537986302702	6.2531934	2.5006385
3.7250897667000857	6.3240876	2.5147738
3.7426258220361235	6.594966	2.5680666
3.7601619650503553	7.112938	2.667009
3.777698196154779	7.5623193	2.749967
3.7952345157614067	8.559962	2.9257414
3.8127709242822716	9.2258415	3.037407
3.830307422129425	11.538659	3.3968601
3.847844009714936	30.375292	5.5113783
3.8653806874508954	97.992615	9.899122
3.882917455749409	97.20851	9.859438
3.900454315022606	96.93482	9.845549
3.917991265682631	41.450657	6.4382186
3.9355283081416506	11.098787	3.3314843
3.9530654428118495	8.909093	2.9848104
3.970602670105433	7.69558	2.7740908
3.9881399904346244	6.7051864	2.5894375
4.005677404211669	6.5886188	2.5668304
4.023214911848827	6.547043	2.558719
4.0407525137583855	6.5084357	2.5511637
4.058290210352644	6.547314	2.558772
4.075828002043927	6.5652447	2.5622733
4.0933658892445814	6.506588	2.5508015
4.110903872366966	6.462719	2.542188
4.128441951823468	6.2947345	2.508931
4.145980128026488	6.261501	2.502299
4.163518401388452	6.2165966	2.4933105
4.181056772321807	6.128807	2.4756427
4.1985952412390155	6.036712	2.4569721
4.216133808552567	6.044509	2.4585583
4.233672474674966	6.255262	2.5010521
4.251211240018741	6.6395216	2.576727
4.268750104996445	6.916538	2.6299312
4.286289070020643	7.7143707	2.7774756
4.303828135503928	9.249727	3.0413365
4.3213673018589125	29.476904	5.4292636
4.3389065694982305	90.70951	9.524154
4.356445938834537	166.18954	12.891453
4.3739854102805085	171.66685	13.10217
4.391524984248844	172.44797	13.131945
4.409064661152262	136.30676	11.675049
4.426604441403504	96.60873	9.828974
4.444144325415337	75.7645	8.704281
4.461684313600543	21.98296	4.688599
4.47922440637193	22.339878	4.726508
4.496764604142329	20.679531	4.5474753
4.5143049073245916	18.741177	4.329108
4.531845316331589	16.653984	4.0809293
4.5493858315762195	13.637622	3.6929152
4.566926453471405	11.270298	3.3571265
4.584467182430081	9.161174	3.0267432
4.602008018865218	8.08699	2.8437634
4.619548963189798	7.4740944	2.733879
4.637090015816834	7.0346513	2.6522918
4.654631177159353	6.76122	2.6002345
4.672172447630417	6.5412025	2.5575774
4.689713827643102	6.3123097	2.5124311
4.7072553176105085	5.992514	2.4479613
4.724796917945764	5.831846	2.4149215
4.742338629062015	5.8311324	2.4147737
4.759880451372434	5.862424	2.4212444
4.777422385290215	5.8837743	2.4256492
4.794964431228581	5.8078284	2.4099436
4.812506589600768	5.7437353	2.396609
4.830048860820047	5.711601	2.3898957
4.847591245299709	5.662179	2.3795333
4.8651337434530655	5.6047935	2.3674445
4.882676355693457	5.59588	2.3655612
4.900219082434242	5.572449	2.3606036
4.917761924088813	5.5614567	2.358274
4.935304881070575	5.609882	2.3685188
4.952847953792969	5.613756	2.3693366
4.970391142669449	5.547343	2.3552797
4.9879344481135055	5.511428	2.3476431
5.005477870538642	5.449891	2.3345
5.023021410358394	5.5635333	2.3587143
5.040565067986324	5.6739426	2.3820038
5.05810884383601	5.661796	2.379453
5.075652738321066	5.506506	2.3465946
5.09319675185512	5.3726335	2.3178942
5.110740884851836	5.3387456	2.3105726
5.128285137724894	5.4155083	2.3271244
5.145829510888007	5.4511456	2.3347688
5.163374004754908	5.463938	2.3375068
5.1809186197393595	5.515962	2.3486085
5.198463356255145	5.4996347	2.34513
5.216008214716077	5.507224	2.3467476
5.233553195535998	5.4527607	2.3351147
5.251098299128764	5.3437867	2.3116632
5.268643525908272	5.3440213	2.311714
5.286188876288432	5.3774276	2.318928
5.3037343506831895	5.4733725	2.339524
5.32127994950651	5.3834844	2.3202336
5.3388256731723915	5.316184	2.305685
5.356371522094851	5.3246317	2.3075163
5.373917496687938	5.386727	2.3209324
5.391463597365729	5.386716	2.32093
5.40900982454232	5.3188624	2.3062658
5.426556178631843	5.2776923	2.2973228
5.444102660048449	5.2690735	2.2954462
5.4616492692063225	5.2673573	2.2950723
5.479196006519669	5.283728	2.2986362
5.496742872402727	5.2910037	2.300218
5.514289867269756	5.2791348	2.2976367
5.531836991535049	5.2496543	2.2912123
5.549384245612924	5.279437	2.2977026
5.566931629917724	5.237207	2.2884946
5.584479144863822	5.2033644	2.2810884
5.6020267908656205	5.1196632	2.2626672
5.619574568337545	5.046879	2.246526
5.637122477694054	5.0794024	2.253753
5.654670519349629	5.0887213	2.2558193
5.672218693718784	5.1240597	2.2636385
5.689767001216059	5.0935445	2.2568882
5.707315442256021	5.153103	2.2700448
5.724864017253266	5.206713	2.2818224
5.7424127266224225	5.3182526	2.3061337
5.75996157077814	5.2846713	2.2988412
5.777510550135105	5.298479	2.3018425
5.795059665108022	5.278789	2.2975616
5.812608916111639	5.3186154	2.3062124
5.830158303560715	5.375193	2.3184462
5.847707827870055	5.394343	2.3225725
5.86525748945448	5.4498067	2.3344822
5.8828072887288485	5.5298886	2.3515716
5.900357226108044	5.5591125	2.357777
5.917907302006979	5.6468725	2.3763149
5.9354575168406	6.3148837	2.5129433
5.9530078710238765	7.0618	2.6574047
5.970558364971812	7.627787	2.7618449
5.988108999099438	7.970699	2.8232427
6.005659773821818	8.500655	2.9155884
6.023210689554039	8.250783	2.8724177
6.040761746711227	8.681841	2.9464965
6.058312945708531	8.018274	2.8316557
6.075864286961132	7.422135	2.7243595
6.093415770884244	6.7535114	2.5987518
6.1109673978931065	6.184619	2.4868894
6.128519168402993	5.6445303	2.375822
6.146071082829204	5.578376	2.3618586
6.163623141587075	5.4714603	2.3391154
6.181175345091969	5.419122	2.327901
6.198727693759281	5.3362107	2.310024
6.216280188004435	5.2952237	2.3011353
6.233832828242885	5.2265415	2.286163
6.251385614890126	5.2632594	2.2941794
6.268938548361669	5.252791	2.2918968
6.286491629073067	5.120002	2.262742
6.304044857439898	5.060712	2.2496026
6.321598233877777	5.036257	2.2441607
6.339151758802344	5.084918	2.2549763
6.356705432629277	5.0954046	2.2573004
6.37425925577428	5.0643325	2.2504072
6.391813228653095	5.1181054	2.262323
6.409367351681486	5.094981	2.2572064
6.426921625275259	5.084455	2.2548735
6.44447604985025	5.0411515	2.245251
6.46203062582232	5.0148063	2.2393763
6.47958535360737	5.0394616	2.2448745
6.497140233621328	5.0496235	2.2471368
6.514695266280161	5.080679	2.2540362
6.532250451999859	5.100039	2.2583265
6.549805791196454	5.069867	2.2516365
6.567361284286002	5.0408716	2.2451885
6.584916931684597	5.008881	2.238053
6.602472733808367	4.9663997	2.228542
6.6200286910734665	4.9963074	2.2352421
6.637584803896092	5.0338326	2.2436204
6.655141072692462	5.069646	2.2515874
6.672697497878842	5.0459633	2.2463222
6.690254079871514	5.067958	2.2512126
6.707810819086808	5.076471	2.2531025
6.725367715941078	5.0751314	2.2528052
6.742924770850719	5.0841126	2.2547977
6.760481984232151	5.1093445	2.260386
6.778039356501836	5.0902452	2.2561572
6.795596888076266	5.095526	2.2573273
6.813154579371963	5.0177894	2.2400422
6.830712430805492	4.96867	2.2290514
6.84827044279344	4.939311	2.222456
6.865828615752445	4.9497795	2.22481
6.883386950099159	4.976796	2.2308733
6.900945446250287	5.0194106	2.2404041
6.918504104622553	5.046163	2.2463667
6.936062925632727	5.1425395	2.267717
6.953621909697607	5.2205243	2.2848468
6.971181057234028	5.213798	2.2833743
6.988740368658859	5.1998057	2.2803082
7.006299844389007	5.2188044	2.2844703
7.023859484841407	5.2431273	2.2897875
7.041419290433036	5.308565	2.3040323
7.058979261580902	5.459629	2.3365848
7.0765393987020495	5.683223	2.3839512
7.094099702213559	6.0916457	2.468126
7.111660172532549	6.457102	2.5410829
7.129220810076164	6.8962884	2.6260786
7.146781615261595	7.518548	2.741997
7.16434258850606	7.74773	2.7834744
7.181903730226821	8.115592	2.8487878
7.1994650408411704	8.211337	2.8655431
7.217026520766437	8.323599	2.8850648
7.234588170419983	8.593675	2.931497
7.252149990219215	8.616755	2.935431
7.269711980581568	8.594833	2.9316945
7.2872741419245175	8.376888	2.8942854
7.304836474665574	7.9805794	2.824992
7.322398979222286	7.606446	2.7579787
7.339961656012233	7.308024	2.7033358
7.357524505453039	6.8911476	2.6250997
7.375087527962357	6.6406994	2.5769556
7.392650723957886	6.3824334	2.5263479
7.410214093857353	6.0630116	2.4623184
7.427777638078528	5.773272	2.4027634
7.445341357039213	5.536926	2.3530674
7.4629052511572525	5.422588	2.328645
7.480469320850524	5.323063	2.3071764
7.498033566536948	5.2133856	2.283284
7.5155979886344735	5.156378	2.270766
7.5331625875610975	5.138699	2.2668698
7.550727363734844	5.156311	2.2707512
7.568292317573788	5.2012367	2.280622
7.585857449496025	5.22538	2.285909
7.603422759919705	5.2150173	2.2836413
7.620988249263007	5.203883	2.281202
7.638553917944147	5.230177	2.286958
7.656119766381391	5.2202396	2.2847843
7.673685794993023	5.2192454	2.2845669
7.691252004197388	5.220652	2.2848747
7.70881839441285	5.297236	2.3015726
7.726384966057826	5.3663445	2.3165371
7.743951719550762	5.368803	2.3170679
7.761518655310149	5.3090563	2.304139
7.779085773754511	5.2774553	2.2972713
7.796653075302419	5.306552	2.3035955
7.814220560372475	5.412508	2.3264797
7.831788229383323	5.433307	2.3309455
7.8493560827536495	5.3634987	2.315923
7.866924120902174	5.310982	2.3045568
7.884492344247663	5.319558	2.3064167
7.9020607532089135	5.329011	2.308465
7.919629348204771	5.335097	2.3097827
7.937198129654115	5.3448668	2.3118968
7.954767097975865	5.426255	2.3294325
7.972336253588986	5.479678	2.3408713
7.989905596912472	5.5324144	2.3521085
8.007475128365371	5.534365	2.352523
8.025044848366756	5.5611224	2.3582032
8.042614757335754	5.5965223	2.365697
8.060184855691523	5.5901647	2.364353
8.07775514385327	5.6772327	2.3826945
8.095325622240228	5.730339	2.3938127
8.112896291271687	5.8224244	2.41297
8.130467151366968	5.9030123	2.4296114
8.148038202945436	5.923641	2.4338531
8.165609446426497	5.9597855	2.4412673
8.183180882229594	6.007941	2.4511101
8.200752510774217	6.0548077	2.4606519
8.218324332479893	6.0328097	2.456178
8.235896347766193	5.9893923	2.4473236
8.253468557052724	5.988453	2.4471316
8.27104096075914	5.9629397	2.4419131
8.288613559305137	6.0824485	2.466262
8.306186353110448	6.1956387	2.489104
8.32375934259485	6.2517405	2.500348
8.341332528178162	6.263683	2.5027351
8.358905910280246	6.276572	2.5053089
8.376479489321003	6.245645	2.4991288
8.394053265720377	6.29116	2.5082185
8.411627239898356	6.310553	2.5120814
8.42920141227497	6.3334064	2.5166261
8.44677578327029	6.386355	2.527124
8.464350353304427	6.317703	2.513504
8.48192512279754	6.2670674	2.503411
8.499500092169827	6.209263	2.4918392
8.51707526184153	6.1974845	2.4894748
8.534650632232934	6.2442307	2.4988458
8.552226203764365	6.250429	2.5000858
8.569801976856192	6.295019	2.5089877
8.587377951928834	6.3281665	2.5155847
8.60495412940274	6.3885455	2.5275571
8.622530509698416	6.3797827	2.525823
8.6401070932364	6.442793	2.5382657
8.657683880437283	6.507605	2.5510008
8.675260871721695	6.6889367	2.586298
8.692838067510303	6.875065	2.6220345
8.710415468223834	7.0844293	2.661659
8.727993074283043	7.269269	2.6961582
8.745570886108737	7.2170334	2.6864536
8.763148904121765	7.238169	2.6903846
8.78072712874302	7.1946173	2.6822784
8.798305560393441	7.4366426	2.7270207
8.815884199494006	7.6085076	2.7583523
8.833463046465745	7.901014	2.8108742
8.851042101729728	8.036457	2.8348646
8.86862136570707	8.338272	2.8876066
8.886200838818924	8.436138	2.904503
8.903780521486505	8.418882	2.901531
8.921360414131055	8.551564	2.9243057
8.938940517173874	8.744766	2.957155
8.956520831036297	8.933782	2.9889433
8.97410135613971	9.156342	3.0259447
8.99168209290554	9.311788	3.0515223
9.009263041755265	9.516973	3.084959
9.026844203110405	9.799452	3.1304076
9.044425577392525	9.973514	3.158087
9.062007165023239	10.08445	3.1756022
9.079588966424197	10.316498	3.2119305
9.097170982017108	10.468943	3.2355745
9.11475321222372	11.534328	3.3962226
9.132335657465825	12.49662	3.5350559
9.149918318165264	12.655099	3.5574005
9.167501194743924	13.301989	3.6471891
9.18508428762374	12.837499	3.5829456
9.202667597226693	12.813794	3.579636
9.220251123974803	12.403708	3.52189
9.237834868290143	12.052733	3.4717047
9.255418830594836	11.854726	3.4430692
9.273003011311046	11.31867	3.3643231
9.290587410860985	11.13901	3.3375156
9.308172029666911	10.530111	3.2450132
9.32575686815113	10.26552	3.203985
9.343341926735997	8.8788595	2.9797416
9.360927205843916	8.70395	2.9502459
9.378512705897327	8.567361	2.9270055
9.396098427318728	8.372726	2.8935664
9.413684370530664	8.214162	2.866036
9.431270535955722	8.026766	2.8331547
9.448856924016539	7.9573393	2.8208756
9.466443535135806	7.822044	2.7967918
9.484030369736251	7.8402457	2.8000438
9.501617428240658	7.803872	2.7935412
9.519204711071852	7.7776613	2.7888458
9.536792218652714	7.7060947	2.7759855
9.55437995140617	7.7618885	2.7860167
9.571967909755191	7.7938504	2.7917469
9.589556094122802	7.8432245	2.8005757
9.60714450493207	7.8817105	2.8074384
9.624733142606116	7.964137	2.8220804
9.642322007568108	8.05038	2.8373191
9.659911100241267	8.079577	2.8424597
9.677500421048851	8.079145	2.8423839
9.695089970414175	8.122303	2.8499653
9.712679748760609	8.141166	2.853273
9.730269756511557	8.138954	2.8528852
9.747859994090492	8.108771	2.8475904
9.765450461920915	8.148842	2.8546176
9.78304116042639	8.285933	2.8785295
9.800632090030527	8.371566	2.8933659
9.81822325115699	8.392109	2.8969138
9.835814644229481	8.368238	2.8927908
9.853406269671762	8.3479595	2.8892837
9.870998127907646	8.451097	2.907077
9.888590219360985	8.455053	2.9077575
9.906182544455698	8.477604	2.9116325
9.923775103615734	8.467882	2.9099627
9.941367897265108	8.457522	2.908182
9.958960925827878	8.479854	2.9120188
9.97655418972816	8.456044	2.9079278
9.994147689390106	8.43796	2.9048166
10.011741425237934	8.421947	2.902059
10.029335397695904	8.419421	2.901624
10.04692960718833	8.369645	2.893034
10.06452405413958	8.351553	2.8899055
10.082118738974064	8.327362	2.885717
10.099713662116246	8.32706	2.8856645
10.117308823990651	8.33578	2.887175
10.134904225021844	8.342577	2.888352
10.152499865634445	8.313342	2.8832867
10.170095746253125	8.379762	2.8947818
10.18769186730261	8.347705	2.8892395
10.205288229207675	8.297452	2.8805299
10.222884832393145	8.208779	2.8650968
10.2404816772839	8.215075	2.8661952
10.258078764304868	8.2372675	2.870064
10.275676093881035	8.164968	2.8574407
10.293273666437438	8.073606	2.841409
10.310871482399158	8.026748	2.8331516
10.32846954219134	8.001564	2.8287036
10.346067846239173	8.10552	2.8470194
10.363666394967908	8.111381	2.8480484
10.38126518880283	8.169351	2.8582077
10.398864228169298	8.231533	2.8690648
10.416463513492713	8.258079	2.8736873
10.434063045198531	8.295395	2.8801727
10.451662823712262	8.297499	2.880538
10.469262849459467	8.229973	2.868793
10.486863122865758	8.155434	2.855772
10.504463644356806	8.13902	2.8528967
10.522064414358338	8.092315	2.8446994
10.539665433296118	7.9563446	2.8206992
10.557266701595987	7.8498135	2.8017519
10.574868219683818	7.8120193	2.794999
10.592469987985552	7.8099575	2.79463
10.610072006927185	7.7400737	2.7820988
10.627674276934751	7.668867	2.7692719
10.64527679843435	7.561597	2.7498357
10.662879571852143	7.4796605	2.734897
10.680482597614331	7.268654	2.6960442
10.698085876147173	7.1036215	2.665262
10.715689407876988	6.9725246	2.640554
10.733293193230146	6.8991847	2.6266298
10.750897232633072	6.8327904	2.6139607
10.76850152651225	6.715146	2.5913599
10.786106075294207	6.568239	2.5628576
10.803710879405534	6.4604206	2.5417356
10.821315939272877	6.3839517	2.5266483
10.83892125532294	6.351717	2.5202613
10.856526827982472	6.34388	2.518706
10.874132657678285	6.364518	2.5227997
10.891738744837243	6.369137	2.5237148
10.909345089886271	6.2795615	2.5059054
10.926951693252343	6.17275	2.484502
10.944558555362494	6.1178365	2.473426
10.96216567664381	6.0234866	2.4542792
10.979773057523436	5.917748	2.4326422
10.997380698428573	5.830103	2.4145606
11.014988599786477	5.779618	2.4040835
11.032596762024461	5.768447	2.4017591
11.050205185569892	5.755408	2.399043
11.067813870850198	5.7045097	2.3884115
11.085422818292859	5.6237907	2.3714533
11.10303202832541	5.5209136	2.3496625
11.120641501375454	5.407946	2.325499
11.138251237870636	5.313619	2.3051288
11.155861238238671	5.284769	2.2988625
11.173471502907317	5.260798	2.293643
11.191082032304402	5.2116776	2.2829099
11.208692826857805	5.1631985	2.2722673
11.226303886995465	5.096924	2.2576368
11.243915213145371	5.0503993	2.2473094
11.261526805735578	5.0137315	2.2391362
11.279138665194196	4.9273667	2.2197673
11.296750791949393	4.918659	2.2178051
11.314363186429393	4.841962	2.200446
11.331975849062479	4.8195314	2.195343
11.34958878027699	4.721927	2.1729996
11.36720198050133	4.68134	2.1636405
11.384815450163948	4.5932436	2.1431854
11.402429189693366	4.564616	2.1364963
11.420043199518153	4.5333376	2.1291635
11.437657480066942	63.552082	7.971956
11.455272031768422	85.25982	9.233624
11.472886855051353	107.64124	10.37503
11.490501950344528	99.18913	9.959374
11.508117318076819	84.52242	9.193607
11.52573295867715	45.87102	6.7728148
11.543348872574514	4.1775117	2.0438962
11.560965060197946	4.1123905	2.027903
11.57858152197655	4.0845113	2.0210173
11.59619825833949	4.0399737	2.0099685
11.613815269715985	4.0365763	2.0091233
11.631432556535323	38.59229	6.2122693
11.649050119226837	83.18147	9.120388
11.666667958219929	93.58459	9.673913
11.68428607394406	107.80876	10.3831
11.701904466828756	82.57068	9.086841
11.719523137303586	65.42672	8.088678
11.737142085798196	4.6431046	2.1547863
11.754761312742286	3.754097	1.9375492
11.772380818565619	3.6904929	1.9210656
11.790000603698015	3.6618648	1.9136
11.80762066856935	3.6271114	1.9044977
11.825241013609572	3.5879319	1.8941836
11.842861639248683	3.565489	1.8882502
11.860482545916748	3.5161462	1.875139
11.878103734043883	3.501238	1.8711596
11.895725204060282	3.49186	1.8686519
11.91334695639619	3.5009742	1.871089
11.930968991481919	3.4815946	1.8659031
11.948591309747824	3.4613516	1.8604708
11.966213911624347	3.4339843	1.8531013
11.98383679754198	3.3970487	1.8431084
12.001459967931268	3.3155963	1.8208779
12.019083423222835	3.2649171	1.8069081
12.036707163847352	3.2353532	1.7987088
12.05433119023556	3.212472	1.7923371
12.071955502818259	3.1959736	1.7877287
12.089580102026313	3.1820192	1.7838216
12.107204988290643	3.1774814	1.7825491
12.12483016204224	3.2057757	1.790468
12.142455623712152	3.2219634	1.7949828
12.16008137373149	3.2299416	1.7972038
12.177707412531431	3.189293	1.7858591
12.19533374054321	3.1859322	1.784918
12.212960358198126	3.1374638	1.7712888
12.230587265927545	3.0827038	1.755763
12.248214464162889	3.0626292	1.750037
12.265841953335649	3.0915942	1.758293
12.283469733877375	3.095332	1.7593555
12.301097806219685	3.0661561	1.7510443
12.31872617079425	3.015084	1.7363998
12.336354828032825	3.0132377	1.735868
12.353983778367205	3.01173	1.7354337
12.371613022229262	2.9872692	1.7283719
12.389242560050928	2.9848647	1.7276762
12.406872392264201	2.9013672	1.70334
12.424502519301143	2.885708	1.6987373
12.442132941593874	2.8693476	1.6939149
12.459763659574586	2.8727171	1.6949092
12.477394673675532	2.8938856	1.7011424
12.49502598432903	2.9032028	1.7038788
12.51265759196746	2.8547702	1.6896065
12.530289497023267	2.8207443	1.6795071
12.547921699928967	2.794784	1.6717608
12.565554201117134	2.8097339	1.676226
12.583187001020404	2.7974885	1.6725694
12.600820100071486	2.8036625	1.674414
12.618453498703152	2.8187125	1.6789021
12.636087197348235	2.8159497	1.6780791
12.65372119643964	2.8195336	1.6791466
12.671355496410326	2.8206496	1.679479
12.68899009769333	2.8617601	1.6916738
12.706625000721749	2.887046	1.699131
12.724260205928752	2.9661608	1.7222545
12.741895713747551	2.9900327	1.729171
12.759531524611454	3.0560622	1.7481596
12.777167638953818	3.048656	1.7460401
12.794804057208072	3.0505223	1.7465744
12.812440779807702	3.0573277	1.7485216
12.830077807186271	3.2312694	1.7975732
12.847715139777405	3.2828698	1.8118691
12.865352778014795	3.5081646	1.8730096
12.882990722332197	3.594321	1.8958695
12.90062897316344	3.6910717	1.9212162
12.918267530942412	3.784274	1.9453211
12.935906396103071	3.6613894	1.9134758
12.953545569079449	3.7766378	1.9433573
12.971185050305628	3.580409	1.8921969
12.988824840215775	3.6049533	1.8986715
13.006464939244115	3.6624784	1.9137603
13.024105347824943	3.5154617	1.8749565
13.041746066392617	3.582641	1.8927865
13.05938709538157	3.3534622	1.8312461
13.077028435226296	3.396905	1.8430694
13.094670086361363	3.338888	1.8272624
13.112312049221401	3.265127	1.8069662
13.129954324241112	3.1581633	1.7771221
13.147596911855258	2.9507325	1.7177696
13.165239812498685	2.9118953	1.7064277
13.182883026606293	2.8202732	1.679367
13.200526554613058	2.7648365	1.6627798
13.218170396954017	2.7295327	1.6521298
13.235814554064284	2.715422	1.6478537
13.253459026379034	2.7137306	1.6473404
13.271103814333523	2.6906006	1.640305
13.288748918363058	2.6806295	1.6372628
13.306394338903031	2.7040336	1.6443946
13.32404007638889	2.7035952	1.6442612
13.341686131256164	2.7231503	1.650197
13.359332503940449	2.667179	1.6331501
13.376979194877402	2.6528049	1.6287433
13.394626204502751	2.7176702	1.6485357
13.412273533252307	2.7803233	1.6674302
13.429921181561937	2.7466595	1.6573049
13.447569149867581	2.719464	1.6490798
13.465217438605247	2.7342699	1.6535628
13.482866048211022	2.746422	1.6572332
13.500514979121052	2.7760267	1.6661413
13.518164231771568	2.7577748	1.6606549
13.535813806598844	2.7518833	1.6588801
13.553463704039254	2.7208154	1.6494894
13.571113924529229	2.6855564	1.6387668
13.588764468505275	2.6704307	1.6341453
13.606415336403956	2.693974	1.641333
13.624066528661917	2.7206388	1.6494359
13.641718045715882	2.8304706	1.6824002
13.659369888002635	2.9181685	1.7082648
13.67702205595903	3.0034242	1.733039
13.694674550021993	3.0520318	1.7470065
13.712327370628532	3.0919044	1.7583811
13.729980518215713	3.1658936	1.7792958
13.747633993220681	3.2312555	1.7975694
13.765287796080647	3.270931	1.8085716
13.7829419272329	3.2916794	1.8142986
13.800596387114801	3.3000507	1.8166041
13.818251176163775	3.3247757	1.8233968
13.835906294817324	3.3739605	1.8368343
13.853561743513023	3.469161	1.8625684
13.871217522688525	3.5274472	1.87815
13.888873632781538	3.5792968	1.8919029
13.906530074229858	3.595158	1.8960903
13.92418684747135	3.587668	1.894114
13.941843952943948	3.5562112	1.8857919
13.959501391085665	3.546284	1.883158
13.977159162334578	3.486513	1.8672206
13.994817267128846	3.4587793	1.8597794
14.012475705906693	3.3352818	1.8262753
14.030134479106424	3.236756	1.7990987
14.047793587166414	3.1484215	1.7743793
14.065453030525108	3.1014757	1.7611008
14.083112809621026	3.0682547	1.7516434
14.100772924892766	2.9725978	1.7241223
14.118433376778997	2.8944085	1.7012961
14.136094165718458	2.800637	1.6735104
14.153755292149969	2.748042	1.657722
14.171416756512416	2.6978776	1.6425217
14.189078559244768	2.6433098	1.6258259
14.20674070078606	2.6191223	1.6183703
14.224403181575408	2.593967	1.6105797
14.242066002051999	2.5521762	1.5975533
14.259729162655093	2.4985547	1.5806817
14.277392663824022	2.456049	1.5671786
14.295056505998208	2.4401653	1.5621028
14.312720689617128	2.432617	1.5596849
14.330385215120348	2.448846	1.564879
14.348050082947497	2.4190335	1.5553242
14.3657152935383	2.380407	1.5428568
14.383380847332528	2.3942943	1.5473508
14.401046744770051	2.4095833	1.5522833
14.418712986290798	2.422318	1.5563798
14.436379572334793	2.4118116	1.5530008
14.454046503342123	2.4268832	1.5578457
14.471713779752946	2.4128575	1.5533376
14.489381402007504	2.3857992	1.5446032
14.507049370546113	2.3831801	1.5437552
14.524717685809168	2.4062963	1.5512241
14.542386348237134	2.3987095	1.5487767
14.560055358270553	2.4135585	1.5535631
14.577724716350051	2.4701464	1.5716699
14.595394422916325	2.5134885	1.5853986
14.61306447841015	2.528169	1.5900217
14.63073488327237	2.4914618	1.5784365
14.648405637943917	2.5063741	1.5831532
14.6660767428658	2.5083275	1.58377
14.683748198479094	2.5278172	1.5899111
14.701420005224954	2.582156	1.6069088
14.719092163544628	2.6915681	1.6406
14.73676467387942	2.7498353	1.6582627
14.754437536670727	2.7363987	1.6542064
14.772110752360014	2.7459867	1.6571019
14.78978432138882	2.7042909	1.6444728
14.807458244198777	2.7506394	1.6585052
14.82513252123159	2.7550542	1.6598356
14.842807152929028	2.7776558	1.66663
14.860482139732962	2.6747792	1.6354752
14.87815748208531	2.635691	1.6234812
14.8958331804281	2.6537085	1.6290207
14.91350923520342	2.6868594	1.6391642
14.931185646853438	2.7360702	1.6541071
14.948862415820408	2.7358313	1.6540349
14.966539542546656	2.7427425	1.6561227
14.98421702747459	2.689722	1.6400372
15.001894871046696	2.672549	1.6347933
15.019573073705542	2.6641262	1.6322151
15.037251635893766	2.6525683	1.6286707
15.054930558054092	2.6922793	1.6408167
15.072609840629323	2.7649634	1.662818
15.090289484062351	2.9016469	1.7034221
15.107969488796124	3.1340895	1.770336
15.125649855273691	3.4720883	1.8633541
15.14333058393817	3.9866633	1.9966631
15.161011675232768	4.9505982	2.224994
15.17869312960076	6.344451	2.5188193
15.196374947485506	8.2453575	2.871473
15.214057129330447	11.446128	3.3832126
15.231739675579114	16.214563	4.026731
15.249422586675102	21.295551	4.6147103
15.267105863062092	24.426514	4.9423184
15.284789505183847	24.820126	4.9819803
15.302473513484218	22.926409	4.788153
15.320157888407127	19.391544	4.403583
15.337842630396578	15.141928	3.891263
15.355527739896656	11.68448	3.4182568
15.37321321735153	9.070317	3.0116968
15.39089906320545	6.622821	2.5734842
15.408585277902748	4.976511	2.2308095
15.42627186188783	3.827354	1.9563625
15.443958815605198	3.2278616	1.796625
15.461646139499424	2.9116492	1.7063556
15.479333834015168	2.7772303	1.6665024
15.497021899597165	2.7160032	1.64803
15.514710336690234	2.6917746	1.6406629
15.53239914573928	2.6302238	1.6217965
15.550088327189297	2.5891993	1.6090989
15.567777881485336	2.5213666	1.5878812
15.58546780907256	2.5076728	1.5835633
15.6031581103962	2.4865475	1.576879
15.620848785901568	2.4846506	1.5762775
15.638539836034063	2.489615	1.5778514
15.656231261239173	2.4888964	1.5776236
15.673923061962451	2.4883444	1.5774487
15.691615238649552	2.4559586	1.5671499
15.709307791746202	2.4144528	1.553851
15.727000721698221	2.3765657	1.5416114
15.744694028951498	2.374458	1.5409276
15.76238771395202	2.3858533	1.5446208
15.780081777145844	2.4160678	1.5543705
15.797776218979125	2.4223835	1.5564008
15.815471039898094	2.437401	1.5612178
15.833166240349064	2.3941205	1.5472946
15.850861820778437	2.3808208	1.5429908
15.868557781632699	2.3849862	1.54434
15.886254123358412	2.3893943	1.5457666
15.903950846402232	2.4063718	1.5512484
15.921647951210897	2.3943086	1.5473553
15.939345438231225	2.382265	1.5434588
15.957043307910133	2.4378347	1.5613567
15.974741560694602	2.4568493	1.567434
15.992440197031714	2.468299	1.5710821
16.01013921736862	2.4046175	1.5506829
16.02783862215259	2.3511178	1.5333356
16.045538411830933	2.355065	1.5346222
16.06323858685107	2.3867943	1.5449253
16.080939147660512	2.423591	1.5567887
16.09864009470684	2.4137828	1.5536354
16.11634142843774	2.4076214	1.5516511
16.134043149300954	2.4169793	1.5546638
16.15174525774433	2.4604578	1.5685847
16.169447754215817	2.4557602	1.5670866
16.18715063916342	2.4318655	1.559444
16.204853913035244	2.4022214	1.5499102
16.222557576279478	2.4256284	1.5574429
16.240261629344403	22.433296	4.73638
16.257966072678386	42.992683	6.5568805
16.275670906729868	38.145817	6.17623
16.293376131947387	2.5812137	1.6066157
16.31108174877957	2.5881076	1.6087596
16.328787757675133	2.5806384	1.6064366
16.34649415908287	2.5913422	1.6097647
16.364200953451657	2.6396587	1.6247027
16.38190814123048	2.6765337	1.6360115
16.39961572286839	2.7105846	1.6463853
16.41732369881455	2.7342846	1.6535672
16.43503206951817	2.7528048	1.6591579
16.45274083542859	2.7501585	1.6583602
16.47044999699522	2.7756832	1.6660382
16.488159554667558	2.803063	1.674235
16.505869508895184	2.868985	1.6938078
16.523579860127786	2.8949769	1.7014631
16.541290608815117	2.9491704	1.7173148
16.559001755407035	2.9852853	1.7277979
16.57671330035348	3.070153	1.7521852
16.59442524410448	3.1042972	1.7619016
16.61213758711015	3.1770406	1.7824255
16.629850329820705	3.266039	1.8072186
16.647563472686436	3.3510678	1.8305922
16.665277016157724	3.3689797	1.8354781
16.682990960685053	3.3694537	1.8356072
16.70070530671898	3.4357781	1.8535852
16.718420054710155	3.536916	1.880669
16.736135205109335	3.6405556	1.908024
16.753850758367335	3.7178254	1.9281664
16.771566714935087	3.804288	1.9504584
16.789283075263597	3.8260543	1.9560302
16.80699983980398	3.843977	1.9606063
16.82471700900741	3.8659902	1.9662122
16.84243458332518	3.9577982	1.9894216
16.860152563208665	4.016101	2.0040212
16.87787094910932	4.0643682	2.016028
16.89558974147871	4.085793	2.0213344
16.913308940768466	4.1742887	2.0431075
16.931028547430333	4.257408	2.0633488
16.94874856191613	4.326029	2.0799108
16.966468984677785	4.3533635	2.0864716
16.98418981616729	4.3699245	2.0904365
17.00191105683676	4.4307165	2.1049268
17.019632707138374	4.522365	2.1265852
17.03735476752442	4.566603	2.1369612
17.05507723844728	4.6053424	2.146006
17.072800120359403	4.671752	2.1614237
17.090523413713353	4.743316	2.1779156
17.108247118961785	4.734635	2.1759217
17.125971236557437	4.7012877	2.1682453
17.143695766953133	4.685698	2.1646473
17.161420710601806	4.708634	2.1699388
17.179146067956477	4.737393	2.1765554
17.19687183947025	4.7293267	2.1747015
17.21459802559634	4.7325163	2.1754348
17.232324626788028	4.7145586	2.1713035
17.25005164349871	4.687562	2.165078
17.267779076181863	4.651781	2.1567988
17.285506925291074	4.610498	2.147207
17.30323519127999	4.618815	2.1491427
17.320963874602384	4.611436	2.1474254
17.33869297571211	4.613595	2.147928
17.356422495063114	4.5917535	2.1428378
17.37415243310944	4.5550475	2.1342556
17.391882790305218	4.5479445	2.132591
17.40961356710468	4.5011435	2.12159
17.42734476396215	4.4786997	2.116294
17.445076381332044	4.468073	2.1137817
17.462808419668868	4.56678	2.1370027
17.48054087942723	4.6799736	2.1633246
17.498273761061835	4.984716	2.2326477
17.51600706502747	5.4623857	2.3371747
17.533740791779024	6.1888075	2.4877315
17.551474941771485	7.679533	2.771197
17.56920951545993	8.829811	2.9715
17.586944513299528	11.114869	3.3338969
17.60467993574556	12.766448	3.5730166
17.622415783253373	14.492591	3.8069136
17.64015205627843	16.001074	4.000134
17.657888755276293	17.212883	4.1488414
17.675625880702604	17.69311	4.206318
17.69336343301311	17.471836	4.1799326
17.71110141266366	16.59991	4.074299
17.728839820110178	15.570766	3.945981
17.746578655808705	14.556393	3.815284
17.764317920215372	13.053129	3.6129115
17.7820576137864	11.51219	3.3929617
17.79979773697811	9.524329	3.0861511
17.81753829024692	7.540659	2.746026
17.835279274049356	5.863321	2.4214294
17.85302068884201	4.8253174	2.1966605
17.870762535081607	4.2375193	2.0585237
17.888504813224934	3.9065275	1.9764937
17.90624752372891	3.7015753	1.9239478
17.923990667050536	3.5681794	1.8889625
17.941734243646895	3.5055478	1.8723108
17.959478253975185	3.4941373	1.8692611
17.9772226984927	3.5008702	1.8710612
17.994967577656833	3.466855	1.8619492
18.01271289192506	3.4530277	1.8582324
18.030458641754965	3.416671	1.848424
18.04820482760425	3.4189923	1.8490517
18.06595144993067	3.387791	1.8405952
18.083698509192125	3.3756754	1.8373011
18.101446005846576	3.3478904	1.8297241
18.119193940352105	3.2953088	1.8152986
18.136942313166887	3.283308	1.81199
18.1546911247492	3.253336	1.8037007
18.1724403755574	3.2182145	1.7939383
18.19019006604997	3.2006547	1.7890373
18.207940196685467	3.212963	1.792474
18.225690767922575	3.1821704	1.7838639
18.243441780220046	3.1716444	1.7809111
18.261193234036764	3.1677527	1.7798182
18.278945129831676	3.1329668	1.7700188
18.29669746806386	3.0614264	1.7496933
18.314450249192483	3.0338874	1.7418058
18.3322034736768	3.046845	1.7455214
18.349957141976184	3.0612268	1.7496362
18.3677112545501	3.0725899	1.7528805
18.385465811858108	3.0751085	1.7535987
18.403220814359884	3.0821111	1.7555943
18.420976262515172	3.1493628	1.7746444
18.43873215678387	3.1805475	1.783409
18.456488497625923	3.211939	1.7921884
18.474245285501407	3.3084548	1.8189158
18.492002520870486	3.3585937	1.8326466
18.50976020419343	3.4532533	1.858293
18.527518335930615	3.707085	1.9253792
18.545276916542516	4.2852206	2.0700774
18.563035946489688	4.4596443	2.111787
18.580795426232832	5.019473	2.240418
18.598555356232698	4.8918433	2.2117512
18.616315736950185	5.174058	2.2746556
18.63407656884626	4.758304	2.1813538
18.65183785238201	4.9817653	2.2319868
18.669599588018617	4.7578855	2.1812577
18.68736177621737	4.765236	2.182942
18.705124417439652	4.7578707	2.1812544
18.72288751214696	4.5572853	2.13478
18.740651060800886	4.6974106	2.167351
18.758415063863115	4.3683834	2.0900679
18.77617952179546	4.5284624	2.1280184
18.793944435059814	4.239066	2.0588992
18.811709804118184	4.32941	2.0807235
18.829475629432675	4.3371315	2.0825782
18.8472419114655	4.147209	2.0364697
18.86500865067897	4.207191	2.051144
18.88277584753551	3.858506	1.964308
18.90054350249763	3.878911	1.969495
18.918311616027957	3.5576112	1.8861631
18.936080188589226	3.4415834	1.8551505
18.953849220644265	3.116676	1.765411
18.971618712656007	2.9467833	1.7166197
18.9893886650875	2.8725135	1.6948491
19.007159078401887	8.03484	2.8345792
19.024929953062408	32.89345	5.7352815
19.042701289532435	32.82631	5.729425
19.060473088275405	25.446985	5.0445004
19.07824534975489	2.738853	1.654948
19.096018074434568	2.715959	1.6480167
19.113791262778197	2.6810813	1.6374007
19.13156491524966	2.667677	1.6333025
19.149339032312945	2.641736	1.6253418
19.167113614432136	2.6044872	1.6138424
19.184888662071433	2.6104271	1.6156816
19.202664175695123	2.5770745	1.6053269
19.220440155767623	2.5546808	1.5983369
19.238216602753447	2.5690937	1.6028392
19.2559935171172	2.584294	1.607574
19.27377089932361	2.5570834	1.5990883
19.291548749837514	2.5191526	1.5871838
19.309327069123835	2.5044956	1.5825598
19.32710585764763	2.488174	1.5773947
19.344885115874032	2.484115	1.5761075
19.362664844268313	2.5131397	1.5852885
19.380445043295822	2.5235674	1.588574
19.39822571342203	2.5203502	1.5875611
19.41600685511252	2.5106003	1.5844874
19.43378846883297	2.484845	1.5763391
19.451570555049173	2.4580643	1.5678215
19.469353114227037	2.4690332	1.5713158
19.48713614683254	2.4992628	1.5809057
19.50491965333182	2.5269623	1.5896422
19.52270363419109	2.5286536	1.5901741
19.540488089876686	2.5346167	1.5920479
19.55827302085503	2.5418596	1.594321
19.576058427592674	2.5294561	1.5904264
19.593844310556282	2.5078182	1.5836092
19.611630670212598	2.5394747	1.593573
19.629417507028506	2.556537	1.5989174
19.64720482147098	2.5258026	1.5892774
19.6649926140071	2.4959888	1.5798699
19.682780885104084	2.521054	1.5877827
19.70056963522921	2.5424876	1.594518
19.718358864849908	2.566327	1.601976
19.7361485744337	2.5697908	1.6030567
19.753938764448215	2.5713375	1.603539
19.771729435361202	2.5660963	1.6019039
19.789520587640506	2.5160766	1.5862145
19.807312221754092	2.4913754	1.5784092
19.825104338170043	2.5231497	1.5884426
19.842896937356517	2.5860221	1.6081114
19.860690019781824	2.5835893	1.6073548
19.87848358591436	2.5609396	1.6002936
19.896277636222635	2.5107684	1.5845405
19.914072171175278	2.498355	1.5806185
19.931867191241015	2.5106583	1.5845057
19.94966269688869	2.5461142	1.5956548
19.967458688587264	2.5716975	1.6036513
19.985255166805807	2.5327122	1.5914497
20.00305213201348	2.4966354	1.5800745
20.020849584679578	2.4607668	1.5686831
20.038647525273507	2.4434237	1.5631455
20.05644595426477	2.4240665	1.5569414
20.07424487212299	2.4242573	1.5570027
20.092044279317903	2.4419856	1.5626854
20.109844176319353	2.461006	1.5687593
20.127644563597304	2.4828432	1.575704
20.145445441621817	2.4835076	1.5759149
20.16324681086307	2.4925764	1.5787895
20.181048671791373	2.4602833	1.568529
20.198851024877122	2.412627	1.5532633
20.216653870590836	2.354845	1.5345504
20.234457209403146	2.3744206	1.5409155
20.252261041784802	2.4208648	1.5559129
20.270065368206662	2.45017	1.5653019
20.287870189139685	2.448282	1.5646987
20.305675505054968	2.4386902	1.5616306
20.323481316423702	2.4229372	1.5565786
20.341287623717207	2.445029	1.5636588
20.359094427406884	2.415526	1.5541962
20.376901727964288	2.3846285	1.5442243
20.39470952586107	2.3394	1.5295098
20.41251782156899	2.3524072	1.5337559
20.430326615559935	2.372867	1.5404114
20.448135908305886	2.3847492	1.5442634
20.465945700278965	2.394595	1.5474479
20.483755991951384	2.37983	1.5426698
20.50156678379548	2.384221	1.5440923
20.519378076283708	2.3721426	1.5401762
20.537189869888635	2.3396177	1.529581
20.55500216508294	2.3136687	1.5210749
20.572814962339415	2.3045805	1.5180845
20.59062826213098	2.3170493	1.5221857
20.60844206493066	2.337916	1.5290245
20.626256371211593	2.4027905	1.5500938
20.644071181447032	2.4371293	1.5611308
20.66188649611036	2.396348	1.5480142
20.67970231567506	2.3206115	1.5233554
20.697518640614742	2.3120942	1.5205572
20.715335471403122	2.3214676	1.5236363
20.73315280851404	2.3307045	1.5266645
20.750970652421447	2.318233	1.5225744
20.768789003599412	2.3250926	1.5248255
20.786607862522136	2.337012	1.5287288
20.8044272296639	2.3239343	1.5244455
20.82224710549913	2.297961	1.5159028
20.84006749050237	2.3084433	1.5193563
20.857888385148268	3.903645	1.9757644
20.8757097899116	45.987717	6.7814245
20.893531705267254	64.825806	8.051448
20.911354131690224	83.84993	9.1569605
20.92917706965566	69.11574	8.313587
20.94700051963877	50.16123	7.082459
20.96482448211493	29.40399	5.4225445
20.982648957559622	4.146654	2.0363336
21.00047394644843	2.2399962	1.4966617
21.01829944925707	2.227051	1.4923308
21.036125466461375	2.2098489	1.486556
21.053951998537297	2.242292	1.4974284
21.071779045960906	2.234039	1.4946703
21.089606609208378	2.2339938	1.494655
21.10743468875603	2.237578	1.4958535
21.12526328508028	2.2419827	1.4973252
21.143092398657675	2.2125435	1.487462
21.16092202996488	2.1989284	1.4828784
21.17875217947867	2.2302926	1.4934164
21.19658284767596	2.2435124	1.4978359
21.21441403503377	2.2400565	1.4966818
21.232245742029225	2.248998	1.499666
21.2500779691396	2.2434902	1.4978285
21.26791071684227	2.2168727	1.4889166
21.28574398561475	2.205477	1.4850849
21.30357777593465	2.2141125	1.4879894
21.321412088279704	2.2495522	1.4998507
21.339246923127792	2.2689362	1.5062988
21.357082280956888	2.2503738	1.5001246
21.3749181622451	2.200416	1.48338
21.392754567470647	2.1618147	1.470311
21.41059149711187	2.1469097	1.4652337
21.42842895164726	2.1636152	1.4709233
21.446266931555378	2.155505	1.4681638
21.464105437314945	2.1829221	1.4774716
21.481944469404798	2.1709046	1.473399
21.49978402830388	2.1639378	1.4710329
21.51762411449127	2.1154919	1.454473
21.53546472844617	2.1130762	1.4536424
21.553305870647876	2.1208189	1.4563031
21.571147541575865	2.128552	1.4589558
21.58898974170967	2.1344998	1.4609927
21.60683247152899	2.1136527	1.4538407
21.62467573151363	2.0833938	1.4433966
21.642519522143523	2.0762167	1.4409083
21.660363843898722	2.0887752	1.4452596
21.6782086972594	2.1457763	1.4648468
21.696054082705864	2.154869	1.4679472
21.713900000718535	2.0946643	1.4472955
21.73174645177795	2.049744	1.4316927
21.749593436364794	2.0539336	1.4331552
21.767440954959845	2.0546055	1.4333895
21.785289008044032	2.0535228	1.4330118
21.803137596098388	2.0454512	1.4301927
21.820986719604086	2.057882	1.434532
21.838836379042412	2.0306163	1.424997
21.85668657489478	2.0486412	1.4313076
21.87453730764273	2.0547411	1.4334369
21.892388577767914	2.0413728	1.4287661
21.91024038575213	2.0253088	1.4231335
21.928092732077285	2.0366395	1.4271088
21.945945617225426	2.0539415	1.4331579
21.963799041678694	2.0504074	1.4319243
21.981653005919398	31.338892	5.598115
21.999507510429943	78.10947	8.837956
22.01736255569286	73.08606	8.549039
22.035218142190818	4.1935234	2.0478094
22.05307427040661	2.0214639	1.4217819
22.07093094082315	2.0218525	1.4219186
22.088788153923474	2.0133407	1.4189224
22.106645910190746	2.0151408	1.4195565
22.12450421010827	2.0113366	1.418216
22.142363054159464	2.0000386	1.4142272
22.16022244282787	1.9891658	1.4103779
22.178082376597164	1.9953824	1.41258
22.195942855951145	2.0047147	1.4158795
22.213803881373742	2.0029173	1.4152446
22.231665453349002	1.9876709	1.4098479
22.24952757236111	1.9803833	1.4072609
22.26739023889438	1.9639705	1.4014174
22.28525345343323	1.9693139	1.4033225
22.30311721646225	1.9654421	1.4019423
22.320981528466113	1.957799	1.3992137
22.33884638992964	1.9454453	1.3947922
22.356711801337788	1.9538639	1.3978068
22.37457776317561	1.9854401	1.4090564
22.392444275928337	1.9958795	1.412756
22.410311340081282	1.9874845	1.4097817
22.428178956119904	1.9831439	1.4082414
22.446047124529805	1.9891679	1.4103787
22.46391584579669	1.9667343	1.402403
22.481785120406414	1.9588708	1.3995967
22.49965494884496	1.9629108	1.4010391
22.51752533159841	1.952937	1.3974752
22.53539626915302	1.9244884	1.3872594
22.553267761995137	1.9076856	1.38119
22.571139810611264	1.9487827	1.3959881
22.589012415488025	1.9847751	1.4088205
22.60688557711216	1.972219	1.4043572
22.624759295970566	1.9035472	1.379691
22.642633572550263	1.8784616	1.3705698
22.660508407338362	1.9114255	1.3825431
22.67838380082217	1.9757181	1.4056025
22.696259753489077	1.9928796	1.4116939
22.714136265826614	1.999981	1.4142069
22.73201333832246	1.9889594	1.4103048
22.74989097146439	1.9790462	1.4067857
22.76776916574035	1.9524966	1.3973176
22.785647921638393	1.9452934	1.3947377
22.803527239646712	1.9618002	1.4006428
22.82140712025363	1.9740316	1.4050024
22.839287563947593	1.9597282	1.3999029
22.85716857121719	1.9341701	1.3907444
22.875050142551135	1.8995624	1.3782461
22.892932278438277	1.861894	1.3645123
22.910814979367604	1.8899083	1.3747394
22.928698245828222	1.906564	1.3807838
22.946582078309387	1.9179022	1.3848835
22.96446647730047	1.861299	1.3642943
22.98235144329098	1.9162502	1.3842869
23.000236976770562	1.9200505	1.3856589
23.018123078229	1.9378886	1.3920807
23.03600974815619	1.8894514	1.3745731
23.053896987042194	1.9125636	1.3829546
23.071784795377173	1.930142	1.3892956
23.08967317365145	1.9274474	1.3883255
23.10756212235546	1.8856418	1.3731867
23.125451641979787	1.9208086	1.3859323
23.143341733015134	1.9479197	1.395679
23.161232395952357	1.9515136	1.3969659
23.179123631282426	1.9151382	1.3838851
23.197015439496468	1.9087032	1.3815583
23.214907821085717	1.92188	1.3863189
23.23280077654157	1.9461389	1.3950408
23.250694306355538	1.9502933	1.3965291
23.268588411019277	1.920386	1.3857799
23.28648309102458	1.9334816	1.3904969
23.304378346863356	1.9345434	1.3908787
23.322274179027676	1.9471928	1.3954185
23.340170588009723	1.9368913	1.3917224
23.358067574301852	1.9422989	1.3936639
23.37596513839651	1.9444067	1.3944199
23.39386328078629	1.9581207	1.3993287
23.411762001963947	1.9373313	1.3918805
23.429661302422353	1.950207	1.3964981
23.4475611826545	1.9583766	1.3994201
23.46546164315356	1.980032	1.4071361
23.48336268441279	1.95247	1.3973081
23.501264306925638	1.930501	1.3894247
23.51916651118564	1.9158481	1.3841417
23.537069297686497	1.8825278	1.3720524
23.554972666922037	1.8742142	1.3690194
23.57287661938623	1.8741409	1.3689927
23.59078115557318	1.9318163	1.389898
23.608686275977128	1.9101155	1.3820692
23.62659198109246	1.9257332	1.387708
23.6444982714137	1.9525573	1.3973393
23.66240514743549	1.9786435	1.4066427
23.68031260965263	1.9702545	1.4036576
23.698220658560068	1.935142	1.3910939
23.716129294652845	1.9026415	1.3793627
23.7340385184262	1.9025553	1.3793315
23.75194833037546	1.911864	1.3827018
23.769858730996123	1.917185	1.3846245
23.78776972078382	1.9304655	1.3894119
23.80568130023431	1.9425089	1.3937392
23.823593469843495	1.948518	1.3958933
23.841506230107424	1.958756	1.3995557
23.859419581522275	1.9813377	1.4075999
23.87733352458438	1.9818898	1.4077961
23.89524805979019	1.9612389	1.4004424
23.913163187636318	1.9571035	1.3989651
23.931078908619508	1.9724623	1.4044437
23.948995223236633	2.0120375	1.4184631
23.966912131984735	2.0379791	1.4275781
23.98482963536096	2.0562413	1.43396
24.002747733862616	2.0126946	1.4186947
24.020666427987155	1.9918697	1.4113362
24.038585718232156	2.0075068	1.4168651
24.056505605095353	2.0573018	1.4343297
24.074426089074617	2.084108	1.443644
24.092347170667946	2.0792475	1.4419596
24.110268850373515	2.0946448	1.4472888
24.128191128689586	2.1151516	1.4543561
24.146114006114626	2.1302762	1.4595466
24.164037483147187	2.1358104	1.4614412
24.181961560286005	2.1349628	1.4611512
24.199886238029926	2.0956018	1.4476193
24.21781151687797	2.0956712	1.4476433
24.235737397329274	2.0709016	1.4390627
24.253663879883135	2.0364678	1.4270487
24.271590965038975	2.0066772	1.4165723
24.289518653296376	2.0071397	1.4167355
24.30744694515505	2.0116274	1.4183185
24.32537584111486	2.0221243	1.4220141
24.34330534167581	2.0568748	1.4341809
24.361235447338046	2.04215	1.4290382
24.379166158601876	2.0238194	1.42261
24.39709747596772	2.0064132	1.4164791
24.41502939993615	2.0084834	1.4172097
24.432961931007917	1.995698	1.4126917
24.450895069683856	1.9772998	1.4061649
24.468828816465	1.9433923	1.3940561
24.4867631718525	1.9833723	1.4083226
24.504698136347656	1.99015	1.4107268
24.52263371045192	1.9986004	1.4137186
24.540569894666874	1.9710001	1.4039232
24.558506689494266	1.9456363	1.3948606
24.57644409543597	1.9685992	1.4030678
24.594382112994012	2.0169845	1.4202058
24.61232074267057	2.0254655	1.4231884
24.630259984967953	1.9716775	1.4041643
24.64819984038863	1.9224852	1.3865372
24.66614030943522	1.9978844	1.4134654
24.684081392610462	2.0684285	1.4382032
24.702023090417274	2.070383	1.4388826
24.7199654033587	1.9863645	1.4093845
24.737908331937927	1.9665177	1.4023259
24.755851876658305	2.0045886	1.4158349
24.773796038023324	2.038743	1.4278456
24.79174081653661	2.0874746	1.4448096
24.809686212701962	2.097342	1.4482203
24.827632227023294	2.0825965	1.4431204
24.8455788600047	2.1051836	1.4509251
24.8635261121504	2.1736283	1.474323
24.88147398396475	2.190435	1.4800118
24.899422475952303	2.1744523	1.4746025
24.917371588617698	2.1254284	1.4578849
24.935321322465768	2.2054093	1.485062
24.953271678001478	2.3283436	1.5258911
24.97122265572994	2.518369	1.586937
24.989174256156414	2.7915792	1.670802
25.00712647978632	3.226589	1.7962708
25.02507932712521	3.801396	1.9497169
25.043032798678798	4.388291	2.0948248
25.060986894952933	5.018913	2.240293
25.078941616453637	5.699412	2.3873441
25.096896963687055	6.6620293	2.5810907
25.114852937159508	7.910402	2.8125436
25.132809537377444	8.400081	2.8982892
25.150766764847468	8.362154	2.891739
25.168724620076347	7.8018374	2.793177
25.186683103570985	6.8073483	2.6090896
25.204642215838426	5.6078134	2.3680823
25.222601957385894	4.2332582	2.0574884
25.24056232872074	3.2120955	1.792232
25.25852333035048	2.5771363	1.6053462
25.276484962782778	2.235318	1.495098
25.294447226525435	2.0656104	1.4372232
25.312410122086423	1.93663	1.3916285
25.330373649973843	1.9073848	1.381081
25.348337810695988	1.9319677	1.3899524
25.366302604761245	1.9820378	1.4078486
25.384268032678207	1.9403403	1.392961
25.40223409495558	1.8962071	1.3770283
25.420200792102257	1.898131	1.3777268
25.438168124627246	1.8780413	1.3704164
25.45613609303974	1.8669405	1.3663603
25.474104697849057	1.888156	1.3741019
25.492073939564698	1.9329001	1.3902878
25.510043818696285	1.9115151	1.3825755
25.528014335753614	1.8894402	1.374569
25.54598549124664	1.868956	1.3670976
25.56395728568544	1.8971807	1.3773818
25.58192971958028	1.9211665	1.3860615
25.59990279344156	1.9162661	1.3842926
25.617876507779833	1.8469288	1.3590176
25.635850863105826	1.8537018	1.3615072
25.653825859930386	1.8643532	1.3654132
25.671801498764548	1.892899	1.3758267
25.68977778011949	1.9287423	1.3887917
25.707754704506524	1.937746	1.3920295
25.725732272437153	1.8639697	1.3652728
25.743710484423012	1.8406873	1.3567193
25.761689340975888	1.8535922	1.3614669
25.77966884260774	1.865685	1.3659008
25.797648989830662	1.8277047	1.3519263
25.815629783156922	1.7978904	1.3408544
25.83361122309895	1.8117727	1.346021
25.85159331016929	1.8318732	1.3534671
25.869576044880695	1.8217854	1.3497354
25.887559427746034	1.8075602	1.3444554
25.90554345927836	1.8419552	1.3571864
25.92352813999086	1.8493873	1.3599218
25.94151347039689	1.907237	1.3810276
25.959499451009965	1.9134516	1.3832756
25.97748608234374	1.8995169	1.3782296
25.995473364912062	1.8918681	1.3754519
26.013461299228904	1.9097326	1.3819307
26.03144988580839	1.8912275	1.3752191
26.04943912516483	1.8869812	1.3736744
26.067429017812675	1.865654	1.3658894
26.085419564266537	1.8781319	1.3704495
26.103410765041186	1.8755744	1.3695161
26.12140262065155	1.8857629	1.3732308
26.139395131612723	1.8916961	1.3753895
26.157388298439948	1.8662001	1.3660893
26.17538212164861	1.8801721	1.3711936
26.193376601754295	1.8417747	1.35712
26.211371739272714	1.8236123	1.3504119
26.229367534719746	1.7807277	1.3344392
26.247363988611433	1.7987396	1.3411709
26.26536110146397	1.8099216	1.3453332
26.283358873793727	1.7623706	1.327543
26.301357306117204	1.7717456	1.3310694
26.319356398951104	1.8090367	1.3450043
26.33735615281224	1.8072182	1.3443282
26.35535656821762	1.8179393	1.3483098
26.373357645684404	1.8187499	1.3486104
26.39135938572991	1.8070138	1.3442521
26.409361788871614	1.8151796	1.347286
26.427364855627165	1.8586848	1.3633358
26.445368586514352	1.8757309	1.3695732
26.46337298205115	1.8590537	1.3634712
26.48137804275568	1.826744	1.351571
26.499383769146217	1.7700346	1.3304265
26.517390161741215	1.766793	1.3292077
26.53539722105928	1.7644941	1.3283426
26.553404947619182	1.7925179	1.3388494
26.571413341939856	1.805514	1.3436942
26.589422404540397	1.7912631	1.3383808
26.60743213594006	1.7807369	1.3344425
26.62544253665827	1.849213	1.3598577
26.64345360721459	1.8764565	1.3698381
26.66146534812879	1.8775804	1.3702483
26.679477759920758	1.8364445	1.3551548
26.69749084311057	1.8351318	1.3546704
26.71550459821847	1.7992388	1.3413571
26.733519025764842	1.8119907	1.346102
26.751534126270258	1.826436	1.351457
26.769549900255434	1.8325073	1.3537014
26.787566348241267	1.835725	1.3548893
26.80558347074881	1.8297241	1.3526729
26.823601268299267	1.8099234	1.3453339
26.841619741414036	1.8041766	1.3431964
26.85963889061465	1.7953117	1.3398924
26.877658716422832	1.798066	1.3409199
26.89567921936045	1.829818	1.3527076
26.913700399949544	1.8367345	1.3552618
26.93172225871233	1.8438123	1.3578705
26.949744796171174	1.8588217	1.3633862
26.967768012848605	1.8472933	1.3591517
26.98579190926733	1.8359832	1.3549845
27.003816485950225	1.8302902	1.3528821
27.021841743420318	1.8340393	1.3542671
27.039867682200814	1.8400257	1.3564755
27.057894302815072	1.8412045	1.3569099
27.07592160578664	1.8374555	1.3555278
27.0939495916392	1.8330365	1.3538969
27.111978260896635	1.7752743	1.3323942
27.13000761408296	1.7534852	1.3241923
27.148037651722397	1.7811954	1.3346143
27.166068374339304	1.8367685	1.3552743
27.184099782458215	1.8660722	1.3660425
27.20213187660384	1.8391178	1.3561407
27.22016465730105	1.8583908	1.3632281
27.23819812507487	1.8747562	1.3692174
27.256232280450533	1.8416337	1.3570681
27.274267123953383	1.8035213	1.3429525
27.292302656108987	1.8405724	1.3566769
27.31033887744306	1.883599	1.3724427
27.32837578848146	1.8562374	1.3624381
27.34641338975026	1.7994714	1.3414438
27.364451681775673	1.8172086	1.3480388
27.382490665084074	1.8657379	1.3659202
27.400530340202046	1.8942934	1.3763334
27.41857070765629	1.8835598	1.3724284
27.436611767973726	1.8566608	1.3625934
27.454653521681404	1.8069919	1.344244
27.472695969306564	1.7946281	1.3396373
27.490739111376627	1.7858409	1.3363535
27.508782948419153	1.7953956	1.3399237
27.526827480961902	1.7758453	1.3326085
27.54487270953279	1.8338612	1.3542013
27.562918634659898	1.8490646	1.3598032
27.580965256871508	1.7908349	1.3382208
27.599012576696026	1.7563025	1.3252556
27.617060594662068	1.8368868	1.355318
27.63510931129842	1.8625093	1.3647377
27.65315872713401	1.8348054	1.3545499
27.67120884269797	1.8236107	1.3504113
27.68925965851958	1.9148735	1.3837895
27.707311175128307	1.9228308	1.3866618
27.725363393053787	1.8941808	1.3762923
27.74341631282583	1.870758	1.3677566
27.7614699349744	1.849056	1.3598
27.77952426002968	2.009095	1.4174255
27.797579288521973	2.1019845	1.4498222
27.815635020981784	2.5352736	1.5922543
27.83369145793979	2.6014843	1.6129117
27.85174859992682	2.4164398	1.5544902
27.869806447473923	2.2969604	1.5155727
27.887865001112267	2.0407925	1.4285631
27.905924261373233	1.9254996	1.3876237
27.92398422878836	1.8655064	1.3658354
27.94204490388936	1.8858813	1.373274
27.96010628720813	1.9363519	1.3915286
27.978168379276728	1.9273556	1.3882923
27.9962311806274	1.8488231	1.3597144
28.014294691792568	1.8584561	1.363252
28.0323589133048	1.870331	1.3676004
28.050423845696887	1.9084446	1.3814647
28.068489489501758	1.915427	1.3839895
28.086555845252523	1.9185946	1.3851334
28.104622913482487	1.9015602	1.3789707
28.122690694725115	1.8709248	1.3678175
28.14075918951405	1.8726666	1.3684541
28.15882839838312	1.9086472	1.381538
28.176898321866304	1.945041	1.3946472
28.1949689604978	1.955748	1.3984805
28.213040314811945	2.0268638	1.4236797
28.23111238534327	2.0184512	1.4207221
28.249185172626493	1.9599531	1.3999833
28.267258677196473	1.9023426	1.3792543
28.285332899588294	1.882499	1.372042
28.303407840337172	1.9308858	1.3895632
28.321483499978545	1.9874696	1.4097764
28.33955987904799	1.9636773	1.4013127
28.357636978081285	1.9348963	1.3910055
28.37571479761439	1.8969204	1.3772874
28.393793338183425	1.8579777	1.3630766
28.41187260032469	1.8784506	1.3705658
28.429952584574686	1.9690614	1.4032325
28.448033291470065	2.0613284	1.4357327
28.46611472154769	2.0544615	1.4333392
28.484196875344566	1.9891256	1.4103637
28.502279753397914	2.0324044	1.4256243
28.52036335624511	2.075002	1.4404867
28.538447684423716	2.097177	1.4481633
28.556532738471482	2.0613978	1.4357569
28.574618518926325	2.0575855	1.4344286
28.59270502632635	2.0712779	1.4391935
28.61079226120985	2.0520744	1.4325063
28.628880224115274	2.0463102	1.430493
28.646968915581287	2.0425925	1.429193
28.66505833614671	2.0818217	1.4428519
28.68314848635055	2.0780044	1.4415284
28.701239366732004	2.1012552	1.4495707
28.71933097783044	2.1143618	1.4540845
28.737423320185403	2.1074538	1.4517072
28.75551639433665	2.0452259	1.4301139
28.773610200824074	2.0350382	1.4265476
28.791704740187793	2.081161	1.442623
28.80980001296809	2.1910868	1.480232
28.827896019705413	2.2252488	1.4917268
28.845992760940433	2.2373064	1.4957628
28.86409023721397	2.2316046	1.4938556
28.88218844906704	2.2979891	1.5159119
28.900287397040845	2.268576	1.5061792
28.918387081676755	2.2601335	1.5033741
28.936487503516343	2.2338789	1.4946166
28.954588663101365	2.2577028	1.5025654
28.97269056097374	2.319219	1.5228983
28.990793197675597	2.3364315	1.5285391
29.00889657374923	2.372108	1.540165
29.027000689737125	2.3737664	1.5407032
29.04510554618196	2.3825996	1.5435672
29.06321114362659	2.486769	1.5769492
29.08131748261405	2.570098	1.6031525
29.099424563687567	2.5813282	1.6066512
29.11753238739057	2.5924556	1.6101104
29.13564095426663	2.5658298	1.6018207
29.15375026485954	2.5613794	1.600431
29.171860319713275	2.5687666	1.6027372
29.18997111937199	2.6239476	1.6198604
29.20808266438002	2.6993642	1.6429741
29.226194955281898	2.7983036	1.672813
29.244307992622335	2.8709996	1.6944025
29.26242177694624	2.928936	1.7114135
29.2805363087987	3.0079658	1.7343488
29.29865158872498	2.9476423	1.71687
29.316767617270557	2.876964	1.6961616
29.334884394981064	2.823382	1.6802922
29.353001922402367	2.8909407	1.7002766
29.37112020008047	3.1065962	1.7625539
29.389239228561596	3.2264576	1.7962343
29.407359008392152	3.4391284	1.8544887
29.42547954011872	3.8722405	1.967801
29.44360082428809	4.4781165	2.116156
29.46172286144722	5.474479	2.3397605
29.479845652143283	7.09791	2.6641903
29.497969196923606	9.336545	3.055576
29.516093496335728	11.9305725	3.454066
29.5342185509274	14.64489	3.8268642
29.55234436124651	16.738737	4.0913
29.570470927841175	18.186808	4.2645993
29.588598251259686	17.950941	4.236855
29.60672633205055	16.623228	4.0771594
29.624855170762405	14.350412	3.7881937
29.642984767944146	11.621307	3.409004
29.66111512414481	8.917254	2.9861772
29.67924623991366	6.6446967	2.577731
29.697378115800138	5.0898438	2.2560682
29.71551075235387	4.1748147	2.0432363
29.733644150124675	3.7973104	1.9486688
29.751778309662576	3.6387339	1.9075465
29.769913231517766	3.5224712	1.8768247
29.78804891624066	3.4592965	1.8599184
29.806185364381818	3.4181442	1.8488224
29.82432257649206	3.3779695	1.8379253
29.842460553122333	3.38951	1.8410622
29.86059929482382	3.3336422	1.8258264
29.878738802147872	3.2807648	1.8112881
29.896879075646048	3.352606	1.8310122
29.915020115870114	3.3715146	1.8361684
29.933161923371976	3.3719828	1.836296
29.951304498703777	3.3619082	1.8335507
29.969447842417857	3.3256195	1.8236281
29.987591955066733	3.270604	1.8084811
30.005736837203123	3.1681397	1.7799269
30.023882489379943	3.1338942	1.7702808
30.04202891215028	3.1841373	1.7844151
30.060176106067455	3.2621047	1.8061298
30.078324071684946	3.264799	1.8068755
30.09647280955646	3.2384279	1.7995633
30.114622320235863	3.2119143	1.7921815
30.132772604277257	3.1673963	1.779718
30.1509236622349	3.1198757	1.766317
30.16907549466328	3.143648	1.7730335
30.18722810211705	3.0974195	1.7599487
30.205381485151097	3.0445786	1.7448721
30.22353564432045	3.0567195	1.7483476
30.241690580180403	3.1152186	1.7649982
30.25984629328638	3.095325	1.7593535
30.278002784194037	3.0741377	1.7533219
30.296160053459246	3.0497785	1.7463615
30.314318101638033	3.058195	1.7487696
30.332476929286646	3.0641212	1.7504631
30.35063653696153	3.0367768	1.742635
30.368796925219307	2.9938786	1.7302828
30.386958094616844	2.9834306	1.7272611
30.40512004571115	2.94858	1.7171429
30.423282779059463	2.960247	1.7205368
30.441446295219233	3.0429788	1.7444136
30.459610594748067	3.0493536	1.7462399
30.47777567820382	3.0033917	1.7330296
30.495941546144504	2.920728	1.7090137
30.51410819912835	2.8886104	1.6995913
30.532275637713795	2.8491557	1.6879442
30.55044386245946	2.8836098	1.6981195
30.56861287392416	2.9087546	1.7055072
30.586782672666956	2.831941	1.6828371
30.604953259247047	2.7694387	1.6641631
30.623124634223885	2.8080904	1.6757358
30.641296798157075	2.8655806	1.6928025
30.659469751606462	2.8207216	1.6795005
30.677643495132074	2.7640154	1.6625328
30.695818029294152	2.7629466	1.6622114
30.713993354653116	2.8140156	1.6775028
30.73216947176962	2.832615	1.6830374
30.75034638120448	2.7282119	1.65173
30.768524083518756	2.6688564	1.6336635
30.786702579273673	2.7179403	1.6486177
30.80488186903069	2.858045	1.6905754
30.82306195335144	2.952556	1.7183003
30.841242832797782	3.172579	1.7811735
30.85942450793176	3.4411497	1.8550336
30.877606979315637	3.814258	1.9530126
30.895790247511883	4.288443	2.0708556
30.913974313083134	4.694071	2.1665804
30.932159176592283	4.8918943	2.2117627
30.95034483860237	4.969617	2.2292638
30.968531299676698	4.7081223	2.1698208
30.98671856037873	4.28845	2.0708573
31.00490662127215	3.8626537	1.9653635
31.023095482920848	3.5105367	1.8736426
31.04128514588892	3.1318908	1.7697148
31.059475610740662	2.8259194	1.6810471
31.07766687804056	2.64801	1.6272707
31.09585894835335	2.5420637	1.594385
31.11405182224393	2.463201	1.5694588
31.132245500277417	2.4075108	1.5516155
31.15043998301914	2.3826253	1.5435755
31.168635271034628	2.4271839	1.5579422
31.18683136488964	2.4238634	1.5568762
31.20502826515008	2.4513755	1.565687
31.223225972382135	2.469945	1.5716058
31.241424487152155	2.4964056	1.5800018
31.259623810026692	2.5035717	1.5822679
31.27782394157253	2.4726856	1.5724776
31.296024882356644	2.3641675	1.5375849
31.314226632946237	2.3101916	1.5199314
31.332429193908684	2.3882065	1.5453823
31.350632565811598	2.4863904	1.5768292
31.368836749222787	2.4944184	1.5793728
31.387041744710295	2.5160801	1.5862156
31.40524755284232	2.617421	1.6178446
31.423454174187317	2.677109	1.6361873
31.441661609313922	2.6124384	1.6163039
31.459869858791002	2.474406	1.5730245
31.478078923187628	2.4625018	1.569236
31.496288803073064	2.459704	1.5683444
31.514499499016807	2.4165657	1.5545307
31.532711011588546	2.323356	1.5242559
31.550923341358178	2.2473624	1.4991206
31.56913648889584	2.277199	1.5090392
31.587350454771844	2.2974186	1.5157238
31.605565239556732	2.343229	1.5307609
31.62378084382127	2.3444004	1.5311435
31.641997268136382	2.3251224	1.5248352
31.660214513073274	2.35003	1.5329807
31.67843257920331	2.4279072	1.5581744
31.6966514670981	2.4089127	1.5520673
31.71487117732944	2.3408287	1.5299767
31.733091710469346	2.3221056	1.5238457
31.751313067090052	2.2785745	1.5094948
31.769535247764008	2.279005	1.5096374
31.787758253063878	2.3482718	1.5324072
31.805982083562526	2.4305995	1.559038
31.824206739833024	2.4222736	1.5563655
31.84243222244869	2.3589203	1.5358777
31.860658531983013	2.3099437	1.5198499
31.878885669009737	2.3300886	1.5264628
31.897113634102784	2.3708215	1.5397472
31.91534242783632	2.3880622	1.5453357
31.933572050784694	2.4196277	1.5555153
31.951802503522508	2.36457	1.5377158
31.970033786624548	2.2404208	1.4968035
31.988265900665834	2.1743968	1.4745836
32.006498846221575	2.2614412	1.5038089
32.02473262386724	2.3210027	1.5234838
32.04296723417845	2.2563865	1.5021273
32.0612026777311	2.1582172	1.4690872
32.07943895510129	2.1110737	1.4529535
32.097676066865304	2.1345794	1.46102
32.115914013599685	2.2231557	1.4910251
32.13415279588115	2.2640908	1.5046896
32.152392414286666	2.203311	1.4843554
32.1706328693934	2.1248698	1.4576933
32.18887416177875	2.0720701	1.4394687
32.20711629202032	2.1135366	1.4538008
32.225359260695924	2.163757	1.4709715
32.243603068383614	2.1946702	1.481442
32.26184771566166	2.248867	1.4996223
32.28009320310852	2.2202446	1.4900485
32.2983395313029	2.146378	1.4650522
32.31658670082372	2.1522703	1.4670618
32.33483471225012	2.208786	1.4861985
32.35308356616143	2.2008994	1.4835428
32.371333263137245	2.1032832	1.45027
32.38958380375734	2.0748265	1.4404258
32.407835188601744	2.0473936	1.4308716
32.42608741825067	2.1076288	1.4517674
32.444340493284585	2.1368146	1.4617847
32.46259441428416	2.1345632	1.4610144
32.48084918183028	2.0828664	1.4432139
32.49910479650405	2.0411785	1.4286982
32.51736125888683	2.0475378	1.430922
32.53561856956014	1.998406	1.4136499
32.5538767291058	1.9925882	1.4115907
32.572135738105764	2.0092108	1.4174663
32.59039559714228	2.1059227	1.4511797
32.608656306797776	2.0939891	1.4470623
32.62691786765491	2.028272	1.4241741
32.645180280296586	1.9331381	1.3903733
32.663443545305896	1.9049113	1.3801852
32.68170766326619	1.9185394	1.3851135
32.69997263476099	2.0144606	1.4193169
32.7182384603741	2.0542498	1.4332654
32.7365051406895	2.0081553	1.417094
32.75477267629144	2.0408475	1.4285823
32.77304106776434	2.035124	1.4265777
32.79131031569289	1.9603232	1.4001154
32.809580420661966	1.9689006	1.4031751
32.827851383256714	2.0120907	1.4184818
32.84612320406245	1.9647039	1.4016789
32.86439588366476	1.9527624	1.3974128
32.88266942264945	2.0755165	1.4406652
32.9009438216025	2.1248734	1.4576945
32.9192190811102	2.1282392	1.4588486
32.937495201758985	2.086834	1.4445878
32.95577218413556	1.9634188	1.4012204
32.974050028826866	1.8710166	1.3678511
32.992328736420035	1.8682449	1.3668375
33.010608307502444	1.9969319	1.4131284
33.02888874266169	2.09987	1.4490929
33.047170042485604	2.1252377	1.4578195
33.06545220756225	2.0476909	1.4309754
33.083735238479896	1.9306476	1.3894775
33.10201913582707	1.8683126	1.3668623
33.12030390019248	1.9196959	1.385531
33.138589532165135	1.9603132	1.4001118
33.15687603233419	1.9941807	1.4121547
33.17516340128909	2.0049796	1.4159731
33.19345163961947	2.088248	1.4450772
33.211740747915215	2.0456402	1.4302588
33.23003072676643	1.885973	1.3733073
33.248321576763466	1.8366877	1.3552445
33.266613298496885	1.8708787	1.3678007
33.28490589255747	1.8601635	1.3638781
33.30319935953626	1.8389452	1.3560771
33.32149370002451	1.8374735	1.3555344
33.339788914613706	1.8537768	1.3615347
33.358085003895575	1.8627378	1.3648216
33.376381968462034	1.9092156	1.3817437
33.39467980890529	2.0439625	1.4296721
33.41297852581774	2.0560074	1.4338784
33.43127811979204	1.9069008	1.3809057
33.44957859142105	1.8296862	1.3526589
33.467879941297866	1.8603654	1.3639522
33.486182170015844	1.8705043	1.3676637
33.50448527816853	1.986999	1.4096096
33.522789266349754	2.0417902	1.4289123
33.541094135153514	2.0118706	1.4184042
33.55939988517411	1.9036934	1.3797439
33.57770651700602	1.9406086	1.3930573
33.59601403124398	1.947905	1.3956736
33.61432242848296	1.8576027	1.362939
33.632631709318154	1.8447357	1.3582104
33.650941874344994	1.9060941	1.3806137
33.66925292415916	2.035469	1.4266987
33.68756485935654	2.1144717	1.4541223
33.70587768053328	2.0654404	1.4371641
33.724191388285746	1.9421977	1.3936275
33.74250598321054	1.8789822	1.3707597
33.760821465904506	1.8445897	1.3581567
33.77913783696474	1.8823519	1.3719883
33.79745509698852	1.8636471	1.3651546
33.815773246573414	1.8241752	1.3506203
33.8340922863172	1.7967236	1.3404192
33.852412216817896	1.8257482	1.3512025
33.87073303867377	1.895321	1.3767066
33.889054752483304	2.0047553	1.4158938
33.907377358845245	1.9430066	1.3939177
33.92570085835853	1.8671216	1.3664266
33.94402525162239	1.8807334	1.3713983
33.96235053923627	1.8835441	1.3724227
33.980676721799824	1.9143474	1.3835994
33.999003799912984	1.9796456	1.4069988
34.01733177417592	2.0637426	1.4365733
34.03566064518901	2.0110795	1.4181254
34.0539904135529	1.8793014	1.3708762
34.07232107986846	1.8094435	1.3451556
34.090652644736785	1.8108517	1.3456789
34.108985108759235	1.7408949	1.3194298
34.12731847253742	1.7470304	1.3217528
34.14565273667313	1.8831737	1.3722878
34.16398790176847	2.0109591	1.418083
34.18232396842574	2.044925	1.4300088
34.20066093724749	2.0542583	1.4332684
34.21899880883651	2.058221	1.4346502
34.23733758379583	1.9867647	1.4095263
34.25567726272874	2.0721443	1.4394945
34.27401784623872	2.0417151	1.4288859
34.29235933492957	1.9860991	1.4092903
34.31070172940526	1.9061135	1.3806207
34.32904503027003	1.8196869	1.3489577
34.347389238128386	1.9299974	1.3892435
34.36573435358502	2.061483	1.4357865
34.38408037724492	2.100958	1.4494683
34.402427309713296	1.9543283	1.397973
34.42077515159559	1.866636	1.3662488
34.43912390349752	1.8985481	1.3778781
34.45747356602499	1.9701844	1.4036326
34.47582413978423	2.012154	1.4185041
34.49417562538163	1.9989427	1.4138397
34.51252802342388	1.8839444	1.3725685
34.53088133451789	1.9430337	1.3939275
34.54923555927084	2.027153	1.4237813
34.567590698290104	2.0699525	1.438733
34.58594675218336	1.9855175	1.409084
34.6043037215585	1.9857441	1.4091643
34.62266160702365	2.1274383	1.458574
34.641020409187234	2.051315	1.4322413
34.65938012865785	1.8474469	1.3592082
34.677740766044394	1.7885412	1.3373635
34.69610232195598	1.899336	1.3781639
34.714464797002016	2.2051504	1.4849749
34.73282819179208	2.3796663	1.5426167
34.751192506936064	2.3145158	1.5213532
34.76955774304408	2.286302	1.5120523
34.7879239007265	2.165624	1.4716059
34.80629098059391	1.9794205	1.4069188
34.824658983257194	1.7715199	1.3309846
34.843027909327446	1.7572644	1.3256185
34.86139775941603	1.846049	1.3586938
34.879768534134534	1.9927934	1.4116634
34.89814023409483	2.0753124	1.4405944
34.91651285990901	1.8715633	1.3680509
34.93488641218944	1.93281	1.3902553
34.95326089154871	2.0068667	1.4166392
34.97163629859967	2.0303648	1.4249086
34.99001263395542	2.1873584	1.4789721
35.00838989822934	2.3274856	1.5256099
35.02676809203499	2.1432314	1.4639779
35.04514721598624	2.0089417	1.4173714
35.063527270697215	2.084706	1.4438511
35.081908256782256	2.1905947	1.4800658
35.10029017485597	2.2888658	1.5128998
35.11867302553321	2.3072581	1.5189661
35.137056809429104	2.2125096	1.4874507
35.155441527159006	2.270919	1.5069569
35.173827179338524	2.2338476	1.4946061
35.19221376658354	2.0661435	1.4374086
35.21060128951017	1.7773322	1.3331662
35.2289897487348	1.9256365	1.387673
35.24737914487405	2.0156772	1.4197454
35.26576947854479	2.0193396	1.4210347
35.28416075036418	2.377052	1.5417691
35.30255296094958	2.4100163	1.5524228
35.32094611091867	2.305369	1.5183442
35.33934020088932	2.1517231	1.4668753
35.35773523147969	2.001887	1.4148806
35.3761312033082	2.056772	1.4341451
35.394528116993506	2.1817443	1.477073
35.41292597315452	2.3388355	1.5293251
35.431324772410434	2.1151774	1.4543649
35.449724515380666	2.2111335	1.4869881
35.46812520268491	2.4123445	1.5531723
35.486526834943106	2.263195	1.5043919
35.504929412775454	2.0403066	1.428393
35.52333293680242	1.870295	1.3675873
35.54173740764471	1.6621532	1.2892452
35.560142825923286	1.3879423	1.1781096
35.5785491922594	1.3635408	1.1677074
35.59695650727454	1.7073548	1.3066579
35.61536477159042	2.396952	1.5482093
