0.008763373481513119	0.0	0.0
0.026290120649546365	0.0	0.0
0.043816868432600686	0.054749444	0.23398599
0.06134361724069026	0.10053836	0.31707785
0.07887036748382949	0.10271965	0.32049906
0.0963971195720331	0.13884622	0.37262073
0.11392387391531617	0.13037775	0.3610786
0.1314506309236943	0.14910777	0.38614476
0.1489773910071836	0.110248744	0.33203727
0.16650415457580078	0.12138509	0.34840363
0.18403092203956356	0.11909504	0.3451015
0.20155769380849	0.13268033	0.3642531
0.2190844702925996	0.09921955	0.31499135
0.2366112519019124	0.11046312	0.33235994
0.2541380390464497	0.093022645	0.30499613
0.27166483213623416	0.10460039	0.32341984
0.28919163158128947	0.11904265	0.34502557
0.3067184377916406	0.11605693	0.3406713
0.324245251177314	0.11720592	0.3423535
0.34177207214833777	0.112495124	0.33540294
0.3592989011147415	0.10007871	0.3163522
0.37682573848655654	0.10338506	0.32153547
0.39435258467381573	0.11271316	0.3357278
0.41187944008655414	0.13319674	0.3649613
0.42940630513480854	0.1394304	0.37340382
0.446933180228618	0.12986211	0.36036387
0.4644600657780234	0.12484972	0.3533408
0.48198696219306775	0.12773697	0.3574031
0.49951386988379676	0.14935653	0.3864667
0.5170407892602581	0.15128827	0.38895792
0.5345677207325025	0.18949476	0.43530995
0.5520946647105822	0.20713626	0.45512223
0.5696216216045534	0.21384154	0.46243003
0.5871485918244737	0.19000696	0.4358979
0.6046755757804043	0.16091901	0.40114713
0.6222025738824094	0.17315733	0.41612178
0.6397295865405557	0.16712719	0.40881193
0.6572566141649129	0.20013954	0.44736958
0.6747836571655547	0.20106393	0.44840154
0.6923107159525568	0.1565178	0.3956233
0.7098377909359992	0.16964835	0.4118839
0.7273648825259653	0.1929575	0.43926927
0.7448919911325411	0.19656184	0.44335297
0.762419117165817	0.20624405	0.454141
0.7799462610358868	0.17875446	0.42279366
0.7974734231528482	0.20470834	0.45244706
0.8150006039268024	0.20440306	0.45210958
0.8325278037678551	0.23569967	0.4854891
0.8500550230861152	0.24987327	0.49987325
0.8675822622916969	0.27601764	0.5253738
0.8851095217947171	0.23177703	0.48143226
0.9026368020052984	0.20835327	0.4564573
0.9201641033335665	0.17598489	0.41950554
0.9376914261896523	0.23574337	0.4855341
0.9552187709836915	0.2561584	0.5061209
0.9727461381258234	0.25934422	0.5092585
0.990273528026193	0.2528406	0.5028326
1.0078009410949496	0.23500162	0.48476967
1.0253283777422473	0.25467744	0.5046558
1.0428558383782454	0.25513944	0.5051133
1.0603833234131086	0.31702107	0.5630462
1.0779108332570058	0.36784968	0.6065061
1.0954383683201119	0.3694955	0.6078614
1.112965929012607	0.3966514	0.62980264
1.1304935157446763	0.54783344	0.7401577
1.1480211289265108	0.5832284	0.7636939
1.1655487689683062	1.3238374	1.1505814
1.1830764362802655	1.5283278	1.2362555
1.200604131272596	1.9682128	1.4029301
1.2181318543555117	2.3723736	1.5402511
1.235659605939232	2.4076884	1.5516728
1.253187386433982	3.9820955	1.9955188
1.270715196249994	6.4028487	2.530385
1.2882430357975057	12.122847	3.481788
1.3057709054867608	16.992975	4.122254
1.3232988057280106	22.795519	4.774465
1.3408267369315112	27.857193	5.2779913
1.358354699507526	31.5536	5.617259
1.3758826938663256	35.446144	5.953666
1.3934107204181858	37.245388	6.1029
1.410938779573391	37.663097	6.137027
1.4284668717422309	38.17736	6.178783
1.4459949973350033	37.300144	6.107384
1.4635231567620117	37.3705	6.1131415
1.4810513504335687	36.46323	6.0384793
1.4985795787599925	35.923985	5.993662
1.5161078421516088	35.52361	5.9601684
1.5336361410187505	34.747826	5.8947287
1.5511644757717598	34.92633	5.90985
1.5686928468209842	35.60083	5.9666433
1.58622125457678	36.150257	6.0125084
1.6037496994495108	37.412598	6.116584
1.621278181849548	37.49903	6.1236453
1.6388067021872719	38.185158	6.179414
1.6563352608730693	37.70999	6.1408463
1.673863858317336	36.815502	6.067578
1.6913924949304753	36.01499	6.0012493
1.7089211711228998	35.109936	5.9253635
1.7264498873050296	34.364796	5.8621492
1.7439786438872935	33.36575	5.7763095
1.7615074412801288	32.1313	5.668448
1.779036279893981	31.322853	5.5966825
1.796565160139305	30.407045	5.5142584
1.814094082426564	29.969269	5.4744196
1.8316230471662298	29.442303	5.4260764
1.849152054768784	28.57896	5.345929
1.8666811056447168	27.85778	5.278047
1.8842102002045273	26.841267	5.1808558
1.901739338858724	26.217777	5.12033
1.9192685220178245	25.769646	5.076381
1.9367977500923557	25.038418	5.0038404
1.9543270234928547	24.502352	4.949985
1.971856342629867	23.965538	4.895461
1.9893857079139496	23.628212	4.860886
2.006915119755667	23.031096	4.7990723
2.0244445785655945	22.344488	4.7269955
2.0419740847543175	21.875607	4.6771364
2.0595036387324317	21.473207	4.6339192
2.0770332409105414	21.175629	4.6016984
2.094562891699263	20.990442	4.581533
2.1120925915092217	20.465637	4.523896
2.129622340751053	20.21452	4.496056
2.1471521398354043	188.39404	13.725671
2.1646819891729323	444.75034	21.089106
2.182211889174303	440.87042	20.996914
2.1997418402501974	453.14868	21.287289
2.2172718428113023	432.83096	20.80459
2.234801897268317	320.89258	17.913475
2.2523320040319548	17.431314	4.1750827
2.269862163512935	17.138103	4.139819
2.287392376121992	16.729645	4.090189
2.304922642269869	16.408228	4.050707
2.322452962367322	15.947707	3.993458
2.3399833368251164	15.641142	3.9548883
2.357513766054032	15.304052	3.9120395
2.3750442504648586	14.980646	3.8704839
2.3925747904683963	14.829051	3.8508506
2.410105386475459	14.650948	3.8276556
2.4276360388968707	14.332932	3.785886
2.445166748143469	14.146199	3.7611434
2.4626975146261025	13.67459	3.697917
2.4802283387556323	13.493729	3.673381
2.4977592209429305	13.295156	3.6462522
2.5152901615988825	13.115362	3.6215138
2.5328211611343865	13.036411	3.6105971
2.5503522199603523	12.77618	3.5743783
2.5678833384877024	12.585692	3.547632
2.5854145171273712	12.39013	3.5199616
2.6029457562903064	12.147285	3.4852955
2.620477056387469	12.023664	3.4675157
2.6380084178298326	11.8746805	3.4459658
2.655539841028383	11.6839905	3.4181852
2.673071326394119	11.693341	3.4195528
2.6906028743380523	11.455437	3.384588
2.708134485271211	11.2773075	3.3581703
2.7256661596046325	11.084577	3.3293507
2.743197897749369	10.837811	3.2920833
2.760729700116486	10.575777	3.252042
2.778261567117063	10.373437	3.220782
2.795793499162193	10.181539	3.1908524
2.8133254966629817	10.083543	3.1754594
2.830857560030551	9.89768	3.1460578
2.8483896896760337	9.843086	3.1373694
2.865921886010578	9.731171	3.1194825
2.883454149445347	9.563618	3.09251
2.9009864803915177	9.519406	3.0853536
2.91851887926028	9.323133	3.0533807
2.9360513464628384	9.188583	3.0312676
2.953583882410413	9.099344	3.016512
2.9711164875142373	9.084215	3.0140033
2.9886491621855606	9.014256	3.002375
3.0061819068356455	8.808921	2.9679825
3.023714721875769	8.570206	2.9274914
3.041247607717225	8.445774	2.9061613
3.0587805647713213	8.323753	2.8850915
3.0763135934493806	8.222407	2.867474
3.0938466941627407	8.022235	2.832355
3.1113798673227544	7.892779	2.809409
3.1289131133407904	7.857549	2.803132
3.1464464326282315	7.833047	2.798758
3.1639798255964786	7.8075676	2.7942026
3.1815132926569443	7.806198	2.7939575
3.1990468342210603	7.67471	2.7703266
3.216580450700272	7.5627913	2.750053
3.2341141425060416	7.433728	2.7264864
3.251647910049847	7.3617797	2.71326
3.2691817537431813	7.244835	2.6916232
3.286715673997555	7.15586	2.6750438
3.3042496712244938	6.9958386	2.6449647
3.32178374583554	6.8168015	2.6109006
3.339317898242251	6.715197	2.5913696
3.3568521288562034	6.630518	2.5749793
3.3743864380889876	6.68975	2.586455
3.3919208263522127	6.810718	2.6097353
3.4094552940575023	6.7970366	2.6071126
3.4269898416164972	6.7164173	2.5916052
3.444524469440858	6.619719	2.5728815
3.4620591779422587	6.531954	2.5557687
3.479593967532391	6.595017	2.5680766
3.4971288386229658	6.530304	2.555446
3.5146637916257086	6.62497	2.5739017
3.5321988269523628	6.5674634	2.5627062
3.5497339450146903	6.509442	2.5513608
3.5672691462244708	6.365068	2.5229087
3.5848044309934988	6.3072186	2.5114176
3.60233979973359	6.3279552	2.5155427
3.619875252856575	6.328087	2.515569
3.6374107907743034	6.3761535	2.5251048
3.6549464138986427	6.372706	2.524422
3.6724821226414788	6.2548466	2.5009692
3.690017917414714	6.209215	2.4918296
3.7075537986302702	6.256902	2.50138
3.7250897667000857	6.455741	2.540815
3.7426258220361235	6.6483064	2.578431
3.7601619650503553	6.876247	2.6222599
3.777698196154779	7.343995	2.7099807
3.7952345157614067	8.524922	2.9197469
3.8127709242822716	9.302211	3.0499525
3.830307422129425	11.5001135	3.3911817
3.847844009714936	30.242142	5.4992857
3.8653806874508954	97.7064	9.884655
3.882917455749409	97.01166	9.849449
3.900454315022606	97.04381	9.851082
3.917991265682631	41.76245	6.4623876
3.9355283081416506	11.40052	3.3764656
3.9530654428118495	9.025492	3.0042455
3.970602670105433	7.5569844	2.748997
3.9881399904346244	6.630458	2.5749676
4.005677404211669	6.5836244	2.5658574
4.023214911848827	6.583509	2.565835
4.0407525137583855	6.5786643	2.5648906
4.058290210352644	6.5453124	2.5583808
4.075828002043927	6.403324	2.530479
4.0933658892445814	6.259951	2.5019894
4.110903872366966	6.18506	2.486978
4.128441951823468	6.1895857	2.4878879
4.145980128026488	6.139204	2.4777417
4.163518401388452	6.1330457	2.4764986
4.181056772321807	6.1029377	2.4704125
4.1985952412390155	6.147185	2.4793518
4.216133808552567	6.2070136	2.4913878
4.233672474674966	6.223224	2.4946392
4.251211240018741	6.480541	2.5456908
4.268750104996445	6.711209	2.5906
4.286289070020643	7.6397786	2.764015
4.303828135503928	9.26141	3.0432565
4.3213673018589125	29.56703	5.437557
4.3389065694982305	90.86222	9.532167
4.356445938834537	166.1175	12.888658
4.3739854102805085	171.42342	13.092876
4.391524984248844	172.27177	13.125235
4.409064661152262	136.36018	11.677337
4.426604441403504	96.81478	9.83945
4.444144325415337	75.68049	8.699453
4.461684313600543	21.513054	4.6382165
4.47922440637193	21.951317	4.685223
4.496764604142329	20.565214	4.5348887
4.5143049073245916	18.78415	4.3340683
4.531845316331589	16.661264	4.0818214
4.5493858315762195	13.6064415	3.6886911
4.566926453471405	11.223028	3.3500788
4.584467182430081	9.070722	3.0117638
4.602008018865218	8.005313	2.8293662
4.619548963189798	7.4184437	2.723682
4.637090015816834	7.0557795	2.6562717
4.654631177159353	6.9181256	2.630233
4.672172447630417	6.694512	2.5873754
4.689713827643102	6.4426913	2.5382457
4.7072553176105085	6.111223	2.4720888
4.724796917945764	5.915211	2.4321208
4.742338629062015	5.8908596	2.4271092
4.759880451372434	5.8765354	2.4241567
4.777422385290215	5.8237023	2.4132347
4.794964431228581	5.78249	2.4046807
4.812506589600768	5.77707	2.4035537
4.830048860820047	5.6902714	2.385429
4.847591245299709	5.6865134	2.3846412
4.8651337434530655	5.6133633	2.3692536
4.882676355693457	5.5657563	2.3591855
4.900219082434242	5.5971107	2.3658214
4.917761924088813	5.5307827	2.3517616
4.935304881070575	5.576249	2.3614082
4.952847953792969	5.582768	2.3627882
4.970391142669449	5.5420957	2.3541656
4.9879344481135055	5.5397253	2.353662
5.005477870538642	5.472697	2.3393795
5.023021410358394	5.494983	2.3441381
5.040565067986324	5.4778104	2.3404722
5.05810884383601	5.485851	2.3421893
5.075652738321066	5.4696436	2.338727
5.09319675185512	5.4607835	2.336832
5.110740884851836	5.515631	2.3485382
5.128285137724894	5.54523	2.3548312
5.145829510888007	5.458407	2.3363233
5.163374004754908	5.3889947	2.321421
5.1809186197393595	5.2638416	2.2943063
5.198463356255145	5.3188057	2.3062537
5.216008214716077	5.3890853	2.3214405
5.233553195535998	5.4486575	2.334236
5.251098299128764	5.4898987	2.3430533
5.268643525908272	5.413894	2.3267777
5.286188876288432	5.2954054	2.3011749
5.3037343506831895	5.2389226	2.2888694
5.32127994950651	5.2085605	2.282227
5.3388256731723915	5.2382193	2.2887156
5.356371522094851	5.279603	2.2977388
5.373917496687938	5.3400927	2.310864
5.391463597365729	5.345334	2.311998
5.40900982454232	5.3319902	2.3091102
5.426556178631843	5.3211527	2.3067625
5.444102660048449	5.2672224	2.295043
5.4616492692063225	5.276541	2.2970724
5.479196006519669	5.2042103	2.2812738
5.496742872402727	5.1799936	2.27596
5.514289867269756	5.239954	2.2890947
5.531836991535049	5.239709	2.289041
5.549384245612924	5.2384067	2.2887566
5.566931629917724	5.220844	2.2849166
5.584479144863822	5.1214294	2.2630575
5.6020267908656205	5.0525784	2.2477942
5.619574568337545	5.019226	2.240363
5.637122477694054	5.0419493	2.2454286
5.654670519349629	5.081503	2.2542188
5.672218693718784	5.0910296	2.256331
5.689767001216059	5.0503535	2.2472992
5.707315442256021	5.041745	2.245383
5.724864017253266	5.0566015	2.248689
5.7424127266224225	5.1642213	2.2724924
5.75996157077814	5.201468	2.2806728
5.777510550135105	5.2161126	2.283881
5.795059665108022	5.191558	2.2784991
5.812608916111639	5.1878114	2.2776768
5.830158303560715	5.2529807	2.2919383
5.847707827870055	5.346622	2.3122764
5.86525748945448	5.4642267	2.3375685
5.8828072887288485	5.6655135	2.380234
5.900357226108044	5.7151937	2.3906472
5.917907302006979	5.759869	2.3999727
5.9354575168406	6.334583	2.5168598
5.9530078710238765	6.9519877	2.6366622
5.970558364971812	7.5065913	2.739816
5.988108999099438	7.900249	2.810738
6.005659773821818	8.48017	2.9120731
6.023210689554039	8.192825	2.8623111
6.040761746711227	8.616554	2.9353967
6.058312945708531	7.827658	2.7977953
6.075864286961132	7.3065286	2.7030592
6.093415770884244	6.6274357	2.5743806
6.1109673978931065	6.096172	2.4690428
6.128519168402993	5.47523	2.339921
6.146071082829204	5.408068	2.3255253
6.163623141587075	5.3242054	2.307424
6.181175345091969	5.3128257	2.3049567
6.198727693759281	5.2196035	2.284645
6.216280188004435	5.1772647	2.2753603
6.233832828242885	5.160253	2.271619
6.251385614890126	5.2363877	2.2883155
6.268938548361669	5.2242613	2.2856643
6.286491629073067	5.202922	2.2809913
6.304044857439898	5.204809	2.281405
6.321598233877777	5.1029134	2.2589629
6.339151758802344	4.9994216	2.2359385
6.356705432629277	4.9994583	2.235947
6.37425925577428	5.015352	2.2394981
6.391813228653095	5.102915	2.258963
6.409367351681486	5.078621	2.2535796
6.426921625275259	5.03207	2.2432277
6.44447604985025	5.032781	2.243386
6.46203062582232	5.0480714	2.2467914
6.47958535360737	5.115344	2.2617126
6.497140233621328	5.108063	2.2601025
6.514695266280161	5.1170816	2.2620966
6.532250451999859	5.077717	2.2533789
6.549805791196454	5.1321464	2.265424
6.567361284286002	5.1589117	2.2713237
6.584916931684597	5.1913524	2.2784538
6.602472733808367	5.162722	2.2721624
6.6200286910734665	5.0701814	2.2517064
6.637584803896092	5.029027	2.2425492
6.655141072692462	4.9935937	2.234635
6.672697497878842	5.013697	2.2391286
6.690254079871514	5.004275	2.2370236
6.707810819086808	5.002005	2.2365162
6.725367715941078	4.9680333	2.2289085
6.742924770850719	4.937206	2.2219825
6.760481984232151	4.9486046	2.224546
6.778039356501836	4.939942	2.222598
6.795596888076266	4.9781923	2.2311864
6.813154579371963	5.008922	2.2380621
6.830712430805492	5.0277	2.2422533
6.84827044279344	5.0291767	2.2425826
6.865828615752445	5.0289593	2.2425342
6.883386950099159	5.0434794	2.2457693
6.900945446250287	5.0840335	2.25478
6.918504104622553	5.042773	2.245612
6.936062925632727	5.0434675	2.2457666
6.953621909697607	5.0080934	2.237877
6.971181057234028	5.089511	2.2559946
6.988740368658859	5.167476	2.2732084
7.006299844389007	5.2513347	2.291579
7.023859484841407	5.265885	2.2947516
7.041419290433036	5.379683	2.3194144
7.058979261580902	5.569825	2.3600478
7.0765393987020495	5.83745	2.4160814
7.094099702213559	6.162293	2.4823966
7.111660172532549	6.460698	2.5417902
7.129220810076164	6.741073	2.5963576
7.146781615261595	7.3235307	2.7062023
7.16434258850606	7.5603065	2.7496011
7.181903730226821	7.9092093	2.8123317
7.1994650408411704	8.043331	2.8360767
7.217026520766437	8.2388735	2.8703437
7.234588170419983	8.473142	2.910866
7.252149990219215	8.517307	2.9184427
7.269711980581568	8.403433	2.8988676
7.2872741419245175	8.249293	2.8721583
7.304836474665574	7.8397107	2.7999485
7.322398979222286	7.457272	2.7308006
7.339961656012233	7.1735	2.678339
7.357524505453039	6.891335	2.6251352
7.375087527962357	6.7086453	2.5901053
7.392650723957886	6.4772477	2.5450437
7.410214093857353	6.0977755	2.4693675
7.427777638078528	5.8673406	2.4222593
7.445341357039213	5.6276026	2.3722568
7.4629052511572525	5.4739575	2.339649
7.480469320850524	5.3915415	2.3219693
7.498033566536948	5.350277	2.3130665
7.5155979886344735	5.252745	2.2918868
7.5331625875610975	5.22815	2.2865148
7.550727363734844	5.2104535	2.282642
7.568292317573788	5.2802825	2.2978866
7.585857449496025	5.2413187	2.2893927
7.603422759919705	5.194988	2.2792516
7.620988249263007	5.158789	2.2712967
7.638553917944147	5.12823	2.2645595
7.656119766381391	5.1512346	2.269633
7.673685794993023	5.1913576	2.278455
7.691252004197388	5.208307	2.2821715
7.70881839441285	5.2692437	2.2954834
7.726384966057826	5.2757545	2.296901
7.743951719550762	5.2963967	2.3013902
7.761518655310149	5.296056	2.301316
7.779085773754511	5.3601236	2.3151941
7.796653075302419	5.3792834	2.3193283
7.814220560372475	5.4313684	2.3305297
7.831788229383323	5.3778043	2.3190093
7.8493560827536495	5.379655	2.3194084
7.866924120902174	5.3656793	2.3163936
7.884492344247663	5.3445697	2.3118324
7.9020607532089135	5.403031	2.3244421
7.919629348204771	5.4153943	2.3271
7.937198129654115	5.398392	2.3234441
7.954767097975865	5.476832	2.3402631
7.972336253588986	5.5459685	2.354988
7.989905596912472	5.6148086	2.3695588
8.007475128365371	5.589127	2.3641334
8.025044848366756	5.5011954	2.3454628
8.042614757335754	5.476251	2.3401392
8.060184855691523	5.5621433	2.3584197
8.07775514385327	5.75978	2.399954
8.095325622240228	5.851871	2.419064
8.112896291271687	5.874944	2.4238284
8.130467151366968	5.8845444	2.425808
8.148038202945436	5.921142	2.4333396
8.165609446426497	5.9617376	2.441667
8.183180882229594	5.993645	2.4481921
8.200752510774217	5.9737225	2.44412
8.218324332479893	5.9441886	2.4380708
8.235896347766193	5.923025	2.4337265
8.253468557052724	5.97862	2.4451218
8.27104096075914	6.047345	2.459135
8.288613559305137	6.1889052	2.487751
8.306186353110448	6.19859	2.4896967
8.32375934259485	6.2487206	2.4997442
8.341332528178162	6.263028	2.5026042
8.358905910280246	6.3257365	2.5151017
8.376479489321003	6.3573613	2.521381
8.394053265720377	6.3225536	2.514469
8.411627239898356	6.280162	2.506025
8.42920141227497	6.2827053	2.5065324
8.44677578327029	6.248609	2.4997218
8.464350353304427	6.2469363	2.4993873
8.48192512279754	6.2692423	2.5038455
8.499500092169827	6.2067404	2.491333
8.51707526184153	6.2279625	2.4955885
8.534650632232934	6.185526	2.4870718
8.552226203764365	6.2009306	2.4901667
8.569801976856192	6.2224445	2.4944828
8.587377951928834	6.2251945	2.495034
8.60495412940274	6.2591367	2.5018268
8.622530509698416	6.3223214	2.5144227
8.6401070932364	6.466707	2.542972
8.657683880437283	6.5601406	2.5612772
8.675260871721695	6.704708	2.5893452
8.692838067510303	6.84679	2.6166372
8.710415468223834	6.966449	2.639403
8.727993074283043	7.0858307	2.6619225
8.745570886108737	7.0812716	2.6610658
8.763148904121765	7.2098436	2.685115
8.78072712874302	7.2983065	2.7015378
8.798305560393441	7.5460815	2.747013
8.815884199494006	7.633267	2.7628367
8.833463046465745	7.7623324	2.7860963
8.851042101729728	7.8580146	2.803215
8.86862136570707	8.146146	2.8541453
8.886200838818924	8.314247	2.8834436
8.903780521486505	8.339991	2.8879042
8.921360414131055	8.3940525	2.8972492
8.938940517173874	8.524349	2.919649
8.956520831036297	8.759984	2.959727
8.97410135613971	9.122904	3.0204146
8.99168209290554	9.344404	3.0568619
9.009263041755265	9.589249	3.0966513
9.026844203110405	9.771777	3.1259842
9.044425577392525	9.929696	3.1511421
9.062007165023239	10.064297	3.1724277
9.079588966424197	10.411859	3.226741
9.097170982017108	10.475604	3.2366037
9.11475321222372	11.516487	3.393595
9.132335657465825	12.468004	3.531006
9.149918318165264	12.570297	3.5454614
9.167501194743924	13.162799	3.6280572
9.18508428762374	12.833306	3.5823605
9.202667597226693	12.814119	3.5796814
9.220251123974803	12.486088	3.5335658
9.237834868290143	12.088814	3.4768972
9.255418830594836	11.78732	3.4332666
9.273003011311046	11.194613	3.3458352
9.290587410860985	11.011461	3.3183522
9.308172029666911	10.359948	3.2186873
9.32575686815113	10.143472	3.1848817
9.343341926735997	8.965428	2.9942324
9.360927205843916	8.7607155	2.9598505
9.378512705897327	8.550535	2.9241297
9.396098427318728	8.202419	2.8639865
9.413684370530664	8.023162	2.8325186
9.431270535955722	7.8976793	2.810281
9.448856924016539	7.938024	2.8174498
9.466443535135806	7.829112	2.798055
9.484030369736251	7.8282895	2.797908
9.501617428240658	7.7616954	2.785982
9.519204711071852	7.7591066	2.7855172
9.536792218652714	7.7386026	2.7818344
9.55437995140617	7.813643	2.7952895
9.571967909755191	7.8669734	2.8048124
9.589556094122802	7.9383817	2.8175135
9.60714450493207	7.989859	2.826634
9.624733142606116	7.9854007	2.8258452
9.642322007568108	8.0245695	2.832767
9.659911100241267	8.030321	2.8337822
9.677500421048851	8.05841	2.838734
9.695089970414175	8.0655365	2.8399887
9.712679748760609	8.100428	2.8461251
9.730269756511557	8.213504	2.865921
9.747859994090492	8.326199	2.8855152
9.765450461920915	8.378005	2.8944783
9.78304116042639	8.457628	2.9082003
9.800632090030527	8.499609	2.9154088
9.81822325115699	8.488224	2.9134557
9.835814644229481	8.395002	2.897413
9.853406269671762	8.310425	2.8827808
9.870998127907646	8.269015	2.8755896
9.888590219360985	8.308947	2.8825243
9.906182544455698	8.328997	2.8860002
9.923775103615734	8.367588	2.8926783
9.941367897265108	8.467055	2.9098206
9.958960925827878	8.488019	2.9134204
9.97655418972816	8.483445	2.9126353
9.994147689390106	8.457934	2.9082527
10.011741425237934	8.424077	2.902426
10.029335397695904	8.402444	2.898697
10.04692960718833	8.416536	2.9011266
10.06452405413958	8.350421	2.8897095
10.082118738974064	8.356471	2.8907561
10.099713662116246	8.282566	2.8779447
10.117308823990651	8.297506	2.8805392
10.134904225021844	8.336629	2.8873222
10.152499865634445	8.356322	2.8907304
10.170095746253125	8.332842	2.8866663
10.18769186730261	8.31248	2.8831372
10.205288229207675	8.356633	2.8907843
10.222884832393145	8.319148	2.8842933
10.2404816772839	8.246624	2.8716936
10.258078764304868	8.1296835	2.85126
10.275676093881035	8.074378	2.841545
10.293273666437438	8.021492	2.832224
10.310871482399158	8.07645	2.8419096
10.32846954219134	8.133013	2.8518438
10.346067846239173	8.201828	2.8638835
10.363666394967908	8.2060995	2.864629
10.38126518880283	8.170406	2.8583922
10.398864228169298	8.182264	2.8604658
10.416463513492713	8.209004	2.865136
10.434063045198531	8.17459	2.859124
10.451662823712262	8.1854925	2.8610299
10.469262849459467	8.179364	2.859959
10.486863122865758	8.099485	2.8459594
10.504463644356806	8.038152	2.8351634
10.522064414358338	7.992206	2.827049
10.539665433296118	7.984367	2.8256621
10.557266701595987	7.9452305	2.8187284
10.574868219683818	7.8669553	2.8048093
10.592469987985552	7.736765	2.7815042
10.610072006927185	7.584999	2.7540877
10.627674276934751	7.510337	2.7404995
10.64527679843435	7.4019985	2.7206614
10.662879571852143	7.3765454	2.7159796
10.680482597614331	7.272128	2.6966884
10.698085876147173	7.198577	2.6830163
10.715689407876988	7.0436554	2.6539886
10.733293193230146	6.9221516	2.6309981
10.750897232633072	6.8078837	2.6091921
10.76850152651225	6.741418	2.596424
10.786106075294207	6.701974	2.5888171
10.803710879405534	6.614215	2.5718117
10.821315939272877	6.471556	2.5439253
10.83892125532294	6.3676357	2.5234175
10.856526827982472	6.339672	2.5178707
10.874132657678285	6.303346	2.5106466
10.891738744837243	6.23678	2.4973547
10.909345089886271	6.1961985	2.4892163
10.926951693252343	6.0878916	2.4673653
10.944558555362494	6.0621214	2.4621375
10.96216567664381	5.991212	2.4476953
10.979773057523436	5.934687	2.4361212
10.997380698428573	5.8899384	2.4269195
11.014988599786477	5.892822	2.4275136
11.032596762024461	5.8206544	2.4126031
11.050205185569892	5.7056456	2.3886492
11.067813870850198	5.595813	2.365547
11.085422818292859	5.5821304	2.3626533
11.10303202832541	5.558599	2.3576682
11.120641501375454	5.4949718	2.3441355
11.138251237870636	5.381256	2.3197534
11.155861238238671	5.2643504	2.2944171
11.173471502907317	5.2011824	2.28061
11.191082032304402	5.19391	2.279015
11.208692826857805	5.1836686	2.2767673
11.226303886995465	5.1497774	2.2693121
11.243915213145371	5.0552034	2.248378
11.261526805735578	4.999492	2.2359545
11.279138665194196	4.954442	2.2258575
11.296750791949393	4.8855863	2.2103362
11.314363186429393	4.7942867	2.189586
11.331975849062479	4.694094	2.166586
11.34958878027699	4.651709	2.1567822
11.36720198050133	4.5909133	2.1426415
11.384815450163948	4.5800014	2.1400938
11.402429189693366	4.5732718	2.138521
11.420043199518153	4.542233	2.1312516
11.437657480066942	63.487946	7.967932
11.455272031768422	85.17455	9.229006
11.472886855051353	107.562485	10.371234
11.490501950344528	99.18501	9.9591675
11.508117318076819	84.54309	9.194732
11.52573295867715	45.898403	6.774836
11.543348872574514	4.1898174	2.0469043
11.560965060197946	4.113736	2.0282347
11.57858152197655	4.0447483	2.0111558
11.59619825833949	3.9586945	1.9896468
11.613815269715985	3.9474068	1.9868082
11.631432556535323	38.50351	6.2051196
11.649050119226837	83.08634	9.115171
11.666667958219929	93.47987	9.668499
11.68428607394406	107.66238	10.376048
11.701904466828756	82.47816	9.081749
11.719523137303586	65.3076	8.081312
11.737142085798196	4.5443206	2.1317413
11.754761312742286	3.6710684	1.9160032
11.772380818565619	3.676802	1.9174988
11.790000603698015	3.669834	1.915681
11.80762066856935	3.6705515	1.9158684
11.825241013609572	3.657484	1.912455
11.842861639248683	3.5886745	1.8943797
11.860482545916748	3.5269678	1.8780223
11.878103734043883	3.4666674	1.8618989
11.895725204060282	3.43778	1.8541251
11.91334695639619	3.4454658	1.8561966
11.930968991481919	3.4286406	1.8516588
11.948591309747824	3.4000845	1.8439318
11.966213911624347	3.3832052	1.8393492
11.98383679754198	3.3790638	1.838223
12.001459967931268	3.3671854	1.8349892
12.019083423222835	3.33753	1.8268908
12.036707163847352	3.3062754	1.8183166
12.05433119023556	3.3078954	1.8187621
12.071955502818259	3.297287	1.8158433
12.089580102026313	3.292714	1.8145838
12.107204988290643	3.236912	1.799142
12.12483016204224	3.188805	1.7857226
12.142455623712152	3.1596615	1.7775437
12.16008137373149	3.1162498	1.7652903
12.177707412531431	3.1045883	1.7619842
12.19533374054321	3.0898955	1.7578099
12.212960358198126	3.1114073	1.7639182
12.230587265927545	3.0888312	1.7575071
12.248214464162889	3.044966	1.7449831
12.265841953335649	2.9847617	1.7276464
12.283469733877375	2.9694865	1.7232198
12.301097806219685	2.9883347	1.72868
12.31872617079425	2.9953928	1.7307203
12.336354828032825	2.9728885	1.7242066
12.353983778367205	3.0219197	1.738367
12.371613022229262	3.0276983	1.7400283
12.389242560050928	3.0246394	1.7391491
12.406872392264201	2.9365478	1.7136358
12.424502519301143	2.9215908	1.7092662
12.442132941593874	2.9044127	1.7042338
12.459763659574586	2.8634496	1.692173
12.477394673675532	2.864647	1.6925268
12.49502598432903	2.848934	1.6878785
12.51265759196746	2.8531573	1.6891291
12.530289497023267	2.8210564	1.6796001
12.547921699928967	2.8291845	1.682018
12.565554201117134	2.846613	1.6871909
12.583187001020404	2.83146	1.6826943
12.600820100071486	2.8229003	1.6801488
12.618453498703152	2.8109725	1.6765954
12.636087197348235	2.8032079	1.6742783
12.65372119643964	2.8273551	1.6814741
12.671355496410326	2.8423178	1.6859175
12.68899009769333	2.8914359	1.7004223
12.706625000721749	2.9035046	1.7039673
12.724260205928752	2.9658265	1.7221575
12.741895713747551	2.9475927	1.7168555
12.759531524611454	2.9439924	1.7158066
12.777167638953818	2.9789736	1.7259704
12.794804057208072	3.0385513	1.743144
12.812440779807702	3.1348364	1.7705469
12.830077807186271	3.2434523	1.8009588
12.847715139777405	3.251718	1.8032521
12.865352778014795	3.4179246	1.848763
12.882990722332197	3.5281525	1.8783377
12.90062897316344	3.6436296	1.9088293
12.918267530942412	3.724749	1.9299608
12.935906396103071	3.5873249	1.8940234
12.953545569079449	3.7590895	1.9388372
12.971185050305628	3.6084206	1.8995843
12.988824840215775	3.6595144	1.9129857
13.006464939244115	3.691784	1.9214015
13.024105347824943	3.5082288	1.8730266
13.041746066392617	3.5835433	1.8930249
13.05938709538157	3.3643284	1.8342105
13.077028435226296	3.4134479	1.8475518
13.094670086361363	3.311616	1.8197846
13.112312049221401	3.2133467	1.7925811
13.129954324241112	3.0983706	1.7602189
13.147596911855258	2.8840866	1.6982598
13.165239812498685	2.8680182	1.6935225
13.182883026606293	2.7916224	1.6708149
13.200526554613058	2.7608786	1.6615891
13.218170396954017	2.7511683	1.6586646
13.235814554064284	2.7447412	1.656726
13.253459026379034	2.7547407	1.6597412
13.271103814333523	2.7378173	1.6546351
13.288748918363058	2.7274635	1.6515034
13.306394338903031	2.720821	1.6494911
13.32404007638889	2.70535	1.6447948
13.341686131256164	2.6792684	1.6368471
13.359332503940449	2.6667123	1.6330072
13.376979194877402	2.6766605	1.6360503
13.394626204502751	2.7043886	1.6445025
13.412273533252307	2.729707	1.6521825
13.429921181561937	2.7487822	1.6579452
13.447569149867581	2.7713964	1.6647512
13.465217438605247	2.7778788	1.6666969
13.482866048211022	2.7177489	1.6485597
13.500514979121052	2.7323225	1.6529738
13.518164231771568	2.7459345	1.6570861
13.535813806598844	2.7827237	1.6681498
13.553463704039254	2.7756917	1.6660408
13.571113924529229	2.7505262	1.658471
13.588764468505275	2.7188187	1.648884
13.606415336403956	2.6969688	1.642245
13.624066528661917	2.7353866	1.6539004
13.641718045715882	2.8012557	1.6736952
13.659369888002635	2.840001	1.6852303
13.67702205595903	2.8789356	1.6967427
13.694674550021993	2.9598246	1.720414
13.712327370628532	3.0441115	1.7447382
13.729980518215713	3.1446106	1.773305
13.747633993220681	3.195865	1.7876983
13.765287796080647	3.2418063	1.8005017
13.7829419272329	3.3113925	1.8197232
13.800596387114801	3.3289223	1.8245335
13.818251176163775	3.3588896	1.8327273
13.835906294817324	3.403596	1.8448837
13.853561743513023	3.4735754	1.8637531
13.871217522688525	3.5108953	1.8737383
13.888873632781538	3.5237076	1.8771541
13.906530074229858	3.5103407	1.8735904
13.92418684747135	3.5164714	1.8752257
13.941843952943948	3.5064063	1.8725401
13.959501391085665	3.4765913	1.8645619
13.977159162334578	3.4265282	1.8510884
13.994817267128846	3.3945923	1.8424419
14.012475705906693	3.3427684	1.828324
14.030134479106424	3.2849827	1.8124521
14.047793587166414	3.1994135	1.7886904
14.065453030525108	3.0969503	1.7598155
14.083112809621026	3.034339	1.7419354
14.100772924892766	2.9845328	1.7275801
14.118433376778997	2.9669638	1.7224877
14.136094165718458	2.899801	1.7028803
14.153755292149969	2.7844927	1.66868
14.171416756512416	2.6490312	1.6275845
14.189078559244768	2.5974946	1.6116744
14.20674070078606	2.5319798	1.5912195
14.224403181575408	2.4835	1.5759125
14.242066002051999	2.4485133	1.5647726
14.259729162655093	2.4609342	1.5687364
14.277392663824022	2.4889174	1.5776303
14.295056505998208	2.473263	1.5726612
14.312720689617128	2.4520116	1.5658901
14.330385215120348	2.4284928	1.5583622
14.348050082947497	2.4152732	1.5541149
14.3657152935383	2.403658	1.5503734
14.383380847332528	2.4088163	1.5520362
14.401046744770051	2.4270911	1.5579125
14.418712986290798	2.43844	1.5615505
14.436379572334793	2.408364	1.5518905
14.454046503342123	2.4072642	1.5515361
14.471713779752946	2.3741508	1.540828
14.489381402007504	2.3883886	1.5454413
14.507049370546113	2.4061608	1.5511805
14.524717685809168	2.4242873	1.5570123
14.542386348237134	2.4192696	1.5554001
14.560055358270553	2.3824933	1.5435327
14.577724716350051	2.451554	1.5657439
14.595394422916325	2.468745	1.5712241
14.61306447841015	2.5250297	1.5890342
14.63073488327237	2.497634	1.5803905
14.648405637943917	2.5379682	1.5931002
14.6660767428658	2.5028427	1.5820374
14.683748198479094	2.5174356	1.5866429
14.701420005224954	2.5398703	1.5936971
14.719092163544628	2.6068091	1.6145616
14.73676467387942	2.641051	1.6251311
14.754437536670727	2.7044313	1.6445155
14.772110752360014	2.742015	1.6559031
14.78978432138882	2.7455962	1.6569841
14.807458244198777	2.751537	1.6587758
14.82513252123159	2.7500525	1.6583282
14.842807152929028	2.7763512	1.6662387
14.860482139732962	2.7309072	1.6525457
14.87815748208531	2.7073438	1.6454008
14.8958331804281	2.7242138	1.6505193
14.91350923520342	2.7199848	1.6492376
14.931185646853438	2.7305427	1.6524354
14.948862415820408	2.670291	1.6341025
14.966539542546656	2.661888	1.6315293
14.98421702747459	2.6751347	1.6355839
15.001894871046696	2.7103755	1.6463218
15.019573073705542	2.7052562	1.6447663
15.037251635893766	2.6711972	1.6343797
15.054930558054092	2.6531174	1.6288393
15.072609840629323	2.6849165	1.6385715
15.090289484062351	2.8513415	1.6885916
15.107969488796124	3.1320865	1.7697701
15.125649855273691	3.5640428	1.8878672
15.14333058393817	4.0645423	2.016071
15.161011675232768	5.0651093	2.2505798
15.17869312960076	6.4034314	2.5305002
15.196374947485506	8.252582	2.8727307
15.214057129330447	11.229637	3.3510652
15.231739675579114	15.944028	3.9929974
15.249422586675102	21.092167	4.592621
15.267105863062092	24.327127	4.932254
15.284789505183847	24.708038	4.970718
15.302473513484218	22.631285	4.757235
15.320157888407127	19.126595	4.3733964
15.337842630396578	14.913069	3.8617442
15.355527739896656	11.578892	3.402777
15.37321321735153	8.947038	2.99116
15.39089906320545	6.4926515	2.5480683
15.408585277902748	4.9076304	2.2153172
15.42627186188783	3.7952154	1.9481312
15.443958815605198	3.2629805	1.8063722
15.461646139499424	2.9298718	1.7116868
15.479333834015168	2.8088217	1.675954
15.497021899597165	2.7449186	1.6567795
15.514710336690234	2.697119	1.6422908
15.53239914573928	2.616504	1.6175611
15.550088327189297	2.5521328	1.5975397
15.567777881485336	2.5069537	1.5833362
15.58546780907256	2.5049486	1.582703
15.6031581103962	2.5072646	1.5834345
15.620848785901568	2.507816	1.5836085
15.638539836034063	2.4891427	1.5777017
15.656231261239173	2.4842277	1.5761433
15.673923061962451	2.456175	1.5672189
15.691615238649552	2.4374115	1.5612211
15.709307791746202	2.4139993	1.553705
15.727000721698221	2.3880095	1.5453186
15.744694028951498	2.3870738	1.5450158
15.76238771395202	2.3969781	1.5482178
15.780081777145844	2.399628	1.5490732
15.797776218979125	2.4035006	1.5503228
15.815471039898094	2.4217637	1.5562017
15.833166240349064	2.3965771	1.5480882
15.850861820778437	2.358088	1.5356067
15.868557781632699	2.3496537	1.532858
15.886254123358412	2.3498235	1.5329134
15.903950846402232	2.3829033	1.5436655
15.921647951210897	2.391839	1.5465572
15.939345438231225	2.4035807	1.5503485
15.957043307910133	2.3959494	1.5478854
15.974741560694602	2.4021983	1.5499027
15.992440197031714	2.3827958	1.5436307
16.01013921736862	2.3630693	1.5372277
16.02783862215259	2.3993573	1.548986
16.045538411830933	2.4205618	1.5558155
16.06323858685107	2.4141536	1.5537547
16.080939147660512	2.3917441	1.5465264
16.09864009470684	2.4109735	1.552731
16.11634142843774	2.3965037	1.5480645
16.134043149300954	2.383944	1.5440027
16.15174525774433	2.3919613	1.5465966
16.169447754215817	2.3935387	1.5471065
16.18715063916342	2.4133396	1.5534927
16.204853913035244	2.4424443	1.5628321
16.222557576279478	2.4972138	1.5802575
16.240261629344403	22.473026	4.7405725
16.257966072678386	43.00591	6.557889
16.275670906729868	38.11156	6.173456
16.293376131947387	2.5682108	1.6025639
16.31108174877957	2.608471	1.6150762
16.328787757675133	2.6256843	1.6203964
16.34649415908287	2.5993595	1.612253
16.364200953451657	2.607401	1.6147448
16.38190814123048	2.6363153	1.6236734
16.39961572286839	2.645341	1.6264504
16.41732369881455	2.639308	1.6245947
16.43503206951817	2.6635687	1.6320443
16.45274083542859	2.7259288	1.6510386
16.47044999699522	2.7930098	1.67123
16.488159554667558	2.8139207	1.6774745
16.505869508895184	2.8074446	1.6755431
16.523579860127786	2.8274276	1.6814957
16.541290608815117	2.894724	1.7013888
16.559001755407035	2.9918225	1.7296885
16.57671330035348	3.0626535	1.7500439
16.59442524410448	3.117837	1.7657398
16.61213758711015	3.15998	1.7776333
16.629850329820705	3.229175	1.7969905
16.647563472686436	3.338557	1.8271718
16.665277016157724	3.4335115	1.8529737
16.682990960685053	3.5089507	1.8732194
16.70070530671898	3.5577085	1.8861889
16.718420054710155	3.605832	1.8989029
16.736135205109335	3.6657777	1.9146221
16.753850758367335	3.6792743	1.9181435
16.771566714935087	3.7013888	1.9238994
16.789283075263597	3.7374792	1.9332561
16.80699983980398	3.7912452	1.947112
16.82471700900741	3.8299377	1.9570227
16.84243458332518	3.9305851	1.9825703
16.860152563208665	4.02649	2.0066116
16.87787094910932	4.1232023	2.030567
16.89558974147871	4.160283	2.0396771
16.913308940768466	4.2005706	2.0495293
16.931028547430333	4.2644944	2.0650651
16.94874856191613	4.2899017	2.0712078
16.966468984677785	4.350801	2.0858574
16.98418981616729	4.351827	2.0861034
17.00191105683676	4.42364	2.103245
17.019632707138374	4.430681	2.1049182
17.03735476752442	4.470151	2.114273
17.05507723844728	4.5229554	2.126724
17.072800120359403	4.5705404	2.1378822
17.090523413713353	4.597236	2.1441166
17.108247118961785	4.56621	2.1368692
17.125971236557437	4.600149	2.144796
17.143695766953133	4.6580906	2.158261
17.161420710601806	4.7198095	2.1725123
17.179146067956477	4.75416	2.1804037
17.19687183947025	4.78357	2.1871374
17.21459802559634	4.7651534	2.182923
17.232324626788028	4.735541	2.1761298
17.25005164349871	4.6921735	2.1661425
17.267779076181863	4.6604214	2.1588008
17.285506925291074	4.6055746	2.1460602
17.30323519127999	4.6081777	2.1466665
17.320963874602384	4.5826306	2.140708
17.33869297571211	4.584115	2.1410546
17.356422495063114	4.535419	2.1296523
17.37415243310944	4.5601597	2.135453
17.391882790305218	4.569039	2.137531
17.40961356710468	4.530862	2.1285822
17.42734476396215	4.492295	2.1195035
17.445076381332044	4.4965706	2.1205118
17.462808419668868	4.6430397	2.1547713
17.48054087942723	4.8258615	2.1967843
17.498273761061835	5.0793524	2.253742
17.51600706502747	5.466633	2.3380833
17.533740791779024	6.171668	2.4842842
17.551474941771485	7.6815195	2.7715554
17.56920951545993	8.861066	2.9767542
17.586944513299528	11.125225	3.3354497
17.60467993574556	12.768146	3.573254
17.622415783253373	14.482921	3.8056433
17.64015205627843	15.874005	3.9842196
17.657888755276293	17.026138	4.126274
17.675625880702604	17.61392	4.196894
17.69336343301311	17.478588	4.1807404
17.71110141266366	16.677681	4.083832
17.728839820110178	15.681615	3.960002
17.746578655808705	14.686795	3.8323355
17.764317920215372	13.037614	3.6107635
17.7820576137864	11.388624	3.3747036
17.79979773697811	9.354384	3.0584939
17.81753829024692	7.5718603	2.7517014
17.835279274049356	5.9556856	2.4404273
17.85302068884201	4.883693	2.209908
17.870762535081607	4.188628	2.046614
17.888504813224934	3.8591244	1.9644654
17.90624752372891	3.6721501	1.9162855
17.923990667050536	3.5894492	1.8945842
17.941734243646895	3.496147	1.8697987
17.959478253975185	3.4457176	1.8562645
17.9772226984927	3.444218	1.8558605
17.994967577656833	3.464397	1.861289
18.01271289192506	3.4528518	1.858185
18.030458641754965	3.4181411	1.8488215
18.04820482760425	3.4102142	1.8466765
18.06595144993067	3.3653362	1.8344853
18.083698509192125	3.3331025	1.8256786
18.101446005846576	3.2548935	1.8041323
18.119193940352105	3.230369	1.7973228
18.136942313166887	3.224308	1.7956358
18.1546911247492	3.2304604	1.7973481
18.1724403755574	3.1935132	1.7870404
18.19019006604997	3.1258345	1.768003
18.207940196685467	3.1041214	1.7618517
18.225690767922575	3.1011176	1.7609991
18.243441780220046	3.0787578	1.7546389
18.261193234036764	3.0931726	1.7587417
18.278945129831676	3.0913475	1.7582228
18.29669746806386	3.0827873	1.7557868
18.314450249192483	3.0383956	1.7430995
18.3322034736768	3.0609446	1.7495556
18.349957141976184	3.0732865	1.7530792
18.3677112545501	3.1347716	1.7705287
18.385465811858108	3.121726	1.7668407
18.403220814359884	3.1283035	1.7687011
18.420976262515172	3.1220722	1.7669387
18.43873215678387	3.1512158	1.7751664
18.456488497625923	3.2153037	1.7931268
18.474245285501407	3.309289	1.8191451
18.492002520870486	3.3843608	1.8396633
18.50976020419343	3.4432192	1.8555913
18.527518335930615	3.7085178	1.9257512
18.545276916542516	4.278089	2.0683541
18.563035946489688	4.4116664	2.1003966
18.580795426232832	4.9125905	2.2164364
18.598555356232698	4.8281145	2.197297
18.616315736950185	5.1968136	2.279652
18.63407656884626	4.8180466	2.195005
18.65183785238201	5.0153947	2.2395077
18.669599588018617	4.745061	2.178316
18.68736177621737	4.731428	2.1751847
18.705124417439652	4.746265	2.1785924
18.72288751214696	4.537244	2.1300807
18.740651060800886	4.6573243	2.1580834
18.758415063863115	4.2996674	2.0735638
18.77617952179546	4.508235	2.1232605
18.793944435059814	4.2622566	2.0645235
18.811709804118184	4.2832284	2.0695963
18.829475629432675	4.2402897	2.0591965
18.8472419114655	4.02486	2.0062053
18.86500865067897	4.1158953	2.0287669
18.88277584753551	3.78552	1.9456413
18.90054350249763	3.7916877	1.9472257
18.918311616027957	3.43651	1.8537827
18.936080188589226	3.3477416	1.8296834
18.953849220644265	3.0417871	1.744072
18.971618712656007	2.8859622	1.698812
18.9893886650875	2.826619	1.6812551
19.007159078401887	7.9771757	2.8243895
19.024929953062408	32.833984	5.7300944
19.042701289532435	32.773975	5.724856
19.060473088275405	25.35823	5.0356956
19.07824534975489	2.659163	1.630694
19.096018074434568	2.6350863	1.6232948
19.113791262778197	2.5933902	1.6104007
19.13156491524966	2.6111085	1.6158925
19.149339032312945	2.6180732	1.6180462
19.167113614432136	2.6039486	1.6136755
19.184888662071433	2.57054	1.6032903
19.202664175695123	2.5474677	1.5960789
19.220440155767623	2.5464113	1.5957478
19.238216602753447	2.536036	1.5924937
19.2559935171172	2.5309505	1.5908961
19.27377089932361	2.5243256	1.5888126
19.291548749837514	2.5237684	1.5886372
19.309327069123835	2.5267236	1.5895671
19.32710585764763	2.546855	1.595887
19.344885115874032	2.5137393	1.5854776
19.362664844268313	2.4622352	1.5691512
19.380445043295822	2.4409592	1.562357
19.39822571342203	2.4742374	1.5729709
19.41600685511252	2.4865115	1.5768676
19.43378846883297	2.500427	1.5812739
19.451570555049173	2.519523	1.5873005
19.469353114227037	2.5462363	1.595693
19.48713614683254	2.524577	1.5888917
19.50491965333182	2.5009105	1.5814267
19.52270363419109	2.502986	1.5820827
19.540488089876686	2.4827325	1.5756689
19.55827302085503	2.50069	1.581357
19.576058427592674	2.4920297	1.5786164
19.593844310556282	2.5181274	1.5868609
19.611630670212598	2.5141892	1.5856196
19.629417507028506	2.512674	1.5851417
19.64720482147098	2.4940174	1.5792458
19.6649926140071	2.4910097	1.5782933
19.682780885104084	2.4923487	1.5787175
19.70056963522921	2.4915419	1.5784619
19.718358864849908	2.4823565	1.5755496
19.7361485744337	2.4848588	1.5763434
19.753938764448215	2.500744	1.5813742
19.771729435361202	2.5177598	1.586745
19.789520587640506	2.514514	1.5857219
19.807312221754092	2.5247617	1.5889499
19.825104338170043	2.533335	1.5916454
19.842896937356517	2.5502934	1.5969638
19.860690019781824	2.5843825	1.6076015
19.87848358591436	2.5754454	1.6048194
19.896277636222635	2.5611186	1.6003495
19.914072171175278	2.5555723	1.5986158
19.931867191241015	2.549841	1.5968221
19.94966269688869	2.5397656	1.5936642
19.967458688587264	2.5045588	1.5825799
19.985255166805807	2.505544	1.582891
20.00305213201348	2.504477	1.582554
20.020849584679578	2.5053189	1.5828199
20.038647525273507	2.4969113	1.5801618
20.05644595426477	2.503936	1.582383
20.07424487212299	2.4628892	1.5693595
20.092044279317903	2.471581	1.5721263
20.109844176319353	2.5079527	1.5836517
20.127644563597304	2.5101538	1.5843465
20.145445441621817	2.4775321	1.5740179
20.16324681086307	2.443442	1.5631514
20.181048671791373	2.4245424	1.5570942
20.198851024877122	2.417112	1.5547065
20.216653870590836	2.4327343	1.5597225
20.234457209403146	2.4539359	1.5665044
20.252261041784802	2.4081626	1.5518255
20.270065368206662	2.3947039	1.5474831
20.287870189139685	2.3749602	1.5410906
20.305675505054968	2.3944218	1.5473919
20.323481316423702	2.3977919	1.5484805
20.341287623717207	2.409682	1.5523151
20.359094427406884	2.400493	1.5493524
20.376901727964288	2.3653963	1.5379845
20.39470952586107	2.3427734	1.5306121
20.41251782156899	2.326628	1.5253288
20.430326615559935	2.319396	1.5229564
20.448135908305886	2.3524146	1.5337583
20.465945700278965	2.3676343	1.5387119
20.483755991951384	2.3529108	1.53392
20.50156678379548	2.3657117	1.538087
20.519378076283708	2.36662	1.5383823
20.537189869888635	2.3461757	1.5317231
20.55500216508294	2.3199608	1.5231417
20.572814962339415	2.3060546	1.51857
20.59062826213098	2.3268232	1.5253928
20.60844206493066	2.3156037	1.5217108
20.626256371211593	2.3107967	1.5201305
20.644071181447032	2.3420074	1.5303619
20.66188649611036	2.3764744	1.5415817
20.67970231567506	2.3489082	1.5326148
20.697518640614742	2.3334165	1.5275525
20.715335471403122	2.3130744	1.5208795
20.73315280851404	2.3287973	1.5260397
20.750970652421447	2.339536	1.5295541
20.768789003599412	2.3770907	1.5417817
20.786607862522136	2.3843966	1.5441492
20.8044272296639	2.3438673	1.5309694
20.82224710549913	2.3015838	1.5170971
20.84006749050237	2.2900198	1.5132811
20.857888385148268	3.8872952	1.9716225
20.8757097899116	46.00396	6.782622
20.893531705267254	64.84878	8.052874
20.911354131690224	83.84527	9.156706
20.92917706965566	69.098755	8.312566
20.94700051963877	50.139797	7.080946
20.96482448211493	29.403252	5.4224763
20.982648957559622	4.149163	2.0369494
21.00047394644843	2.27478	1.5082374
21.01829944925707	2.2454855	1.4984944
21.036125466461375	2.2398088	1.4965991
21.053951998537297	2.2368731	1.495618
21.071779045960906	2.2262998	1.492079
21.089606609208378	2.2169175	1.4889317
21.10743468875603	2.2334342	1.4944679
21.12526328508028	2.2517903	1.5005966
21.143092398657675	2.2504566	1.5001522
21.16092202996488	2.2357328	1.4952368
21.17875217947867	2.2316484	1.4938703
21.19658284767596	2.2337682	1.4945797
21.21441403503377	2.2230494	1.4909894
21.232245742029225	2.2079415	1.4859143
21.2500779691396	2.195611	1.4817594
21.26791071684227	2.1613195	1.4701427
21.28574398561475	2.1382165	1.4622642
21.30357777593465	2.1240356	1.4574071
21.321412088279704	2.1430326	1.46391
21.339246923127792	2.1821694	1.4772168
21.357082280956888	2.2025874	1.4841117
21.3749181622451	2.1952794	1.4816475
21.392754567470647	2.1738951	1.4744135
21.41059149711187	2.1278338	1.4587096
21.42842895164726	2.1045756	1.4507155
21.446266931555378	2.1157274	1.4545541
21.464105437314945	2.1426728	1.4637871
21.481944469404798	2.1592712	1.469446
21.49978402830388	2.1608913	1.469997
21.51762411449127	2.1324792	1.460301
21.53546472844617	2.1191764	1.4557391
21.553305870647876	2.1316314	1.4600108
21.571147541575865	2.151836	1.4669137
21.58898974170967	2.1205716	1.4562182
21.60683247152899	2.0845652	1.4438024
21.62467573151363	2.091236	1.4461107
21.642519522143523	2.0925345	1.4465595
21.660363843898722	2.1095023	1.4524126
21.6782086972594	2.120076	1.456048
21.696054082705864	2.0964174	1.447901
21.713900000718535	2.0818748	1.4428704
21.73174645177795	2.0586095	1.4347855
21.749593436364794	2.0790436	1.4418889
21.767440954959845	2.0615826	1.4358212
21.785289008044032	2.0227764	1.4222435
21.803137596098388	2.0346637	1.4264164
21.820986719604086	2.0447044	1.4299316
21.838836379042412	2.0565302	1.4340607
21.85668657489478	2.0536	1.4330387
21.87453730764273	2.039664	1.428168
21.892388577767914	2.0177953	1.4204912
21.91024038575213	2.025751	1.4232888
21.928092732077285	2.0190022	1.420916
21.945945617225426	2.039928	1.4282604
21.963799041678694	2.036713	1.4271345
21.981653005919398	31.321892	5.5965962
21.999507510429943	78.07945	8.836258
22.01736255569286	73.03998	8.546343
22.035218142190818	4.1415615	2.0350826
22.05307427040661	1.9876001	1.4098227
22.07093094082315	2.0188775	1.4208721
22.088788153923474	2.018309	1.420672
22.106645910190746	2.0464008	1.4305247
22.12450421010827	2.0514219	1.4322785
22.142363054159464	2.0309339	1.4251083
22.16022244282787	1.981061	1.4075017
22.178082376597164	1.956935	1.3989049
22.195942855951145	1.9468892	1.3953097
22.213803881373742	1.9562316	1.3986535
22.231665453349002	1.9963292	1.4129151
22.24952757236111	2.0501394	1.4318308
22.26739023889438	2.0512302	1.4322116
22.28525345343323	2.0083542	1.4171641
22.30311721646225	1.9823377	1.4079552
22.320981528466113	1.98806	1.4099858
22.33884638992964	1.9749068	1.4053137
22.356711801337788	1.9757289	1.4056063
22.37457776317561	1.9480336	1.3957198
22.392444275928337	1.9404811	1.3930115
22.410311340081282	1.9633087	1.4011812
22.428178956119904	1.9878527	1.4099123
22.446047124529805	1.971493	1.4040986
22.46391584579669	1.9544065	1.3980008
22.481785120406414	1.9766525	1.4059347
22.49965494884496	2.0211568	1.4216739
22.51752533159841	1.982867	1.4081432
22.53539626915302	1.9423964	1.3936988
22.553267761995137	1.923595	1.3869373
22.571139810611264	1.9519184	1.3971107
22.589012415488025	1.9650009	1.4017849
22.60688557711216	1.9795972	1.4069816
22.624759295970566	1.9819285	1.4078099
22.642633572550263	1.9482735	1.3958057
22.660508407338362	1.940299	1.3929461
22.67838380082217	1.9718134	1.4042127
22.696259753489077	1.9712883	1.4040258
22.714136265826614	1.9901067	1.4107114
22.73201333832246	1.9565754	1.3987764
22.74989097146439	1.9336231	1.3905478
22.76776916574035	1.9378716	1.3920746
22.785647921638393	1.934043	1.3906988
22.803527239646712	1.9228429	1.386666
22.82140712025363	1.9227947	1.3866488
22.839287563947593	1.9243528	1.3872104
22.85716857121719	1.8993285	1.3781613
22.875050142551135	1.8865985	1.373535
22.892932278438277	1.9226161	1.3865843
22.910814979367604	1.9321333	1.390012
22.928698245828222	1.9170754	1.3845849
22.946582078309387	1.8846084	1.3728104
22.96446647730047	1.9055003	1.3803986
22.98235144329098	1.906092	1.380613
23.000236976770562	1.9087534	1.3815764
23.018123078229	1.8778324	1.3703402
23.03600974815619	1.8804654	1.3713006
23.053896987042194	1.8862275	1.3734
23.071784795377173	1.890932	1.3751116
23.08967317365145	1.8976794	1.3775629
23.10756212235546	1.9171137	1.3845987
23.125451641979787	1.9089569	1.3816501
23.143341733015134	1.9283539	1.3886518
23.161232395952357	1.9071246	1.3809868
23.179123631282426	1.8923421	1.3756243
23.197015439496468	1.9072773	1.3810421
23.214907821085717	1.9603944	1.4001409
23.23280077654157	1.9621203	1.4007571
23.250694306355538	1.9230529	1.3867419
23.268588411019277	1.9231962	1.3867935
23.28648309102458	2.0006623	1.4144477
23.304378346863356	2.0196285	1.4211364
23.322274179027676	2.0308776	1.4250886
23.340170588009723	1.993685	1.4119791
23.358067574301852	1.9500346	1.3964365
23.37596513839651	1.9347295	1.3909456
23.39386328078629	1.9197477	1.3855497
23.411762001963947	1.9180323	1.3849304
23.429661302422353	1.9487947	1.3959924
23.4475611826545	1.9470991	1.3953849
23.46546164315356	1.9302305	1.3893274
23.48336268441279	1.908458	1.3814695
23.501264306925638	1.9220172	1.3863684
23.51916651118564	1.9417816	1.3934783
23.537069297686497	1.968537	1.4030457
23.554972666922037	1.9842141	1.4086213
23.57287661938623	1.9392892	1.3925836
23.59078115557318	1.9458482	1.3949367
23.608686275977128	1.9206755	1.3858844
23.62659198109246	1.9271134	1.388205
23.6444982714137	1.9427456	1.3938241
23.66240514743549	1.9337856	1.3906062
23.68031260965263	1.932363	1.3900946
23.698220658560068	1.8956671	1.3768322
23.716129294652845	1.8974308	1.3774726
23.7340385184262	1.8823972	1.3720047
23.75194833037546	1.8817306	1.3717618
23.769858730996123	1.9404415	1.3929973
23.78776972078382	1.9772354	1.406142
23.80568130023431	1.9609066	1.4003237
23.823593469843495	1.9115757	1.3825974
23.841506230107424	1.8772085	1.3701125
23.859419581522275	1.933411	1.3904715
23.87733352458438	1.9437077	1.3941692
23.89524805979019	1.9326097	1.3901833
23.913163187636318	1.9161643	1.3842559
23.931078908619508	1.9567358	1.3988338
23.948995223236633	2.016896	1.4201746
23.966912131984735	2.0130708	1.4188273
23.98482963536096	2.0149975	1.4195061
24.002747733862616	2.022584	1.4221758
24.020666427987155	2.0429525	1.4293189
24.038585718232156	2.03635	1.4270073
24.056505605095353	2.0544448	1.4333334
24.074426089074617	2.063573	1.4365141
24.092347170667946	2.081819	1.4428511
24.110268850373515	2.11264	1.4534923
24.128191128689586	2.1539989	1.4676508
24.146114006114626	2.057773	1.434494
24.164037483147187	2.007267	1.4167805
24.181961560286005	1.9920468	1.4113989
24.199886238029926	2.0249696	1.4230143
24.21781151687797	2.0327904	1.4257596
24.235737397329274	2.0478647	1.4310362
24.253663879883135	2.043395	1.4294736
24.271590965038975	2.0378087	1.4275184
24.289518653296376	2.0163872	1.4199955
24.30744694515505	2.0419745	1.4289768
24.32537584111486	2.026006	1.4233783
24.34330534167581	2.0165985	1.4200699
24.361235447338046	2.032182	1.4255462
24.379166158601876	2.059413	1.4350655
24.39709747596772	2.0987859	1.4487187
24.41502939993615	2.063441	1.4364682
24.432961931007917	2.055123	1.43357
24.450895069683856	2.060173	1.4353303
24.468828816465	2.0449903	1.4300315
24.4867631718525	2.0569253	1.4341985
24.504698136347656	2.0462244	1.430463
24.52263371045192	2.016383	1.419994
24.540569894666874	1.9561706	1.3986317
24.558506689494266	1.8914081	1.3752847
24.57644409543597	1.8952923	1.3766961
24.594382112994012	1.9427887	1.3938396
24.61232074267057	2.0385096	1.4277638
24.630259984967953	2.0152373	1.4195906
24.64819984038863	1.9638462	1.401373
24.66614030943522	1.8999941	1.3784027
24.684081392610462	1.9188242	1.3852164
24.702023090417274	1.9430418	1.3939303
24.7199654033587	2.004111	1.4156663
24.737908331937927	2.0301175	1.424822
24.755851876658305	2.0597024	1.4351664
24.773796038023324	2.083221	1.4433367
24.79174081653661	2.1061401	1.4512547
24.809686212701962	2.1232278	1.45713
24.827632227023294	2.1162786	1.4547435
24.8455788600047	2.0783765	1.4416575
24.8635261121504	2.08234	1.4430315
24.88147398396475	2.103789	1.4504445
24.899422475952303	2.1439881	1.4642364
24.917371588617698	2.139042	1.4625463
24.935321322465768	2.1617777	1.4702985
24.953271678001478	2.2451344	1.4983772
24.97122265572994	2.4421804	1.5627477
24.989174256156414	2.760779	1.6615592
25.00712647978632	3.2019923	1.7894112
25.02507932712521	3.7916214	1.9472086
25.043032798678798	4.395452	2.0965333
25.060986894952933	5.081692	2.254261
25.078941616453637	5.800392	2.4084003
25.096896963687055	6.7373843	2.595647
25.114852937159508	7.9043336	2.8114648
25.132809537377444	8.45845	2.9083414
25.150766764847468	8.510825	2.917332
25.168724620076347	7.9190426	2.8140793
25.186683103570985	6.8265777	2.612772
25.204642215838426	5.6187644	2.3703933
25.222601957385894	4.247705	2.060996
25.24056232872074	3.1841302	1.7844131
25.25852333035048	2.5549011	1.5984058
25.276484962782778	2.2064102	1.485399
25.294447226525435	2.0635405	1.4365028
25.312410122086423	1.9708456	1.4038681
25.330373649973843	1.9385332	1.3923122
25.348337810695988	1.944851	1.3945792
25.366302604761245	1.9628254	1.4010087
25.384268032678207	1.9527905	1.3974228
25.40223409495558	1.9658464	1.4020865
25.420200792102257	1.9348339	1.3909831
25.438168124627246	1.8968847	1.3772744
25.45613609303974	1.8798853	1.3710891
25.474104697849057	1.859284	1.3635557
25.492073939564698	1.8660452	1.3660327
25.510043818696285	1.8613482	1.3643123
25.528014335753614	1.8837913	1.3725128
25.54598549124664	1.9129333	1.3830884
25.56395728568544	1.8920023	1.3755008
25.58192971958028	1.8687881	1.3670362
25.59990279344156	1.8761632	1.3697311
25.617876507779833	1.9000897	1.3784374
25.635850863105826	1.9207078	1.3858961
25.653825859930386	1.9053769	1.3803539
25.671801498764548	1.868799	1.3670403
25.68977778011949	1.8523724	1.3610189
25.707754704506524	1.8637071	1.3651766
25.725732272437153	1.8729744	1.3685665
25.743710484423012	1.8581567	1.3631423
25.761689340975888	1.871895	1.3681722
25.77966884260774	1.8444296	1.3580978
25.797648989830662	1.8429109	1.3575386
25.815629783156922	1.9075235	1.3811313
25.83361122309895	1.9442903	1.3943781
25.85159331016929	1.9339516	1.3906659
25.869576044880695	1.8683685	1.3668828
25.887559427746034	1.8077425	1.3445232
25.90554345927836	1.8136779	1.3467286
25.92352813999086	1.8584452	1.363248
25.94151347039689	1.8672838	1.366486
25.959499451009965	1.8910484	1.375154
25.97748608234374	1.8662547	1.3661094
25.995473364912062	1.8681216	1.3667924
26.013461299228904	1.8931286	1.3759102
26.03144988580839	1.868001	1.3667483
26.04943912516483	1.7918054	1.3385834
26.067429017812675	1.7825868	1.3351355
26.085419564266537	1.7836001	1.3355149
26.103410765041186	1.833268	1.3539823
26.12140262065155	1.9033265	1.379611
26.139395131612723	1.9320052	1.3899659
26.157388298439948	1.8829025	1.3721889
26.17538212164861	1.8536606	1.361492
26.193376601754295	1.8589507	1.3634335
26.211371739272714	1.8650426	1.3656656
26.229367534719746	1.8301439	1.3528281
26.247363988611433	1.7810909	1.3345752
26.26536110146397	1.8062882	1.3439822
26.283358873793727	1.8140655	1.3468724
26.301357306117204	1.8050061	1.3435051
26.319356398951104	1.8130472	1.3464944
26.33735615281224	1.807614	1.3444754
26.35535656821762	1.817238	1.3480496
26.373357645684404	1.8348604	1.3545702
26.39135938572991	1.8568435	1.3626604
26.409361788871614	1.82901	1.352409
26.427364855627165	1.8246707	1.3508037
26.445368586514352	1.825014	1.3509308
26.46337298205115	1.8185627	1.348541
26.48137804275568	1.8363197	1.3551087
26.499383769146217	1.8515998	1.360735
26.517390161741215	1.8725889	1.3684257
26.53539722105928	1.8539164	1.361586
26.553404947619182	1.8456372	1.3585423
26.571413341939856	1.8538789	1.3615721
26.589422404540397	1.8350121	1.3546262
26.60743213594006	1.8150841	1.3472506
26.62544253665827	1.8099692	1.345351
26.64345360721459	1.8194398	1.3488661
26.66146534812879	1.8403981	1.3566127
26.679477759920758	1.8645064	1.3654693
26.69749084311057	1.8205019	1.3492597
26.71550459821847	1.77422	1.3319985
26.733519025764842	1.8003081	1.3417556
26.751534126270258	1.8529927	1.3612467
26.769549900255434	1.8518605	1.3608308
26.787566348241267	1.8602185	1.3638983
26.80558347074881	1.8267471	1.351572
26.823601268299267	1.7926376	1.3388941
26.841619741414036	1.7494682	1.3226746
26.85963889061465	1.7301879	1.315366
26.877658716422832	1.7179123	1.3106916
26.89567921936045	1.728141	1.3145877
26.913700399949544	1.7572148	1.3255998
26.93172225871233	1.8023913	1.3425317
26.949744796171174	1.8149163	1.3471882
26.967768012848605	1.8110552	1.3457545
26.98579190926733	1.795035	1.3397892
27.003816485950225	1.8179218	1.3483033
27.021841743420318	1.8261585	1.3513544
27.039867682200814	1.8453312	1.3584297
27.057894302815072	1.8312241	1.3532273
27.07592160578664	1.8276224	1.3518958
27.0939495916392	1.8135327	1.3466747
27.111978260896635	1.8345149	1.3544426
27.13000761408296	1.852693	1.3611367
27.148037651722397	1.8358953	1.3549521
27.166068374339304	1.8150432	1.3472354
27.184099782458215	1.8099687	1.3453507
27.20213187660384	1.7635553	1.3279892
27.22016465730105	1.785544	1.3362426
27.23819812507487	1.8073143	1.3443639
27.256232280450533	1.8230484	1.350203
27.274267123953383	1.800725	1.341911
27.292302656108987	1.8014835	1.3421936
27.31033887744306	1.8386534	1.3559695
27.32837578848146	1.8544543	1.3617835
27.34641338975026	1.8551207	1.3620281
27.364451681775673	1.8548062	1.3619127
27.382490665084074	1.82077	1.3493592
27.400530340202046	1.8256422	1.3511633
27.41857070765629	1.859407	1.3636007
27.436611767973726	1.8701779	1.3675444
27.454653521681404	1.8186058	1.3485569
27.472695969306564	1.7713286	1.3309127
27.490739111376627	1.7816666	1.3347908
27.508782948419153	1.8251916	1.3509965
27.526827480961902	1.8326046	1.3537372
27.54487270953279	1.835167	1.3546834
27.562918634659898	1.7926793	1.3389097
27.580965256871508	1.8133316	1.3466
27.599012576696026	1.8537887	1.3615391
27.617060594662068	1.8702615	1.367575
27.63510931129842	1.8641531	1.36534
27.65315872713401	1.8490223	1.3597876
27.67120884269797	1.8458308	1.3586136
27.68925965851958	1.8241879	1.350625
27.707311175128307	1.8103786	1.3455031
27.725363393053787	1.8289819	1.3523985
27.74341631282583	1.8772868	1.3701411
27.7614699349744	1.9068826	1.3808992
27.77952426002968	2.1048653	1.4508154
27.797579288521973	2.1404822	1.4630387
27.815635020981784	2.556318	1.5988489
27.83369145793979	2.58308	1.6071963
27.85174859992682	2.424132	1.5569625
27.869806447473923	2.2883363	1.5127248
27.887865001112267	2.022504	1.4221478
27.905924261373233	1.937314	1.3918743
27.92398422878836	1.8874714	1.3738527
27.94204490388936	1.8878195	1.3739794
27.96010628720813	1.9196075	1.385499
27.978168379276728	1.9439666	1.3942621
27.9962311806274	1.9131731	1.383175
28.014294691792568	1.861833	1.36449
28.0323589133048	1.8604268	1.3639746
28.050423845696887	1.8714687	1.3680164
28.068489489501758	1.8923426	1.3756244
28.086555845252523	1.8709161	1.3678143
28.104622913482487	1.8728372	1.3685164
28.122690694725115	1.9055252	1.3804076
28.14075918951405	1.929955	1.3892282
28.15882839838312	1.9763497	1.405827
28.176898321866304	1.9907279	1.4109316
28.1949689604978	1.9468589	1.3952988
28.213040314811945	1.8896861	1.3746586
28.23111238534327	1.9021108	1.3791703
28.249185172626493	1.9095134	1.3818514
28.267258677196473	1.9384621	1.3922867
28.285332899588294	1.9452349	1.3947167
28.303407840337172	1.9539768	1.3978472
28.321483499978545	1.9548678	1.398166
28.33955987904799	1.9713322	1.4040414
28.357636978081285	1.9474449	1.3955089
28.37571479761439	1.9159324	1.3841721
28.393793338183425	1.964466	1.401594
28.41187260032469	1.9501047	1.3964615
28.429952584574686	1.9300121	1.3892487
28.448033291470065	1.98244	1.4079915
28.46611472154769	2.0207243	1.4215218
28.484196875344566	2.006947	1.4166676
28.502279753397914	1.9677079	1.4027501
28.52036335624511	1.9681197	1.4028969
28.538447684423716	1.9802339	1.4072078
28.556532738471482	1.9819407	1.4078141
28.574618518926325	1.9868002	1.409539
28.59270502632635	1.9909261	1.4110018
28.61079226120985	2.0026612	1.4151541
28.628880224115274	2.005855	1.4162822
28.646968915581287	2.0118089	1.4183825
28.66505833614671	2.0352194	1.4266112
28.68314848635055	2.0381267	1.4276297
28.701239366732004	2.0832832	1.4433583
28.71933097783044	2.0717375	1.4393531
28.737423320185403	2.0815372	1.4427533
28.75551639433665	2.0656931	1.4372519
28.773610200824074	2.0943437	1.4471847
28.791704740187793	2.1482432	1.4656886
28.80980001296809	2.2072232	1.4856726
28.827896019705413	2.2735534	1.5078307
28.845992760940433	2.305044	1.5182371
28.86409023721397	2.3319936	1.5270866
28.88218844906704	2.3037488	1.5178106
28.900287397040845	2.222124	1.490679
28.918387081676755	2.2366185	1.4955329
28.936487503516343	2.2915945	1.5138013
28.954588663101365	2.3150384	1.521525
28.97269056097374	2.293521	1.5144374
28.990793197675597	2.2692351	1.5063981
29.00889657374923	2.308592	1.5194051
29.027000689737125	2.3089166	1.5195119
29.04510554618196	2.3356228	1.5282744
29.06321114362659	2.3824916	1.5435321
29.08131748261405	2.414536	1.5538777
29.099424563687567	2.4485047	1.5647699
29.11753238739057	2.4896386	1.5778588
29.13564095426663	2.5183392	1.5869275
29.15375026485954	2.6710002	1.6343195
29.171860319713275	2.7584505	1.6608584
29.18997111937199	2.847089	1.6873319
29.20808266438002	2.79592	1.6721004
29.226194955281898	2.7768705	1.6663945
29.244307992622335	2.8270793	1.6813921
29.26242177694624	2.884945	1.6985126
29.2805363087987	2.8793387	1.6968614
29.29865158872498	2.854279	1.6894611
29.316767617270557	2.867567	1.6933892
29.334884394981064	2.9745944	1.7247013
29.353001922402367	3.0868864	1.7569537
29.37112020008047	3.1638253	1.7787145
29.389239228561596	3.293132	1.8146989
29.407359008392152	3.4336884	1.8530214
29.42547954011872	3.7507133	1.9366759
29.44360082428809	4.461736	2.1122823
29.46172286144722	5.574444	2.361026
29.479845652143283	7.1089373	2.666259
29.497969196923606	9.152032	3.0252326
29.516093496335728	11.706839	3.4215257
29.5342185509274	14.427795	3.7983937
29.55234436124651	16.751667	4.0928802
29.570470927841175	18.226748	4.2692795
29.588598251259686	18.028767	4.2460294
29.60672633205055	16.728346	4.09003
29.624855170762405	14.659151	3.828727
29.642984767944146	11.926966	3.453544
29.66111512414481	9.005474	3.0009122
29.67924623991366	6.7334957	2.594898
29.697378115800138	5.206317	2.2817354
29.71551075235387	4.3115644	2.0764308
29.733644150124675	3.8318548	1.9575124
29.751778309662576	3.5264595	1.877887
29.769913231517766	3.3779902	1.8379309
29.78804891624066	3.3349733	1.826191
29.806185364381818	3.405479	1.845394
29.82432257649206	3.4334385	1.852954
29.842460553122333	3.4735181	1.8637377
29.86059929482382	3.3908513	1.8414264
29.878738802147872	3.2913976	1.8142209
29.896879075646048	3.2290418	1.7969534
29.915020115870114	3.2403007	1.8000835
29.933161923371976	3.2723377	1.8089604
29.951304498703777	3.2356005	1.7987775
29.969447842417857	3.2186556	1.7940612
29.987591955066733	3.2068126	1.7907575
30.005736837203123	3.235135	1.7986481
30.023882489379943	3.2851028	1.8124852
30.04202891215028	3.2231562	1.795315
30.060176106067455	3.1664999	1.7794662
30.078324071684946	3.19645	1.7878618
30.09647280955646	3.319925	1.8220662
30.114622320235863	3.2681727	1.8078089
30.132772604277257	3.1542542	1.776022
30.1509236622349	3.1196122	1.7662424
30.16907549466328	3.0260038	1.7395413
30.18722810211705	2.9669065	1.7224711
30.205381485151097	2.9565861	1.7194726
30.22353564432045	3.0159178	1.7366397
30.241690580180403	3.0210223	1.7381089
30.25984629328638	3.01707	1.7369715
30.278002784194037	2.9510756	1.7178695
30.296160053459246	2.9273577	1.7109523
30.314318101638033	2.967598	1.7226717
30.332476929286646	3.0063782	1.733891
30.35063653696153	3.033417	1.7416707
30.368796925219307	3.0247543	1.7391821
30.386958094616844	2.9408154	1.7148806
30.40512004571115	2.9079947	1.7052844
30.423282779059463	2.8643956	1.6924525
30.441446295219233	2.8758268	1.6958263
30.459610594748067	2.8778787	1.6964312
30.47777567820382	2.8603806	1.691266
30.495941546144504	2.8647876	1.6925683
30.51410819912835	2.8653169	1.6927247
30.532275637713795	2.8536682	1.6892804
30.55044386245946	2.7963324	1.6722238
30.56861287392416	2.805713	1.6750263
30.586782672666956	2.8372898	1.6844257
30.604953259247047	2.8769903	1.6961693
30.623124634223885	2.8197477	1.6792104
30.641296798157075	2.7849298	1.6688108
30.659469751606462	2.748149	1.6577542
30.677643495132074	2.8026366	1.6741077
30.695818029294152	2.8378816	1.6846013
30.713993354653116	2.8074214	1.6755362
30.73216947176962	2.7697957	1.6642703
30.75034638120448	2.8190792	1.6790113
30.768524083518756	2.8893807	1.6998179
30.786702579273673	2.8644176	1.692459
30.80488186903069	2.8754625	1.6957189
30.82306195335144	2.9810445	1.7265701
30.841242832797782	3.1895664	1.7859358
30.85942450793176	3.4288056	1.8517034
30.877606979315637	3.739553	1.9337924
30.895790247511883	4.1409707	2.0349376
30.913974313083134	4.660489	2.1588166
30.932159176592283	4.9931216	2.2345295
30.95034483860237	4.9413023	2.222904
30.968531299676698	4.6823936	2.163884
30.98671856037873	4.3595657	2.0879574
31.00490662127215	3.9811919	1.9952924
31.023095482920848	3.575505	1.8909006
31.04128514588892	3.1318297	1.7696977
31.059475610740662	2.7480905	1.6577365
31.07766687804056	2.5850663	1.6078142
31.09585894835335	2.5420055	1.5943668
31.11405182224393	2.5408869	1.594016
31.132245500277417	2.5168371	1.5864543
31.15043998301914	2.5350094	1.5921713
31.168635271034628	2.5010674	1.5814763
31.18683136488964	2.478836	1.574432
31.20502826515008	2.4193273	1.5554187
31.223225972382135	2.349219	1.5327163
31.241424487152155	2.3438902	1.5309769
31.259623810026692	2.39811	1.5485831
31.27782394157253	2.4464927	1.5641268
31.296024882356644	2.3704662	1.5396318
31.314226632946237	2.31289	1.5208188
31.332429193908684	2.3622012	1.5369455
31.350632565811598	2.4542327	1.5665991
31.368836749222787	2.4890816	1.5776824
31.387041744710295	2.5298538	1.5905514
31.40524755284232	2.5672386	1.6022605
31.423454174187317	2.6272073	1.6208662
31.441661609313922	2.5220118	1.5880843
31.459869858791002	2.4168434	1.55462
31.478078923187628	2.3249247	1.5247704
31.496288803073064	2.3080473	1.5192258
31.514499499016807	2.381008	1.5430515
31.532711011588546	2.413977	1.5536978
31.550923341358178	2.3868675	1.544949
31.56913648889584	2.379415	1.5425353
31.587350454771844	2.3167934	1.5221016
31.605565239556732	2.2814274	1.5104395
31.62378084382127	2.2840376	1.5113033
31.641997268136382	2.268888	1.5062828
31.660214513073274	2.3048646	1.5181781
31.67843257920331	2.3359156	1.5283703
31.6966514670981	2.361521	1.5367241
31.71487117732944	2.2944143	1.5147324
31.733091710469346	2.2825882	1.5108237
31.751313067090052	2.3252761	1.5248857
31.769535247764008	2.3317926	1.5270208
31.787758253063878	2.292792	1.5141969
31.805982083562526	2.28661	1.5121541
31.824206739833024	2.375922	1.5414026
31.84243222244869	2.3808472	1.5429994
31.860658531983013	2.3469937	1.53199
31.878885669009737	2.2909133	1.5135764
31.897113634102784	2.259934	1.5033077
31.91534242783632	2.2982938	1.5160124
31.933572050784694	2.3090875	1.5195682
31.951802503522508	2.293398	1.5143969
31.970033786624548	2.2779353	1.5092831
31.988265900665834	2.2892358	1.5130221
32.006498846221575	2.2601397	1.5033761
32.02473262386724	2.2311103	1.4936901
32.04296723417845	2.2333562	1.4944417
32.0612026777311	2.2433007	1.4977652
32.07943895510129	2.2203739	1.4900919
32.097676066865304	2.1752157	1.4748613
32.115914013599685	2.121243	1.4564488
32.13415279588115	2.1424353	1.463706
32.152392414286666	2.1120703	1.4532964
32.1706328693934	2.0727592	1.439708
32.18887416177875	2.050223	1.43186
32.20711629202032	2.0993624	1.4489176
32.225359260695924	2.1083484	1.4520153
32.243603068383614	2.1306517	1.4596752
32.26184771566166	2.1525385	1.4671532
32.28009320310852	2.121898	1.4566736
32.2983395313029	2.1161788	1.4547092
32.31658670082372	2.179162	1.4761986
32.33483471225012	2.18852	1.4793648
32.35308356616143	2.1398616	1.4628266
32.371333263137245	2.0723796	1.4395761
32.38958380375734	2.0337377	1.4260918
32.407835188601744	2.02166	1.4218509
32.42608741825067	2.0763485	1.4409541
32.444340493284585	2.1556907	1.468227
32.46259441428416	2.1201084	1.4560592
32.48084918183028	2.0082843	1.4171395
32.49910479650405	1.9934701	1.411903
32.51736125888683	2.0185895	1.4207708
32.53561856956014	1.9978979	1.4134701
32.5538767291058	2.0054002	1.4161215
32.572135738105764	2.1300392	1.4594654
32.59039559714228	2.2260063	1.4919807
32.608656306797776	2.2444298	1.4981421
32.62691786765491	2.120979	1.4563582
32.645180280296586	2.110197	1.4526517
32.663443545305896	2.1293516	1.4592298
32.68170766326619	2.1225314	1.4568911
32.69997263476099	2.1121619	1.4533279
32.7182384603741	2.0572822	1.434323
32.7365051406895	2.014752	1.4194195
32.75477267629144	2.1192086	1.4557502
32.77304106776434	2.1471968	1.4653317
32.79131031569289	2.09185	1.4463229
32.809580420661966	2.0321763	1.4255441
32.827851383256714	2.0222754	1.4220673
32.84612320406245	1.9886662	1.4102007
32.86439588366476	1.9930594	1.4117576
32.88266942264945	1.987591	1.4098195
32.9009438216025	1.9774455	1.4062167
32.9192190811102	1.9068302	1.3808802
32.937495201758985	1.9027003	1.379384
32.95577218413556	1.949208	1.3961405
32.974050028826866	2.058061	1.4345943
32.992328736420035	2.0111582	1.418153
33.010608307502444	1.9406056	1.3930563
33.02888874266169	1.9373033	1.3918704
33.047170042485604	1.9679962	1.4028529
33.06545220756225	2.0450969	1.4300689
33.083735238479896	2.0641115	1.4367015
33.10201913582707	2.000842	1.4145112
33.12030390019248	1.9286807	1.3887695
33.138589532165135	1.8795627	1.3709714
33.15687603233419	1.8885565	1.3742476
33.17516340128909	1.9702681	1.4036624
33.19345163961947	1.9859365	1.4092326
33.211740747915215	1.946232	1.3950741
33.23003072676643	1.9883275	1.4100807
33.248321576763466	2.0276265	1.4239475
33.266613298496885	2.016209	1.4199327
33.28490589255747	1.9458884	1.394951
33.30319935953626	1.8430047	1.3575732
33.32149370002451	1.7764502	1.3328354
33.339788914613706	1.8553482	1.3621117
33.358085003895575	1.9669732	1.4024882
33.376381968462034	1.89947	1.3782126
33.39467980890529	1.8194351	1.3488644
33.41297852581774	1.7984288	1.3410552
33.43127811979204	1.8984278	1.3778344
33.44957859142105	1.9634565	1.4012339
33.467879941297866	2.0648046	1.4369428
33.486182170015844	2.0657308	1.437265
33.50448527816853	1.9887482	1.4102298
33.522789266349754	1.9230863	1.3867539
33.541094135153514	1.8669833	1.3663759
33.55939988517411	1.7896494	1.3377777
33.57770651700602	1.7987205	1.3411639
33.59601403124398	1.9040703	1.3798805
33.61432242848296	2.0335095	1.4260118
33.632631709318154	2.0581615	1.4346294
33.650941874344994	1.9838463	1.4084908
33.66925292415916	1.961681	1.4006002
33.68756485935654	1.8760498	1.3696897
33.70587768053328	1.8536928	1.3615038
33.724191388285746	1.7563194	1.3252621
33.74250598321054	1.8054532	1.3436716
33.760821465904506	1.8583324	1.3632066
33.77913783696474	1.8763046	1.3697827
33.79745509698852	1.867268	1.3664801
33.815773246573414	1.9129009	1.3830767
33.8340922863172	1.937753	1.3920319
33.852412216817896	1.9745139	1.405174
33.87073303867377	1.8933234	1.3759809
33.889054752483304	1.745973	1.3213527
33.907377358845245	1.7638663	1.3281063
33.92570085835853	1.809091	1.3450245
33.94402525162239	1.7813966	1.3346897
33.96235053923627	1.7037462	1.3052763
33.980676721799824	1.8789407	1.3707446
33.999003799912984	1.9504173	1.3965734
34.01733177417592	1.9027972	1.3794192
34.03566064518901	1.8980113	1.3776833
34.0539904135529	1.9805014	1.4073029
34.07232107986846	2.1475184	1.4654413
34.090652644736785	2.1726706	1.4739982
34.108985108759235	2.176673	1.4753551
34.12731847253742	2.0937276	1.4469719
34.14565273667313	2.0201871	1.4213328
34.16398790176847	2.044882	1.4299937
34.18232396842574	2.0327847	1.4257576
34.20066093724749	1.9360518	1.3914208
34.21899880883651	1.9265971	1.3880191
34.23733758379583	2.0299873	1.4247762
34.25567726272874	2.0570872	1.4342549
34.27401784623872	2.134408	1.4609613
34.29235933492957	2.1104069	1.452724
34.31070172940526	1.9848351	1.4088417
34.32904503027003	1.9498231	1.3963606
34.347389238128386	2.0147417	1.419416
34.36573435358502	2.0415184	1.4288172
34.38408037724492	1.9186819	1.385165
34.402427309713296	1.9676778	1.4027394
34.42077515159559	1.9003096	1.3785172
34.43912390349752	1.8982519	1.3777707
34.45747356602499	1.9720521	1.4042977
34.47582413978423	2.0132468	1.4188893
34.49417562538163	1.9569653	1.3989158
34.51252802342388	1.9471772	1.3954129
34.53088133451789	1.9081239	1.3813486
34.54923555927084	1.8244288	1.3507142
34.567590698290104	1.7926635	1.3389038
34.58594675218336	1.7781624	1.3334775
34.6043037215585	1.902792	1.3794173
34.62266160702365	2.0118473	1.418396
34.641020409187234	2.025545	1.4232163
34.65938012865785	1.9917166	1.411282
34.677740766044394	1.9912766	1.411126
34.69610232195598	2.069349	1.4385232
34.714464797002016	2.0602655	1.4353625
34.73282819179208	2.1541772	1.4677116
34.751192506936064	2.0264897	1.4235483
34.76955774304408	1.9930968	1.4117708
34.7879239007265	2.0564084	1.4340183
34.80629098059391	2.107031	1.4515616
34.824658983257194	2.0924869	1.4465431
34.843027909327446	2.0867195	1.4445482
34.86139775941603	2.0427463	1.4292468
34.879768534134534	2.064619	1.4368782
34.89814023409483	2.0106392	1.4179701
34.91651285990901	1.9983959	1.4136463
34.93488641218944	1.8999723	1.3783948
34.95326089154871	1.9655042	1.4019644
34.97163629859967	2.0531085	1.4328672
34.99001263395542	2.0563157	1.433986
35.00838989822934	1.9575378	1.3991203
35.02676809203499	1.7730888	1.3315738
35.04514721598624	1.762451	1.3275734
35.063527270697215	1.7505422	1.3230805
35.081908256782256	1.7569352	1.3254943
35.10029017485597	1.899483	1.3782173
35.11867302553321	1.8016269	1.342247
35.137056809429104	1.7883443	1.3372899
35.155441527159006	1.9362886	1.3915058
35.173827179338524	2.2738094	1.5079156
35.19221376658354	2.2838395	1.5112377
35.21060128951017	2.0961099	1.4477948
35.2289897487348	1.924014	1.3870883
35.24737914487405	1.9160635	1.3842195
35.26576947854479	2.085062	1.4439744
35.28416075036418	2.2658048	1.505259
35.30255296094958	2.1570427	1.4686874
35.32094611091867	2.0103543	1.4178696
35.33934020088932	2.05106	1.4321523
35.35773523147969	2.2559526	1.5019829
35.3761312033082	2.3200042	1.523156
35.394528116993506	2.1769445	1.4754472
35.41292597315452	2.310224	1.5199422
35.431324772410434	2.4158876	1.5543126
35.449724515380666	2.0838175	1.4435434
35.46812520268491	1.9855816	1.4091067
35.486526834943106	2.5520935	1.5975273
35.504929412775454	2.5654376	1.6016983
35.52333293680242	1.9411315	1.393245
35.54173740764471	1.9214568	1.3861662
35.560142825923286	1.8809412	1.371474
35.5785491922594	1.839943	1.356445
35.59695650727454	1.7063227	1.3062629
35.61536477159042	1.4327071	1.1969575
