0.008763373481513119	0.0	0.0
0.026290120649546365	0.11242709	0.3353015
0.043816868432600686	0.25303888	0.5030297
0.06134361724069026	0.19443232	0.4409448
0.07887036748382949	0.20683035	0.45478606
0.0963971195720331	0.09079036	0.30131438
0.11392387391531617	0.124719664	0.35315672
0.1314506309236943	0.15675284	0.39592025
0.1489773910071836	0.18912941	0.43489012
0.16650415457580078	0.18313968	0.42794824
0.18403092203956356	0.17253672	0.41537538
0.20155769380849	0.1810657	0.42551816
0.2190844702925996	0.1712395	0.41381094
0.2366112519019124	0.18790983	0.43348566
0.2541380390464497	0.17240387	0.41521546
0.27166483213623416	0.21462846	0.4632801
0.28919163158128947	0.23339088	0.48310545
0.3067184377916406	0.22625184	0.47565937
0.324245251177314	0.16027205	0.4003399
0.34177207214833777	0.14205664	0.376904
0.3592989011147415	0.1532724	0.3915002
0.37682573848655654	0.16515005	0.40638658
0.39435258467381573	0.14334154	0.37860474
0.41187944008655414	0.15099338	0.38857865
0.42940630513480854	0.12620197	0.35524917
0.446933180228618	0.11631831	0.3410547
0.4644600657780234	0.093648165	0.30601987
0.48198696219306775	0.12035391	0.3469206
0.49951386988379676	0.14642297	0.38265255
0.5170407892602581	0.13713636	0.37031925
0.5345677207325025	0.1132108	0.33646813
0.5520946647105822	0.071487	0.26737052
0.5696216216045534	0.08404193	0.28989986
0.5871485918244737	0.14203791	0.3768792
0.6046755757804043	0.16537404	0.40666208
0.6222025738824094	0.17315057	0.41611364
0.6397295865405557	0.15836664	0.39795306
0.6572566141649129	0.13588248	0.36862242
0.6747836571655547	0.13740158	0.3706772
0.6923107159525568	0.1677971	0.40963045
0.7098377909359992	0.196979	0.44382316
0.7273648825259653	0.2190483	0.46802598
0.7448919911325411	0.1899135	0.43579066
0.762419117165817	0.18095179	0.42538428
0.7799462610358868	0.1777114	0.4215583
0.7974734231528482	0.2049297	0.4526916
0.8150006039268024	0.20436521	0.4520677
0.8325278037678551	0.20716478	0.45515358
0.8500550230861152	0.19623998	0.44298983
0.8675822622916969	0.19467938	0.44122487
0.8851095217947171	0.17844294	0.42242506
0.9026368020052984	0.17303567	0.41597557
0.9201641033335665	0.1423439	0.37728488
0.9376914261896523	0.19096649	0.43699712
0.9552187709836915	0.24675715	0.49674657
0.9727461381258234	0.30870795	0.55561495
0.990273528026193	0.32096726	0.5665397
1.0078009410949496	0.2532438	0.5032334
1.0253283777422473	0.21291505	0.46142718
1.0428558383782454	0.19125786	0.4373304
1.0603833234131086	0.23418087	0.4839224
1.0779108332570058	0.30022052	0.5479238
1.0954383683201119	0.35412276	0.59508216
1.112965929012607	0.42377338	0.6509788
1.1304935157446763	0.5325645	0.7297702
1.1480211289265108	0.5602549	0.7485018
1.1655487689683062	1.4802142	1.2166406
1.1830764362802655	1.8005606	1.3418497
1.200604131272596	2.1776009	1.4756696
1.2181318543555117	2.4413023	1.5624667
1.235659605939232	2.465405	1.5701609
1.253187386433982	4.0521474	2.0129945
1.270715196249994	6.4167542	2.5331314
1.2882430357975057	11.91196	3.4513707
1.3057709054867608	16.632824	4.078336
1.3232988057280106	22.623226	4.7563877
1.3408267369315112	27.437302	5.238063
1.358354699507526	31.1488	5.581111
1.3758826938663256	35.10145	5.924648
1.3934107204181858	36.697136	6.057816
1.410938779573391	37.402332	6.1157446
1.4284668717422309	37.960533	6.161212
1.4459949973350033	37.539795	6.1269727
1.4635231567620117	37.44059	6.1188717
1.4810513504335687	36.601006	6.0498767
1.4985795787599925	35.715122	5.976213
1.5161078421516088	35.37048	5.9473085
1.5336361410187505	34.731144	5.8933134
1.5511644757717598	34.888935	5.906686
1.5686928468209842	35.59964	5.966543
1.58622125457678	36.4869	6.0404387
1.6037496994495108	37.866108	6.1535444
1.621278181849548	37.69943	6.139986
1.6388067021872719	38.632484	6.2155037
1.6563352608730693	37.848587	6.1521206
1.673863858317336	37.367306	6.11288
1.6913924949304753	36.277176	6.0230536
1.7089211711228998	34.97778	5.9142017
1.7264498873050296	33.96892	5.828286
1.7439786438872935	33.011116	5.74553
1.7615074412801288	32.15322	5.670381
1.779036279893981	31.486526	5.6112857
1.796565160139305	30.306168	5.5051036
1.814094082426564	29.623365	5.442735
1.8316230471662298	28.726372	5.359699
1.849152054768784	27.972828	5.2889347
1.8666811056447168	27.013634	5.197464
1.8842102002045273	26.430347	5.1410456
1.901739338858724	26.261389	5.1245866
1.9192685220178245	25.732964	5.072767
1.9367977500923557	25.022404	5.0022397
1.9543270234928547	24.686539	4.968555
1.971856342629867	24.285683	4.9280505
1.9893857079139496	23.786074	4.8770967
2.006915119755667	22.955568	4.791197
2.0244445785655945	22.269041	4.7190084
2.0419740847543175	21.644672	4.6523833
2.0595036387324317	21.33817	4.6193256
2.0770332409105414	20.931786	4.5751266
2.094562891699263	20.792791	4.5599113
2.1120925915092217	20.320175	4.5077906
2.129622340751053	20.052198	4.477968
2.1471521398354043	188.12373	13.71582
2.1646819891729323	444.42886	21.081482
2.182211889174303	440.7291	20.99355
2.1997418402501974	453.1588	21.287527
2.2172718428113023	433.10022	20.81106
2.234801897268317	320.71997	17.908657
2.2523320040319548	17.017506	4.125228
2.269862163512935	16.617266	4.076428
2.287392376121992	16.249802	4.031104
2.304922642269869	15.8998575	3.9874625
2.322452962367322	15.79269	3.974002
2.3399833368251164	15.584579	3.947731
2.357513766054032	15.517681	3.9392488
2.3750442504648586	15.175751	3.8956065
2.3925747904683963	14.889056	3.858634
2.410105386475459	14.688489	3.8325565
2.4276360388968707	14.445372	3.8007066
2.445166748143469	14.356755	3.789031
2.4626975146261025	14.205159	3.768973
2.4802283387556323	13.9887295	3.740151
2.4977592209429305	13.787691	3.713178
2.5152901615988825	13.404872	3.6612663
2.5328211611343865	13.017041	3.6079137
2.5503522199603523	12.611671	3.5512915
2.5678833384877024	12.334624	3.5120683
2.5854145171273712	12.149464	3.485608
2.6029457562903064	12.026565	3.4679337
2.620477056387469	11.858762	3.4436553
2.6380084178298326	11.727045	3.4244773
2.655539841028383	11.526634	3.3950896
2.673071326394119	11.494701	3.3903837
2.6906028743380523	11.34072	3.3675985
2.708134485271211	11.098441	3.3314323
2.7256661596046325	10.787995	3.2845085
2.743197897749369	10.633537	3.2609105
2.760729700116486	10.550657	3.2481775
2.778261567117063	10.406796	3.2259567
2.795793499162193	10.261189	3.203309
2.8133254966629817	10.134943	3.1835425
2.830857560030551	9.9972515	3.161843
2.8483896896760337	9.766014	3.1250622
2.865921886010578	9.525039	3.086266
2.883454149445347	9.452102	3.0744271
2.9009864803915177	9.363534	3.0599892
2.91851887926028	9.247719	3.0410063
2.9360513464628384	9.091813	3.0152633
2.953583882410413	9.084728	3.0140884
2.9711164875142373	8.978891	2.9964797
2.9886491621855606	8.874092	2.9789414
3.0061819068356455	8.73086	2.9548028
3.023714721875769	8.726801	2.9541159
3.041247607717225	8.644457	2.9401457
3.0587805647713213	8.400421	2.898348
3.0763135934493806	8.162578	2.8570225
3.0938466941627407	7.9018807	2.8110285
3.1113798673227544	7.825548	2.797418
3.1289131133407904	7.8240137	2.797144
3.1464464326282315	7.7249227	2.7793746
3.1639798255964786	7.610053	2.7586324
3.1815132926569443	7.445548	2.7286532
3.1990468342210603	7.4680085	2.7327657
3.216580450700272	7.5368166	2.7453263
3.2341141425060416	7.4682536	2.7328105
3.251647910049847	7.3908916	2.7186193
3.2691817537431813	7.343938	2.70997
3.286715673997555	7.2971725	2.701328
3.3042496712244938	7.24475	2.6916072
3.32178374583554	7.1604943	2.67591
3.339317898242251	7.031809	2.6517558
3.3568521288562034	6.899508	2.6266913
3.3743864380889876	6.7917004	2.606089
3.3919208263522127	6.6527553	2.5792935
3.4094552940575023	6.597968	2.568651
3.4269898416164972	6.565702	2.5623627
3.444524469440858	6.6229606	2.5735114
3.4620591779422587	6.5885706	2.566821
3.479593967532391	6.5965886	2.5683825
3.4971288386229658	6.4419346	2.5380967
3.5146637916257086	6.3365326	2.517247
3.5321988269523628	6.1601024	2.4819553
3.5497339450146903	6.120975	2.4740605
3.5672691462244708	6.184781	2.486922
3.5848044309934988	6.2613726	2.5022736
3.60233979973359	6.3092175	2.5118155
3.619875252856575	6.374585	2.524794
3.6374107907743034	6.382403	2.526342
3.6549464138986427	6.326575	2.5152683
3.6724821226414788	6.19775	2.4895282
3.690017917414714	6.151581	2.480238
3.7075537986302702	6.1906567	2.488103
3.7250897667000857	6.2986326	2.5097077
3.7426258220361235	6.41576	2.5329351
3.7601619650503553	6.701754	2.5887747
3.777698196154779	7.133109	2.670788
3.7952345157614067	8.286026	2.8785458
3.8127709242822716	9.133896	3.0222335
3.830307422129425	11.376088	3.3728456
3.847844009714936	30.167192	5.492467
3.8653806874508954	97.65085	9.8818445
3.882917455749409	96.91845	9.844717
3.900454315022606	96.62491	9.829797
3.917991265682631	41.1142	6.4120355
3.9355283081416506	10.730508	3.2757454
3.9530654428118495	8.599786	2.9325392
3.970602670105433	7.417542	2.7235165
3.9881399904346244	6.5028834	2.5500753
4.005677404211669	6.463188	2.5422802
4.023214911848827	6.414812	2.532748
4.0407525137583855	6.4184413	2.5334642
4.058290210352644	6.4804773	2.5456781
4.075828002043927	6.416844	2.533149
4.0933658892445814	6.3693933	2.5237658
4.110903872366966	6.259271	2.5018535
4.128441951823468	6.0556517	2.4608233
4.145980128026488	6.0689983	2.4635336
4.163518401388452	6.0751305	2.464778
4.181056772321807	6.199314	2.4898422
4.1985952412390155	6.277768	2.5055475
4.216133808552567	6.2801085	2.5060143
4.233672474674966	6.197463	2.4894705
4.251211240018741	6.349722	2.5198655
4.268750104996445	6.61599	2.5721567
4.286289070020643	7.5840592	2.753917
4.303828135503928	9.120047	3.0199416
4.3213673018589125	29.382734	5.420584
4.3389065694982305	90.5776	9.517226
4.356445938834537	165.8958	12.880054
4.3739854102805085	171.30403	13.088317
4.391524984248844	172.15862	13.120923
4.409064661152262	136.09119	11.6658125
4.426604441403504	96.45568	9.821185
4.444144325415337	75.62653	8.696352
4.461684313600543	21.761219	4.664892
4.47922440637193	21.9802	4.6883044
4.496764604142329	20.182516	4.4924955
4.5143049073245916	18.369267	4.2859383
4.531845316331589	16.34382	4.042749
4.5493858315762195	13.481778	3.6717541
4.566926453471405	11.04251	3.3230271
4.584467182430081	9.017093	3.0028474
4.602008018865218	8.029855	2.8337
4.619548963189798	7.496816	2.7380314
4.637090015816834	6.948893	2.6360753
4.654631177159353	6.715378	2.5914047
4.672172447630417	6.445825	2.538863
4.689713827643102	6.301149	2.5102088
4.7072553176105085	6.0892973	2.4676502
4.724796917945764	5.910733	2.4312
4.742338629062015	5.815077	2.411447
4.759880451372434	5.8514094	2.4189687
4.777422385290215	5.7704506	2.4021761
4.794964431228581	5.775768	2.4032826
4.812506589600768	5.6725197	2.3817053
4.830048860820047	5.6104326	2.3686352
4.847591245299709	5.5227375	2.3500504
4.8651337434530655	5.512611	2.347895
4.882676355693457	5.513167	2.3480134
4.900219082434242	5.6242285	2.3715456
4.917761924088813	5.716928	2.3910098
4.935304881070575	5.7060747	2.388739
4.952847953792969	5.651903	2.3773732
4.970391142669449	5.5333753	2.3523128
4.9879344481135055	5.430195	2.330278
5.005477870538642	5.39391	2.3224792
5.023021410358394	5.417291	2.3275075
5.040565067986324	5.4421043	2.3328319
5.05810884383601	5.4166894	2.3273783
5.075652738321066	5.3406687	2.3109887
5.09319675185512	5.3157024	2.3055806
5.110740884851836	5.2785616	2.297512
5.128285137724894	5.32844	2.3083415
5.145829510888007	5.328481	2.3083503
5.163374004754908	5.428579	2.329931
5.1809186197393595	5.4237523	2.328895
5.198463356255145	5.461004	2.336879
5.216008214716077	5.3512607	2.3132792
5.233553195535998	5.27196	2.2960749
5.251098299128764	5.220952	2.2849402
5.268643525908272	5.249139	2.2911
5.286188876288432	5.341639	2.3111987
5.3037343506831895	5.4194303	2.327967
5.32127994950651	5.300123	2.3021996
5.3388256731723915	5.2817245	2.2982004
5.356371522094851	5.2311287	2.287166
5.373917496687938	5.2115035	2.2828717
5.391463597365729	5.154842	2.2704277
5.40900982454232	5.1199884	2.2627392
5.426556178631843	5.211236	2.282813
5.444102660048449	5.2095532	2.2824445
5.4616492692063225	5.1691294	2.273572
5.479196006519669	5.131579	2.2652988
5.496742872402727	5.1554165	2.2705543
5.514289867269756	5.2034144	2.2810993
5.531836991535049	5.1641808	2.2724833
5.549384245612924	5.1144977	2.2615256
5.566931629917724	5.032249	2.2432675
5.584479144863822	5.0068955	2.2376094
5.6020267908656205	5.1081724	2.2601266
5.619574568337545	5.100947	2.2585275
5.637122477694054	5.127112	2.2643127
5.654670519349629	5.0988126	2.258055
5.672218693718784	5.062244	2.249943
5.689767001216059	5.0794163	2.253756
5.707315442256021	4.998466	2.235725
5.724864017253266	5.017926	2.2400727
5.7424127266224225	5.0639887	2.2503307
5.75996157077814	5.110763	2.2606997
5.777510550135105	5.141295	2.2674425
5.795059665108022	5.2159977	2.283856
5.812608916111639	5.2717576	2.2960308
5.830158303560715	5.497319	2.3446362
5.847707827870055	5.4464564	2.3337643
5.86525748945448	5.436897	2.3317153
5.8828072887288485	5.4855485	2.3421247
5.900357226108044	5.56624	2.359288
5.917907302006979	5.7175703	2.391144
5.9354575168406	6.3406615	2.5180671
5.9530078710238765	7.000429	2.6458323
5.970558364971812	7.565406	2.7505283
5.988108999099438	7.8011765	2.7930586
6.005659773821818	8.302114	2.8813388
6.023210689554039	8.03671	2.8349092
6.040761746711227	8.5547	2.924842
6.058312945708531	8.006719	2.8296146
6.075864286961132	7.5315685	2.7443702
6.093415770884244	6.8114643	2.6098783
6.1109673978931065	6.2116017	2.4923086
6.128519168402993	5.5899763	2.3643131
6.146071082829204	5.466283	2.3380084
6.163623141587075	5.3578954	2.3147128
6.181175345091969	5.27904	2.2976162
6.198727693759281	5.2291822	2.2867405
6.216280188004435	5.2430167	2.2897635
6.233832828242885	5.2298117	2.286878
6.251385614890126	5.2568436	2.2927806
6.268938548361669	5.1933284	2.2788875
6.286491629073067	5.1281977	2.2645524
6.304044857439898	5.109967	2.2605236
6.321598233877777	5.0416617	2.2453644
6.339151758802344	5.1174836	2.2621856
6.356705432629277	5.041325	2.2452896
6.37425925577428	5.0215898	2.2408905
6.391813228653095	4.971926	2.2297816
6.409367351681486	5.0339303	2.243642
6.426921625275259	5.0938563	2.2569573
6.44447604985025	5.0746665	2.252702
6.46203062582232	5.0273786	2.2421815
6.47958535360737	4.9441586	2.2235465
6.497140233621328	4.9503016	2.2249274
6.514695266280161	4.9111066	2.2161016
6.532250451999859	4.92364	2.2189276
6.549805791196454	4.9556975	2.2261395
6.567361284286002	4.982646	2.2321842
6.584916931684597	5.0529547	2.2478778
6.602472733808367	5.1056776	2.2595747
6.6200286910734665	5.042556	2.2455635
6.637584803896092	4.980187	2.2316332
6.655141072692462	4.968131	2.2289305
6.672697497878842	4.9843054	2.2325559
6.690254079871514	4.9899416	2.2338178
6.707810819086808	4.9433174	2.2233572
6.725367715941078	4.91103	2.2160842
6.742924770850719	4.942839	2.2232497
6.760481984232151	5.000107	2.2360919
6.778039356501836	5.066219	2.2508264
6.795596888076266	5.008913	2.23806
6.813154579371963	4.9808164	2.2317743
6.830712430805492	4.959793	2.2270594
6.84827044279344	4.9765096	2.2308092
6.865828615752445	5.0218625	2.2409513
6.883386950099159	5.106191	2.2596884
6.900945446250287	5.0591784	2.2492616
6.918504104622553	5.0244293	2.241524
6.936062925632727	5.045162	2.2461438
6.953621909697607	5.0935493	2.2568893
6.971181057234028	5.142441	2.267695
6.988740368658859	5.1499147	2.2693424
7.006299844389007	5.1549134	2.2704434
7.023859484841407	5.192279	2.2786572
7.041419290433036	5.2883945	2.299651
7.058979261580902	5.427271	2.3296504
7.0765393987020495	5.7167234	2.3909671
7.094099702213559	6.07008	2.4637532
7.111660172532549	6.3576865	2.5214453
7.129220810076164	6.679323	2.5844386
7.146781615261595	7.2462792	2.6918914
7.16434258850606	7.5238914	2.7429712
7.181903730226821	8.035949	2.834775
7.1994650408411704	8.155135	2.8557198
7.217026520766437	8.30874	2.8824885
7.234588170419983	8.512292	2.9175832
7.252149990219215	8.578003	2.9288228
7.269711980581568	8.513971	2.917871
7.2872741419245175	8.276872	2.8769553
7.304836474665574	7.8103313	2.794697
7.322398979222286	7.4549356	2.7303727
7.339961656012233	7.2169905	2.6864457
7.357524505453039	6.9373965	2.6338937
7.375087527962357	6.6552224	2.5797718
7.392650723957886	6.2932053	2.5086262
7.410214093857353	5.8299575	2.4145305
7.427777638078528	5.5698137	2.3600452
7.445341357039213	5.445677	2.3335974
7.4629052511572525	5.316719	2.3058012
7.480469320850524	5.284568	2.2988188
7.498033566536948	5.249212	2.2911158
7.5155979886344735	5.286897	2.2993255
7.5331625875610975	5.2715473	2.295985
7.550727363734844	5.2691784	2.295469
7.568292317573788	5.250988	2.2915034
7.585857449496025	5.2311044	2.2871609
7.603422759919705	5.19979	2.280305
7.620988249263007	5.2182364	2.2843459
7.638553917944147	5.2164173	2.2839477
7.656119766381391	5.236623	2.2883668
7.673685794993023	5.248805	2.291027
7.691252004197388	5.2617097	2.2938416
7.70881839441285	5.2993345	2.3020284
7.726384966057826	5.353386	2.3137386
7.743951719550762	5.417899	2.3276381
7.761518655310149	5.391295	2.3219163
7.779085773754511	5.360481	2.3152711
7.796653075302419	5.3353815	2.3098445
7.814220560372475	5.3410163	2.311064
7.831788229383323	5.3619676	2.3155923
7.8493560827536495	5.3437634	2.3116581
7.866924120902174	5.350224	2.313055
7.884492344247663	5.297404	2.301609
7.9020607532089135	5.3381586	2.3104455
7.919629348204771	5.344653	2.3118505
7.937198129654115	5.400589	2.3239167
7.954767097975865	5.3924227	2.322159
7.972336253588986	5.437883	2.3319268
7.989905596912472	5.4096193	2.3258588
8.007475128365371	5.4864025	2.342307
8.025044848366756	5.49246	2.3435998
8.042614757335754	5.576948	2.3615563
8.060184855691523	5.635711	2.3739653
8.07775514385327	5.7449636	2.3968654
8.095325622240228	5.82227	2.412938
8.112896291271687	5.9050922	2.4300396
8.130467151366968	5.979579	2.4453177
8.148038202945436	6.0043917	2.450386
8.165609446426497	6.012392	2.452018
8.183180882229594	6.085368	2.4668539
8.200752510774217	6.0896735	2.4677265
8.218324332479893	6.119394	2.4737408
8.235896347766193	6.071276	2.463996
8.253468557052724	6.003945	2.450295
8.27104096075914	6.0281725	2.4552338
8.288613559305137	6.0854707	2.4668746
8.306186353110448	6.17851	2.485661
8.32375934259485	6.2764096	2.5052764
8.341332528178162	6.294482	2.5088806
8.358905910280246	6.308901	2.5117526
8.376479489321003	6.2579165	2.5015829
8.394053265720377	6.295193	2.5090225
8.411627239898356	6.2721996	2.504436
8.42920141227497	6.3242536	2.5148067
8.44677578327029	6.3232503	2.5146074
8.464350353304427	6.2461514	2.4992301
8.48192512279754	6.1788883	2.485737
8.499500092169827	6.123768	2.4746249
8.51707526184153	6.120218	2.4739075
8.534650632232934	6.1783414	2.485627
8.552226203764365	6.1802382	2.4860084
8.569801976856192	6.196488	2.4892745
8.587377951928834	6.242018	2.498403
8.60495412940274	6.2522297	2.5004458
8.622530509698416	6.312872	2.512543
8.6401070932364	6.4027414	2.5303638
8.657683880437283	6.4680123	2.5432286
8.675260871721695	6.5961714	2.5683012
8.692838067510303	6.7883782	2.6054516
8.710415468223834	7.03247	2.6518805
8.727993074283043	7.19834	2.6829722
8.745570886108737	7.136189	2.6713645
8.763148904121765	7.092015	2.6630838
8.78072712874302	7.112435	2.666915
8.798305560393441	7.428222	2.7254765
8.815884199494006	7.6561236	2.7669702
8.833463046465745	7.819234	2.7962892
8.851042101729728	7.918198	2.8139293
8.86862136570707	8.17753	2.8596382
8.886200838818924	8.364432	2.8921328
8.903780521486505	8.384499	2.8955998
8.921360414131055	8.468994	2.9101536
8.938940517173874	8.569448	2.927362
8.956520831036297	8.778379	2.962833
8.97410135613971	9.084422	3.0140376
8.99168209290554	9.4548	3.0748658
9.009263041755265	9.672113	3.110002
9.026844203110405	9.840819	3.137008
9.044425577392525	9.944278	3.1534548
9.062007165023239	10.046741	3.1696594
9.079588966424197	10.35256	3.2175395
9.097170982017108	10.484599	3.237993
9.11475321222372	11.496029	3.3905795
9.132335657465825	12.3604555	3.515744
9.149918318165264	12.54453	3.5418258
9.167501194743924	13.067054	3.614838
9.18508428762374	12.675913	3.560325
9.202667597226693	12.667087	3.5590851
9.220251123974803	12.495087	3.534839
9.237834868290143	12.175502	3.4893413
9.255418830594836	11.973351	3.460253
9.273003011311046	11.370243	3.371979
9.290587410860985	11.157354	3.3402627
9.308172029666911	10.553136	3.248559
9.32575686815113	10.265772	3.2040243
9.343341926735997	8.901204	2.9834886
9.360927205843916	8.578588	2.9289227
9.378512705897327	8.354364	2.8903918
9.396098427318728	8.142467	2.8535008
9.413684370530664	8.066948	2.8402374
9.431270535955722	7.951876	2.8199072
9.448856924016539	7.8781466	2.8068037
9.466443535135806	7.8453574	2.8009565
9.484030369736251	7.816035	2.7957172
9.501617428240658	7.7699184	2.7874572
9.519204711071852	7.7584476	2.785399
9.536792218652714	7.798385	2.792559
9.55437995140617	7.850335	2.8018448
9.571967909755191	7.853376	2.8023875
9.589556094122802	7.8311615	2.7984211
9.60714450493207	7.8912625	2.809139
9.624733142606116	7.9603777	2.8214142
9.642322007568108	8.011035	2.830377
9.659911100241267	8.014694	2.8310235
9.677500421048851	8.0386305	2.8352478
9.695089970414175	7.9926276	2.8271236
9.712679748760609	7.987739	2.826259
9.730269756511557	8.02631	2.8330743
9.747859994090492	8.125373	2.850504
9.765450461920915	8.187067	2.8613052
9.78304116042639	8.273228	2.8763218
9.800632090030527	8.2232895	2.8676279
9.81822325115699	8.232962	2.8693137
9.835814644229481	8.274148	2.8764818
9.853406269671762	8.28458	2.8782947
9.870998127907646	8.314599	2.8835046
9.888590219360985	8.329796	2.8861387
9.906182544455698	8.385419	2.8957589
9.923775103615734	8.431284	2.9036672
9.941367897265108	8.4604645	2.9086878
9.958960925827878	8.472133	2.910693
9.97655418972816	8.410324	2.900056
9.994147689390106	8.394772	2.8973732
10.011741425237934	8.346779	2.8890793
10.029335397695904	8.332101	2.8865378
10.04692960718833	8.344235	2.888639
10.06452405413958	8.337608	2.8874917
10.082118738974064	8.346543	2.8890386
10.099713662116246	8.247856	2.8719082
10.117308823990651	8.231346	2.8690321
10.134904225021844	8.272923	2.876269
10.152499865634445	8.308675	2.8824773
10.170095746253125	8.295294	2.880155
10.18769186730261	8.248838	2.8720791
10.205288229207675	8.216011	2.8663585
10.222884832393145	8.211902	2.8656416
10.2404816772839	8.219783	2.8670163
10.258078764304868	8.22269	2.8675232
10.275676093881035	8.183833	2.86074
10.293273666437438	8.150766	2.8549547
10.310871482399158	8.186671	2.8612359
10.32846954219134	8.153429	2.855421
10.346067846239173	8.1318	2.8516312
10.363666394967908	8.087724	2.8438923
10.38126518880283	8.135738	2.8523216
10.398864228169298	8.154082	2.8555353
10.416463513492713	8.174424	2.859095
10.434063045198531	8.147805	2.8544362
10.451662823712262	8.140164	2.8530974
10.469262849459467	8.180333	2.8601282
10.486863122865758	8.042342	2.8359025
10.504463644356806	8.056833	2.8384562
10.522064414358338	8.008343	2.8299015
10.539665433296118	7.9608884	2.8215046
10.557266701595987	7.9452734	2.818736
10.574868219683818	7.8276687	2.7977972
10.592469987985552	7.787606	2.7906282
10.610072006927185	7.605742	2.757851
10.627674276934751	7.5204964	2.7423522
10.64527679843435	7.452099	2.7298532
10.662879571852143	7.312658	2.7041926
10.680482597614331	7.185121	2.6805077
10.698085876147173	7.06855	2.6586745
10.715689407876988	6.970894	2.640245
10.733293193230146	6.906852	2.628089
10.750897232633072	6.7843323	2.604675
10.76850152651225	6.624458	2.5738022
10.786106075294207	6.496119	2.5487485
10.803710879405534	6.4355764	2.5368438
10.821315939272877	6.4014983	2.5301182
10.83892125532294	6.4054728	2.5309036
10.856526827982472	6.326826	2.5153184
10.874132657678285	6.3340316	2.51675
10.891738744837243	6.2477093	2.4995418
10.909345089886271	6.1819816	2.4863591
10.926951693252343	6.0993657	2.4696894
10.944558555362494	6.034817	2.4565866
10.96216567664381	6.000696	2.449632
10.979773057523436	6.0014296	2.4497814
10.997380698428573	5.957811	2.4408627
11.014988599786477	5.877855	2.4244287
11.032596762024461	5.7809954	2.40437
11.050205185569892	5.6701427	2.381206
11.067813870850198	5.6098347	2.368509
11.085422818292859	5.532101	2.352042
11.10303202832541	5.4999433	2.3451958
11.120641501375454	5.37759	2.318963
11.138251237870636	5.2870207	2.2993522
11.155861238238671	5.225226	2.2858753
11.173471502907317	5.1758766	2.2750554
11.191082032304402	5.1352577	2.2661107
11.208692826857805	5.06718	2.2510397
11.226303886995465	5.0100164	2.2383065
11.243915213145371	5.000732	2.2362316
11.261526805735578	4.9010067	2.2138216
11.279138665194196	4.8455067	2.2012513
11.296750791949393	4.763315	2.182502
11.314363186429393	4.7428885	2.1778173
11.331975849062479	4.7278934	2.174372
11.34958878027699	4.667783	2.1605053
11.36720198050133	4.6316543	2.1521277
11.384815450163948	4.583472	2.1409044
11.402429189693366	4.5467362	2.1323078
11.420043199518153	4.472875	2.1149173
11.437657480066942	63.38474	7.9614534
11.455272031768422	85.1164	9.225855
11.472886855051353	107.50085	10.368261
11.490501950344528	99.11894	9.95585
11.508117318076819	84.41886	9.187974
11.52573295867715	45.808952	6.768231
11.543348872574514	4.117839	2.0292459
11.560965060197946	4.121669	2.0301893
11.57858152197655	4.080487	2.0200214
11.59619825833949	4.0366898	2.0091515
11.613815269715985	4.01735	2.0043328
11.631432556535323	38.53698	6.207816
11.649050119226837	83.115265	9.116757
11.666667958219929	93.509	9.670005
11.68428607394406	107.763725	10.380931
11.701904466828756	82.57747	9.087214
11.719523137303586	65.42965	8.08886
11.737142085798196	4.6718473	2.1614456
11.754761312742286	3.7626421	1.939753
11.772380818565619	3.6896448	1.9208448
11.790000603698015	3.6724875	1.9163735
11.80762066856935	3.583205	1.8929355
11.825241013609572	3.5796025	1.8919837
11.842861639248683	3.5098534	1.8734603
11.860482545916748	3.4607553	1.8603106
11.878103734043883	3.4307272	1.8522222
11.895725204060282	3.394703	1.842472
11.91334695639619	3.4004135	1.844021
11.930968991481919	3.411296	1.8469694
11.948591309747824	3.3843744	1.839667
11.966213911624347	3.37341	1.8366845
11.98383679754198	3.3325608	1.8255303
12.001459967931268	3.2948391	1.8151692
12.019083423222835	3.2535243	1.8037528
12.036707163847352	3.240052	1.8000145
12.05433119023556	3.2303526	1.7973182
12.071955502818259	3.2201116	1.794467
12.089580102026313	3.197924	1.788274
12.107204988290643	3.1639955	1.7787623
12.12483016204224	3.1315823	1.7696277
12.142455623712152	3.1428115	1.7727977
12.16008137373149	3.1366537	1.77106
12.177707412531431	3.127688	1.768527
12.19533374054321	3.1107957	1.7637448
12.212960358198126	3.1326237	1.7699219
12.230587265927545	3.1530364	1.7756791
12.248214464162889	3.0899713	1.7578315
12.265841953335649	3.0527058	1.7471994
12.283469733877375	3.042324	1.744226
12.301097806219685	3.0364406	1.7425386
12.31872617079425	2.9874182	1.7284149
12.336354828032825	2.9468145	1.7166288
12.353983778367205	2.9063718	1.7048085
12.371613022229262	2.8936615	1.7010766
12.389242560050928	2.881043	1.6973635
12.406872392264201	2.8958178	1.7017102
12.424502519301143	2.860331	1.6912513
12.442132941593874	2.8700533	1.6941231
12.459763659574586	2.8463295	1.6871068
12.477394673675532	2.8605132	1.6913052
12.49502598432903	2.8616989	1.6916556
12.51265759196746	2.863214	1.6921034
12.530289497023267	2.8538597	1.689337
12.547921699928967	2.8521454	1.6888297
12.565554201117134	2.8488867	1.6878645
12.583187001020404	2.8370287	1.6843481
12.600820100071486	2.795332	1.6719246
12.618453498703152	2.7953842	1.6719402
12.636087197348235	2.793647	1.6714207
12.65372119643964	2.8359718	1.6840343
12.671355496410326	2.840167	1.6852795
12.68899009769333	2.879239	1.6968321
12.706625000721749	2.8830483	1.6979542
12.724260205928752	2.916031	1.707639
12.741895713747551	2.9466527	1.7165817
12.759531524611454	3.0252137	1.7393142
12.777167638953818	3.0353403	1.7422228
12.794804057208072	3.0024726	1.7327645
12.812440779807702	3.012594	1.7356826
12.830077807186271	3.1748416	1.7818085
12.847715139777405	3.2205434	1.7945873
12.865352778014795	3.4547975	1.8587085
12.882990722332197	3.5851195	1.8934412
12.90062897316344	3.667223	1.9149995
12.918267530942412	3.7746072	1.9428349
12.935906396103071	3.655787	1.9120113
12.953545569079449	3.8150527	1.953216
12.971185050305628	3.6347167	1.9064933
12.988824840215775	3.6384375	1.9074689
13.006464939244115	3.6510358	1.9107684
13.024105347824943	3.4935477	1.8691034
13.041746066392617	3.6271558	1.9045093
13.05938709538157	3.4621658	1.8606896
13.077028435226296	3.4770412	1.8646826
13.094670086361363	3.3652034	1.834449
13.112312049221401	3.2528105	1.803555
13.129954324241112	3.1552668	1.7763071
13.147596911855258	2.9285138	1.7112901
13.165239812498685	2.8558776	1.6899343
13.182883026606293	2.7683854	1.6638466
13.200526554613058	2.7337248	1.6533979
13.218170396954017	2.715614	1.647912
13.235814554064284	2.7345297	1.6536413
13.253459026379034	2.7548852	1.6597847
13.271103814333523	2.7535095	1.6593702
13.288748918363058	2.7279212	1.651642
13.306394338903031	2.739316	1.655088
13.32404007638889	2.7069278	1.6452744
13.341686131256164	2.7039814	1.6443788
13.359332503940449	2.6417727	1.6253531
13.376979194877402	2.6201847	1.6186985
13.394626204502751	2.677982	1.6364541
13.412273533252307	2.714642	1.6476171
13.429921181561937	2.7119153	1.6467894
13.447569149867581	2.7122893	1.6469029
13.465217438605247	2.682638	1.637876
13.482866048211022	2.7033772	1.644195
13.500514979121052	2.7244954	1.6506046
13.518164231771568	2.7275798	1.6515386
13.535813806598844	2.6784146	1.6365863
13.553463704039254	2.6762855	1.6359357
13.571113924529229	2.7138915	1.6473893
13.588764468505275	2.7396696	1.6551948
13.606415336403956	2.8028162	1.6741613
13.624066528661917	2.8215885	1.6797584
13.641718045715882	2.8572266	1.6903332
13.659369888002635	2.8509212	1.6884671
13.67702205595903	2.8906095	1.7001792
13.694674550021993	2.9802237	1.7263324
13.712327370628532	3.0594378	1.7491249
13.729980518215713	3.1827805	1.7840348
13.747633993220681	3.2590778	1.8052917
13.765287796080647	3.2673779	1.8075889
13.7829419272329	3.2801917	1.8111299
13.800596387114801	3.312762	1.8200995
13.818251176163775	3.3977733	1.843305
13.835906294817324	3.4468791	1.8565773
13.853561743513023	3.5109816	1.8737613
13.871217522688525	3.560794	1.8870066
13.888873632781538	3.6006339	1.8975337
13.906530074229858	3.6088667	1.8997017
13.92418684747135	3.5740287	1.8905102
13.941843952943948	3.5512874	1.884486
13.959501391085665	3.5292695	1.878635
13.977159162334578	3.42432	1.8504919
13.994817267128846	3.38859	1.8408123
14.012475705906693	3.2834165	1.8120201
14.030134479106424	3.1977453	1.7882241
14.047793587166414	3.136504	1.7710178
14.065453030525108	3.064936	1.7506958
14.083112809621026	3.02657	1.739704
14.100772924892766	3.0015774	1.7325062
14.118433376778997	2.9895358	1.7290274
14.136094165718458	2.9378107	1.7140043
14.153755292149969	2.8560648	1.6899896
14.171416756512416	2.7456264	1.6569932
14.189078559244768	2.6636233	1.6320611
14.20674070078606	2.6178572	1.6179794
14.224403181575408	2.5731616	1.6041077
14.242066002051999	2.5487487	1.5964801
14.259729162655093	2.4967637	1.5801151
14.277392663824022	2.465031	1.5700417
14.295056505998208	2.4071012	1.5514835
14.312720689617128	2.421	1.5559562
14.330385215120348	2.430827	1.5591109
14.348050082947497	2.4504144	1.56538
14.3657152935383	2.432792	1.559741
14.383380847332528	2.437934	1.5613885
14.401046744770051	2.437147	1.5611364
14.418712986290798	2.4647615	1.569956
14.436379572334793	2.441079	1.5623952
14.454046503342123	2.4412866	1.5624617
14.471713779752946	2.4115725	1.5529238
14.489381402007504	2.3875098	1.5451568
14.507049370546113	2.3412511	1.5301148
14.524717685809168	2.336326	1.5285045
14.542386348237134	2.3771548	1.5418024
14.560055358270553	2.4236188	1.5567976
14.577724716350051	2.4581442	1.567847
14.595394422916325	2.4403734	1.5621694
14.61306447841015	2.4685087	1.5711489
14.63073488327237	2.4796095	1.5746776
14.648405637943917	2.5034068	1.5822158
14.6660767428658	2.519799	1.5873874
14.683748198479094	2.5730271	1.6040658
14.701420005224954	2.606518	1.6144714
14.719092163544628	2.6770601	1.6361724
14.73676467387942	2.6916428	1.6406226
14.754437536670727	2.7178078	1.6485775
14.772110752360014	2.6790516	1.6367809
14.78978432138882	2.6717317	1.6345433
14.807458244198777	2.700236	1.6432395
14.82513252123159	2.6910794	1.640451
14.842807152929028	2.7295313	1.6521293
14.860482139732962	2.7183447	1.6487403
14.87815748208531	2.7502449	1.6583862
14.8958331804281	2.7706025	1.6645126
14.91350923520342	2.7418802	1.6558623
14.931185646853438	2.7583456	1.6608268
14.948862415820408	2.7173657	1.6484435
14.966539542546656	2.71585	1.6479837
14.98421702747459	2.6817188	1.6375954
15.001894871046696	2.6977224	1.6424745
15.019573073705542	2.6875563	1.6393768
15.037251635893766	2.6807268	1.6372925
15.054930558054092	2.7424607	1.6560377
15.072609840629323	2.8794024	1.6968802
15.090289484062351	3.0167053	1.7368665
15.107969488796124	3.436764	1.8538511
15.125649855273691	4.121782	2.0302172
15.14333058393817	5.1673408	2.2731786
15.161011675232768	6.5741444	2.5640094
15.17869312960076	8.757916	2.9593778
15.196374947485506	12.022008	3.4672768
15.214057129330447	16.431675	4.0536003
15.231739675579114	21.26074	4.610937
15.249422586675102	24.837198	4.983693
15.267105863062092	25.072048	5.0072
15.284789505183847	22.4983	4.7432375
15.302473513484218	18.793049	4.335095
15.320157888407127	15.431886	3.9283438
15.337842630396578	11.574546	3.4021385
15.355527739896656	8.6269245	2.9371626
15.37321321735153	6.3853993	2.5269349
15.39089906320545	4.7092204	2.1700737
15.408585277902748	3.677747	1.9177454
15.42627186188783	3.0501163	1.7464582
15.443958815605198	2.7837958	1.6684711
15.461646139499424	2.709655	1.646103
15.479333834015168	2.6445606	1.6262105
15.497021899597165	2.5995855	1.612323
15.514710336690234	2.5541704	1.5981772
15.53239914573928	2.570429	1.6032557
15.550088327189297	2.5877116	1.6086365
15.567777881485336	2.5766194	1.6051852
15.58546780907256	2.550262	1.596954
15.6031581103962	2.5349424	1.5921502
15.620848785901568	2.5401108	1.5937725
15.638539836034063	2.497273	1.5802763
15.656231261239173	2.4193819	1.5554363
15.673923061962451	2.3784766	1.5422311
15.691615238649552	2.4006102	1.5493903
15.709307791746202	2.4647436	1.5699502
15.727000721698221	2.4988887	1.5807874
15.744694028951498	2.492193	1.5786681
15.76238771395202	2.4594269	1.568256
15.780081777145844	2.4227242	1.5565103
15.797776218979125	2.389485	1.5457959
15.815471039898094	2.387858	1.5452695
15.833166240349064	2.4152439	1.5541055
15.850861820778437	2.4370213	1.5610962
15.868557781632699	2.4244459	1.5570632
15.886254123358412	2.420168	1.5556889
15.903950846402232	2.414601	1.5538987
15.921647951210897	2.399975	1.5491853
15.939345438231225	2.3962872	1.5479946
15.957043307910133	2.4142087	1.5537724
15.974741560694602	2.4507954	1.5655017
15.992440197031714	2.4423647	1.5628067
16.01013921736862	2.4274452	1.5580261
16.02783862215259	2.415229	1.5541008
16.045538411830933	2.4371076	1.5611238
16.06323858685107	2.4149077	1.5539973
16.080939147660512	2.4342487	1.5602078
16.09864009470684	2.4170492	1.5546862
16.11634142843774	2.396849	1.548176
16.134043149300954	2.4012764	1.5496053
16.15174525774433	2.38537	1.5444643
16.169447754215817	2.3983357	1.5486561
16.18715063916342	2.419496	1.555473
16.204853913035244	2.4603393	1.5685469
16.222557576279478	2.476049	1.5735466
16.240261629344403	22.434507	4.736508
16.257966072678386	42.98224	6.556084
16.275670906729868	38.10262	6.172732
16.293376131947387	2.5226164	1.5882746
16.31108174877957	2.5599084	1.5999714
16.328787757675133	2.5973573	1.6116319
16.34649415908287	2.6450086	1.6263483
16.364200953451657	2.6455817	1.6265244
16.38190814123048	2.64631	1.6267483
16.39961572286839	2.6737158	1.6351501
16.41732369881455	2.7219594	1.6498362
16.43503206951817	2.7302623	1.6523505
16.45274083542859	2.7556741	1.6600224
16.47044999699522	2.7738824	1.6654977
16.488159554667558	2.8755486	1.6957443
16.505869508895184	2.9180052	1.708217
16.523579860127786	2.9442265	1.7158748
16.541290608815117	2.953371	1.7185374
16.559001755407035	2.9578457	1.7198389
16.57671330035348	3.0310638	1.740995
16.59442524410448	3.165032	1.7790537
16.61213758711015	3.2672176	1.8075446
16.629850329820705	3.328966	1.8245454
16.647563472686436	3.3800585	1.8384936
16.665277016157724	3.4574652	1.859426
16.682990960685053	3.4925823	1.8688452
16.70070530671898	3.5248458	1.8774573
16.718420054710155	3.524093	1.8772568
16.736135205109335	3.5154738	1.8749597
16.753850758367335	3.590664	1.8949047
16.771566714935087	3.687073	1.9201752
16.789283075263597	3.7894018	1.9466386
16.80699983980398	3.8331819	1.9578513
16.82471700900741	3.827049	1.9562845
16.84243458332518	3.8887389	1.9719886
16.860152563208665	3.9910264	1.9977553
16.87787094910932	4.0780883	2.0194278
16.89558974147871	4.105377	2.026173
16.913308940768466	4.1525545	2.0377817
16.931028547430333	4.2706695	2.0665598
16.94874856191613	4.365202	2.0893066
16.966468984677785	4.429977	2.104751
16.98418981616729	4.411932	2.10046
17.00191105683676	4.439983	2.1071267
17.019632707138374	4.457529	2.1112862
17.03735476752442	4.5423656	2.1312826
17.05507723844728	4.549905	2.1330507
17.072800120359403	4.6201167	2.1494458
17.090523413713353	4.6181154	2.1489801
17.108247118961785	4.6438303	2.154955
17.125971236557437	4.679802	2.163285
17.143695766953133	4.738965	2.1769164
17.161420710601806	4.75035	2.1795297
17.179146067956477	4.7448254	2.178262
17.19687183947025	4.7444754	2.1781816
17.21459802559634	4.7518644	2.179877
17.232324626788028	4.730773	2.175034
17.25005164349871	4.7073917	2.1696525
17.267779076181863	4.683069	2.16404
17.285506925291074	4.722725	2.1731832
17.30323519127999	4.724923	2.173689
17.320963874602384	4.701851	2.1683753
17.33869297571211	4.63681	2.1533253
17.356422495063114	4.588663	2.1421165
17.37415243310944	4.5786424	2.1397762
17.391882790305218	4.6163006	2.148558
17.40961356710468	4.6172543	2.1487796
17.42734476396215	4.641503	2.1544147
17.445076381332044	4.667359	2.160407
17.462808419668868	4.894279	2.2123017
17.48054087942723	5.2170267	2.2840812
17.498273761061835	5.851652	2.4190187
17.51600706502747	6.820708	2.6116486
17.533740791779024	7.9843826	2.825665
17.551474941771485	10.208538	3.1950803
17.56920951545993	11.840812	3.4410481
17.586944513299528	13.927848	3.7320032
17.60467993574556	15.8477955	3.980929
17.622415783253373	17.893633	4.230087
17.64015205627843	19.490036	4.414752
17.657888755276293	20.45203	4.5223923
17.675625880702604	19.82063	4.4520364
17.69336343301311	18.361933	4.285083
17.71110141266366	15.597655	3.9493866
17.728839820110178	13.428622	3.6645083
17.746578655808705	11.389051	3.3747668
17.764317920215372	9.631788	3.1035123
17.7820576137864	8.022949	2.8324811
17.79979773697811	6.472037	2.54402
17.81753829024692	5.338517	2.310523
17.835279274049356	4.5042386	2.1223192
17.85302068884201	4.0884194	2.021984
17.870762535081607	3.8772595	1.9690758
17.888504813224934	3.738708	1.9335738
17.90624752372891	3.6336014	1.9062008
17.923990667050536	3.5700197	1.8894496
17.941734243646895	3.4934027	1.8690647
17.959478253975185	3.463511	1.8610511
17.9772226984927	3.442735	1.8554609
17.994967577656833	3.4512146	1.8577445
18.01271289192506	3.4447036	1.8559912
18.030458641754965	3.4215271	1.849737
18.04820482760425	3.356612	1.8321059
18.06595144993067	3.3320646	1.8253944
18.083698509192125	3.3308225	1.825054
18.101446005846576	3.3241158	1.8232157
18.119193940352105	3.252222	1.8033918
18.136942313166887	3.218147	1.7939194
18.1546911247492	3.2209396	1.7946976
18.1724403755574	3.2309146	1.7974745
18.19019006604997	3.223789	1.7954913
18.207940196685467	3.1754973	1.7819926
18.225690767922575	3.1710348	1.7807399
18.243441780220046	3.2078414	1.7910448
18.261193234036764	3.1664689	1.7794574
18.278945129831676	3.1249552	1.7677543
18.29669746806386	3.100062	1.7606993
18.314450249192483	3.0875	1.7571284
18.3322034736768	3.0814254	1.755399
18.349957141976184	3.0818386	1.7555166
18.3677112545501	3.0730286	1.7530056
18.385465811858108	3.0880687	1.7572901
18.403220814359884	3.0566392	1.7483246
18.420976262515172	3.0739617	1.7532717
18.43873215678387	3.0967267	1.7597519
18.456488497625923	3.1535091	1.7758123
18.474245285501407	3.2602403	1.8056135
18.492002520870486	3.3201218	1.8221201
18.50976020419343	3.4306345	1.8521972
18.527518335930615	3.742639	1.9345901
18.545276916542516	4.345099	2.08449
18.563035946489688	4.5000057	2.1213217
18.580795426232832	4.9155846	2.2171118
18.598555356232698	4.776718	2.1855705
18.616315736950185	5.117319	2.2621493
18.63407656884626	4.837281	2.199382
18.65183785238201	5.0789094	2.2536435
18.669599588018617	4.80634	2.1923368
18.68736177621737	4.739405	2.1770175
18.705124417439652	4.6571164	2.1580353
18.72288751214696	4.489942	2.1189485
18.740651060800886	4.686474	2.1648266
18.758415063863115	4.3967614	2.0968456
18.77617952179546	4.5477815	2.1325529
18.793944435059814	4.263842	2.0649073
18.811709804118184	4.3266516	2.0800605
18.829475629432675	4.3029146	2.0743468
18.8472419114655	4.060406	2.015045
18.86500865067897	4.1124654	2.0279214
18.88277584753551	3.8211546	1.9547774
18.90054350249763	3.8378196	1.9590354
18.918311616027957	3.5190473	1.8759124
18.936080188589226	3.4017885	1.8443938
18.953849220644265	3.0970514	1.7598442
18.971618712656007	2.9094403	1.7057081
18.9893886650875	2.8334177	1.6832758
19.007159078401887	8.011822	2.830516
19.024929953062408	32.860607	5.732417
19.042701289532435	32.804592	5.7275295
19.060473088275405	25.356674	5.035541
19.07824534975489	2.641926	1.6254003
19.096018074434568	2.6241605	1.6199261
19.113791262778197	2.6258023	1.6204327
19.13156491524966	2.5913491	1.6097668
19.149339032312945	2.545613	1.5954977
19.167113614432136	2.5270538	1.589671
19.184888662071433	2.5278862	1.5899328
19.202664175695123	2.5294578	1.5904269
19.220440155767623	2.5319912	1.5912232
19.238216602753447	2.557008	1.5990647
19.2559935171172	2.5675976	1.6023725
19.27377089932361	2.5227253	1.5883089
19.291548749837514	2.5355105	1.5923287
19.309327069123835	2.565662	1.6017684
19.32710585764763	2.5880325	1.6087363
19.344885115874032	2.5343232	1.5919558
19.362664844268313	2.52979	1.5905313
19.380445043295822	2.5413382	1.5941576
19.39822571342203	2.5601537	1.6000481
19.41600685511252	2.5743923	1.6044914
19.43378846883297	2.553793	1.5980592
19.451570555049173	2.5709713	1.6034249
19.469353114227037	2.5297594	1.5905217
19.48713614683254	2.4940417	1.5792536
19.50491965333182	2.4675286	1.5708369
19.52270363419109	2.520546	1.5876228
19.540488089876686	2.5093963	1.5841074
19.55827302085503	2.5104125	1.5844281
19.576058427592674	2.5154145	1.5860058
19.593844310556282	2.5449886	1.5953021
19.611630670212598	2.546264	1.5957017
19.629417507028506	2.5348008	1.5921057
19.64720482147098	2.5134234	1.585378
19.6649926140071	2.4937034	1.5791464
19.682780885104084	2.5176413	1.5867077
19.70056963522921	2.5298135	1.5905387
19.718358864849908	2.5179842	1.5868157
19.7361485744337	2.5157304	1.5861055
19.753938764448215	2.5180151	1.5868255
19.771729435361202	2.4940941	1.5792701
19.789520587640506	2.4850113	1.5763918
19.807312221754092	2.4950688	1.5795786
19.825104338170043	2.5177553	1.5867436
19.842896937356517	2.536163	1.5925336
19.860690019781824	2.5561752	1.5988044
19.87848358591436	2.559923	1.599976
19.896277636222635	2.5344248	1.5919877
19.914072171175278	2.498682	1.580722
19.931867191241015	2.4944959	1.5793973
19.94966269688869	2.5084062	1.5837948
19.967458688587264	2.5170665	1.5865265
19.985255166805807	2.5287914	1.5902175
20.00305213201348	2.5258913	1.5893053
20.020849584679578	2.5021086	1.5818055
20.038647525273507	2.48367	1.5759664
20.05644595426477	2.464841	1.5699812
20.07424487212299	2.453955	1.5665104
20.092044279317903	2.4309168	1.5591397
20.109844176319353	2.442466	1.562839
20.127644563597304	2.4663584	1.5704644
20.145445441621817	2.4673846	1.5707911
20.16324681086307	2.4441073	1.5633641
20.181048671791373	2.4252548	1.557323
20.198851024877122	2.4196439	1.5555204
20.216653870590836	2.4070659	1.5514722
20.234457209403146	2.3902445	1.5460416
20.252261041784802	2.3929996	1.5469323
20.270065368206662	2.3992126	1.5489392
20.287870189139685	2.4052517	1.5508873
20.305675505054968	2.395912	1.5478734
20.323481316423702	2.3856595	1.544558
20.341287623717207	2.3569493	1.5352359
20.359094427406884	2.3341985	1.5278084
20.376901727964288	2.3441606	1.5310652
20.39470952586107	2.3929858	1.5469278
20.41251782156899	2.4110773	1.5527644
20.430326615559935	2.428116	1.5582414
20.448135908305886	2.3966708	1.5481185
20.465945700278965	2.3740394	1.5407919
20.483755991951384	2.351404	1.5334288
20.50156678379548	2.3399048	1.5296748
20.519378076283708	2.3101244	1.5199094
20.537189869888635	2.3016632	1.5171233
20.55500216508294	2.314619	1.5213872
20.572814962339415	2.3487833	1.532574
20.59062826213098	2.3716602	1.5400195
20.60844206493066	2.3642771	1.5376207
20.626256371211593	2.3307428	1.526677
20.644071181447032	2.3375647	1.5289097
20.66188649611036	2.3425407	1.530536
20.67970231567506	2.344642	1.5312223
20.697518640614742	2.3418224	1.5303015
20.715335471403122	2.348221	1.5323906
20.73315280851404	2.3319879	1.5270847
20.750970652421447	2.3024235	1.5173739
20.768789003599412	2.3064735	1.5187079
20.786607862522136	2.32312	1.5241785
20.8044272296639	2.3438666	1.5309691
20.82224710549913	2.350593	1.5331644
20.84006749050237	2.3442788	1.5311037
20.857888385148268	3.8763285	1.9688394
20.8757097899116	45.95636	6.779112
20.893531705267254	64.82067	8.051128
20.911354131690224	83.86442	9.157752
20.92917706965566	69.12913	8.314393
20.94700051963877	50.223816	7.0868764
20.96482448211493	29.448027	5.426604
20.982648957559622	4.154397	2.0382338
21.00047394644843	2.2393835	1.496457
21.01829944925707	2.2581658	1.5027195
21.036125466461375	2.2352374	1.495071
21.053951998537297	2.2027318	1.4841603
21.071779045960906	2.1922631	1.4806293
21.089606609208378	2.202941	1.4842308
21.10743468875603	2.1954854	1.481717
21.12526328508028	2.1825976	1.4773617
21.143092398657675	2.2035828	1.484447
21.16092202996488	2.199506	1.4830732
21.17875217947867	2.2008379	1.483522
21.19658284767596	2.1999211	1.4832131
21.21441403503377	2.2066588	1.4854827
21.232245742029225	2.1920776	1.4805666
21.2500779691396	2.1681476	1.4724631
21.26791071684227	2.1391125	1.4625705
21.28574398561475	2.1578681	1.4689684
21.30357777593465	2.176583	1.4753247
21.321412088279704	2.1921933	1.4806057
21.339246923127792	2.162369	1.4704996
21.357082280956888	2.1741085	1.4744859
21.3749181622451	2.1737678	1.4743704
21.392754567470647	2.165399	1.4715295
21.41059149711187	2.1559544	1.4683168
21.42842895164726	2.1473994	1.4654008
21.446266931555378	2.1397042	1.4627728
21.464105437314945	2.1299434	1.4594326
21.481944469404798	2.1164668	1.4548081
21.49978402830388	2.1130958	1.4536492
21.51762411449127	2.14102	1.4632225
21.53546472844617	2.149069	1.4659704
21.553305870647876	2.1462317	1.4650023
21.571147541575865	2.1238124	1.4573306
21.58898974170967	2.0996852	1.4490291
21.60683247152899	2.100202	1.4492074
21.62467573151363	2.123663	1.4572793
21.642519522143523	2.104793	1.4507905
21.660363843898722	2.1004798	1.4493033
21.6782086972594	2.0923288	1.4464884
21.696054082705864	2.0587687	1.434841
21.713900000718535	2.0398319	1.4282268
21.73174645177795	2.0092287	1.4174726
21.749593436364794	1.9965862	1.4130061
21.767440954959845	2.0173228	1.4203249
21.785289008044032	2.0563908	1.4340122
21.803137596098388	2.0401075	1.4283233
21.820986719604086	2.021174	1.42168
21.838836379042412	2.0068977	1.4166502
21.85668657489478	2.0025418	1.4151119
21.87453730764273	2.0191047	1.4209521
21.892388577767914	2.0342343	1.4262658
21.91024038575213	2.025846	1.4233222
21.928092732077285	2.014194	1.4192231
21.945945617225426	1.986084	1.409285
21.963799041678694	1.9989951	1.4138582
21.981653005919398	31.348635	5.598985
21.999507510429943	78.15954	8.840788
22.01736255569286	73.12555	8.551348
22.035218142190818	4.219182	2.0540648
22.05307427040661	2.0485315	1.4312692
22.07093094082315	2.0077136	1.4169381
22.088788153923474	1.9722195	1.4043573
22.106645910190746	1.9792628	1.4068627
22.12450421010827	1.9985566	1.4137032
22.142363054159464	1.9898577	1.4106232
22.16022244282787	1.962636	1.4009411
22.178082376597164	1.9597242	1.3999015
22.195942855951145	1.9956728	1.4126829
22.213803881373742	1.9615368	1.4005487
22.231665453349002	1.9607111	1.4002539
22.24952757236111	1.9565735	1.3987757
22.26739023889438	1.9830389	1.4082042
22.28525345343323	1.9918047	1.4113132
22.30311721646225	2.0099132	1.4177141
22.320981528466113	1.9761564	1.4057583
22.33884638992964	1.9608119	1.4002899
22.356711801337788	1.970775	1.4038429
22.37457776317561	2.006254	1.416423
22.392444275928337	2.0010846	1.4145969
22.410311340081282	1.9829108	1.4081587
22.428178956119904	1.9441205	1.3943173
22.446047124529805	1.9635341	1.4012616
22.46391584579669	1.9505786	1.3966311
22.481785120406414	1.9546962	1.3981045
22.49965494884496	1.9586707	1.3995252
22.51752533159841	1.987718	1.4098645
22.53539626915302	1.9840096	1.4085487
22.553267761995137	1.9666599	1.4023765
22.571139810611264	1.9495429	1.3962603
22.589012415488025	1.9647367	1.4016906
22.60688557711216	1.9990582	1.4138806
22.624759295970566	2.01091	1.4180655
22.642633572550263	1.9804074	1.4072695
22.660508407338362	1.9555093	1.3983953
22.67838380082217	1.9694984	1.4033881
22.696259753489077	1.9779171	1.4063843
22.714136265826614	1.9731401	1.404685
22.73201333832246	1.9733391	1.4047558
22.74989097146439	1.9528291	1.3974366
22.76776916574035	1.9540302	1.3978662
22.785647921638393	1.957323	1.3990436
22.803527239646712	1.9468266	1.3952873
22.82140712025363	1.9650184	1.4017911
22.839287563947593	1.9926108	1.4115987
22.85716857121719	2.0154915	1.4196801
22.875050142551135	1.9754658	1.4055127
22.892932278438277	1.935174	1.3911053
22.910814979367604	1.8785052	1.3705857
22.928698245828222	1.9163952	1.3843392
22.946582078309387	1.9209313	1.3859767
22.96446647730047	1.9473026	1.3954579
22.98235144329098	1.9071552	1.3809979
23.000236976770562	1.902924	1.3794651
23.018123078229	1.9189198	1.3852508
23.03600974815619	1.9165483	1.3843945
23.053896987042194	1.9314038	1.3897495
23.071784795377173	1.9370688	1.3917862
23.08967317365145	1.9194726	1.3854504
23.10756212235546	1.891958	1.3754846
23.125451641979787	1.9073721	1.3810765
23.143341733015134	1.9083048	1.381414
23.161232395952357	1.9147241	1.3837355
23.179123631282426	1.8934029	1.3760098
23.197015439496468	1.9004847	1.3785807
23.214907821085717	1.8953567	1.3767195
23.23280077654157	1.9277625	1.3884388
23.250694306355538	1.9440721	1.3942999
23.268588411019277	1.9313259	1.3897215
23.28648309102458	1.9483113	1.3958192
23.304378346863356	1.9406382	1.393068
23.322274179027676	1.9666294	1.4023657
23.340170588009723	1.9891962	1.4103887
23.358067574301852	1.9619615	1.4007003
23.37596513839651	1.9337144	1.3905805
23.39386328078629	1.9513927	1.3969226
23.411762001963947	1.9610314	1.4003683
23.429661302422353	1.9445075	1.394456
23.4475611826545	1.9552715	1.3983102
23.46546164315356	1.9821725	1.4078965
23.48336268441279	2.0185194	1.4207461
23.501264306925638	1.9799969	1.4071237
23.51916651118564	1.9312512	1.3896947
23.537069297686497	1.8607883	1.3641071
23.554972666922037	1.892696	1.3757529
23.57287661938623	1.921791	1.3862867
23.59078115557318	1.9711534	1.4039778
23.608686275977128	1.9443992	1.3944172
23.62659198109246	1.9356534	1.3912777
23.6444982714137	1.9086868	1.3815523
23.66240514743549	1.9182879	1.3850226
23.68031260965263	1.9274309	1.3883195
23.698220658560068	1.9432801	1.3940158
23.716129294652845	1.9499784	1.3964163
23.7340385184262	1.9421211	1.3936001
23.75194833037546	1.9168822	1.3845152
23.769858730996123	1.9343482	1.3908085
23.78776972078382	1.9188418	1.3852227
23.80568130023431	1.9101967	1.3820987
23.823593469843495	1.9063845	1.3807188
23.841506230107424	1.9279537	1.3885077
23.859419581522275	1.9196421	1.3855115
23.87733352458438	1.9037551	1.3797663
23.89524805979019	1.873686	1.3688265
23.913163187636318	1.9018464	1.3790745
23.931078908619508	1.9230382	1.3867365
23.948995223236633	1.9709045	1.4038891
23.966912131984735	2.0141094	1.4191933
23.98482963536096	2.056234	1.4339575
24.002747733862616	2.058212	1.434647
24.020666427987155	2.047603	1.4309448
24.038585718232156	2.025518	1.4232069
24.056505605095353	2.0314806	1.4253001
24.074426089074617	2.070573	1.4389486
24.092347170667946	2.0861554	1.444353
24.110268850373515	2.1036255	1.4503881
24.128191128689586	2.126508	1.4582552
24.146114006114626	2.0992365	1.4488742
24.164037483147187	2.0915666	1.4462249
24.181961560286005	2.0727284	1.4396974
24.199886238029926	2.0769124	1.4411497
24.21781151687797	2.1019213	1.4498005
24.235737397329274	2.1118941	1.4532357
24.253663879883135	2.0689383	1.4383805
24.271590965038975	2.0518236	1.4324188
24.289518653296376	2.0471954	1.4308023
24.30744694515505	2.098861	1.4487447
24.32537584111486	2.1135788	1.4538152
24.34330534167581	2.0935316	1.4469042
24.361235447338046	2.0529447	1.4328101
24.379166158601876	2.0157518	1.4197718
24.39709747596772	1.9648224	1.4017212
24.41502939993615	1.9798298	1.4070642
24.432961931007917	1.9928793	1.4116938
24.450895069683856	2.0411851	1.4287006
24.468828816465	2.0619922	1.4359639
24.4867631718525	2.014582	1.4193597
24.504698136347656	1.9663132	1.4022529
24.52263371045192	1.9612535	1.4004476
24.540569894666874	1.9818301	1.4077749
24.558506689494266	1.9981371	1.4135548
24.57644409543597	1.9941624	1.4121481
24.594382112994012	1.9688852	1.4031698
24.61232074267057	2.002787	1.4151986
24.630259984967953	2.0381567	1.4276403
24.64819984038863	2.0180662	1.4205866
24.66614030943522	1.9823238	1.4079502
24.684081392610462	1.9611449	1.4004089
24.702023090417274	1.9979917	1.4135033
24.7199654033587	1.9945731	1.4122936
24.737908331937927	2.0198553	1.4212161
24.755851876658305	2.0366247	1.4271036
24.773796038023324	2.0466201	1.4306014
24.79174081653661	2.1165738	1.454845
24.809686212701962	2.191492	1.4803689
24.827632227023294	2.199545	1.4830862
24.8455788600047	2.140005	1.4628756
24.8635261121504	2.18795	1.479172
24.88147398396475	2.2189834	1.4896252
24.899422475952303	2.2758803	1.5086021
24.917371588617698	2.3059185	1.5185251
24.935321322465768	2.4654493	1.5701749
24.953271678001478	2.759775	1.661257
24.97122265572994	3.1953344	1.7875499
24.989174256156414	3.7522087	1.9370619
25.00712647978632	4.3792458	2.0926647
25.02507932712521	4.9489126	2.224615
25.043032798678798	5.5663943	2.3593206
25.060986894952933	6.6582384	2.5803564
25.078941616453637	7.568709	2.7511287
25.096896963687055	8.255763	2.8732843
25.114852937159508	8.396675	2.8977017
25.132809537377444	7.8665514	2.8047373
25.150766764847468	6.96576	2.6392727
25.168724620076347	5.555479	2.3570063
25.186683103570985	4.3420935	2.083769
25.204642215838426	3.368948	1.8354694
25.222601957385894	2.6832204	1.6380539
25.24056232872074	2.316208	1.5219092
25.25852333035048	2.1662705	1.4718256
25.276484962782778	2.0863905	1.4444343
25.294447226525435	2.0670857	1.4377363
25.312410122086423	2.0154607	1.4196693
25.330373649973843	1.9749441	1.4053271
25.348337810695988	1.970848	1.4038689
25.366302604761245	1.9799234	1.4070975
25.384268032678207	1.9735657	1.4048365
25.40223409495558	1.9358176	1.3913367
25.420200792102257	1.9212517	1.3860922
25.438168124627246	1.921327	1.3861194
25.45613609303974	1.9195515	1.3854789
25.474104697849057	1.9414499	1.3933592
25.492073939564698	1.9331336	1.3903718
25.510043818696285	1.9178871	1.384878
25.528014335753614	1.8763362	1.3697942
25.54598549124664	1.8960348	1.3769658
25.56395728568544	1.97107	1.4039481
25.58192971958028	1.9612817	1.4004576
25.59990279344156	1.9491621	1.396124
25.617876507779833	1.9473023	1.3954577
25.635850863105826	1.9511915	1.3968506
25.653825859930386	1.9141755	1.3835373
25.671801498764548	1.883308	1.3723367
25.68977778011949	1.8540509	1.3616353
25.707754704506524	1.8767282	1.3699373
25.725732272437153	1.9250082	1.3874466
25.743710484423012	1.9846462	1.4087747
25.761689340975888	1.9341851	1.3907498
25.77966884260774	1.8814325	1.3716532
25.797648989830662	1.8798457	1.3710747
25.815629783156922	1.9040151	1.3798605
25.83361122309895	1.8906796	1.3750199
25.85159331016929	1.8783959	1.3705459
25.869576044880695	1.8651251	1.3656958
25.887559427746034	1.8207978	1.3493694
25.90554345927836	1.8176706	1.3482101
25.92352813999086	1.7958728	1.3401018
25.94151347039689	1.7915689	1.338495
25.959499451009965	1.797668	1.3407714
25.97748608234374	1.8310364	1.353158
25.995473364912062	1.8572925	1.3628252
26.013461299228904	1.9164481	1.3843584
26.03144988580839	1.9228828	1.3866805
26.04943912516483	1.9235294	1.3869137
26.067429017812675	1.9340434	1.3906989
26.085419564266537	1.9257956	1.3877304
26.103410765041186	1.938238	1.3922062
26.12140262065155	1.9523917	1.3972801
26.139395131612723	1.9217014	1.3862544
26.157388298439948	1.846113	1.3587174
26.17538212164861	1.8357154	1.3548857
26.193376601754295	1.8633082	1.3650305
26.211371739272714	1.8784838	1.3705779
26.229367534719746	1.8888108	1.37434
26.247363988611433	1.8602008	1.3638917
26.26536110146397	1.8425195	1.3573943
26.283358873793727	1.8577312	1.3629861
26.301357306117204	1.8640057	1.365286
26.319356398951104	1.8477181	1.359308
26.33735615281224	1.8347067	1.3545134
26.35535656821762	1.8562218	1.3624324
26.373357645684404	1.8421469	1.3572571
26.39135938572991	1.8961174	1.3769958
26.409361788871614	1.9345702	1.3908883
26.427364855627165	1.8943036	1.376337
26.445368586514352	1.8049245	1.3434747
26.46337298205115	1.783944	1.3356436
26.48137804275568	1.7668272	1.3292205
26.499383769146217	1.7987225	1.3411646
26.517390161741215	1.8432457	1.3576618
26.53539722105928	1.82977	1.3526899
26.553404947619182	1.8371216	1.3554046
26.571413341939856	1.8524579	1.3610502
26.589422404540397	1.8912898	1.3752418
26.60743213594006	1.882924	1.3721968
26.62544253665827	1.8450341	1.3583204
26.64345360721459	1.8160545	1.3476106
26.66146534812879	1.8372295	1.3554444
26.679477759920758	1.8303943	1.3529207
26.69749084311057	1.8543342	1.3617394
26.71550459821847	1.8794284	1.3709224
26.733519025764842	1.8837177	1.372486
26.751534126270258	1.8478876	1.3593704
26.769549900255434	1.8508154	1.3604468
26.787566348241267	1.8198539	1.3490196
26.80558347074881	1.8077581	1.3445289
26.823601268299267	1.7783996	1.3335665
26.841619741414036	1.7653028	1.328647
26.85963889061465	1.776462	1.3328398
26.877658716422832	1.7798446	1.3341082
26.89567921936045	1.8036689	1.3430074
26.913700399949544	1.84732	1.3591615
26.93172225871233	1.8759222	1.3696431
26.949744796171174	1.8724911	1.36839
26.967768012848605	1.8771924	1.3701067
26.98579190926733	1.8657259	1.3659158
27.003816485950225	1.8735758	1.3687862
27.021841743420318	1.8750836	1.369337
27.039867682200814	1.8874899	1.3738595
27.057894302815072	1.8481443	1.3594648
27.07592160578664	1.8207686	1.3493586
27.0939495916392	1.8001761	1.3417064
27.111978260896635	1.8195292	1.3488992
27.13000761408296	1.8623507	1.3646797
27.148037651722397	1.8299913	1.3527718
27.166068374339304	1.8487548	1.3596892
27.184099782458215	1.8313022	1.3532561
27.20213187660384	1.8188148	1.3486344
27.22016465730105	1.8406401	1.3567019
27.23819812507487	1.8510933	1.3605489
27.256232280450533	1.873919	1.3689116
27.274267123953383	1.8433036	1.3576832
27.292302656108987	1.822404	1.3499645
27.31033887744306	1.7473345	1.3218678
27.32837578848146	1.7468845	1.3216976
27.34641338975026	1.7822187	1.3349977
27.364451681775673	1.8762902	1.3697774
27.382490665084074	1.8849151	1.3729221
27.400530340202046	1.8720174	1.3682169
27.41857070765629	1.850161	1.3602062
27.436611767973726	1.8605247	1.3640105
27.454653521681404	1.8748802	1.3692627
27.472695969306564	1.852152	1.360938
27.490739111376627	1.8278588	1.3519833
27.508782948419153	1.8393835	1.3562387
27.526827480961902	1.8218787	1.3497698
27.54487270953279	1.8458647	1.358626
27.562918634659898	1.8610655	1.3642087
27.580965256871508	1.8874762	1.3738545
27.599012576696026	1.8888373	1.3743498
27.617060594662068	1.8626015	1.3647716
27.63510931129842	1.8744023	1.3690882
27.65315872713401	1.907245	1.3810304
27.67120884269797	1.9390023	1.3924806
27.68925965851958	1.9219893	1.3863583
27.707311175128307	1.8815342	1.3716903
27.725363393053787	1.8601693	1.3638803
27.74341631282583	1.8740679	1.368966
27.7614699349744	1.9026518	1.3793664
27.77952426002968	2.0941143	1.4471055
27.797579288521973	2.128348	1.4588859
27.815635020981784	2.558889	1.5996528
27.83369145793979	2.6358452	1.6235286
27.85174859992682	2.487985	1.5773348
27.869806447473923	2.372256	1.540213
27.887865001112267	2.0914912	1.4461989
27.905924261373233	1.9466697	1.395231
27.92398422878836	1.9237914	1.3870081
27.94204490388936	1.9119272	1.3827245
27.96010628720813	1.8854223	1.3731068
27.978168379276728	1.8810512	1.3715142
27.9962311806274	1.9233942	1.3868649
28.014294691792568	1.940472	1.3930082
28.0323589133048	1.9391745	1.3925425
28.050423845696887	1.9165221	1.3843851
28.068489489501758	1.8511282	1.3605617
28.086555845252523	1.8284982	1.3522197
28.104622913482487	1.8376818	1.3556112
28.122690694725115	1.8711412	1.3678967
28.14075918951405	1.8867491	1.3735899
28.15882839838312	1.9367442	1.3916696
28.176898321866304	1.9643736	1.4015611
28.1949689604978	1.9589373	1.3996204
28.213040314811945	1.9260092	1.3878074
28.23111238534327	1.940316	1.3929522
28.249185172626493	1.9005108	1.3785901
28.267258677196473	1.8753049	1.3694178
28.285332899588294	1.9358517	1.3913488
28.303407840337172	1.9769623	1.406045
28.321483499978545	1.9537545	1.3977677
28.33955987904799	1.9461331	1.3950387
28.357636978081285	2.0148005	1.4194367
28.37571479761439	2.022113	1.4220102
28.393793338183425	1.969797	1.4034946
28.41187260032469	1.9323764	1.3900994
28.429952584574686	1.9946243	1.4123117
28.448033291470065	2.105572	1.4510589
28.46611472154769	2.1437736	1.4641631
28.484196875344566	2.086877	1.4446027
28.502279753397914	2.05133	1.4322466
28.52036335624511	2.0312166	1.4252076
28.538447684423716	1.9944755	1.412259
28.556532738471482	1.9455119	1.394816
28.574618518926325	1.9577652	1.3992016
28.59270502632635	2.0026731	1.4151584
28.61079226120985	2.036173	1.4269453
28.628880224115274	2.0544457	1.4333338
28.646968915581287	2.0953987	1.4475492
28.66505833614671	2.0824907	1.4430838
28.68314848635055	2.093119	1.4467615
28.701239366732004	2.1218045	1.4566416
28.71933097783044	2.1480532	1.4656239
28.737423320185403	2.1664054	1.4718714
28.75551639433665	2.1728873	1.4740717
28.773610200824074	2.1399179	1.4628458
28.791704740187793	2.1257944	1.4580104
28.80980001296809	2.1463747	1.465051
28.827896019705413	2.1708493	1.4733802
28.845992760940433	2.1491442	1.4659959
28.86409023721397	2.2050521	1.4849418
28.88218844906704	2.242223	1.4974054
28.900287397040845	2.2768734	1.5089312
28.918387081676755	2.2761817	1.508702
28.936487503516343	2.2861698	1.5120085
28.954588663101365	2.3538303	1.5342197
28.97269056097374	2.3720217	1.5401369
28.990793197675597	2.403004	1.5501626
29.00889657374923	2.4061277	1.5511698
29.027000689737125	2.397773	1.5484744
29.04510554618196	2.4730453	1.5725919
29.06321114362659	2.4602623	1.5685223
29.08131748261405	2.472122	1.5722983
29.099424563687567	2.5655909	1.6017462
29.11753238739057	2.6641011	1.6322074
29.13564095426663	2.6593664	1.6307564
29.15375026485954	2.6362956	1.6236674
29.171860319713275	2.6623986	1.6316859
29.18997111937199	2.773783	1.6654677
29.20808266438002	2.8350203	1.6837518
29.226194955281898	2.8782043	1.6965271
29.244307992622335	2.8793156	1.6968546
29.26242177694624	2.9168887	1.7078902
29.2805363087987	2.9840455	1.727439
29.29865158872498	2.9676626	1.7226905
29.316767617270557	2.9677012	1.7227017
29.334884394981064	3.084288	1.756214
29.353001922402367	3.205483	1.7903863
29.37112020008047	3.3497746	1.8302389
29.389239228561596	3.7241619	1.9298087
29.407359008392152	4.495027	2.120148
29.42547954011872	5.6506233	2.377104
29.44360082428809	7.3092895	2.7035697
29.46172286144722	9.510372	3.0838892
29.479845652143283	12.114001	3.4805174
29.497969196923606	15.152468	3.892617
29.516093496335728	17.43232	4.175203
29.5342185509274	18.420439	4.291904
29.55234436124651	17.738523	4.211713
29.570470927841175	16.057238	4.0071483
29.588598251259686	13.845053	3.720894
29.60672633205055	11.183092	3.344113
29.624855170762405	8.467305	2.9098635
29.642984767944146	6.1048384	2.470797
29.66111512414481	4.867639	2.2062726
29.67924623991366	4.164187	2.040634
29.697378115800138	3.7375915	1.9332851
29.71551075235387	3.5445154	1.8826883
29.733644150124675	3.5627823	1.8875334
29.751778309662576	3.552986	1.8849366
29.769913231517766	3.4730322	1.8636073
29.78804891624066	3.3645694	1.8342763
29.806185364381818	3.350973	1.8305663
29.82432257649206	3.3702614	1.8358272
29.842460553122333	3.4171777	1.8485609
29.86059929482382	3.4259074	1.8509207
29.878738802147872	3.3415568	1.8279926
29.896879075646048	3.3166528	1.821168
29.915020115870114	3.4075906	1.8459661
29.933161923371976	3.3656816	1.8345795
29.951304498703777	3.257865	1.8049557
29.969447842417857	3.2528296	1.8035603
29.987591955066733	3.292796	1.8146063
30.005736837203123	3.304517	1.8178331
30.023882489379943	3.212358	1.7923052
30.04202891215028	3.0992098	1.7604573
30.060176106067455	3.1531024	1.7756977
30.078324071684946	3.220586	1.7945992
30.09647280955646	3.228356	1.7967626
30.114622320235863	3.2813833	1.8114588
30.132772604277257	3.2712195	1.8086513
30.1509236622349	3.2446976	1.8013045
30.16907549466328	3.232272	1.797852
30.18722810211705	3.2092435	1.7914362
30.205381485151097	3.137991	1.7714375
30.22353564432045	3.080805	1.7552222
30.241690580180403	3.0307078	1.7408928
30.25984629328638	3.0834992	1.7559896
30.278002784194037	3.098298	1.7601984
30.296160053459246	3.0730214	1.7530036
30.314318101638033	3.080858	1.7552373
30.332476929286646	3.1242936	1.7675672
30.35063653696153	3.122668	1.7671072
30.368796925219307	3.0328825	1.7415173
30.386958094616844	2.965413	1.7220374
30.40512004571115	2.92112	1.7091284
30.423282779059463	2.9969738	1.731177
30.441446295219233	2.9957666	1.7308283
30.459610594748067	2.8723156	1.6947907
30.47777567820382	2.876512	1.6960284
30.495941546144504	2.9620697	1.7210665
30.51410819912835	2.9426103	1.7154038
30.532275637713795	2.9080946	1.7053137
30.55044386245946	2.9420552	1.715242
30.56861287392416	2.9225304	1.709541
30.586782672666956	2.884701	1.6984408
30.604953259247047	2.8286402	1.6818562
30.623124634223885	2.8032231	1.6742829
30.641296798157075	2.7970805	1.6724474
30.659469751606462	2.8493915	1.688014
30.677643495132074	2.9180222	1.7082219
30.695818029294152	2.951727	1.7180591
30.713993354653116	2.9865587	1.7281662
30.73216947176962	2.9584131	1.7200038
30.75034638120448	2.8842778	1.6983162
30.768524083518756	2.8813412	1.6974514
30.786702579273673	3.0150664	1.7363946
30.80488186903069	3.2864375	1.8128535
30.82306195335144	3.6302702	1.9053268
30.841242832797782	3.8744254	1.968356
30.85942450793176	4.1815186	2.044876
30.877606979315637	4.646963	2.1556816
30.895790247511883	4.938062	2.2221751
30.913974313083134	4.909313	2.215697
30.932159176592283	4.5886164	2.1421056
30.95034483860237	4.1966906	2.0485826
30.968531299676698	3.8154778	1.9533248
30.98671856037873	3.4332373	1.8528997
31.00490662127215	3.0182488	1.7373108
31.023095482920848	2.7443004	1.656593
31.04128514588892	2.595433	1.6110348
31.059475610740662	2.6139042	1.6167573
31.07766687804056	2.617041	1.6177272
31.09585894835335	2.6126964	1.6163838
31.11405182224393	2.5717294	1.6036613
31.132245500277417	2.53521	1.5922343
31.15043998301914	2.5008912	1.5814207
31.168635271034628	2.4492583	1.5650107
31.18683136488964	2.3982432	1.5486262
31.20502826515008	2.3808029	1.5429851
31.223225972382135	2.3777444	1.5419936
31.241424487152155	2.3912833	1.5463774
31.259623810026692	2.4537172	1.5664345
31.27782394157253	2.5267234	1.5895671
31.296024882356644	2.544601	1.5951805
31.314226632946237	2.4430432	1.5630238
31.332429193908684	2.4106874	1.5526389
31.350632565811598	2.4214816	1.5561111
31.368836749222787	2.5153377	1.5859816
31.387041744710295	2.541902	1.5943344
31.40524755284232	2.5770488	1.6053189
31.423454174187317	2.610369	1.6156636
31.441661609313922	2.577366	1.6054177
31.459869858791002	2.5325258	1.5913911
31.478078923187628	2.5191202	1.5871737
31.496288803073064	2.460105	1.5684721
31.514499499016807	2.3811893	1.5431103
31.532711011588546	2.2960062	1.5152578
31.550923341358178	2.3667178	1.538414
31.56913648889584	2.3631787	1.5372634
31.587350454771844	2.3652363	1.5379325
31.605565239556732	2.3202047	1.5232219
31.62378084382127	2.3343017	1.5278422
31.641997268136382	2.352293	1.5337187
31.660214513073274	2.3478348	1.5322646
31.67843257920331	2.2658389	1.5052704
31.6966514670981	2.1960926	1.4819219
31.71487117732944	2.2526665	1.5008886
31.733091710469346	2.2943754	1.5147196
31.751313067090052	2.330623	1.5266378
31.769535247764008	2.3055	1.5183873
31.787758253063878	2.3011012	1.5169381
31.805982083562526	2.333441	1.5275605
31.824206739833024	2.31202	1.5205328
31.84243222244869	2.2972178	1.5156575
31.860658531983013	2.2686338	1.5061985
31.878885669009737	2.26119	1.5037254
31.897113634102784	2.3051033	1.5182567
31.91534242783632	2.311685	1.5204227
31.933572050784694	2.3150775	1.5215379
31.951802503522508	2.3037603	1.5178143
31.970033786624548	2.3177454	1.5224143
31.988265900665834	2.233806	1.4945922
32.006498846221575	2.2645025	1.5048264
32.02473262386724	2.292777	1.5141919
32.04296723417845	2.3242023	1.5245335
32.0612026777311	2.3229084	1.524109
32.07943895510129	2.2193148	1.4897364
32.097676066865304	2.1591163	1.4693931
32.115914013599685	2.158595	1.4692158
32.13415279588115	2.226933	1.4922912
32.152392414286666	2.2863436	1.512066
32.1706328693934	2.2854557	1.5117724
32.18887416177875	2.2343762	1.494783
32.20711629202032	2.166363	1.471857
32.225359260695924	2.1343026	1.4609252
32.243603068383614	2.1758802	1.4750865
32.26184771566166	2.2159853	1.4886186
32.28009320310852	2.1789966	1.4761424
32.2983395313029	2.1533737	1.4674379
32.31658670082372	2.1661656	1.47179
32.33483471225012	2.12873	1.4590168
32.35308356616143	2.0966306	1.4479747
32.371333263137245	2.0949306	1.4473876
32.38958380375734	2.0531163	1.4328699
32.407835188601744	2.054229	1.4332582
32.42608741825067	2.0960164	1.4477626
32.444340493284585	2.1007528	1.4493974
32.46259441428416	2.164443	1.4712046
32.48084918183028	2.1099193	1.4525561
32.49910479650405	2.049704	1.4316788
32.51736125888683	2.0995843	1.4489943
32.53561856956014	2.176278	1.4752214
32.5538767291058	2.1866345	1.4787273
32.572135738105764	2.1812904	1.4769192
32.59039559714228	2.2321715	1.4940454
32.608656306797776	2.140833	1.4631585
32.62691786765491	2.020816	1.4215541
32.645180280296586	2.035823	1.4268228
32.663443545305896	2.1076458	1.4517733
32.68170766326619	2.0346744	1.4264201
32.69997263476099	1.963915	1.4013975
32.7182384603741	2.016191	1.4199264
32.7365051406895	2.0924585	1.4465333
32.75477267629144	2.0739057	1.4401062
32.77304106776434	2.0402246	1.4283643
32.79131031569289	2.081182	1.4426303
32.809580420661966	2.0916247	1.4462451
32.827851383256714	2.0002627	1.4143064
32.84612320406245	1.9492607	1.3961593
32.86439588366476	2.0140395	1.4191686
32.88266942264945	2.079918	1.4421921
32.9009438216025	2.0486853	1.4313229
32.9192190811102	1.9913327	1.4111458
32.937495201758985	1.9621723	1.4007756
32.95577218413556	1.9115993	1.382606
32.974050028826866	1.8765285	1.3698645
32.992328736420035	1.9586345	1.3995123
33.010608307502444	1.9805449	1.4073184
33.02888874266169	1.9738635	1.4049425
33.047170042485604	1.9817032	1.4077297
33.06545220756225	2.0383058	1.4276924
33.083735238479896	2.0497875	1.4317079
33.10201913582707	2.0210419	1.4216335
33.12030390019248	1.9483302	1.395826
33.138589532165135	1.9700272	1.4035766
33.15687603233419	2.1061916	1.4512724
33.17516340128909	2.2138107	1.487888
33.19345163961947	2.1623385	1.4704891
33.211740747915215	1.9618803	1.4006714
33.23003072676643	1.8783673	1.3705354
33.248321576763466	1.8933353	1.3759853
33.266613298496885	1.9812046	1.4075527
33.28490589255747	2.0127525	1.4187151
33.30319935953626	2.030158	1.4248362
33.32149370002451	1.934882	1.3910004
33.339788914613706	1.9086428	1.3815364
33.358085003895575	1.9545159	1.39804
33.376381968462034	2.0744114	1.4402817
33.39467980890529	2.1505618	1.4664794
33.41297852581774	2.1624234	1.4705181
33.43127811979204	1.9945996	1.412303
33.44957859142105	1.8422775	1.3573053
33.467879941297866	1.7672032	1.3293619
33.486182170015844	1.8995343	1.3782359
33.50448527816853	1.9419551	1.3935405
33.522789266349754	1.9429055	1.3938814
33.541094135153514	2.0298133	1.4247152
33.55939988517411	2.0986621	1.448676
33.57770651700602	1.9963833	1.4129343
33.59601403124398	1.9006749	1.3786497
33.61432242848296	1.9608654	1.4003091
33.632631709318154	2.0200098	1.4212705
33.650941874344994	1.9105064	1.3822107
33.66925292415916	1.8148329	1.3471574
33.68756485935654	1.939176	1.392543
33.70587768053328	2.0040329	1.4156387
33.724191388285746	2.0282986	1.4241835
33.74250598321054	1.9537023	1.3977491
33.760821465904506	1.8945466	1.3764253
33.77913783696474	1.8856615	1.3731939
33.79745509698852	1.9461564	1.3950471
33.815773246573414	2.011786	1.4183744
33.8340922863172	2.0722818	1.4395422
33.852412216817896	1.9997383	1.414121
33.87073303867377	1.8829567	1.3722087
33.889054752483304	1.8630785	1.3649464
33.907377358845245	1.9457387	1.3948973
33.92570085835853	1.961696	1.4006056
33.94402525162239	1.9650108	1.4017885
33.96235053923627	1.9703667	1.4036975
33.980676721799824	2.0437672	1.4296038
33.999003799912984	2.038845	1.4278814
34.01733177417592	2.0742211	1.4402157
34.03566064518901	2.0516088	1.4323438
34.0539904135529	2.029263	1.424522
34.07232107986846	2.0665395	1.4375464
34.090652644736785	2.103139	1.4502203
34.108985108759235	2.1243286	1.4575077
34.12731847253742	2.1143856	1.4540927
34.14565273667313	2.110373	1.4527123
34.16398790176847	2.03558	1.4267375
34.18232396842574	1.9741908	1.405059
34.20066093724749	1.9876335	1.4098345
34.21899880883651	2.058514	1.4347522
34.23733758379583	2.0089087	1.4173598
34.25567726272874	1.9425713	1.3937615
34.27401784623872	1.9632518	1.4011608
34.29235933492957	1.9513972	1.3969241
34.31070172940526	1.8710426	1.3678606
34.32904503027003	1.7166216	1.3101991
34.347389238128386	1.791894	1.3386165
34.36573435358502	1.9650164	1.4017904
34.38408037724492	2.0324292	1.425633
34.402427309713296	2.0444722	1.4298505
34.42077515159559	2.0819132	1.4428836
34.43912390349752	2.0895739	1.4455358
34.45747356602499	1.9325274	1.3901538
34.47582413978423	1.8929302	1.3758379
34.49417562538163	2.0088108	1.4173253
34.51252802342388	1.9606979	1.4002492
34.53088133451789	1.8087996	1.3449162
34.54923555927084	1.8941478	1.3762804
34.567590698290104	2.0765638	1.4410287
34.58594675218336	2.0285404	1.4242684
34.6043037215585	2.0043962	1.415767
34.62266160702365	2.0490177	1.431439
34.641020409187234	1.9142818	1.3835758
34.65938012865785	1.9866056	1.40947
34.677740766044394	2.1020515	1.4498453
34.69610232195598	1.9863163	1.4093673
34.714464797002016	2.094101	1.4471009
34.73282819179208	2.2749856	1.5083055
34.751192506936064	2.1882215	1.4792638
34.76955774304408	1.8998996	1.3783685
34.7879239007265	1.7360456	1.3175908
34.80629098059391	1.8886524	1.3742825
34.824658983257194	1.983524	1.4083763
34.843027909327446	1.9564859	1.3987443
34.86139775941603	2.0186882	1.4208055
34.879768534134534	1.9711368	1.4039718
34.89814023409483	1.9277247	1.3884252
34.91651285990901	2.1068704	1.4515063
34.93488641218944	2.222477	1.4907974
34.95326089154871	2.080251	1.4423075
34.97163629859967	2.1053743	1.4509908
34.99001263395542	2.2252142	1.4917152
35.00838989822934	2.2128906	1.4875787
35.02676809203499	2.1571121	1.468711
35.04514721598624	2.239695	1.496561
35.063527270697215	2.2511067	1.5003688
35.081908256782256	2.0587523	1.4348353
35.10029017485597	1.9087597	1.3815787
35.11867302553321	1.9171834	1.3846239
35.137056809429104	1.9891795	1.4103827
35.155441527159006	1.8510787	1.3605435
35.173827179338524	1.6509438	1.2848905
35.19221376658354	1.6034619	1.2662787
35.21060128951017	1.819626	1.3489351
35.2289897487348	1.8813264	1.3716146
35.24737914487405	1.9156924	1.3840854
35.26576947854479	1.8906271	1.3750008
35.28416075036418	2.2547746	1.5015907
35.30255296094958	2.56757	1.6023638
35.32094611091867	2.4791367	1.5745275
35.33934020088932	2.24025	1.4967465
35.35773523147969	2.098609	1.4486576
35.3761312033082	1.8626244	1.36478
35.394528116993506	1.9462161	1.3950685
35.41292597315452	2.1199093	1.4559908
35.431324772410434	2.2544527	1.5014836
35.449724515380666	2.3754036	1.5412345
35.46812520268491	2.318838	1.5227731
35.486526834943106	1.8009019	1.3419769
35.504929412775454	1.7483524	1.3222528
35.52333293680242	2.1864948	1.4786801
35.54173740764471	2.6810217	1.6373826
35.560142825923286	2.6017885	1.613006
35.5785491922594	1.8536967	1.3615053
35.59695650727454	1.6970875	1.3027232
35.61536477159042	1.1140177	1.0554703
