0.008763373481513119	0.051685803	0.22734512
0.026290120649546365	0.18429624	0.4292974
0.043816868432600686	0.12367553	0.35167533
0.06134361724069026	0.13011776	0.3607184
0.07887036748382949	0.114003226	0.33764362
0.0963971195720331	0.12500913	0.35356632
0.11392387391531617	0.20718615	0.45517704
0.1314506309236943	0.22247541	0.47167298
0.1489773910071836	0.24261294	0.49255756
0.16650415457580078	0.19849776	0.44553086
0.18403092203956356	0.14061064	0.37498084
0.20155769380849	0.11482584	0.33885962
0.2190844702925996	0.10381705	0.32220653
0.2366112519019124	0.16439381	0.40545508
0.2541380390464497	0.14182551	0.3765973
0.27166483213623416	0.14808153	0.38481364
0.28919163158128947	0.12012283	0.3465874
0.3067184377916406	0.16762497	0.40942028
0.324245251177314	0.17357388	0.41662198
0.34177207214833777	0.21925655	0.4682484
0.3592989011147415	0.22349459	0.47275215
0.37682573848655654	0.19650994	0.4432944
0.39435258467381573	0.1578132	0.3972571
0.41187944008655414	0.11618102	0.34085336
0.42940630513480854	0.121103354	0.34799907
0.446933180228618	0.11757927	0.34289834
0.4644600657780234	0.111841716	0.33442745
0.48198696219306775	0.07927251	0.28155375
0.49951386988379676	0.0887617	0.29792902
0.5170407892602581	0.11187624	0.33447906
0.5345677207325025	0.12712336	0.35654363
0.5520946647105822	0.1492472	0.38632524
0.5696216216045534	0.16121717	0.40151858
0.5871485918244737	0.20462257	0.45235226
0.6046755757804043	0.19471303	0.441263
0.6222025738824094	0.16190667	0.4023763
0.6397295865405557	0.15020792	0.38756666
0.6572566141649129	0.13124308	0.36227486
0.6747836571655547	0.16910796	0.41122738
0.6923107159525568	0.18591186	0.431175
0.7098377909359992	0.19211316	0.43830717
0.7273648825259653	0.18919459	0.43496504
0.7448919911325411	0.15944512	0.3993058
0.762419117165817	0.14854945	0.38542113
0.7799462610358868	0.14873752	0.38566503
0.7974734231528482	0.17810118	0.42202035
0.8150006039268024	0.2177399	0.46662608
0.8325278037678551	0.20700893	0.45498234
0.8500550230861152	0.22197066	0.4711376
0.8675822622916969	0.250386	0.5003859
0.8851095217947171	0.2451495	0.49512574
0.9026368020052984	0.23707348	0.4869019
0.9201641033335665	0.21981756	0.46884707
0.9376914261896523	0.22185001	0.47100955
0.9552187709836915	0.25089994	0.50089914
0.9727461381258234	0.27229783	0.5218216
0.990273528026193	0.27396026	0.5234121
1.0078009410949496	0.28781232	0.53648144
1.0253283777422473	0.2881989	0.5368416
1.0428558383782454	0.28363416	0.53257316
1.0603833234131086	0.27360973	0.5230772
1.0779108332570058	0.28171033	0.5307639
1.0954383683201119	0.24716705	0.49715897
1.112965929012607	0.2762706	0.5256145
1.1304935157446763	0.39557552	0.628948
1.1480211289265108	0.48176557	0.69409335
1.1655487689683062	1.3012335	1.1407162
1.1830764362802655	1.5761899	1.255464
1.200604131272596	2.0479658	1.4310715
1.2181318543555117	2.4358299	1.5607145
1.235659605939232	2.4440393	1.5633423
1.253187386433982	3.9125483	1.9780163
1.270715196249994	6.2677755	2.5035527
1.2882430357975057	11.757746	3.428957
1.3057709054867608	16.646696	4.080036
1.3232988057280106	22.592274	4.753133
1.3408267369315112	27.038767	5.1998816
1.358354699507526	30.359707	5.5099645
1.3758826938663256	34.08486	5.8382244
1.3934107204181858	35.86917	5.9890876
1.410938779573391	36.60751	6.050414
1.4284668717422309	37.56182	6.12877
1.4459949973350033	37.433178	6.118266
1.4635231567620117	37.880806	6.1547384
1.4810513504335687	36.734154	6.0608706
1.4985795787599925	36.28665	6.0238404
1.5161078421516088	35.932434	5.9943666
1.5336361410187505	34.662502	5.887487
1.5511644757717598	34.73249	5.893428
1.5686928468209842	35.361366	5.9465423
1.58622125457678	36.236813	6.019702
1.6037496994495108	37.186424	6.0980673
1.621278181849548	36.40291	6.033482
1.6388067021872719	36.812374	6.0673203
1.6563352608730693	36.47909	6.0397925
1.673863858317336	36.02617	6.0021806
1.6913924949304753	35.861935	5.9884834
1.7089211711228998	34.881004	5.9060144
1.7264498873050296	33.809498	5.8145933
1.7439786438872935	32.996033	5.7442174
1.7615074412801288	32.04309	5.6606617
1.779036279893981	31.383213	5.6020722
1.796565160139305	30.120405	5.488206
1.814094082426564	29.289146	5.411945
1.8316230471662298	28.319948	5.321649
1.849152054768784	27.564863	5.250225
1.8666811056447168	27.166113	5.212112
1.8842102002045273	26.528381	5.150571
1.901739338858724	25.958797	5.094978
1.9192685220178245	25.537136	5.053428
1.9367977500923557	24.80312	4.9802732
1.9543270234928547	24.290495	4.928539
1.971856342629867	23.374367	4.8347044
1.9893857079139496	22.9319	4.7887263
2.006915119755667	22.744043	4.7690716
2.0244445785655945	22.399017	4.73276
2.0419740847543175	22.020945	4.692648
2.0595036387324317	21.486193	4.63532
2.0770332409105414	21.005083	4.5831304
2.094562891699263	20.739805	4.5540977
2.1120925915092217	20.103125	4.4836507
2.129622340751053	19.917728	4.4629283
2.1471521398354043	187.98473	13.7107525
2.1646819891729323	444.35928	21.079832
2.182211889174303	440.59412	20.990334
2.1997418402501974	452.91797	21.28187
2.2172718428113023	432.79895	20.80382
2.234801897268317	320.6296	17.906134
2.2523320040319548	17.03783	4.127691
2.269862163512935	16.722836	4.0893564
2.287392376121992	16.453823	4.056331
2.304922642269869	16.144936	4.018076
2.322452962367322	15.798791	3.9747694
2.3399833368251164	15.530708	3.940902
2.357513766054032	15.306543	3.9123578
2.3750442504648586	14.953557	3.866983
2.3925747904683963	14.5903015	3.8197253
2.410105386475459	14.517344	3.8101633
2.4276360388968707	14.352917	3.7885244
2.445166748143469	14.059353	3.7495804
2.4626975146261025	13.552182	3.6813288
2.4802283387556323	13.191427	3.6320004
2.4977592209429305	13.052443	3.6128163
2.5152901615988825	12.864765	3.5867486
2.5328211611343865	12.726439	3.5674136
2.5503522199603523	12.476037	3.5321434
2.5678833384877024	12.211639	3.4945157
2.5854145171273712	12.23136	3.4973361
2.6029457562903064	12.013166	3.4660015
2.620477056387469	12.059297	3.4726498
2.6380084178298326	11.680463	3.4176693
2.655539841028383	11.376973	3.3729768
2.673071326394119	11.218601	3.349418
2.6906028743380523	11.115515	3.333994
2.708134485271211	11.187892	3.3448308
2.7256661596046325	10.954708	3.3097897
2.743197897749369	10.729454	3.2755845
2.760729700116486	10.551007	3.2482314
2.778261567117063	10.250802	3.2016873
2.795793499162193	10.119492	3.181115
2.8133254966629817	9.910928	3.1481626
2.830857560030551	9.777034	3.1268249
2.8483896896760337	9.670545	3.10975
2.865921886010578	9.564136	3.0925937
2.883454149445347	9.4731865	3.0778542
2.9009864803915177	9.357629	3.059024
2.91851887926028	9.223763	3.037065
2.9360513464628384	9.07248	3.0120559
2.953583882410413	8.970786	2.995127
2.9711164875142373	8.743377	2.9569201
2.9886491621855606	8.667337	2.944034
3.0061819068356455	8.468123	2.9100041
3.023714721875769	8.510087	2.9172053
3.041247607717225	8.523346	2.919477
3.0587805647713213	8.418102	2.9013965
3.0763135934493806	8.324464	2.8852148
3.0938466941627407	8.12726	2.850835
3.1113798673227544	8.058266	2.8387084
3.1289131133407904	7.9943156	2.8274221
3.1464464326282315	7.8452744	2.8009417
3.1639798255964786	7.883647	2.8077834
3.1815132926569443	7.719165	2.7783384
3.1990468342210603	7.684003	2.7720034
3.216580450700272	7.416744	2.72337
3.2341141425060416	7.3070683	2.7031589
3.251647910049847	7.1049986	2.6655204
3.2691817537431813	7.0541635	2.6559675
3.286715673997555	7.0669217	2.6583683
3.3042496712244938	7.174537	2.6785326
3.32178374583554	7.098909	2.6643777
3.339317898242251	6.979325	2.6418412
3.3568521288562034	6.864991	2.620113
3.3743864380889876	6.829098	2.6132543
3.3919208263522127	6.790503	2.6058593
3.4094552940575023	6.7269273	2.593632
3.4269898416164972	6.597399	2.5685403
3.444524469440858	6.5592117	2.5610957
3.4620591779422587	6.457271	2.541116
3.479593967532391	6.510266	2.5515223
3.4971288386229658	6.5805707	2.5652623
3.5146637916257086	6.4683986	2.5433047
3.5321988269523628	6.3286633	2.5156834
3.5497339450146903	6.2298903	2.4959748
3.5672691462244708	6.171982	2.4843473
3.5848044309934988	6.2363105	2.4972606
3.60233979973359	6.2521944	2.500439
3.619875252856575	6.357883	2.5214844
3.6374107907743034	6.4610953	2.5418684
3.6549464138986427	6.4256988	2.5348961
3.6724821226414788	6.3987746	2.5295799
3.690017917414714	6.4043365	2.530679
3.7075537986302702	6.29647	2.5092769
3.7250897667000857	6.2792506	2.5058434
3.7426258220361235	6.3868575	2.5272233
3.7601619650503553	6.7706547	2.6020482
3.777698196154779	7.4100533	2.7221413
3.7952345157614067	8.471193	2.9105315
3.8127709242822716	9.261222	3.0432255
3.830307422129425	11.487871	3.3893762
3.847844009714936	30.288874	5.503533
3.8653806874508954	97.62879	9.880729
3.882917455749409	96.79881	9.838638
3.900454315022606	96.58272	9.827651
3.917991265682631	41.389492	6.4334664
3.9355283081416506	11.16914	3.3420262
3.9530654428118495	8.899113	2.983138
3.970602670105433	7.497491	2.7381546
3.9881399904346244	6.490214	2.5475898
4.005677404211669	6.4205093	2.5338724
4.023214911848827	6.4687757	2.5433788
4.0407525137583855	6.461703	2.541988
4.058290210352644	6.438079	2.537337
4.075828002043927	6.3682904	2.5235472
4.0933658892445814	6.1735396	2.4846609
4.110903872366966	6.062581	2.462231
4.128441951823468	5.999299	2.4493465
4.145980128026488	6.015422	2.4526358
4.163518401388452	6.128484	2.4755774
4.181056772321807	6.158323	2.4815967
4.1985952412390155	6.1476493	2.4794455
4.216133808552567	6.110196	2.4718812
4.233672474674966	6.182238	2.4864106
4.251211240018741	6.3834295	2.526545
4.268750104996445	6.561728	2.561587
4.286289070020643	7.325308	2.7065306
4.303828135503928	8.984685	2.9974463
4.3213673018589125	29.278769	5.410986
4.3389065694982305	90.56382	9.516502
4.356445938834537	165.91212	12.880688
4.3739854102805085	171.24089	13.085904
4.391524984248844	172.25574	13.124623
4.409064661152262	136.23405	11.671934
4.426604441403504	96.488914	9.822877
4.444144325415337	75.613304	8.695591
4.461684313600543	21.647503	4.6526875
4.47922440637193	21.977207	4.6879854
4.496764604142329	20.427492	4.519678
4.5143049073245916	18.622576	4.315388
4.531845316331589	16.532572	4.0660267
4.5493858315762195	13.471468	3.6703498
4.566926453471405	11.172965	3.3425984
4.584467182430081	9.093193	3.0154922
4.602008018865218	7.9891033	2.8265002
4.619548963189798	7.3412037	2.7094655
4.637090015816834	6.873261	2.6216905
4.654631177159353	6.640683	2.5769522
4.672172447630417	6.3717217	2.524227
4.689713827643102	6.2134395	2.4926772
4.7072553176105085	6.008054	2.4511333
4.724796917945764	5.8343134	2.4154325
4.742338629062015	5.775961	2.403323
4.759880451372434	5.6723304	2.3816655
4.777422385290215	5.693098	2.3860214
4.794964431228581	5.603543	2.3671803
4.812506589600768	5.578968	2.361984
4.830048860820047	5.544918	2.354765
4.847591245299709	5.6098213	2.3685062
4.8651337434530655	5.668839	2.3809323
4.882676355693457	5.636877	2.3742108
4.900219082434242	5.577942	2.3617666
4.917761924088813	5.535842	2.352837
4.935304881070575	5.539699	2.3536565
4.952847953792969	5.55831	2.357607
4.970391142669449	5.5540805	2.3567097
4.9879344481135055	5.548154	2.355452
5.005477870538642	5.4745173	2.3397686
5.023021410358394	5.44726	2.3339365
5.040565067986324	5.37518	2.3184433
5.05810884383601	5.3554378	2.3141818
5.075652738321066	5.390369	2.3217168
5.09319675185512	5.3981133	2.323384
5.110740884851836	5.4705563	2.338922
5.128285137724894	5.438032	2.3319588
5.145829510888007	5.371206	2.3175862
5.163374004754908	5.273654	2.2964437
5.1809186197393595	5.2045	2.2813373
5.198463356255145	5.2516947	2.2916577
5.216008214716077	5.2752953	2.296801
5.233553195535998	5.3125944	2.3049066
5.251098299128764	5.263469	2.2942252
5.268643525908272	5.1713595	2.2740624
5.286188876288432	5.2138243	2.28338
5.3037343506831895	5.25031	2.2913554
5.32127994950651	5.301716	2.3025455
5.3388256731723915	5.3274145	2.3081193
5.356371522094851	5.3792663	2.3193245
5.373917496687938	5.3083797	2.303992
5.391463597365729	5.2862644	2.2991877
5.40900982454232	5.264011	2.2943432
5.426556178631843	5.2688417	2.2953959
5.444102660048449	5.2251425	2.285857
5.4616492692063225	5.1329203	2.265595
5.479196006519669	5.1428647	2.2677884
5.496742872402727	5.170555	2.2738855
5.514289867269756	5.221312	2.2850192
5.531836991535049	5.1936045	2.278948
5.549384245612924	5.181699	2.2763345
5.566931629917724	5.1863637	2.277359
5.584479144863822	5.1613574	2.271862
5.6020267908656205	5.1500697	2.2693765
5.619574568337545	5.20732	2.2819552
5.637122477694054	5.22234	2.285244
5.654670519349629	5.1847725	2.2770095
5.672218693718784	5.113002	2.2611947
5.689767001216059	5.0194592	2.2404149
5.707315442256021	5.0783744	2.2535248
5.724864017253266	5.1572347	2.2709546
5.7424127266224225	5.2603064	2.2935357
5.75996157077814	5.2630944	2.2941434
5.777510550135105	5.2413387	2.289397
5.795059665108022	5.1976104	2.2798269
5.812608916111639	5.1875873	2.2776275
5.830158303560715	5.155361	2.2705421
5.847707827870055	5.1338625	2.2658029
5.86525748945448	5.2046313	2.281366
5.8828072887288485	5.342771	2.3114436
5.900357226108044	5.4489923	2.3343077
5.917907302006979	5.55941	2.35784
5.9354575168406	6.283678	2.5067265
5.9530078710238765	6.9601145	2.638203
5.970558364971812	7.4930105	2.7373364
5.988108999099438	7.8470116	2.801252
6.005659773821818	8.42379	2.9023767
6.023210689554039	8.178833	2.859866
6.040761746711227	8.519106	2.9187508
6.058312945708531	7.7451367	2.7830086
6.075864286961132	7.1979036	2.682891
6.093415770884244	6.5495944	2.5592175
6.1109673978931065	6.0347295	2.4565687
6.128519168402993	5.541388	2.3540154
6.146071082829204	5.3916245	2.3219872
6.163623141587075	5.285352	2.2989893
6.181175345091969	5.1414804	2.2674832
6.198727693759281	5.119055	2.2625327
6.216280188004435	5.126893	2.2642643
6.233832828242885	5.120192	2.2627842
6.251385614890126	5.120622	2.2628791
6.268938548361669	5.1276717	2.2644362
6.286491629073067	5.1568313	2.2708657
6.304044857439898	5.1638794	2.272417
6.321598233877777	5.0332828	2.2434978
6.339151758802344	5.0001864	2.2361097
6.356705432629277	4.9889865	2.233604
6.37425925577428	5.00157	2.236419
6.391813228653095	4.9370074	2.2219377
6.409367351681486	4.881468	2.2094045
6.426921625275259	4.9185386	2.2177777
6.44447604985025	5.0493364	2.247073
6.46203062582232	5.1083474	2.2601655
6.47958535360737	4.984791	2.2326646
6.497140233621328	4.934102	2.221284
6.514695266280161	4.9199166	2.2180886
6.532250451999859	4.9841666	2.2325246
6.549805791196454	4.9635696	2.227907
6.567361284286002	4.920149	2.2181408
6.584916931684597	4.936431	2.221808
6.602472733808367	4.914511	2.2168696
6.6200286910734665	4.951779	2.2252593
6.637584803896092	4.983932	2.2324722
6.655141072692462	4.9751	2.2304933
6.672697497878842	4.9763794	2.23078
6.690254079871514	4.9595237	2.2269988
6.707810819086808	4.9498577	2.2248275
6.725367715941078	4.933201	2.221081
6.742924770850719	4.9527745	2.225483
6.760481984232151	4.9332023	2.2210813
6.778039356501836	4.890959	2.2115512
6.795596888076266	4.8625584	2.205121
6.813154579371963	4.855859	2.2036014
6.830712430805492	4.9154778	2.2170877
6.84827044279344	4.974325	2.2303195
6.865828615752445	4.9201884	2.2181497
6.883386950099159	4.911495	2.2161894
6.900945446250287	4.839805	2.1999557
6.918504104622553	4.8658414	2.2058651
6.936062925632727	4.903565	2.2143993
6.953621909697607	4.9488325	2.2245972
6.971181057234028	5.027053	2.242109
6.988740368658859	5.084101	2.254795
7.006299844389007	5.087841	2.2556243
7.023859484841407	5.1389575	2.266927
7.041419290433036	5.285035	2.2989204
7.058979261580902	5.460858	2.3368478
7.0765393987020495	5.6438904	2.3756874
7.094099702213559	5.95586	2.440463
7.111660172532549	6.2518096	2.500362
7.129220810076164	6.609203	2.570837
7.146781615261595	7.1071534	2.6659245
7.16434258850606	7.390912	2.7186232
7.181903730226821	7.765729	2.7867057
7.1994650408411704	7.972914	2.8236349
7.217026520766437	8.118207	2.8492467
7.234588170419983	8.347093	2.8891335
7.252149990219215	8.425802	2.9027233
7.269711980581568	8.306505	2.8821008
7.2872741419245175	8.1722765	2.8587193
7.304836474665574	7.758656	2.7854364
7.322398979222286	7.4029183	2.7208304
7.339961656012233	7.1060185	2.6657116
7.357524505453039	6.766722	2.6012924
7.375087527962357	6.510295	2.551528
7.392650723957886	6.2465973	2.4993193
7.410214093857353	5.8774066	2.4243364
7.427777638078528	5.67177	2.381548
7.445341357039213	5.5204754	2.349569
7.4629052511572525	5.3658724	2.3164353
7.480469320850524	5.243103	2.2897823
7.498033566536948	5.191616	2.2785118
7.5155979886344735	5.154522	2.2703571
7.5331625875610975	5.178908	2.2757213
7.550727363734844	5.1630626	2.2722373
7.568292317573788	5.1207275	2.2629025
7.585857449496025	5.0923195	2.2566168
7.603422759919705	5.091467	2.256428
7.620988249263007	5.197038	2.2797012
7.638553917944147	5.2212906	2.2850144
7.656119766381391	5.2000422	2.2803602
7.673685794993023	5.1754317	2.2749574
7.691252004197388	5.1284475	2.2646077
7.70881839441285	5.1851974	2.277103
7.726384966057826	5.211789	2.2829344
7.743951719550762	5.2298493	2.2868865
7.761518655310149	5.245474	2.2903
7.779085773754511	5.2311683	2.2871747
7.796653075302419	5.2279587	2.286473
7.814220560372475	5.262961	2.2941144
7.831788229383323	5.3038225	2.3030028
7.8493560827536495	5.3115807	2.3046868
7.866924120902174	5.35157	2.3133461
7.884492344247663	5.3899126	2.3216186
7.9020607532089135	5.412275	2.3264296
7.919629348204771	5.356787	2.3144734
7.937198129654115	5.362237	2.3156505
7.954767097975865	5.3325872	2.3092396
7.972336253588986	5.321412	2.3068187
7.989905596912472	5.3225307	2.307061
8.007475128365371	5.337551	2.3103142
8.025044848366756	5.3608356	2.315348
8.042614757335754	5.4642806	2.33758
8.060184855691523	5.507633	2.3468347
8.07775514385327	5.616898	2.3699996
8.095325622240228	5.6856093	2.3844516
8.112896291271687	5.758443	2.3996756
8.130467151366968	5.7827735	2.4047399
8.148038202945436	5.7757826	2.4032857
8.165609446426497	5.850495	2.4187796
8.183180882229594	5.908786	2.4307995
8.200752510774217	5.8828025	2.425449
8.218324332479893	5.852896	2.419276
8.235896347766193	5.8394513	2.4164956
8.253468557052724	5.897906	2.4285605
8.27104096075914	5.88695	2.4263039
8.288613559305137	5.940489	2.437312
8.306186353110448	6.022821	2.4541435
8.32375934259485	6.176337	2.4852238
8.341332528178162	6.272708	2.5045376
8.358905910280246	6.364692	2.522834
8.376479489321003	6.2976413	2.5095103
8.394053265720377	6.3123145	2.512432
8.411627239898356	6.278969	2.5057871
8.42920141227497	6.241322	2.4982638
8.44677578327029	6.2601733	2.502034
8.464350353304427	6.254867	2.5009732
8.48192512279754	6.237124	2.4974234
8.499500092169827	6.152551	2.4804337
8.51707526184153	6.1538453	2.4806945
8.534650632232934	6.161196	2.4821756
8.552226203764365	6.1722493	2.4844012
8.569801976856192	6.143776	2.4786642
8.587377951928834	6.2232656	2.4946475
8.60495412940274	6.2713737	2.504271
8.622530509698416	6.29363	2.5087109
8.6401070932364	6.438193	2.5373595
8.657683880437283	6.504532	2.5503983
8.675260871721695	6.612483	2.5714748
8.692838067510303	6.7619286	2.600371
8.710415468223834	6.928188	2.6321452
8.727993074283043	7.0901103	2.6627262
8.745570886108737	7.0185184	2.6492486
8.763148904121765	7.0209594	2.6497092
8.78072712874302	6.987246	2.6433399
8.798305560393441	7.255934	2.693684
8.815884199494006	7.429453	2.7257023
8.833463046465745	7.648553	2.7656016
8.851042101729728	7.8107038	2.7947636
8.86862136570707	8.084425	2.8433123
8.886200838818924	8.2675	2.8753262
8.903780521486505	8.262327	2.8744264
8.921360414131055	8.350983	2.8898067
8.938940517173874	8.437553	2.9047468
8.956520831036297	8.5566025	2.925167
8.97410135613971	8.830368	2.9715936
8.99168209290554	9.032475	3.0054078
9.009263041755265	9.3746395	3.0618033
9.026844203110405	9.562471	3.0923245
9.044425577392525	9.798508	3.130257
9.062007165023239	9.890292	3.1448834
9.079588966424197	10.202492	3.194134
9.097170982017108	10.290231	3.207839
9.11475321222372	11.384558	3.374101
9.132335657465825	12.29097	3.505848
9.149918318165264	12.40835	3.5225487
9.167501194743924	13.091563	3.6182265
9.18508428762374	12.787294	3.5759327
9.202667597226693	12.767202	3.5731223
9.220251123974803	12.354488	3.5148952
9.237834868290143	11.963006	3.4587579
9.255418830594836	11.860533	3.4439125
9.273003011311046	11.420555	3.3794312
9.290587410860985	11.21415	3.3487535
9.308172029666911	10.534259	3.2456522
9.32575686815113	10.187426	3.1917746
9.343341926735997	8.777841	2.962742
9.360927205843916	8.53682	2.9217837
9.378512705897327	8.358714	2.891144
9.396098427318728	8.087671	2.843883
9.413684370530664	7.97347	2.8237333
9.431270535955722	7.821789	2.796746
9.448856924016539	7.7846737	2.7901027
9.466443535135806	7.6667924	2.7688973
9.484030369736251	7.7153125	2.777645
9.501617428240658	7.758387	2.7853882
9.519204711071852	7.807183	2.7941337
9.536792218652714	7.840957	2.800171
9.55437995140617	7.828708	2.797983
9.571967909755191	7.7864976	2.7904296
9.589556094122802	7.772397	2.7879019
9.60714450493207	7.78912	2.7908995
9.624733142606116	7.8113456	2.7948785
9.642322007568108	7.9076777	2.8120594
9.659911100241267	8.028555	2.8334706
9.677500421048851	8.075904	2.8418136
9.695089970414175	7.995536	2.827638
9.712679748760609	7.962894	2.82186
9.730269756511557	8.058719	2.8387883
9.747859994090492	8.151274	2.8550436
9.765450461920915	8.204481	2.8643465
9.78304116042639	8.223926	2.8677387
9.800632090030527	8.214777	2.8661432
9.81822325115699	8.203403	2.8641584
9.835814644229481	8.161255	2.856791
9.853406269671762	8.167855	2.857946
9.870998127907646	8.247625	2.871868
9.888590219360985	8.277226	2.877017
9.906182544455698	8.33117	2.8863766
9.923775103615734	8.274795	2.8765943
9.941367897265108	8.20327	2.864135
9.958960925827878	8.193607	2.8624477
9.97655418972816	8.211019	2.8654876
9.994147689390106	8.288142	2.8789134
10.011741425237934	8.26359	2.874646
10.029335397695904	8.257766	2.873633
10.04692960718833	8.200555	2.863661
10.06452405413958	8.12578	2.8505754
10.082118738974064	8.077228	2.8420463
10.099713662116246	8.169949	2.8583121
10.117308823990651	8.25486	2.8731272
10.134904225021844	8.231079	2.8689857
10.152499865634445	8.142378	2.853485
10.170095746253125	8.0908375	2.8444397
10.18769186730261	8.077793	2.842146
10.205288229207675	8.040812	2.8356326
10.222884832393145	8.039388	2.8353815
10.2404816772839	8.033804	2.8343966
10.258078764304868	8.042113	2.835862
10.275676093881035	8.021774	2.8322737
10.293273666437438	8.013338	2.830784
10.310871482399158	8.056832	2.838456
10.32846954219134	8.102132	2.8464243
10.346067846239173	8.1549425	2.855686
10.363666394967908	8.116363	2.848923
10.38126518880283	8.110034	2.8478122
10.398864228169298	8.133005	2.8518424
10.416463513492713	8.142188	2.853452
10.434063045198531	8.127082	2.8508036
10.451662823712262	8.136304	2.8524208
10.469262849459467	8.181669	2.8603618
10.486863122865758	8.083206	2.843098
10.504463644356806	8.018437	2.8316846
10.522064414358338	7.914311	2.8132386
10.539665433296118	7.88771	2.8085067
10.557266701595987	7.8097267	2.7945888
10.574868219683818	7.7028213	2.7753956
10.592469987985552	7.6080356	2.7582667
10.610072006927185	7.5181127	2.7419176
10.627674276934751	7.453739	2.7301538
10.64527679843435	7.3394685	2.7091453
10.662879571852143	7.161505	2.6760988
10.680482597614331	7.041459	2.6535747
10.698085876147173	6.966895	2.6394877
10.715689407876988	6.959414	2.63807
10.733293193230146	6.9241276	2.6313736
10.750897232633072	6.7355986	2.595303
10.76850152651225	6.65967	2.5806336
10.786106075294207	6.584268	2.5659828
10.803710879405534	6.5814967	2.5654428
10.821315939272877	6.4732423	2.5442567
10.83892125532294	6.333712	2.5166867
10.856526827982472	6.2588444	2.5017684
10.874132657678285	6.231568	2.496311
10.891738744837243	6.2106643	2.4921205
10.909345089886271	6.0960755	2.4690232
10.926951693252343	6.0278873	2.4551756
10.944558555362494	5.9395666	2.4371226
10.96216567664381	5.930053	2.4351702
10.979773057523436	5.89297	2.427544
10.997380698428573	5.8516665	2.4190218
11.014988599786477	5.794544	2.407186
11.032596762024461	5.6847315	2.3842676
11.050205185569892	5.5839767	2.363044
11.067813870850198	5.5510287	2.3560622
11.085422818292859	5.5088553	2.347095
11.10303202832541	5.4187946	2.3278306
11.120641501375454	5.3398366	2.3108087
11.138251237870636	5.314908	2.3054085
11.155861238238671	5.2394543	2.2889855
11.173471502907317	5.235862	2.2882006
11.191082032304402	5.192381	2.2786796
11.208692826857805	5.181538	2.2762992
11.226303886995465	5.087399	2.2555263
11.243915213145371	5.0109673	2.238519
11.261526805735578	4.887326	2.2107296
11.279138665194196	4.8495774	2.2021756
11.296750791949393	4.78891	2.1883578
11.314363186429393	4.7761865	2.185449
11.331975849062479	4.7126837	2.1708717
11.34958878027699	4.681818	2.163751
11.36720198050133	4.6229863	2.150113
11.384815450163948	4.5622516	2.1359427
11.402429189693366	4.5093207	2.123516
11.420043199518153	4.515069	2.124869
11.437657480066942	63.472637	7.966972
11.455272031768422	85.1668	9.228586
11.472886855051353	107.46252	10.366413
11.490501950344528	99.02077	9.950918
11.508117318076819	84.41484	9.187755
11.52573295867715	45.83888	6.7704415
11.543348872574514	4.1637964	2.0405383
11.560965060197946	4.1504903	2.0372753
11.57858152197655	4.0866594	2.0215487
11.59619825833949	4.0203805	2.0050886
11.613815269715985	3.9883273	1.9970797
11.631432556535323	38.52511	6.2068596
11.649050119226837	83.046844	9.113004
11.666667958219929	93.44188	9.666534
11.68428607394406	107.69305	10.377526
11.701904466828756	82.522156	9.08417
11.719523137303586	65.372765	8.085342
11.737142085798196	4.5752597	2.1389856
11.754761312742286	3.6925502	1.9216009
11.772380818565619	3.6335373	1.906184
11.790000603698015	3.5986962	1.897023
11.80762066856935	3.620585	1.9027835
11.825241013609572	3.6308937	1.9054904
11.842861639248683	3.5982783	1.8969128
11.860482545916748	3.488332	1.8677077
11.878103734043883	3.427747	1.8514175
11.895725204060282	3.394427	1.8423971
11.91334695639619	3.373964	1.8368354
11.930968991481919	3.3730464	1.8365855
11.948591309747824	3.356147	1.831979
11.966213911624347	3.3668442	1.8348962
11.98383679754198	3.315869	1.8209528
12.001459967931268	3.2466524	1.801847
12.019083423222835	3.2324107	1.7978907
12.036707163847352	3.1829774	1.78409
12.05433119023556	3.2008111	1.7890811
12.071955502818259	3.176951	1.7824004
12.089580102026313	3.1648755	1.7790097
12.107204988290643	3.136551	1.771031
12.12483016204224	3.1215193	1.7667822
12.142455623712152	3.1089084	1.7632097
12.16008137373149	3.0884197	1.75739
12.177707412531431	3.0825276	1.7557129
12.19533374054321	3.056174	1.7481916
12.212960358198126	3.0487347	1.7460626
12.230587265927545	3.0329208	1.7415283
12.248214464162889	2.975399	1.7249345
12.265841953335649	2.9669147	1.7224734
12.283469733877375	2.9496176	1.7174451
12.301097806219685	2.9496357	1.7174504
12.31872617079425	2.922272	1.7094654
12.336354828032825	2.935489	1.7133268
12.353983778367205	2.959156	1.7202197
12.371613022229262	2.9664931	1.7223511
12.389242560050928	2.9486797	1.717172
12.406872392264201	2.8800306	1.6970654
12.424502519301143	2.8530486	1.6890969
12.442132941593874	2.8394084	1.6850544
12.459763659574586	2.8680937	1.6935447
12.477394673675532	2.8452196	1.6867778
12.49502598432903	2.8392599	1.6850103
12.51265759196746	2.8329597	1.6831398
12.530289497023267	2.8197823	1.6792207
12.547921699928967	2.8413026	1.6856164
12.565554201117134	2.8356028	1.6839248
12.583187001020404	2.8292584	1.68204
12.600820100071486	2.78666	1.6693292
12.618453498703152	2.788411	1.6698536
12.636087197348235	2.8020263	1.6739254
12.65372119643964	2.8059454	1.6750957
12.671355496410326	2.8129508	1.6771854
12.68899009769333	2.7881634	1.6697794
12.706625000721749	2.8130884	1.6772264
12.724260205928752	2.8540864	1.6894041
12.741895713747551	2.9403625	1.7147485
12.759531524611454	3.0034704	1.7330524
12.777167638953818	2.983134	1.7271751
12.794804057208072	2.9609513	1.7207415
12.812440779807702	2.9764493	1.7252389
12.830077807186271	3.1737583	1.7815045
12.847715139777405	3.2230892	1.7952964
12.865352778014795	3.4476504	1.8567849
12.882990722332197	3.5759518	1.8910187
12.90062897316344	3.6722286	1.916306
12.918267530942412	3.7834203	1.9451016
12.935906396103071	3.6921577	1.9214988
12.953545569079449	3.858809	1.9643852
12.971185050305628	3.6410284	1.9081479
12.988824840215775	3.5758667	1.8909962
13.006464939244115	3.5676293	1.888817
13.024105347824943	3.4210763	1.8496152
13.041746066392617	3.5318804	1.8793298
13.05938709538157	3.35558	1.8318243
13.077028435226296	3.3767462	1.8375925
13.094670086361363	3.2505322	1.8029232
13.112312049221401	3.1338816	1.7702773
13.129954324241112	3.0118933	1.7354807
13.147596911855258	2.8390784	1.6849566
13.165239812498685	2.8183906	1.6788063
13.182883026606293	2.7770827	1.6664581
13.200526554613058	2.7259505	1.6510453
13.218170396954017	2.712887	1.6470844
13.235814554064284	2.688188	1.6395695
13.253459026379034	2.677728	1.6363765
13.271103814333523	2.706625	1.6451824
13.288748918363058	2.7036724	1.6442847
13.306394338903031	2.723603	1.6503342
13.32404007638889	2.6615255	1.6314182
13.341686131256164	2.7071347	1.6453372
13.359332503940449	2.7083163	1.6456963
13.376979194877402	2.686995	1.6392056
13.394626204502751	2.676703	1.6360632
13.412273533252307	2.7078927	1.6455675
13.429921181561937	2.7118177	1.6467597
13.447569149867581	2.703177	1.6441342
13.465217438605247	2.6817682	1.6376106
13.482866048211022	2.6956675	1.6418488
13.500514979121052	2.7138438	1.6473749
13.518164231771568	2.714085	1.6474481
13.535813806598844	2.6974826	1.6424015
13.553463704039254	2.671344	1.6344247
13.571113924529229	2.6494508	1.6277133
13.588764468505275	2.6638472	1.6321297
13.606415336403956	2.7003195	1.6432649
13.624066528661917	2.7094352	1.6460363
13.641718045715882	2.7634912	1.6623752
13.659369888002635	2.7766411	1.6663257
13.67702205595903	2.8652794	1.6927136
13.694674550021993	2.9102893	1.705957
13.712327370628532	2.961072	1.7207766
13.729980518215713	3.038262	1.7430611
13.747633993220681	3.140762	1.7722195
13.765287796080647	3.2108717	1.7918905
13.7829419272329	3.2591183	1.8053029
13.800596387114801	3.283783	1.8121212
13.818251176163775	3.2946312	1.8151119
13.835906294817324	3.3595967	1.8329203
13.853561743513023	3.4145174	1.8478413
13.871217522688525	3.4904015	1.8682616
13.888873632781538	3.4563475	1.8591255
13.906530074229858	3.4732847	1.863675
13.92418684747135	3.4797857	1.8654183
13.941843952943948	3.5056865	1.8723478
13.959501391085665	3.4994404	1.8706791
13.977159162334578	3.4158816	1.8482103
13.994817267128846	3.3510153	1.8305779
14.012475705906693	3.2634623	1.8065056
14.030134479106424	3.1755462	1.7820063
14.047793587166414	3.1135445	1.7645239
14.065453030525108	3.07133	1.752521
14.083112809621026	3.0261195	1.7395746
14.100772924892766	2.9534388	1.7185571
14.118433376778997	2.8771265	1.6962094
14.136094165718458	2.8228238	1.6801261
14.153755292149969	2.7564557	1.6602577
14.171416756512416	2.7102249	1.6462761
14.189078559244768	2.6378922	1.624159
14.20674070078606	2.5951338	1.6109419
14.224403181575408	2.524767	1.5889515
14.242066002051999	2.469865	1.5715804
14.259729162655093	2.4455812	1.5638354
14.277392663824022	2.425677	1.5574585
14.295056505998208	2.4286625	1.5584167
14.312720689617128	2.4042416	1.5505617
14.330385215120348	2.409641	1.5523019
14.348050082947497	2.4208457	1.5559068
14.3657152935383	2.405323	1.5509104
14.383380847332528	2.3617077	1.5367849
14.401046744770051	2.3167658	1.5220926
14.418712986290798	2.321149	1.5235318
14.436379572334793	2.32932	1.526211
14.454046503342123	2.3655922	1.5380481
14.471713779752946	2.330268	1.5265216
14.489381402007504	2.3570929	1.5352826
14.507049370546113	2.351876	1.5335827
14.524717685809168	2.3569448	1.5352345
14.542386348237134	2.3414483	1.5301791
14.560055358270553	2.3485682	1.5325038
14.577724716350051	2.4300861	1.5588733
14.595394422916325	2.450743	1.5654849
14.61306447841015	2.4556208	1.567042
14.63073488327237	2.4370527	1.5611062
14.648405637943917	2.507678	1.583565
14.6660767428658	2.5507061	1.597093
14.683748198479094	2.5490732	1.5965817
14.701420005224954	2.5317512	1.5911478
14.719092163544628	2.5743313	1.6044723
14.73676467387942	2.6354825	1.6234169
14.754437536670727	2.692073	1.6407539
14.772110752360014	2.7325542	1.6530439
14.78978432138882	2.734148	1.653526
14.807458244198777	2.7107158	1.6464251
14.82513252123159	2.6540139	1.6291144
14.842807152929028	2.6543353	1.6292131
14.860482139732962	2.6519704	1.6284871
14.87815748208531	2.6511257	1.6282277
14.8958331804281	2.6826525	1.6378804
14.91350923520342	2.6148722	1.6170566
14.931185646853438	2.6069906	1.6146178
14.948862415820408	2.6205466	1.6188102
14.966539542546656	2.6382272	1.6242621
14.98421702747459	2.6210759	1.6189737
15.001894871046696	2.5975854	1.6117027
15.019573073705542	2.6201234	1.6186795
15.037251635893766	2.6558352	1.6296734
15.054930558054092	2.6826751	1.6378874
15.072609840629323	2.726064	1.6510797
15.090289484062351	2.844442	1.6865473
15.107969488796124	3.0856955	1.7566148
15.125649855273691	3.5163574	1.8751953
15.14333058393817	4.013871	2.0034647
15.161011675232768	4.9602985	2.2271729
15.17869312960076	6.2042437	2.4908319
15.196374947485506	8.03071	2.8338509
15.214057129330447	11.094557	3.3308492
15.231739675579114	15.994075	3.9992592
15.249422586675102	21.404064	4.6264524
15.267105863062092	24.819187	4.981886
15.284789505183847	25.176348	5.017604
15.302473513484218	23.022446	4.798171
15.320157888407127	19.36636	4.4007225
15.337842630396578	15.092494	3.8849058
15.355527739896656	11.636707	3.4112618
15.37321321735153	8.954746	2.992448
15.39089906320545	6.4108105	2.5319579
15.408585277902748	4.78382	2.1871946
15.42627186188783	3.6613312	1.9134605
15.443958815605198	3.1213949	1.766747
15.461646139499424	2.8043523	1.67462
15.479333834015168	2.6869388	1.6391884
15.497021899597165	2.645063	1.626365
15.514710336690234	2.608968	1.61523
15.53239914573928	2.5369322	1.592775
15.550088327189297	2.4847536	1.5763102
15.567777881485336	2.455053	1.5668609
15.58546780907256	2.4685607	1.5711654
15.6031581103962	2.4807703	1.5750462
15.620848785901568	2.5047975	1.5826552
15.638539836034063	2.5128417	1.5851946
15.656231261239173	2.4809778	1.575112
15.673923061962451	2.426919	1.5578572
15.691615238649552	2.4047656	1.5507307
15.709307791746202	2.443655	1.5632194
15.727000721698221	2.461224	1.5688289
15.744694028951498	2.4039524	1.5504684
15.76238771395202	2.3657293	1.5380927
15.780081777145844	2.3558915	1.5348914
15.797776218979125	2.4054105	1.5509386
15.815471039898094	2.4142148	1.5537744
15.833166240349064	2.4294956	1.5586839
15.850861820778437	2.420904	1.5559254
15.868557781632699	2.3973057	1.5483235
15.886254123358412	2.3585234	1.5357485
15.903950846402232	2.354244	1.5343546
15.921647951210897	2.3522127	1.5336925
15.939345438231225	2.3634233	1.5373429
15.957043307910133	2.3700306	1.5394903
15.974741560694602	2.3806922	1.5429492
15.992440197031714	2.374076	1.5408037
16.01013921736862	2.3545704	1.5344609
16.02783862215259	2.3493288	1.532752
16.045538411830933	2.3540566	1.5342935
16.06323858685107	2.3386164	1.5292535
16.080939147660512	2.3540466	1.5342902
16.09864009470684	2.324616	1.5246692
16.11634142843774	2.3321114	1.5271252
16.134043149300954	2.3334095	1.5275502
16.15174525774433	2.369765	1.5394042
16.169447754215817	2.414969	1.5540171
16.18715063916342	2.404862	1.5507617
16.204853913035244	2.3917623	1.5465323
16.222557576279478	2.401381	1.549639
16.240261629344403	22.376669	4.730398
16.257966072678386	42.911587	6.5506935
16.275670906729868	38.017467	6.1658306
16.293376131947387	2.4518113	1.565826
16.31108174877957	2.476187	1.5735905
16.328787757675133	2.4728081	1.5725164
16.34649415908287	2.5131285	1.585285
16.364200953451657	2.565687	1.6017762
16.38190814123048	2.6032996	1.6134744
16.39961572286839	2.6243854	1.6199955
16.41732369881455	2.6767757	1.6360855
16.43503206951817	2.7016087	1.6436571
16.45274083542859	2.7202168	1.649308
16.47044999699522	2.7532806	1.6593013
16.488159554667558	2.812092	1.6769294
16.505869508895184	2.856082	1.6899947
16.523579860127786	2.8768482	1.6961274
16.541290608815117	2.9492335	1.7173333
16.559001755407035	3.0079355	1.7343401
16.57671330035348	3.0840056	1.7561337
16.59442524410448	3.1257813	1.767988
16.61213758711015	3.1851845	1.7847085
16.629850329820705	3.26364	1.8065547
16.647563472686436	3.3671162	1.8349704
16.665277016157724	3.4411216	1.855026
16.682990960685053	3.48045	1.8655964
16.70070530671898	3.492755	1.8688914
16.718420054710155	3.5192654	1.8759705
16.736135205109335	3.5329764	1.8796214
16.753850758367335	3.5358047	1.8803736
16.771566714935087	3.5783482	1.8916522
16.789283075263597	3.6400464	1.9078906
16.80699983980398	3.7023947	1.9241608
16.82471700900741	3.814618	1.9531047
16.84243458332518	3.8852663	1.9711078
16.860152563208665	3.9232278	1.980714
16.87787094910932	3.9508388	1.9876717
16.89558974147871	4.0440707	2.0109875
16.913308940768466	4.1903477	2.0470338
16.931028547430333	4.2481475	2.0611036
16.94874856191613	4.2894216	2.071092
16.966468984677785	4.331737	2.0812826
16.98418981616729	4.433936	2.1056914
17.00191105683676	4.4723315	2.1147888
17.019632707138374	4.4815297	2.1169624
17.03735476752442	4.465371	2.1131425
17.05507723844728	4.500976	2.1215503
17.072800120359403	4.562632	2.1360319
17.090523413713353	4.566694	2.1369824
17.108247118961785	4.5722513	2.1382823
17.125971236557437	4.542701	2.1313612
17.143695766953133	4.5443583	2.13175
17.161420710601806	4.5617695	2.13583
17.179146067956477	4.5634904	2.1362329
17.19687183947025	4.5734444	2.1385612
17.21459802559634	4.5652046	2.1366339
17.232324626788028	4.561008	2.1356516
17.25005164349871	4.5650234	2.1365914
17.267779076181863	4.5519547	2.133531
17.285506925291074	4.558253	2.1350064
17.30323519127999	4.5672145	2.1371043
17.320963874602384	4.599693	2.1446896
17.33869297571211	4.632974	2.1524346
17.356422495063114	4.5862355	2.1415498
17.37415243310944	4.547134	2.132401
17.391882790305218	4.4689245	2.1139832
17.40961356710468	4.4599214	2.1118526
17.42734476396215	4.4461746	2.1085954
17.445076381332044	4.4818525	2.1170387
17.462808419668868	4.570535	2.137881
17.48054087942723	4.71693	2.1718495
17.498273761061835	4.9627323	2.227719
17.51600706502747	5.3283696	2.3083262
17.533740791779024	5.9668746	2.4427187
17.551474941771485	7.313964	2.7044342
17.56920951545993	8.448685	2.9066622
17.586944513299528	10.694024	3.2701719
17.60467993574556	12.5226965	3.5387423
17.622415783253373	14.47988	3.8052437
17.64015205627843	16.18515	4.023077
17.657888755276293	17.469107	4.179606
17.675625880702604	18.024233	4.245496
17.69336343301311	17.710402	4.2083726
17.71110141266366	16.783747	4.096797
17.728839820110178	15.733419	3.9665375
17.746578655808705	14.703932	3.8345706
17.764317920215372	13.073045	3.6156666
17.7820576137864	11.435024	3.3815713
17.79979773697811	9.352955	3.0582602
17.81753829024692	7.383744	2.7173045
17.835279274049356	5.7173467	2.3910973
17.85302068884201	4.713966	2.171167
17.870762535081607	4.0507727	2.012653
17.888504813224934	3.753495	1.9373939
17.90624752372891	3.6339047	1.9062803
17.923990667050536	3.6267061	1.9043913
17.941734243646895	3.5720506	1.8899869
17.959478253975185	3.5227177	1.8768904
17.9772226984927	3.484929	1.8667965
17.994967577656833	3.4509125	1.8576632
18.01271289192506	3.4248471	1.8506342
18.030458641754965	3.3836002	1.8394566
18.04820482760425	3.3682916	1.8352906
18.06595144993067	3.3485548	1.8299057
18.083698509192125	3.3372376	1.8268107
18.101446005846576	3.2979796	1.8160341
18.119193940352105	3.2825103	1.81177
18.136942313166887	3.245918	1.8016431
18.1546911247492	3.2798297	1.81103
18.1724403755574	3.2283008	1.7967473
18.19019006604997	3.155659	1.7764175
18.207940196685467	3.0907876	1.7580636
18.225690767922575	3.095781	1.7594832
18.243441780220046	3.0959563	1.7595329
18.261193234036764	3.1052997	1.762186
18.278945129831676	3.0590653	1.7490184
18.29669746806386	2.9773998	1.7255144
18.314450249192483	2.9287024	1.7113452
18.3322034736768	2.9330745	1.712622
18.349957141976184	2.9876578	1.7284843
18.3677112545501	3.0558052	1.7480862
18.385465811858108	3.0801623	1.7550391
18.403220814359884	3.0367823	1.7426366
18.420976262515172	3.0432286	1.7444853
18.43873215678387	3.0877078	1.7571875
18.456488497625923	3.1420496	1.7725828
18.474245285501407	3.223574	1.7954314
18.492002520870486	3.297587	1.815926
18.50976020419343	3.375433	1.8372351
18.527518335930615	3.6514294	1.9108714
18.545276916542516	4.202226	2.0499332
18.563035946489688	4.336446	2.0824134
18.580795426232832	4.756948	2.181043
18.598555356232698	4.6188745	2.1491568
18.616315736950185	4.936934	2.2219212
18.63407656884626	4.6447263	2.1551628
18.65183785238201	4.8280396	2.1972802
18.669599588018617	4.6207805	2.1496
18.68736177621737	4.6228156	2.1500733
18.705124417439652	4.6657557	2.160036
18.72288751214696	4.45686	2.1111276
18.740651060800886	4.548782	2.1327875
18.758415063863115	4.2251945	2.0555277
18.77617952179546	4.401733	2.0980308
18.793944435059814	4.1711755	2.0423455
18.811709804118184	4.179139	2.0442944
18.829475629432675	4.1405683	2.0348387
18.8472419114655	3.949698	1.9873847
18.86500865067897	4.0302954	2.0075595
18.88277584753551	3.730021	1.9313263
18.90054350249763	3.7317247	1.9317672
18.918311616027957	3.3839445	1.8395501
18.936080188589226	3.2986836	1.8162279
18.953849220644265	2.9916556	1.7296404
18.971618712656007	2.8357942	1.6839817
18.9893886650875	2.76722	1.6634964
19.007159078401887	7.9959345	2.8277082
19.024929953062408	32.850967	5.7315764
19.042701289532435	32.760036	5.7236385
19.060473088275405	25.340292	5.033914
19.07824534975489	2.6403525	1.6249162
19.096018074434568	2.6132133	1.6165437
19.113791262778197	2.567075	1.6022094
19.13156491524966	2.5551765	1.5984919
19.149339032312945	2.5466213	1.5958136
19.167113614432136	2.5093699	1.584099
19.184888662071433	2.517398	1.5866311
19.202664175695123	2.507772	1.5835947
19.220440155767623	2.517226	1.5865768
19.238216602753447	2.5148494	1.5858277
19.2559935171172	2.5146177	1.5857546
19.27377089932361	2.4756656	1.5734248
19.291548749837514	2.4629157	1.5693679
19.309327069123835	2.457751	1.5677216
19.32710585764763	2.4498224	1.5651909
19.344885115874032	2.4412534	1.5624511
19.362664844268313	2.4581528	1.5678498
19.380445043295822	2.4874005	1.5771495
19.39822571342203	2.5233736	1.588513
19.41600685511252	2.4994833	1.5809754
19.43378846883297	2.4599545	1.5684242
19.451570555049173	2.4565647	1.5673432
19.469353114227037	2.473033	1.572588
19.48713614683254	2.4672546	1.5707498
19.50491965333182	2.4628725	1.5693542
19.52270363419109	2.4857664	1.5766313
19.540488089876686	2.5034955	1.5822438
19.55827302085503	2.4993846	1.5809442
19.576058427592674	2.4674287	1.5708051
19.593844310556282	2.4531808	1.5662633
19.611630670212598	2.449064	1.5649486
19.629417507028506	2.478575	1.574349
19.64720482147098	2.4960697	1.5798955
19.6649926140071	2.5269258	1.5896307
19.682780885104084	2.488373	1.5774578
19.70056963522921	2.4689364	1.571285
19.718358864849908	2.4240525	1.5569369
19.7361485744337	2.433501	1.5599682
19.753938764448215	2.4547005	1.5667484
19.771729435361202	2.506912	1.5833231
19.789520587640506	2.5446568	1.595198
19.807312221754092	2.5425498	1.5945375
19.825104338170043	2.474185	1.5729542
19.842896937356517	2.428896	1.5584916
19.860690019781824	2.4221947	1.5563402
19.87848358591436	2.4562345	1.5672379
19.896277636222635	2.457501	1.5676419
19.914072171175278	2.452543	1.5660597
19.931867191241015	2.4573808	1.5676035
19.94966269688869	2.5025237	1.5819367
19.967458688587264	2.495763	1.5797985
19.985255166805807	2.4935791	1.579107
20.00305213201348	2.437556	1.5612675
20.020849584679578	2.4373899	1.5612142
20.038647525273507	2.4596493	1.568327
20.05644595426477	2.4874153	1.5771542
20.07424487212299	2.4873695	1.5771396
20.092044279317903	2.4609945	1.5687557
20.109844176319353	2.4308863	1.55913
20.127644563597304	2.4299552	1.5588313
20.145445441621817	2.4341803	1.560186
20.16324681086307	2.4315774	1.5593516
20.181048671791373	2.4420664	1.5627112
20.198851024877122	2.455441	1.5669847
20.216653870590836	2.419839	1.5555831
20.234457209403146	2.376047	1.5414431
20.252261041784802	2.361483	1.5367118
20.270065368206662	2.3940895	1.5472846
20.287870189139685	2.3595726	1.53609
20.305675505054968	2.3239377	1.5244467
20.323481316423702	2.3304234	1.5265725
20.341287623717207	2.3570058	1.5352544
20.359094427406884	2.3554163	1.5347365
20.376901727964288	2.3458161	1.5316057
20.39470952586107	2.3587368	1.535818
20.41251782156899	2.3632367	1.5372822
20.430326615559935	2.357699	1.53548
20.448135908305886	2.3029811	1.5175576
20.465945700278965	2.3158371	1.5217875
20.483755991951384	2.3498836	1.532933
20.50156678379548	2.360934	1.5365331
20.519378076283708	2.359086	1.5359317
20.537189869888635	2.356759	1.535174
20.55500216508294	2.3549616	1.5345885
20.572814962339415	2.3804948	1.5428852
20.59062826213098	2.3550828	1.5346279
20.60844206493066	2.3423119	1.5304613
20.626256371211593	2.3308682	1.5267181
20.644071181447032	2.3184688	1.5226519
20.66188649611036	2.2885127	1.512783
20.67970231567506	2.288864	1.5128992
20.697518640614742	2.3308642	1.5267168
20.715335471403122	2.3646219	1.5377327
20.73315280851404	2.362034	1.5368911
20.750970652421447	2.363767	1.5374547
20.768789003599412	2.353084	1.5339766
20.786607862522136	2.306979	1.5188743
20.8044272296639	2.288522	1.5127861
20.82224710549913	2.253013	1.501004
20.84006749050237	2.2752368	1.5083889
20.857888385148268	3.8455389	1.9610045
20.8757097899116	45.95399	6.7789373
20.893531705267254	64.807274	8.050297
20.911354131690224	83.82233	9.155454
20.92917706965566	69.02626	8.308205
20.94700051963877	50.0747	7.076348
20.96482448211493	29.354706	5.4179983
20.982648957559622	4.1049705	2.0260727
21.00047394644843	2.2260578	1.491998
21.01829944925707	2.2249956	1.4916419
21.036125466461375	2.2391772	1.4963881
21.053951998537297	2.2742612	1.5080653
21.071779045960906	2.2812922	1.5103947
21.089606609208378	2.2477005	1.4992332
21.10743468875603	2.2139418	1.4879321
21.12526328508028	2.201495	1.4837435
21.143092398657675	2.1971567	1.4822809
21.16092202996488	2.2088232	1.4862111
21.17875217947867	2.2162073	1.4886931
21.19658284767596	2.1950254	1.4815618
21.21441403503377	2.1500058	1.4662898
21.232245742029225	2.1382356	1.4622707
21.2500779691396	2.1442425	1.4643233
21.26791071684227	2.142897	1.4638637
21.28574398561475	2.1463115	1.4650295
21.30357777593465	2.1626332	1.4705894
21.321412088279704	2.1466093	1.4651312
21.339246923127792	2.121828	1.4566497
21.357082280956888	2.1325548	1.4603269
21.3749181622451	2.1505728	1.4664831
21.392754567470647	2.1467252	1.4651707
21.41059149711187	2.1461527	1.4649754
21.42842895164726	2.1258159	1.4580178
21.446266931555378	2.1071458	1.4516011
21.464105437314945	2.0968	1.4480332
21.481944469404798	2.1157	1.4545447
21.49978402830388	2.1164448	1.4548006
21.51762411449127	2.1149755	1.4542955
21.53546472844617	2.0983553	1.4485701
21.553305870647876	2.0855784	1.4441532
21.571147541575865	2.1014016	1.4496212
21.58898974170967	2.116522	1.4548272
21.60683247152899	2.1169035	1.4549583
21.62467573151363	2.1121504	1.453324
21.642519522143523	2.0817838	1.4428388
21.660363843898722	2.070754	1.4390115
21.6782086972594	2.043923	1.4296583
21.696054082705864	2.0360396	1.4268986
21.713900000718535	2.0251667	1.4230835
21.73174645177795	2.0284932	1.4242518
21.749593436364794	2.0401134	1.4283254
21.767440954959845	2.0536695	1.4330629
21.785289008044032	2.048321	1.4311956
21.803137596098388	2.009367	1.4175215
21.820986719604086	1.9959657	1.4127865
21.838836379042412	1.9937651	1.4120075
21.85668657489478	2.0343652	1.4263117
21.87453730764273	2.004992	1.4159774
21.892388577767914	1.9771497	1.4061116
21.91024038575213	1.9510494	1.3967997
21.928092732077285	1.9697887	1.4034916
21.945945617225426	1.970025	1.4035758
21.963799041678694	1.9848624	1.4088515
21.981653005919398	31.297869	5.59445
21.999507510429943	78.11506	8.838272
22.01736255569286	73.0645	8.547777
22.035218142190818	4.1436133	2.0355868
22.05307427040661	1.9374259	1.3919145
22.07093094082315	1.9604965	1.4001774
22.088788153923474	1.9940921	1.4121232
22.106645910190746	1.9822071	1.4079088
22.12450421010827	1.991165	1.4110864
22.142363054159464	2.017127	1.420256
22.16022244282787	1.9910767	1.4110552
22.178082376597164	1.9578191	1.399221
22.195942855951145	1.9525459	1.3973353
22.213803881373742	1.9714732	1.4040916
22.231665453349002	2.0111108	1.4181364
22.24952757236111	1.9999204	1.4141854
22.26739023889438	1.9749348	1.4053237
22.28525345343323	1.960233	1.4000832
22.30311721646225	1.9954597	1.4126074
22.320981528466113	1.9810703	1.407505
22.33884638992964	1.9630309	1.401082
22.356711801337788	1.9438972	1.3942372
22.37457776317561	1.974914	1.4053164
22.392444275928337	2.0020585	1.4149412
22.410311340081282	1.9891448	1.4103705
22.428178956119904	1.9675366	1.4026891
22.446047124529805	1.9374937	1.3919388
22.46391584579669	1.9430703	1.3939406
22.481785120406414	1.9598609	1.3999504
22.49965494884496	1.9383113	1.3922325
22.51752533159841	1.9248381	1.3873854
22.53539626915302	1.9232697	1.38682
22.553267761995137	1.9548913	1.3981743
22.571139810611264	1.9678891	1.4028147
22.589012415488025	1.9730839	1.404665
22.60688557711216	1.9583282	1.3994029
22.624759295970566	1.9297063	1.3891387
22.642633572550263	1.9071298	1.3809887
22.660508407338362	1.8910742	1.3751633
22.67838380082217	1.8751163	1.3693489
22.696259753489077	1.8399224	1.3564374
22.714136265826614	1.8796234	1.3709936
22.73201333832246	1.9551293	1.3982594
22.74989097146439	1.9788905	1.4067304
22.76776916574035	1.9766276	1.4059259
22.785647921638393	1.9688044	1.4031409
22.803527239646712	1.927776	1.3884437
22.82140712025363	1.8961916	1.3770227
22.839287563947593	1.8667439	1.3662884
22.85716857121719	1.8987008	1.3779335
22.875050142551135	1.8919339	1.3754759
22.892932278438277	1.9102321	1.3821114
22.910814979367604	1.8924173	1.3756516
22.928698245828222	1.8689036	1.3670785
22.946582078309387	1.8502983	1.3602567
22.96446647730047	1.8675483	1.3665828
22.98235144329098	1.8485005	1.3595957
23.000236976770562	1.8516867	1.360767
23.018123078229	1.898395	1.3778225
23.03600974815619	1.9260942	1.387838
23.053896987042194	1.8968356	1.3772565
23.071784795377173	1.8647375	1.365554
23.08967317365145	1.87696	1.3700219
23.10756212235546	1.908163	1.3813627
23.125451641979787	1.9263263	1.3879216
23.143341733015134	1.9136941	1.3833634
23.161232395952357	1.9152223	1.3839155
23.179123631282426	1.9408673	1.3931501
23.197015439496468	1.9708214	1.4038595
23.214907821085717	1.9672306	1.40258
23.23280077654157	1.9758279	1.4056414
23.250694306355538	1.9471885	1.395417
23.268588411019277	1.9603956	1.4001412
23.28648309102458	1.9537003	1.3977484
23.304378346863356	1.9673721	1.4026304
23.322274179027676	1.9475865	1.3955595
23.340170588009723	1.9624603	1.4008784
23.358067574301852	1.9211509	1.386056
23.37596513839651	1.8875926	1.3738968
23.39386328078629	1.8784344	1.3705599
23.411762001963947	1.8679208	1.366719
23.429661302422353	1.9169518	1.3845403
23.4475611826545	1.9348369	1.3909842
23.46546164315356	1.9485074	1.3958895
23.48336268441279	1.9417523	1.3934678
23.501264306925638	1.9253174	1.3875581
23.51916651118564	1.9266127	1.3880248
23.537069297686497	1.9376627	1.3919995
23.554972666922037	1.9436141	1.3941356
23.57287661938623	1.9433597	1.3940444
23.59078115557318	1.9291408	1.3889351
23.608686275977128	1.8927262	1.3757639
23.62659198109246	1.8562539	1.362444
23.6444982714137	1.8676	1.3666016
23.66240514743549	1.916592	1.3844104
23.68031260965263	1.9319575	1.3899487
23.698220658560068	1.8975929	1.3775314
23.716129294652845	1.8812509	1.371587
23.7340385184262	1.8988996	1.3780056
23.75194833037546	1.9133332	1.3832328
23.769858730996123	1.9049975	1.3802165
23.78776972078382	1.8851104	1.3729932
23.80568130023431	1.8998252	1.3783414
23.823593469843495	1.8871609	1.3737397
23.841506230107424	1.900324	1.3785224
23.859419581522275	1.8825577	1.3720633
23.87733352458438	1.8807126	1.3713908
23.89524805979019	1.8869557	1.3736651
23.913163187636318	1.9110448	1.3824054
23.931078908619508	1.9498693	1.3963772
23.948995223236633	1.9732134	1.4047111
23.966912131984735	1.9804691	1.4072914
23.98482963536096	1.985135	1.4089482
24.002747733862616	1.9821892	1.4079024
24.020666427987155	2.0206032	1.4214792
24.038585718232156	2.009941	1.4177239
24.056505605095353	2.0196383	1.4211398
24.074426089074617	2.0365427	1.4270749
24.092347170667946	2.0191278	1.4209602
24.110268850373515	2.0418127	1.4289201
24.128191128689586	2.035422	1.4266822
24.146114006114626	2.0169604	1.4201972
24.164037483147187	2.0152724	1.4196029
24.181961560286005	2.0328102	1.4257666
24.199886238029926	2.0075698	1.4168874
24.21781151687797	2.0094507	1.4175509
24.235737397329274	2.025002	1.4230256
24.253663879883135	2.0258956	1.4233396
24.271590965038975	2.0184782	1.4207315
24.289518653296376	2.0084558	1.4172
24.30744694515505	2.004619	1.4158456
24.32537584111486	1.9872975	1.4097154
24.34330534167581	1.9926262	1.4116042
24.361235447338046	2.0191793	1.4209783
24.379166158601876	2.032314	1.4255925
24.39709747596772	2.0308006	1.4250616
24.41502939993615	2.0152442	1.419593
24.432961931007917	1.9944848	1.4122623
24.450895069683856	1.9721192	1.4043217
24.468828816465	1.9234713	1.3868927
24.4867631718525	1.9202167	1.3857188
24.504698136347656	1.9736912	1.4048812
24.52263371045192	1.9871241	1.4096539
24.540569894666874	1.9372785	1.3918616
24.558506689494266	1.8910062	1.3751386
24.57644409543597	1.8889583	1.3743938
24.594382112994012	1.9268409	1.388107
24.61232074267057	1.9463007	1.3950988
24.630259984967953	1.9572976	1.3990345
24.64819984038863	1.9328344	1.3902642
24.66614030943522	1.9455398	1.394826
24.684081392610462	1.9486125	1.3959271
24.702023090417274	1.9760303	1.4057134
24.7199654033587	1.9893051	1.4104273
24.737908331937927	2.053937	1.4331563
24.755851876658305	2.1078706	1.4518508
24.773796038023324	2.0787184	1.4417762
24.79174081653661	2.051082	1.4321599
24.809686212701962	2.0030866	1.4153044
24.827632227023294	1.981974	1.407826
24.8455788600047	2.0115385	1.4182872
24.8635261121504	2.0316482	1.425359
24.88147398396475	2.068347	1.4381748
24.899422475952303	2.0571785	1.4342867
24.917371588617698	2.0718315	1.4393858
24.935321322465768	2.1177187	1.4552383
24.953271678001478	2.2201128	1.4900043
24.97122265572994	2.4392185	1.5617998
24.989174256156414	2.7543242	1.6596156
25.00712647978632	3.2028422	1.7896487
25.02507932712521	3.7941897	1.947868
25.043032798678798	4.3405957	2.0834095
25.060986894952933	5.039862	2.2449636
25.078941616453637	5.8473897	2.4181376
25.096896963687055	6.982316	2.6424072
25.114852937159508	8.152539	2.8552651
25.132809537377444	8.6353245	2.9385922
25.150766764847468	8.629426	2.9375885
25.168724620076347	8.017554	2.8315287
25.186683103570985	6.950808	2.6364386
25.204642215838426	5.6973295	2.386908
25.222601957385894	4.3287582	2.080567
25.24056232872074	3.2261827	1.7961577
25.25852333035048	2.6060174	1.6143163
25.276484962782778	2.2422283	1.4974072
25.294447226525435	2.0853055	1.4440587
25.312410122086423	1.9607811	1.4002789
25.330373649973843	1.9045594	1.3800577
25.348337810695988	1.8708895	1.3678046
25.366302604761245	1.8690717	1.3671399
25.384268032678207	1.9055386	1.3804125
25.40223409495558	1.9324762	1.3901353
25.420200792102257	1.8878559	1.3739927
25.438168124627246	1.897309	1.3774284
25.45613609303974	1.9236934	1.3869728
25.474104697849057	1.9432728	1.3940132
25.492073939564698	1.9430826	1.393945
25.510043818696285	1.9428483	1.3938609
25.528014335753614	1.913939	1.3834518
25.54598549124664	1.8981882	1.3777475
25.56395728568544	1.839892	1.3564262
25.58192971958028	1.7719387	1.3311418
25.59990279344156	1.7958906	1.3401084
25.617876507779833	1.8515257	1.3607078
25.635850863105826	1.8191199	1.3487475
25.653825859930386	1.8156672	1.347467
25.671801498764548	1.8283024	1.3521473
25.68977778011949	1.8687011	1.3670044
25.707754704506524	1.8527577	1.3611604
25.725732272437153	1.877612	1.3702599
25.743710484423012	1.8924336	1.3756576
25.761689340975888	1.8907636	1.3750504
25.77966884260774	1.8749162	1.3692758
25.797648989830662	1.8778478	1.3703458
25.815629783156922	1.9185598	1.3851209
25.83361122309895	1.883563	1.3724296
25.85159331016929	1.8696485	1.3673509
25.869576044880695	1.8447005	1.3581975
25.887559427746034	1.8630899	1.3649505
25.90554345927836	1.8736209	1.3688027
25.92352813999086	1.8448479	1.3582518
25.94151347039689	1.8168653	1.3479115
25.959499451009965	1.8286005	1.3522576
25.97748608234374	1.8451688	1.35837
25.995473364912062	1.8613968	1.3643302
26.013461299228904	1.8752778	1.3694078
26.03144988580839	1.8199279	1.3490471
26.04943912516483	1.7743895	1.3320621
26.067429017812675	1.7337368	1.3167144
26.085419564266537	1.7768742	1.3329945
26.103410765041186	1.8249196	1.3508959
26.12140262065155	1.8700722	1.3675059
26.139395131612723	1.8558464	1.3622946
26.157388298439948	1.8435507	1.3577741
26.17538212164861	1.8305935	1.3529942
26.193376601754295	1.7922574	1.3387522
26.211371739272714	1.7856563	1.3362845
26.229367534719746	1.7942927	1.3395121
26.247363988611433	1.8169202	1.3479319
26.26536110146397	1.8177403	1.348236
26.283358873793727	1.8544103	1.3617673
26.301357306117204	1.8709601	1.3678304
26.319356398951104	1.8575577	1.3629224
26.33735615281224	1.8667685	1.3662974
26.35535656821762	1.9029926	1.37949
26.373357645684404	1.846945	1.3590236
26.39135938572991	1.7907985	1.3382072
26.409361788871614	1.7775174	1.3332357
26.427364855627165	1.8260685	1.351321
26.445368586514352	1.8468909	1.3590037
26.46337298205115	1.802817	1.3426902
26.48137804275568	1.7612259	1.3271118
26.499383769146217	1.754416	1.3245437
26.517390161741215	1.7415878	1.3196923
26.53539722105928	1.7538358	1.3243246
26.553404947619182	1.7782984	1.3335285
26.571413341939856	1.8437961	1.3578645
26.589422404540397	1.861481	1.364361
26.60743213594006	1.8853875	1.3730942
26.62544253665827	1.8636584	1.3651588
26.64345360721459	1.8011287	1.3420614
26.66146534812879	1.7560484	1.3251598
26.679477759920758	1.7608038	1.3269528
26.69749084311057	1.823773	1.3504714
26.71550459821847	1.8182518	1.3484257
26.733519025764842	1.8027539	1.3426667
26.751534126270258	1.7789023	1.333755
26.769549900255434	1.7801651	1.3342283
26.787566348241267	1.7903484	1.338039
26.80558347074881	1.7868421	1.3367281
26.823601268299267	1.7693357	1.3301638
26.841619741414036	1.7459512	1.3213445
26.85963889061465	1.7902249	1.3379929
26.877658716422832	1.8062321	1.3439614
26.89567921936045	1.8192391	1.3487917
26.913700399949544	1.7893971	1.3376834
26.93172225871233	1.7985816	1.341112
26.949744796171174	1.7739617	1.3319016
26.967768012848605	1.8164761	1.3477671
26.98579190926733	1.8139313	1.3468227
27.003816485950225	1.8164891	1.3477719
27.021841743420318	1.8021308	1.3424346
27.039867682200814	1.7918243	1.3385904
27.057894302815072	1.7665722	1.3291246
27.07592160578664	1.795967	1.3401369
27.0939495916392	1.7956263	1.3400098
27.111978260896635	1.8198413	1.3490149
27.13000761408296	1.7673427	1.3294144
27.148037651722397	1.7481312	1.3221691
27.166068374339304	1.6972085	1.3027695
27.184099782458215	1.7143236	1.3093219
27.20213187660384	1.775615	1.332522
27.22016465730105	1.8278748	1.3519892
27.23819812507487	1.8489673	1.3597673
27.256232280450533	1.8279736	1.3520257
27.274267123953383	1.8244852	1.3507351
27.292302656108987	1.8347722	1.3545376
27.31033887744306	1.8463798	1.3588156
27.32837578848146	1.8194083	1.3488544
27.34641338975026	1.8231997	1.3502592
27.364451681775673	1.8669	1.3663455
27.382490665084074	1.8501093	1.3601873
27.400530340202046	1.8161473	1.3476452
27.41857070765629	1.79356	1.3392386
27.436611767973726	1.7755449	1.3324957
27.454653521681404	1.7727709	1.3314544
27.472695969306564	1.8044399	1.3432944
27.490739111376627	1.865629	1.3658803
27.508782948419153	1.8625827	1.3647647
27.526827480961902	1.7840087	1.3356678
27.54487270953279	1.7238281	1.3129463
27.562918634659898	1.7278899	1.3144922
27.580965256871508	1.8339658	1.35424
27.599012576696026	1.8425766	1.3574154
27.617060594662068	1.7992035	1.3413439
27.63510931129842	1.7920479	1.338674
27.65315872713401	1.8208259	1.3493798
27.67120884269797	1.8446965	1.358196
27.68925965851958	1.8753986	1.369452
27.707311175128307	1.8636794	1.3651664
27.725363393053787	1.8833706	1.3723595
27.74341631282583	1.9171613	1.3846159
27.7614699349744	1.9245845	1.3872939
27.77952426002968	2.0477834	1.4310079
27.797579288521973	2.071085	1.4391265
27.815635020981784	2.370673	1.539699
27.83369145793979	2.4588358	1.5680676
27.85174859992682	2.398906	1.5488402
27.869806447473923	2.2512047	1.5004015
27.887865001112267	1.9609253	1.4003304
27.905924261373233	1.8919575	1.3754845
27.92398422878836	1.8818412	1.3718022
27.94204490388936	1.9020267	1.3791398
27.96010628720813	1.9016924	1.3790187
27.978168379276728	1.8541005	1.3616536
27.9962311806274	1.7904443	1.3380748
28.014294691792568	1.788396	1.3373092
28.0323589133048	1.8124104	1.3462579
28.050423845696887	1.845664	1.3585522
28.068489489501758	1.8435144	1.3577608
28.086555845252523	1.8537356	1.3615196
28.104622913482487	1.862726	1.3648171
28.122690694725115	1.8751166	1.369349
28.14075918951405	1.848691	1.3596658
28.15882839838312	1.8207973	1.3493693
28.176898321866304	1.83012	1.3528193
28.1949689604978	1.8701875	1.367548
28.213040314811945	1.9023975	1.3792742
28.23111238534327	1.939124	1.3925244
28.249185172626493	1.9224938	1.3865402
28.267258677196473	1.8919237	1.3754722
28.285332899588294	1.9534993	1.3976763
28.303407840337172	2.0019748	1.4149116
28.321483499978545	1.9447001	1.394525
28.33955987904799	1.896452	1.3771173
28.357636978081285	1.8939489	1.3762082
28.37571479761439	1.9035041	1.3796754
28.393793338183425	1.9044956	1.3800347
28.41187260032469	1.9399726	1.3928291
28.429952584574686	1.9339677	1.3906717
28.448033291470065	1.9217546	1.3862736
28.46611472154769	1.913379	1.3832494
28.484196875344566	2.0001128	1.4142535
28.502279753397914	2.0232193	1.4223992
28.52036335624511	1.9641691	1.4014882
28.538447684423716	1.9653058	1.4018936
28.556532738471482	2.0111983	1.4181672
28.574618518926325	1.9805988	1.4073375
28.59270502632635	1.9994395	1.4140154
28.61079226120985	2.0583763	1.4347043
28.628880224115274	2.0686877	1.4382933
28.646968915581287	2.0373404	1.4273543
28.66505833614671	2.0380726	1.4276108
28.68314848635055	2.0161061	1.4198965
28.701239366732004	2.0522227	1.4325581
28.71933097783044	2.0970032	1.4481033
28.737423320185403	2.1085067	1.4520698
28.75551639433665	2.0758803	1.4407916
28.773610200824074	2.0772796	1.441277
28.791704740187793	2.0856164	1.4441663
28.80980001296809	2.1173499	1.4551116
28.827896019705413	2.0913181	1.4461391
28.845992760940433	2.0920258	1.4463837
28.86409023721397	2.18487	1.4781306
28.88218844906704	2.2149527	1.4882717
28.900287397040845	2.2058296	1.4852035
28.918387081676755	2.1935115	1.4810508
28.936487503516343	2.2329783	1.4943154
28.954588663101365	2.3044794	1.5180511
28.97269056097374	2.3445303	1.531186
28.990793197675597	2.3191972	1.522891
29.00889657374923	2.2697964	1.5065843
29.027000689737125	2.2978966	1.5158814
29.04510554618196	2.3932974	1.5470285
29.06321114362659	2.3574982	1.5354147
29.08131748261405	2.3795483	1.5425785
29.099424563687567	2.4622083	1.5691426
29.11753238739057	2.5122027	1.584993
29.13564095426663	2.589199	1.6090988
29.15375026485954	2.6137161	1.6166991
29.171860319713275	2.6214216	1.6190804
29.18997111937199	2.6391227	1.6245377
29.20808266438002	2.721174	1.6495981
29.226194955281898	2.821919	1.6798568
29.244307992622335	2.8997395	1.7028621
29.26242177694624	2.8785996	1.6966436
29.2805363087987	2.805455	1.6749493
29.29865158872498	2.8405712	1.6853994
29.316767617270557	2.9154127	1.7074579
29.334884394981064	2.9677892	1.7227273
29.353001922402367	3.006864	1.7340312
29.37112020008047	3.0836215	1.7560244
29.389239228561596	3.14627	1.7737728
29.407359008392152	3.3469577	1.8294692
29.42547954011872	3.6744227	1.9168783
29.44360082428809	4.3066306	2.0752423
29.46172286144722	5.353084	2.3136733
29.479845652143283	6.935656	2.6335633
29.497969196923606	9.190377	3.0315635
29.516093496335728	11.921606	3.4527678
29.5342185509274	15.053702	3.87991
29.55234436124651	17.611452	4.1966
29.570470927841175	19.284153	4.3913727
29.588598251259686	18.913624	4.3489795
29.60672633205055	17.372433	4.168025
29.624855170762405	14.9995575	3.8729262
29.642984767944146	12.260666	3.5015233
29.66111512414481	9.400583	3.0660372
29.67924623991366	6.87882	2.6227505
29.697378115800138	5.1238027	2.2635818
29.71551075235387	4.1620183	2.0401025
29.733644150124675	3.760217	1.9391279
29.751778309662576	3.506703	1.8726193
29.769913231517766	3.363375	1.8339506
29.78804891624066	3.3478873	1.8297232
29.806185364381818	3.3524637	1.8309734
29.82432257649206	3.2947667	1.8151492
29.842460553122333	3.2469244	1.8019224
29.86059929482382	3.2218418	1.7949489
29.878738802147872	3.2428534	1.8007925
29.896879075646048	3.2628326	1.8063313
29.915020115870114	3.3075304	1.8186617
29.933161923371976	3.3069227	1.8184946
29.951304498703777	3.2486947	1.8024136
29.969447842417857	3.2226682	1.7951791
29.987591955066733	3.2432034	1.8008896
30.005736837203123	3.2080781	1.7911109
30.023882489379943	3.2046986	1.7901672
30.04202891215028	3.2273743	1.7964895
30.060176106067455	3.177222	1.7824764
30.078324071684946	3.1425488	1.7727236
30.09647280955646	3.1715326	1.7808797
30.114622320235863	3.1936295	1.7870729
30.132772604277257	3.1240885	1.7675091
30.1509236622349	3.1252768	1.7678453
30.16907549466328	3.1140032	1.7646538
30.18722810211705	3.1547678	1.7761666
30.205381485151097	3.083398	1.7559607
30.22353564432045	3.040025	1.7435668
30.241690580180403	3.015836	1.7366163
30.25984629328638	3.028187	1.7401687
30.278002784194037	3.052018	1.7470026
30.296160053459246	3.0007606	1.7322704
30.314318101638033	2.9458127	1.716337
30.332476929286646	2.955162	1.7190585
30.35063653696153	2.9872322	1.7283611
30.368796925219307	2.9758167	1.7250556
30.386958094616844	2.892931	1.7008618
30.40512004571115	2.8539598	1.6893667
30.423282779059463	2.887322	1.6992122
30.441446295219233	2.9155295	1.7074921
30.459610594748067	2.8675628	1.693388
30.47777567820382	2.8324776	1.6829966
30.495941546144504	2.870768	1.6943341
30.51410819912835	2.8698542	1.6940644
30.532275637713795	2.8974876	1.7022008
30.55044386245946	2.9083445	1.7053869
30.56861287392416	2.8593338	1.6909565
30.586782672666956	2.770422	1.6644585
30.604953259247047	2.780016	1.667338
30.623124634223885	2.7564027	1.6602417
30.641296798157075	2.76288	1.6621914
30.659469751606462	2.819939	1.6792674
30.677643495132074	2.788887	1.6699961
30.695818029294152	2.7398288	1.6552428
30.713993354653116	2.73073	1.652492
30.73216947176962	2.7410123	1.6556003
30.75034638120448	2.7181516	1.6486818
30.768524083518756	2.7333813	1.6532941
30.786702579273673	2.8100533	1.6763214
30.80488186903069	2.8888505	1.6996619
30.82306195335144	2.9522238	1.7182037
30.841242832797782	3.1642842	1.7788435
30.85942450793176	3.5613086	1.887143
30.877606979315637	3.9305372	1.9825583
30.895790247511883	4.182696	2.045164
30.913974313083134	4.5967813	2.1440105
30.932159176592283	4.852758	2.2028975
30.95034483860237	4.866029	2.2059076
30.968531299676698	4.7162895	2.171702
30.98671856037873	4.38233	2.0934014
31.00490662127215	3.9384685	1.9845575
31.023095482920848	3.496566	1.8699107
31.04128514588892	3.0837245	1.7560537
31.059475610740662	2.7659693	1.6631204
31.07766687804056	2.5450299	1.595315
31.09585894835335	2.4664738	1.5705011
31.11405182224393	2.4471421	1.5643344
31.132245500277417	2.4881835	1.5773977
31.15043998301914	2.4584608	1.567948
31.168635271034628	2.3853514	1.5444583
31.18683136488964	2.4278219	1.558147
31.20502826515008	2.4760935	1.5735608
31.223225972382135	2.4953988	1.5796831
31.241424487152155	2.5023105	1.5818694
31.259623810026692	2.4959168	1.5798471
31.27782394157253	2.4195538	1.5554914
31.296024882356644	2.3992162	1.5489403
31.314226632946237	2.3739402	1.5407597
31.332429193908684	2.333107	1.5274512
31.350632565811598	2.3468912	1.5319567
31.368836749222787	2.3797283	1.5426368
31.387041744710295	2.4131064	1.5534177
31.40524755284232	2.472389	1.5723832
31.423454174187317	2.4937632	1.5791653
31.441661609313922	2.4522603	1.5659695
31.459869858791002	2.3534243	1.5340874
31.478078923187628	2.3524196	1.53376
31.496288803073064	2.3404999	1.5298692
31.514499499016807	2.3351674	1.5281254
31.532711011588546	2.256376	1.5021238
31.550923341358178	2.2180555	1.4893137
31.56913648889584	2.2422242	1.4974059
31.587350454771844	2.2590215	1.5030042
31.605565239556732	2.2073884	1.4857283
31.62378084382127	2.1973863	1.4823583
31.641997268136382	2.2783415	1.5094177
31.660214513073274	2.4139845	1.5537003
31.67843257920331	2.4039893	1.5504804
31.6966514670981	2.3342261	1.5278175
31.71487117732944	2.2600303	1.5033396
31.733091710469346	2.2284646	1.4928043
31.751313067090052	2.208095	1.4859661
31.769535247764008	2.2206454	1.490183
31.787758253063878	2.294475	1.5147525
31.805982083562526	2.2961843	1.5153166
31.824206739833024	2.2829819	1.5109539
31.84243222244869	2.2883868	1.5127414
31.860658531983013	2.2743316	1.5080887
31.878885669009737	2.2157884	1.4885525
31.897113634102784	2.2437973	1.497931
31.91534242783632	2.192843	1.4808251
31.933572050784694	2.2083127	1.4860393
31.951802503522508	2.1948426	1.4815001
31.970033786624548	2.1175656	1.4551858
31.988265900665834	2.1295218	1.4592881
32.006498846221575	2.1369083	1.4618168
32.02473262386724	2.153517	1.4674866
32.04296723417845	2.1428182	1.4638368
32.0612026777311	2.2034092	1.4843885
32.07943895510129	2.229423	1.4931253
32.097676066865304	2.232085	1.4940164
32.115914013599685	2.2601314	1.5033734
32.13415279588115	2.2522788	1.5007594
32.152392414286666	2.2143347	1.488064
32.1706328693934	2.1893852	1.4796572
32.18887416177875	2.1446779	1.4644719
32.20711629202032	2.154192	1.4677166
32.225359260695924	2.1774957	1.475634
32.243603068383614	2.2267861	1.492242
32.26184771566166	2.2114482	1.4870939
32.28009320310852	2.1115906	1.4531313
32.2983395313029	2.0975037	1.448276
32.31658670082372	2.1432219	1.4639747
32.33483471225012	2.1458735	1.46488
32.35308356616143	2.108254	1.4519827
32.371333263137245	2.1373599	1.4619712
32.38958380375734	2.1935775	1.4810731
32.407835188601744	2.089757	1.4455992
32.42608741825067	2.0507855	1.4320564
32.444340493284585	2.033124	1.4258766
32.46259441428416	2.0334048	1.4259751
32.48084918183028	2.0219672	1.4219589
32.49910479650405	1.9885874	1.4101728
32.51736125888683	1.9830105	1.4081941
32.53561856956014	1.9901417	1.4107238
32.5538767291058	2.025252	1.4231135
32.572135738105764	2.0427442	1.4292461
32.59039559714228	2.100613	1.4493492
32.608656306797776	2.0748973	1.4404504
32.62691786765491	2.0782344	1.4416083
32.645180280296586	2.0485895	1.4312894
32.663443545305896	2.0204916	1.42144
32.68170766326619	1.9476053	1.3955662
32.69997263476099	1.9381855	1.3921872
32.7182384603741	1.9528933	1.3974596
32.7365051406895	1.9948604	1.4123952
32.75477267629144	2.063674	1.4365493
32.77304106776434	2.0313249	1.4252455
32.79131031569289	1.9994808	1.41403
32.809580420661966	2.0029972	1.4152728
32.827851383256714	2.0499322	1.4317584
32.84612320406245	2.0206954	1.4215117
32.86439588366476	1.9875618	1.4098091
32.88266942264945	1.9522483	1.3972288
32.9009438216025	2.0039144	1.4155968
32.9192190811102	2.0238068	1.4226056
32.937495201758985	1.9161358	1.3842455
32.95577218413556	1.9031788	1.3795575
32.974050028826866	1.8583753	1.3632224
32.992328736420035	1.9035082	1.3796768
33.010608307502444	1.8679937	1.3667457
33.02888874266169	1.890201	1.3748457
33.047170042485604	1.8686373	1.3669811
33.06545220756225	1.8723166	1.3683262
33.083735238479896	1.8912823	1.375239
33.10201913582707	1.9526292	1.3973651
33.12030390019248	1.9890248	1.4103279
33.138589532165135	2.0044167	1.4157742
33.15687603233419	1.9523844	1.3972775
33.17516340128909	1.939019	1.3924866
33.19345163961947	1.9369818	1.391755
33.211740747915215	1.989451	1.4104791
33.23003072676643	1.942525	1.393745
33.248321576763466	2.048437	1.4312363
33.266613298496885	2.0098057	1.4176762
33.28490589255747	1.8879324	1.3740206
33.30319935953626	1.8666046	1.3662374
33.32149370002451	1.9068496	1.3808873
33.339788914613706	1.9316199	1.3898273
33.358085003895575	1.8889823	1.3744025
33.376381968462034	1.8970542	1.3773359
33.39467980890529	1.9572504	1.3990177
33.41297852581774	1.9441718	1.3943356
33.43127811979204	1.9089856	1.3816605
33.44957859142105	1.9632734	1.4011686
33.467879941297866	2.0130675	1.4188261
33.486182170015844	1.9236683	1.3869637
33.50448527816853	1.9461337	1.395039
33.522789266349754	1.9894236	1.4104693
33.541094135153514	1.9693341	1.4033296
33.55939988517411	2.0250275	1.4230347
33.57770651700602	2.0786684	1.4417588
33.59601403124398	1.9916629	1.4112629
33.61432242848296	1.9375802	1.3919699
33.632631709318154	1.9833825	1.4083261
33.650941874344994	2.0474155	1.4308792
33.66925292415916	2.099073	1.4488177
33.68756485935654	2.072149	1.4394962
33.70587768053328	2.0573142	1.434334
33.724191388285746	2.0402813	1.4283842
33.74250598321054	2.0025826	1.4151263
33.760821465904506	2.0211875	1.4216847
33.77913783696474	1.9150618	1.3838576
33.79745509698852	1.7518038	1.3235573
33.815773246573414	1.7722462	1.3312573
33.8340922863172	1.8631651	1.3649781
33.852412216817896	1.910688	1.3822764
33.87073303867377	1.9270432	1.3881798
33.889054752483304	2.0239298	1.4226489
33.907377358845245	1.9577558	1.3991983
33.92570085835853	1.8514767	1.3606898
33.94402525162239	1.7808261	1.334476
33.96235053923627	1.74357	1.3204432
33.980676721799824	1.7326368	1.3162966
33.999003799912984	1.861885	1.3645091
34.01733177417592	1.9163547	1.3843247
34.03566064518901	1.97828	1.4065135
34.0539904135529	2.1157231	1.4545525
34.07232107986846	2.114615	1.4541715
34.090652644736785	2.028586	1.4242843
34.108985108759235	1.9040804	1.3798842
34.12731847253742	1.8949417	1.3765688
34.14565273667313	1.8779541	1.3703847
34.16398790176847	1.8473965	1.3591896
34.18232396842574	1.9800416	1.4071395
34.20066093724749	2.066649	1.4375844
34.21899880883651	1.9973497	1.4132762
34.23733758379583	2.0329266	1.4258074
34.25567726272874	2.033308	1.4259411
34.27401784623872	1.9697434	1.4034754
34.29235933492957	1.9821342	1.4078829
34.31070172940526	2.0514328	1.4322824
34.32904503027003	2.0591614	1.4349779
34.347389238128386	1.9546727	1.3980961
34.36573435358502	1.8059176	1.3438443
34.38408037724492	1.7917048	1.3385458
34.402427309713296	1.850233	1.3602327
34.42077515159559	1.9052285	1.3803002
34.43912390349752	1.9698026	1.4034966
34.45747356602499	2.032945	1.4258138
34.47582413978423	2.0277987	1.424008
34.49417562538163	2.1463118	1.4650296
34.51252802342388	2.2292788	1.4930769
34.53088133451789	2.0801044	1.4422567
34.54923555927084	1.9305434	1.38944
34.567590698290104	1.7710758	1.3308177
34.58594675218336	1.8985972	1.377896
34.6043037215585	2.0277479	1.4239901
34.62266160702365	1.9123484	1.3828769
34.641020409187234	1.8797386	1.3710356
34.65938012865785	1.9602962	1.4001057
34.677740766044394	1.9139467	1.3834547
34.69610232195598	1.9306045	1.3894619
34.714464797002016	1.9654379	1.4019407
34.73282819179208	1.8985224	1.3778688
34.751192506936064	1.8823844	1.3720001
34.76955774304408	1.906213	1.3806567
34.7879239007265	1.9366591	1.391639
34.80629098059391	2.1188536	1.4556283
34.824658983257194	2.1766014	1.475331
34.843027909327446	2.0779219	1.4414998
34.86139775941603	2.032484	1.4256521
34.879768534134534	1.7986109	1.341123
34.89814023409483	1.6298739	1.2766651
34.91651285990901	1.8809437	1.371475
34.93488641218944	1.9735053	1.4048151
34.95326089154871	1.9424118	1.3937043
34.97163629859967	2.0514314	1.4322819
34.99001263395542	2.0721602	1.4395
35.00838989822934	2.065884	1.4373183
35.02676809203499	2.0925665	1.4465706
35.04514721598624	1.8881737	1.3741083
35.063527270697215	1.8085856	1.3448367
35.081908256782256	1.9938098	1.4120233
35.10029017485597	1.985831	1.4091952
35.11867302553321	1.8068441	1.344189
35.137056809429104	1.7477022	1.322007
35.155441527159006	1.7413096	1.3195869
35.173827179338524	1.8537706	1.3615324
35.19221376658354	1.8893231	1.3745265
35.21060128951017	1.8874229	1.3738351
35.2289897487348	1.8615692	1.3643934
35.24737914487405	1.7194561	1.3112804
35.26576947854479	1.6305684	1.2769371
35.28416075036418	1.7521616	1.3236924
35.30255296094958	1.9303443	1.3893683
35.32094611091867	1.9576056	1.3991446
35.33934020088932	2.1365635	1.4616989
35.35773523147969	2.1915445	1.4803866
35.3761312033082	2.1919203	1.4805136
35.394528116993506	2.1675282	1.4722527
35.41292597315452	1.883772	1.3725058
35.431324772410434	1.6552129	1.2865508
35.449724515380666	1.9063507	1.3807065
35.46812520268491	2.342012	1.5303633
35.486526834943106	2.3268878	1.525414
35.504929412775454	2.0882893	1.4450915
35.52333293680242	1.9265455	1.3880005
35.54173740764471	1.6743573	1.2939696
35.560142825923286	1.4089366	1.1869863
35.5785491922594	1.0812219	1.0398182
35.59695650727454	1.00411	1.0020529
35.61536477159042	1.4327071	1.1969575
