0.008763373481513119	0.051685803	0.22734512
0.026290120649546365	0.18429624	0.4292974
0.043816868432600686	0.12367553	0.35167533
0.06134361724069026	0.08536854	0.29217896
0.07887036748382949	0.01998222	0.14135848
0.0963971195720331	0.0	0.0
0.11392387391531617	0.0	0.0
0.1314506309236943	0.06293415	0.2508668
0.1489773910071836	0.08845497	0.2974138
0.16650415457580078	0.17731129	0.42108348
0.18403092203956356	0.13740046	0.37067568
0.20155769380849	0.13453779	0.36679393
0.2190844702925996	0.13521862	0.36772084
0.2366112519019124	0.18345395	0.42831525
0.2541380390464497	0.22299977	0.4722285
0.27166483213623416	0.23724675	0.48707983
0.28919163158128947	0.18298051	0.4277622
0.3067184377916406	0.13315369	0.36490232
0.324245251177314	0.18830125	0.43393692
0.34177207214833777	0.14402989	0.3795127
0.3592989011147415	0.114938326	0.33902556
0.37682573848655654	0.1319588	0.36326134
0.39435258467381573	0.1213861	0.3484051
0.41187944008655414	0.19112203	0.43717507
0.42940630513480854	0.16104569	0.401305
0.446933180228618	0.16134146	0.40167332
0.4644600657780234	0.14342467	0.3787145
0.48198696219306775	0.12888445	0.3590048
0.49951386988379676	0.15829548	0.39786366
0.5170407892602581	0.16684668	0.4084687
0.5345677207325025	0.17483635	0.41813436
0.5520946647105822	0.1562042	0.39522678
0.5696216216045534	0.14247613	0.3774601
0.5871485918244737	0.14303339	0.37819755
0.6046755757804043	0.14616984	0.38232166
0.6222025738824094	0.13278063	0.36439076
0.6397295865405557	0.16474217	0.40588444
0.6572566141649129	0.21127391	0.45964542
0.6747836571655547	0.22308788	0.4723218
0.6923107159525568	0.20330259	0.4508909
0.7098377909359992	0.18187132	0.42646375
0.7273648825259653	0.17882214	0.42287368
0.7448919911325411	0.1993023	0.44643286
0.762419117165817	0.17168967	0.41435453
0.7799462610358868	0.16507483	0.40629402
0.7974734231528482	0.14423451	0.3797822
0.8150006039268024	0.14684498	0.38320357
0.8325278037678551	0.119536236	0.34574014
0.8500550230861152	0.1191876	0.3452356
0.8675822622916969	0.12452479	0.3528807
0.8851095217947171	0.13705637	0.37021124
0.9026368020052984	0.15550767	0.3943446
0.9201641033335665	0.17183565	0.41453063
0.9376914261896523	0.20663254	0.45456854
0.9552187709836915	0.19351666	0.4399053
0.9727461381258234	0.21972944	0.46875307
0.990273528026193	0.2228214	0.4720396
1.0078009410949496	0.26391834	0.5137298
1.0253283777422473	0.27701283	0.5263201
1.0428558383782454	0.28272036	0.53171456
1.0603833234131086	0.26969254	0.5193193
1.0779108332570058	0.27351922	0.52299064
1.0954383683201119	0.3064655	0.5535933
1.112965929012607	0.3909591	0.6252672
1.1304935157446763	0.5231652	0.7233016
1.1480211289265108	0.538902	0.73409945
1.1655487689683062	1.3150179	1.1467423
1.1830764362802655	1.5965536	1.263548
1.200604131272596	2.039921	1.4282581
1.2181318543555117	2.489479	1.5778083
1.235659605939232	2.5339558	1.5918404
1.253187386433982	3.8221145	1.9550229
1.270715196249994	6.052382	2.4601588
1.2882430357975057	11.131528	3.3363945
1.3057709054867608	15.990482	3.99881
1.3232988057280106	21.536161	4.640707
1.3408267369315112	26.443146	5.14229
1.358354699507526	30.287786	5.503434
1.3758826938663256	34.63448	5.8851066
1.3934107204181858	36.507263	6.0421243
1.410938779573391	36.467293	6.0388155
1.4284668717422309	36.782986	6.064898
1.4459949973350033	36.34354	6.02856
1.4635231567620117	36.59974	6.049772
1.4810513504335687	36.145027	6.0120735
1.4985795787599925	35.253372	5.937455
1.5161078421516088	34.38844	5.864166
1.5336361410187505	33.65534	5.801322
1.5511644757717598	33.62753	5.798925
1.5686928468209842	34.523056	5.8756323
1.58622125457678	34.797794	5.8989654
1.6037496994495108	35.705822	5.975435
1.621278181849548	35.54936	5.9623284
1.6388067021872719	36.530926	6.0440817
1.6563352608730693	36.188046	6.0156503
1.673863858317336	35.458572	5.95471
1.6913924949304753	34.683838	5.8892984
1.7089211711228998	33.900204	5.822388
1.7264498873050296	33.247463	5.7660613
1.7439786438872935	32.584717	5.7083025
1.7615074412801288	31.623983	5.6235204
1.779036279893981	30.498188	5.5225163
1.796565160139305	29.283476	5.411421
1.814094082426564	28.59719	5.3476343
1.8316230471662298	28.093592	5.3003387
1.849152054768784	27.594147	5.253013
1.8666811056447168	27.132647	5.208901
1.8842102002045273	26.28219	5.126616
1.901739338858724	25.627518	5.0623627
1.9192685220178245	25.0713	5.007125
1.9367977500923557	24.163935	4.9156823
1.9543270234928547	24.008188	4.899815
1.971856342629867	23.550148	4.8528495
1.9893857079139496	23.181372	4.8147035
2.006915119755667	22.530603	4.746641
2.0244445785655945	21.836357	4.672939
2.0419740847543175	21.433819	4.6296673
2.0595036387324317	21.024958	4.585298
2.0770332409105414	20.449965	4.522164
2.094562891699263	20.022995	4.474706
2.1120925915092217	19.607277	4.4280105
2.129622340751053	19.431608	4.4081297
2.1471521398354043	187.61992	13.697442
2.1646819891729323	444.03033	21.072027
2.182211889174303	440.17258	20.98029
2.1997418402501974	452.51202	21.27233
2.2172718428113023	432.40015	20.794233
2.234801897268317	320.40558	17.899876
2.2523320040319548	16.75772	4.0936193
2.269862163512935	16.459171	4.0569906
2.287392376121992	16.056208	4.00702
2.304922642269869	15.75434	3.9691737
2.322452962367322	15.483504	3.9349084
2.3399833368251164	15.011847	3.8745124
2.357513766054032	14.590219	3.8197145
2.3750442504648586	14.286278	3.7797194
2.3925747904683963	14.200196	3.7683148
2.410105386475459	14.26241	3.7765605
2.4276360388968707	14.126771	3.7585597
2.445166748143469	13.877342	3.7252305
2.4626975146261025	13.476361	3.6710165
2.4802283387556323	13.079638	3.616578
2.4977592209429305	12.873483	3.5879636
2.5152901615988825	12.794286	3.57691
2.5328211611343865	12.8705635	3.5875568
2.5503522199603523	12.59693	3.5492153
2.5678833384877024	12.403552	3.5218678
2.5854145171273712	12.069381	3.4741015
2.6029457562903064	11.682884	3.4180233
2.620477056387469	11.562762	3.4004061
2.6380084178298326	11.420474	3.379419
2.655539841028383	11.433015	3.3812742
2.673071326394119	11.256902	3.3551307
2.6906028743380523	11.116922	3.334205
2.708134485271211	10.948037	3.3087819
2.7256661596046325	10.788876	3.2846425
2.743197897749369	10.424094	3.2286365
2.760729700116486	10.284645	3.2069683
2.778261567117063	10.08186	3.1751945
2.795793499162193	9.994216	3.161363
2.8133254966629817	9.770699	3.1258116
2.830857560030551	9.588185	3.0964794
2.8483896896760337	9.479736	3.078918
2.865921886010578	9.447292	3.0736449
2.883454149445347	9.366272	3.0604365
2.9009864803915177	9.343363	3.0566914
2.91851887926028	9.170043	3.0282078
2.9360513464628384	8.966041	2.9943347
2.953583882410413	8.762116	2.9600873
2.9711164875142373	8.708538	2.9510233
2.9886491621855606	8.67496	2.9453285
3.0061819068356455	8.517772	2.9185221
3.023714721875769	8.319558	2.8843644
3.041247607717225	8.1304245	2.85139
3.0587805647713213	8.042922	2.8360045
3.0763135934493806	8.022748	2.8324456
3.0938466941627407	7.8476176	2.80136
3.1113798673227544	7.815669	2.795652
3.1289131133407904	7.6212	2.760652
3.1464464326282315	7.63784	2.7636642
3.1639798255964786	7.645665	2.7650795
3.1815132926569443	7.619646	2.7603707
3.1990468342210603	7.5453773	2.746885
3.216580450700272	7.407484	2.7216694
3.2341141425060416	7.225888	2.688101
3.251647910049847	7.16751	2.6772206
3.2691817537431813	7.1308184	2.6703591
3.286715673997555	7.169583	2.6776078
3.3042496712244938	7.123162	2.6689253
3.32178374583554	6.996544	2.645098
3.339317898242251	6.879845	2.6229458
3.3568521288562034	6.761716	2.6003299
3.3743864380889876	6.741773	2.5964925
3.3919208263522127	6.742308	2.5965955
3.4094552940575023	6.6532464	2.5793889
3.4269898416164972	6.5434685	2.5580204
3.444524469440858	6.478713	2.5453317
3.4620591779422587	6.4429917	2.5383048
3.479593967532391	6.3811226	2.5260885
3.4971288386229658	6.262063	2.5024114
3.5146637916257086	6.2453074	2.4990613
3.5321988269523628	6.290232	2.5080335
3.5497339450146903	6.352042	2.520326
3.5672691462244708	6.258258	2.501651
3.5848044309934988	6.1375513	2.4774082
3.60233979973359	6.0006413	2.4496207
3.619875252856575	5.9367394	2.4365425
3.6374107907743034	6.040046	2.4576507
3.6549464138986427	6.106727	2.4711792
3.6724821226414788	6.1820335	2.4863696
3.690017917414714	6.1302686	2.4759378
3.7075537986302702	6.1407766	2.478059
3.7250897667000857	6.1629953	2.482538
3.7426258220361235	6.363282	2.5225546
3.7601619650503553	6.6870565	2.5859344
3.777698196154779	7.12712	2.6696668
3.7952345157614067	8.108075	2.8474681
3.8127709242822716	9.039685	3.0066068
3.830307422129425	11.340235	3.3675265
3.847844009714936	12.658912	3.5579364
3.8653806874508954	16.036707	4.0045857
3.882917455749409	15.505065	3.937647
3.900454315022606	15.74857	3.968447
3.917991265682631	12.673669	3.5600097
3.9355283081416506	10.826885	3.2904232
3.9530654428118495	8.597214	2.9321005
3.970602670105433	7.308643	2.7034502
3.9881399904346244	6.346662	2.5192583
4.005677404211669	6.2495947	2.499919
4.023214911848827	6.13807	2.4775128
4.0407525137583855	6.0839524	2.466567
4.058290210352644	6.064186	2.4625568
4.075828002043927	6.063815	2.4624815
4.0933658892445814	6.029755	2.455556
4.110903872366966	6.040792	2.4578023
4.128441951823468	6.0519505	2.4600713
4.145980128026488	5.979973	2.4453983
4.163518401388452	5.9744835	2.4442756
4.181056772321807	5.9936476	2.4481928
4.1985952412390155	6.0742435	2.464598
4.216133808552567	6.0705304	2.4638445
4.233672474674966	6.081245	2.466018
4.251211240018741	6.1873546	2.4874394
4.268750104996445	6.419495	2.5336723
4.286289070020643	7.412692	2.722626
4.303828135503928	8.985798	2.997632
4.3213673018589125	29.327087	5.415449
4.3389065694982305	90.44831	9.510431
4.356445938834537	165.65654	12.870763
4.3739854102805085	170.73401	13.066523
4.391524984248844	171.68538	13.102877
4.409064661152262	135.7215	11.649957
4.426604441403504	95.944756	9.795139
4.444144325415337	75.071556	8.664384
4.461684313600543	21.079294	4.5912194
4.47922440637193	21.694283	4.657712
4.496764604142329	20.095152	4.482762
4.5143049073245916	18.187359	4.264664
4.531845316331589	16.126097	4.0157313
4.5493858315762195	13.160549	3.627747
4.566926453471405	10.9446745	3.3082736
4.584467182430081	8.856904	2.9760551
4.602008018865218	7.823375	2.7970297
4.619548963189798	7.2863183	2.6993182
4.637090015816834	6.8123097	2.6100402
4.654631177159353	6.5960894	2.5682852
4.672172447630417	6.2690897	2.503815
4.689713827643102	6.048947	2.4594607
4.7072553176105085	5.76969	2.4020178
4.724796917945764	5.5946803	2.3653076
4.742338629062015	5.595577	2.365497
4.759880451372434	5.5941005	2.365185
4.777422385290215	5.543597	2.3544846
4.794964431228581	5.498729	2.3449368
4.812506589600768	5.4466286	2.3338013
4.830048860820047	5.4149704	2.327009
4.847591245299709	5.3614593	2.3154826
4.8651337434530655	5.3790565	2.3192792
4.882676355693457	5.4014463	2.3241012
4.900219082434242	5.456337	2.3358803
4.917761924088813	5.452811	2.3351254
4.935304881070575	5.4076614	2.3254378
4.952847953792969	5.3565035	2.314412
4.970391142669449	5.265857	2.2947457
4.9879344481135055	5.273627	2.2964377
5.005477870538642	5.2488046	2.291027
5.023021410358394	5.192626	2.2787335
5.040565067986324	5.1840734	2.276856
5.05810884383601	5.183519	2.2767344
5.075652738321066	5.2310224	2.2871428
5.09319675185512	5.186798	2.2774544
5.110740884851836	5.1258154	2.2640264
5.128285137724894	5.0624256	2.2499835
5.145829510888007	5.076119	2.2530243
5.163374004754908	5.2022552	2.2808454
5.1809186197393595	5.21114	2.282792
5.198463356255145	5.246228	2.2904646
5.216008214716077	5.231293	2.2872021
5.233553195535998	5.224066	2.2856216
5.251098299128764	5.2412567	2.2893791
5.268643525908272	5.187119	2.2775247
5.286188876288432	5.156378	2.270766
5.3037343506831895	5.1114593	2.2608538
5.32127994950651	5.0271196	2.2421238
5.3388256731723915	5.0194473	2.2404122
5.356371522094851	5.0831084	2.254575
5.373917496687938	5.0881143	2.2556849
5.391463597365729	5.10742	2.2599602
5.40900982454232	5.008698	2.238012
5.426556178631843	5.016316	2.2397134
5.444102660048449	5.0302143	2.2428138
5.4616492692063225	5.069825	2.2516272
5.479196006519669	5.0825815	2.2544582
5.496742872402727	5.073264	2.2523909
5.514289867269756	5.093457	2.2568688
5.531836991535049	5.012186	2.2387912
5.549384245612924	5.0695143	2.2515583
5.566931629917724	5.041284	2.2452805
5.584479144863822	5.0574484	2.248877
5.6020267908656205	5.0539427	2.2480977
5.619574568337545	5.041573	2.2453446
5.637122477694054	5.034205	2.2437034
5.654670519349629	4.9988723	2.2358158
5.672218693718784	4.904532	2.2146177
5.689767001216059	4.898786	2.2133203
5.707315442256021	4.9189587	2.2178726
5.724864017253266	5.029255	2.2426
5.7424127266224225	5.061069	2.249682
5.75996157077814	5.023111	2.2412298
5.777510550135105	4.990041	2.23384
5.795059665108022	5.0007267	2.2362304
5.812608916111639	5.037426	2.244421
5.830158303560715	5.090217	2.256151
5.847707827870055	5.06234	2.2499645
5.86525748945448	5.093094	2.2567885
5.8828072887288485	5.302736	2.302767
5.900357226108044	5.3489103	2.312771
5.917907302006979	5.469572	2.3387117
5.9354575168406	6.1159472	2.4730442
5.9530078710238765	6.811477	2.6098807
5.970558364971812	7.3714304	2.7150378
5.988108999099438	7.774227	2.7882302
6.005659773821818	8.211926	2.865646
6.023210689554039	7.94636	2.818929
6.040761746711227	8.385225	2.8957253
6.058312945708531	7.6947074	2.7739336
6.075864286961132	7.2498384	2.6925523
6.093415770884244	6.539019	2.5571506
6.1109673978931065	5.9327602	2.435726
6.128519168402993	5.3475738	2.312482
6.146071082829204	5.220528	2.2848475
6.163623141587075	5.105708	2.2595813
6.181175345091969	5.086512	2.2553296
6.198727693759281	5.0777164	2.2533789
6.216280188004435	5.1236444	2.263547
6.233832828242885	5.128317	2.2645788
6.251385614890126	5.123781	2.263577
6.268938548361669	5.1147947	2.2615912
6.286491629073067	5.0584908	2.2491088
6.304044857439898	5.0323596	2.243292
6.321598233877777	5.0096583	2.2382267
6.339151758802344	4.997068	2.2354124
6.356705432629277	4.9707704	2.2295225
6.37425925577428	4.9680805	2.228919
6.391813228653095	4.907251	2.2152317
6.409367351681486	4.886263	2.2104893
6.426921625275259	4.883097	2.209773
6.44447604985025	4.9228263	2.2187443
6.46203062582232	5.003354	2.2368178
6.47958535360737	5.030531	2.2428844
6.497140233621328	4.99073	2.2339942
6.514695266280161	4.9277716	2.2198584
6.532250451999859	4.8809414	2.2092853
6.549805791196454	4.8639007	2.2054253
6.567361284286002	4.894426	2.2123349
6.584916931684597	4.9283414	2.219987
6.602472733808367	4.951631	2.2252262
6.6200286910734665	4.921633	2.2184753
6.637584803896092	4.874825	2.2079005
6.655141072692462	4.923525	2.2189016
6.672697497878842	4.901587	2.2139528
6.690254079871514	4.9183087	2.217726
6.707810819086808	4.9062576	2.2150073
6.725367715941078	4.872184	2.2073023
6.742924770850719	4.94618	2.224001
6.760481984232151	4.9850726	2.2327275
6.778039356501836	5.0032787	2.236801
6.795596888076266	4.891014	2.2115638
6.813154579371963	4.7369986	2.1764648
6.830712430805492	4.7830133	2.18701
6.84827044279344	4.8377337	2.1994848
6.865828615752445	4.949447	2.2247353
6.883386950099159	4.920351	2.2181864
6.900945446250287	4.905987	2.2149463
6.918504104622553	4.9704404	2.2294486
6.936062925632727	4.998312	2.2356906
6.953621909697607	5.012857	2.238941
6.971181057234028	5.016013	2.2396457
6.988740368658859	5.045168	2.246145
7.006299844389007	5.076023	2.2530031
7.023859484841407	5.154541	2.2703614
7.041419290433036	5.2717204	2.2960227
7.058979261580902	5.3895493	2.3215404
7.0765393987020495	5.5873413	2.3637557
7.094099702213559	5.937743	2.4367485
7.111660172532549	6.243853	2.4987702
7.129220810076164	6.5589514	2.561045
7.146781615261595	7.0286837	2.6511664
7.16434258850606	7.3246117	2.706402
7.181903730226821	7.75949	2.785586
7.1994650408411704	7.9541445	2.8203094
7.217026520766437	8.057876	2.8386397
7.234588170419983	8.221787	2.8673658
7.252149990219215	8.258419	2.8737466
7.269711980581568	8.187318	2.8613489
7.2872741419245175	8.018487	2.8316934
7.304836474665574	7.5954485	2.755984
7.322398979222286	7.2581162	2.6940892
7.339961656012233	6.987176	2.6433268
7.357524505453039	6.6460266	2.5779889
7.375087527962357	6.359287	2.5217626
7.392650723957886	6.058623	2.461427
7.410214093857353	5.7706747	2.4022229
7.427777638078528	5.59088	2.364504
7.445341357039213	5.468019	2.3383796
7.4629052511572525	5.2703295	2.2957199
7.480469320850524	5.208891	2.2822995
7.498033566536948	5.151231	2.2696323
7.5155979886344735	5.170618	2.2738993
7.5331625875610975	5.1324944	2.265501
7.550727363734844	5.0631723	2.2501495
7.568292317573788	5.0088415	2.238044
7.585857449496025	4.993761	2.2346725
7.603422759919705	5.024521	2.2415442
7.620988249263007	5.047872	2.246747
7.638553917944147	5.004827	2.237147
7.656119766381391	5.031743	2.2431548
7.673685794993023	5.0733504	2.25241
7.691252004197388	5.1408343	2.267341
7.70881839441285	5.187472	2.2776022
7.726384966057826	5.218286	2.2843568
7.743951719550762	5.2317166	2.2872946
7.761518655310149	5.2356462	2.2881534
7.779085773754511	5.1355057	2.2661655
7.796653075302419	5.087732	2.2556002
7.814220560372475	5.0974317	2.2577493
7.831788229383323	5.1158323	2.2618206
7.8493560827536495	5.1463885	2.2685654
7.866924120902174	5.2011247	2.2805974
7.884492344247663	5.291568	2.300341
7.9020607532089135	5.3017545	2.302554
7.919629348204771	5.221555	2.2850723
7.937198129654115	5.2341166	2.2878191
7.954767097975865	5.291027	2.3002234
7.972336253588986	5.311749	2.3047233
7.989905596912472	5.317302	2.3059275
8.007475128365371	5.281502	2.2981517
8.025044848366756	5.3853426	2.3206341
8.042614757335754	5.504131	2.3460884
8.060184855691523	5.5126734	2.3479083
8.07775514385327	5.588233	2.3639443
8.095325622240228	5.5905323	2.3644307
8.112896291271687	5.651985	2.3773904
8.130467151366968	5.748429	2.397588
8.148038202945436	5.7985873	2.4080255
8.165609446426497	5.827003	2.4139185
8.183180882229594	5.8569846	2.4201207
8.200752510774217	5.8893094	2.42679
8.218324332479893	5.8432665	2.417285
8.235896347766193	5.804276	2.4092064
8.253468557052724	5.794254	2.4071257
8.27104096075914	5.803603	2.409067
8.288613559305137	5.889767	2.4268842
8.306186353110448	5.998239	2.4491303
8.32375934259485	6.0592666	2.4615579
8.341332528178162	6.0981045	2.469434
8.358905910280246	6.1146526	2.4727824
8.376479489321003	6.0696087	2.4636576
8.394053265720377	6.0815644	2.4660828
8.411627239898356	6.1051817	2.4708667
8.42920141227497	6.116846	2.4732258
8.44677578327029	6.149043	2.4797263
8.464350353304427	6.1357207	2.4770386
8.48192512279754	6.106217	2.471076
8.499500092169827	6.070267	2.4637911
8.51707526184153	6.020919	2.453756
8.534650632232934	5.9968686	2.4488504
8.552226203764365	5.94658	2.438561
8.569801976856192	5.998144	2.449111
8.587377951928834	6.038181	2.457271
8.60495412940274	6.0976934	2.4693508
8.622530509698416	6.138301	2.4775596
8.6401070932364	6.269574	2.5039117
8.657683880437283	6.3945513	2.528745
8.675260871721695	6.5266633	2.5547335
8.692838067510303	6.655619	2.5798488
8.710415468223834	6.8226333	2.6120172
8.727993074283043	6.919888	2.630568
8.745570886108737	6.8781424	2.6226213
8.763148904121765	6.913701	2.6293917
8.78072712874302	6.9825735	2.642456
8.798305560393441	7.239774	2.690683
8.815884199494006	7.432436	2.7262495
8.833463046465745	7.5712333	2.7515874
8.851042101729728	7.699745	2.7748415
8.86862136570707	7.969985	2.8231163
8.886200838818924	8.16284	2.8570683
8.903780521486505	8.232421	2.8692195
8.921360414131055	8.317671	2.8840373
8.938940517173874	8.453183	2.907436
8.956520831036297	8.5746765	2.9282548
8.97410135613971	8.880035	2.9799387
8.99168209290554	9.00687	3.001145
9.009263041755265	9.276427	3.0457227
9.026844203110405	9.406206	3.066954
9.044425577392525	9.591251	3.0969746
9.062007165023239	9.592552	3.0971847
9.079588966424197	9.896028	3.145795
9.097170982017108	10.037631	3.168222
9.11475321222372	11.167102	3.3417213
9.132335657465825	12.029839	3.4684057
9.149918318165264	12.153572	3.4861975
9.167501194743924	12.845979	3.5841286
9.18508428762374	12.5194235	3.5382798
9.202667597226693	12.588161	3.5479798
9.220251123974803	12.271702	3.503099
9.237834868290143	11.917505	3.452174
9.255418830594836	11.692191	3.4193847
9.273003011311046	11.170945	3.3422964
9.290587410860985	10.901873	3.3017983
9.308172029666911	10.26391	3.203734
9.32575686815113	9.903529	3.1469872
9.343341926735997	8.591907	2.9311955
9.360927205843916	8.303043	2.8815002
9.378512705897327	8.083207	2.8430982
9.396098427318728	7.910025	2.8124766
9.413684370530664	7.84141	2.8002517
9.431270535955722	7.7588015	2.7854626
9.448856924016539	7.651835	2.766195
9.466443535135806	7.5475636	2.747283
9.484030369736251	7.529695	2.744029
9.501617428240658	7.5334964	2.7447217
9.519204711071852	7.5206175	2.7423744
9.536792218652714	7.4753656	2.7341115
9.55437995140617	7.465655	2.732335
9.571967909755191	7.534792	2.7449574
9.589556094122802	7.670632	2.7695906
9.60714450493207	7.7762218	2.7885878
9.624733142606116	7.870255	2.8053975
9.642322007568108	7.873577	2.8059895
9.659911100241267	7.8766093	2.8065298
9.677500421048851	7.841076	2.800192
9.695089970414175	7.902115	2.81107
9.712679748760609	7.998256	2.8281188
9.730269756511557	7.959046	2.8211782
9.747859994090492	7.988072	2.8263178
9.765450461920915	8.084443	2.8433156
9.78304116042639	8.114591	2.848612
9.800632090030527	8.221861	2.8673787
9.81822325115699	8.19169	2.862113
9.835814644229481	8.182652	2.8605337
9.853406269671762	8.117191	2.8490684
9.870998127907646	8.062327	2.839424
9.888590219360985	8.088527	2.8440335
9.906182544455698	8.132781	2.851803
9.923775103615734	8.177783	2.8596823
9.941367897265108	8.223827	2.8677216
9.958960925827878	8.219155	2.866907
9.97655418972816	8.19749	2.8631258
9.994147689390106	8.160737	2.8567004
10.011741425237934	8.120366	2.8496256
10.029335397695904	8.071641	2.8410633
10.04692960718833	7.980004	2.8248901
10.06452405413958	8.029612	2.833657
10.082118738974064	8.023894	2.832648
10.099713662116246	8.054382	2.8380244
10.117308823990651	8.027655	2.8333116
10.134904225021844	8.022713	2.8324394
10.152499865634445	8.095209	2.8452082
10.170095746253125	8.14189	2.8533998
10.18769186730261	8.119035	2.849392
10.205288229207675	8.063453	2.839622
10.222884832393145	8.000888	2.8285842
10.2404816772839	7.910767	2.8126085
10.258078764304868	7.8814344	2.8073893
10.275676093881035	7.873356	2.8059502
10.293273666437438	7.900586	2.8107982
10.310871482399158	8.010144	2.8302197
10.32846954219134	7.9705257	2.823212
10.346067846239173	8.020476	2.8320446
10.363666394967908	7.979177	2.8247437
10.38126518880283	8.035632	2.834719
10.398864228169298	8.098443	2.8457763
10.416463513492713	8.136118	2.8523881
10.434063045198531	8.0615635	2.8392892
10.451662823712262	7.998807	2.8282163
10.469262849459467	7.962246	2.8217452
10.486863122865758	7.8784847	2.8068638
10.504463644356806	7.8497357	2.801738
10.522064414358338	7.837902	2.7996254
10.539665433296118	7.774711	2.788317
10.557266701595987	7.7604923	2.7857661
10.574868219683818	7.643398	2.7646697
10.592469987985552	7.539858	2.7458801
10.610072006927185	7.4901714	2.7368178
10.627674276934751	7.458138	2.7309592
10.64527679843435	7.3525686	2.711562
10.662879571852143	7.1876135	2.6809726
10.680482597614331	6.9720955	2.6404727
10.698085876147173	6.862097	2.6195605
10.715689407876988	6.742636	2.5966587
10.733293193230146	6.6682053	2.5822868
10.750897232633072	6.624578	2.5738256
10.76850152651225	6.591985	2.5674863
10.786106075294207	6.542556	2.557842
10.803710879405534	6.448227	2.539336
10.821315939272877	6.336638	2.517268
10.83892125532294	6.2650185	2.503002
10.856526827982472	6.1620646	2.4823506
10.874132657678285	6.1350875	2.4769108
10.891738744837243	6.112473	2.4723415
10.909345089886271	6.074317	2.464613
10.926951693252343	6.019811	2.4535303
10.944558555362494	6.0087886	2.451283
10.96216567664381	5.9335685	2.4358916
10.979773057523436	5.8389645	2.416395
10.997380698428573	5.737683	2.3953462
11.014988599786477	5.626624	2.3720505
11.032596762024461	5.5649686	2.3590186
11.050205185569892	5.5620627	2.3584025
11.067813870850198	5.4904127	2.343163
11.085422818292859	5.4506993	2.3346732
11.10303202832541	5.377929	2.3190362
11.120641501375454	5.3536925	2.3138049
11.138251237870636	5.284302	2.2987611
11.155861238238671	5.1955366	2.279372
11.173471502907317	5.0812273	2.2541578
11.191082032304402	4.990956	2.2340448
11.208692826857805	4.9227686	2.2187314
11.226303886995465	4.885788	2.2103817
11.243915213145371	4.8579397	2.2040734
11.261526805735578	4.8460836	2.2013822
11.279138665194196	4.8544655	2.2032852
11.296750791949393	4.781826	2.1867387
11.314363186429393	4.698136	2.1675184
11.331975849062479	4.608851	2.1468234
11.34958878027699	4.622675	2.1500406
11.36720198050133	4.542166	2.1312358
11.384815450163948	4.4719505	2.1146986
11.402429189693366	4.423829	2.10329
11.420043199518153	4.4211373	2.1026502
11.437657480066942	63.39335	7.961994
11.455272031768422	85.085915	9.224203
11.472886855051353	107.43272	10.364976
11.490501950344528	99.02616	9.951189
11.508117318076819	84.4073	9.187345
11.52573295867715	45.78808	6.766689
11.543348872574514	4.10298	2.0255814
11.560965060197946	4.0258293	2.0064468
11.57858152197655	3.9610915	1.9902492
11.59619825833949	3.8988388	1.9745477
11.613815269715985	3.8949125	1.9735533
11.631432556535323	38.459614	6.2015815
11.649050119226837	83.03057	9.112111
11.666667958219929	93.41677	9.6652355
11.68428607394406	107.59575	10.372837
11.701904466828756	82.40039	9.077466
11.719523137303586	65.26277	8.078538
11.737142085798196	4.5240636	2.1269846
11.754761312742286	3.621105	1.9029201
11.772380818565619	3.6049976	1.8986832
11.790000603698015	3.596698	1.8964963
11.80762066856935	3.612128	1.9005599
11.825241013609572	3.595919	1.8962908
11.842861639248683	3.5593605	1.8866267
11.860482545916748	3.4420736	1.8552827
11.878103734043883	3.3787227	1.8381302
11.895725204060282	3.3452125	1.8289922
11.91334695639619	3.3441863	1.8287116
11.930968991481919	3.337713	1.8269409
11.948591309747824	3.3093686	1.819167
11.966213911624347	3.3428104	1.8283354
11.98383679754198	3.2706773	1.8085014
12.001459967931268	3.2524822	1.8034639
12.019083423222835	3.23436	1.7984326
12.036707163847352	3.2393403	1.7998167
12.05433119023556	3.1763687	1.782237
12.071955502818259	3.1237042	1.7674004
12.089580102026313	3.112179	1.7641369
12.107204988290643	3.088459	1.7574012
12.12483016204224	3.0860415	1.7567133
12.142455623712152	3.0621605	1.749903
12.16008137373149	3.0852048	1.7564751
12.177707412531431	3.0596676	1.7491906
12.19533374054321	3.0172336	1.7370186
12.212960358198126	2.9821436	1.7268884
12.230587265927545	2.9790742	1.7259995
12.248214464162889	2.9970152	1.731189
12.265841953335649	2.9862125	1.7280661
12.283469733877375	2.9492002	1.7173235
12.301097806219685	2.914205	1.7071043
12.31872617079425	2.9212947	1.7091795
12.336354828032825	2.9069762	1.7049857
12.353983778367205	2.8877785	1.6993465
12.371613022229262	2.853071	1.6891036
12.389242560050928	2.7854235	1.6689588
12.406872392264201	2.7774272	1.6665615
12.424502519301143	2.8005939	1.6734974
12.442132941593874	2.8513327	1.688589
12.459763659574586	2.8709283	1.6943814
12.477394673675532	2.8155224	1.6779518
12.49502598432903	2.7864099	1.6692543
12.51265759196746	2.7677634	1.6636597
12.530289497023267	2.7566001	1.6603012
12.547921699928967	2.7364964	1.654236
12.565554201117134	2.719732	1.649161
12.583187001020404	2.711222	1.6465789
12.600820100071486	2.7095852	1.6460818
12.618453498703152	2.688976	1.6398097
12.636087197348235	2.697614	1.6424415
12.65372119643964	2.7181482	1.6486808
12.671355496410326	2.7532	1.659277
12.68899009769333	2.7705126	1.6644857
12.706625000721749	2.8525186	1.68894
12.724260205928752	2.894935	1.7014508
12.741895713747551	2.9316928	1.7122186
12.759531524611454	2.9002101	1.7030003
12.777167638953818	2.8590415	1.69087
12.794804057208072	2.8066123	1.6752946
12.812440779807702	2.8514154	1.6886134
12.830077807186271	3.0708246	1.7523768
12.847715139777405	3.2098756	1.7916125
12.865352778014795	3.4018226	1.844403
12.882990722332197	3.5082245	1.8730255
12.90062897316344	3.5634751	1.8877169
12.918267530942412	3.6668983	1.9149147
12.935906396103071	3.5366573	1.8806002
12.953545569079449	3.6642485	1.9142227
12.971185050305628	3.5130985	1.8743261
12.988824840215775	3.573058	1.8902534
13.006464939244115	3.5654514	1.8882403
13.024105347824943	3.403458	1.8448464
13.041746066392617	3.4765575	1.8645529
13.05938709538157	3.284599	1.8123463
13.077028435226296	3.3037095	1.817611
13.094670086361363	3.2282736	1.7967397
13.112312049221401	3.138605	1.7716109
13.129954324241112	3.0763881	1.7539636
13.147596911855258	2.8599916	1.6911509
13.165239812498685	2.8407478	1.6854519
13.182883026606293	2.753885	1.6594833
13.200526554613058	2.6897564	1.6400477
13.218170396954017	2.6283274	1.6212116
13.235814554064284	2.6119053	1.616139
13.253459026379034	2.6395342	1.6246643
13.271103814333523	2.6771417	1.6361973
13.288748918363058	2.7054174	1.6448153
13.306394338903031	2.7175713	1.6485058
13.32404007638889	2.6647506	1.6324064
13.341686131256164	2.6629415	1.6318521
13.359332503940449	2.6366692	1.6237824
13.376979194877402	2.6712773	1.6344043
13.394626204502751	2.6569834	1.6300256
13.412273533252307	2.6484804	1.6274153
13.429921181561937	2.6440237	1.6260453
13.447569149867581	2.6791549	1.6368124
13.465217438605247	2.6955204	1.641804
13.482866048211022	2.6652062	1.632546
13.500514979121052	2.6580665	1.6303577
13.518164231771568	2.6360595	1.6235946
13.535813806598844	2.6526752	1.6287035
13.553463704039254	2.6190832	1.6183581
13.571113924529229	2.6147912	1.6170316
13.588764468505275	2.606808	1.6145612
13.606415336403956	2.633044	1.6226658
13.624066528661917	2.6617448	1.6314855
13.641718045715882	2.6916215	1.6406162
13.659369888002635	2.756835	1.6603719
13.67702205595903	2.8086767	1.6759107
13.694674550021993	2.9222395	1.709456
13.712327370628532	2.9979794	1.7314674
13.729980518215713	3.1155686	1.7650974
13.747633993220681	3.1978226	1.7882457
13.765287796080647	3.2332187	1.7981153
13.7829419272329	3.252448	1.8034545
13.800596387114801	3.275544	1.8098464
13.818251176163775	3.26655	1.8073599
13.835906294817324	3.2903929	1.813944
13.853561743513023	3.3385236	1.8271627
13.871217522688525	3.4189591	1.8490428
13.888873632781538	3.428974	1.8517488
13.906530074229858	3.445898	1.856313
13.92418684747135	3.4590871	1.8598621
13.941843952943948	3.444637	1.8559734
13.959501391085665	3.3730147	1.8365769
13.977159162334578	3.2935398	1.8148112
13.994817267128846	3.263965	1.8066447
14.012475705906693	3.2218573	1.7949533
14.030134479106424	3.1656435	1.7792255
14.047793587166414	3.067638	1.7514673
14.065453030525108	2.9853826	1.727826
14.083112809621026	2.8878424	1.6993653
14.100772924892766	2.8590314	1.6908671
14.118433376778997	2.8394167	1.6850569
14.136094165718458	2.8621159	1.6917789
14.153755292149969	2.8075216	1.6755661
14.171416756512416	2.733071	1.6532003
14.189078559244768	2.6127956	1.6164144
14.20674070078606	2.5125515	1.585103
14.224403181575408	2.470207	1.5716892
14.242066002051999	2.4265828	1.5577493
14.259729162655093	2.4324315	1.5596254
14.277392663824022	2.462571	1.5692581
14.295056505998208	2.440254	1.5621313
14.312720689617128	2.4239504	1.5569041
14.330385215120348	2.3591702	1.535959
14.348050082947497	2.3168607	1.5221237
14.3657152935383	2.2959552	1.5152409
14.383380847332528	2.3292744	1.526196
14.401046744770051	2.3688486	1.5391064
14.418712986290798	2.4244518	1.5570651
14.436379572334793	2.419647	1.5555215
14.454046503342123	2.4140391	1.5537179
14.471713779752946	2.378337	1.5421858
14.489381402007504	2.3364453	1.5285436
14.507049370546113	2.3278613	1.525733
14.524717685809168	2.3100228	1.5198759
14.542386348237134	2.338947	1.5293616
14.560055358270553	2.3691652	1.5392092
14.577724716350051	2.4035459	1.5503373
14.595394422916325	2.3909507	1.5462699
14.61306447841015	2.4120154	1.5530665
14.63073488327237	2.4199753	1.555627
14.648405637943917	2.4640143	1.5697179
14.6660767428658	2.4722571	1.5723413
14.683748198479094	2.4926724	1.57882
14.701420005224954	2.5149574	1.5858617
14.719092163544628	2.5563056	1.5988451
14.73676467387942	2.608228	1.615001
14.754437536670727	2.618226	1.6180934
14.772110752360014	2.6679049	1.6333722
14.78978432138882	2.6650743	1.6325055
14.807458244198777	2.681926	1.6376587
14.82513252123159	2.6366122	1.6237649
14.842807152929028	2.6507897	1.6281246
14.860482139732962	2.627829	1.621058
14.87815748208531	2.6311357	1.6220776
14.8958331804281	2.643857	1.6259942
14.91350923520342	2.6064053	1.6144365
14.931185646853438	2.6176462	1.6179142
14.948862415820408	2.60727	1.6147043
14.966539542546656	2.607131	1.6146612
14.98421702747459	2.5709856	1.6034293
15.001894871046696	2.5422819	1.5944535
15.019573073705542	2.5516503	1.5973886
15.037251635893766	2.567947	1.6024815
15.054930558054092	2.598114	1.6118666
15.072609840629323	2.6174397	1.6178503
15.090289484062351	2.758453	1.6608591
15.107969488796124	2.887805	1.6993543
15.125649855273691	3.121539	1.7667878
15.14333058393817	3.4341598	1.8531486
15.161011675232768	3.965321	1.9913114
15.17869312960076	4.46853	2.11389
15.196374947485506	5.151033	2.2695887
15.214057129330447	6.4365187	2.5370295
15.231739675579114	8.604755	2.9333863
15.249422586675102	13.34121	3.6525621
15.267105863062092	18.081898	4.2522817
15.284789505183847	25.732977	5.072768
15.302473513484218	31.145288	5.5807962
15.320157888407127	35.401035	5.949877
15.337842630396578	33.85982	5.818919
15.355527739896656	30.690447	5.539896
15.37321321735153	23.800974	4.878624
15.39089906320545	16.17319	4.02159
15.408585277902748	10.282992	3.2067106
15.42627186188783	6.2347326	2.4969447
15.443958815605198	4.402043	2.0981045
15.461646139499424	3.6201637	1.9026728
15.479333834015168	3.2305973	1.7973863
15.497021899597165	2.955809	1.7192466
15.514710336690234	2.7338881	1.6534474
15.53239914573928	2.632058	1.6223618
15.550088327189297	2.5656545	1.6017661
15.567777881485336	2.5018942	1.5817378
15.58546780907256	2.4773805	1.5739697
15.6031581103962	2.4671874	1.5707283
15.620848785901568	2.4420185	1.5626959
15.638539836034063	2.429961	1.5588332
15.656231261239173	2.4358025	1.5607058
15.673923061962451	2.4559577	1.5671495
15.691615238649552	2.4745638	1.5730747
15.709307791746202	2.44353	1.5631795
15.727000721698221	2.4050193	1.5508125
15.744694028951498	2.3822856	1.5434655
15.76238771395202	2.3444166	1.5311488
15.780081777145844	2.3245878	1.5246599
15.797776218979125	2.3052318	1.518299
15.815471039898094	2.3349135	1.5280423
15.833166240349064	2.3929973	1.5469315
15.850861820778437	2.4332943	1.5599021
15.868557781632699	2.4288626	1.5584809
15.886254123358412	2.4587212	1.568031
15.903950846402232	2.4892836	1.5777464
15.921647951210897	2.5449376	1.595286
15.939345438231225	2.5828636	1.607129
15.957043307910133	2.5654054	1.6016883
15.974741560694602	2.5453906	1.595428
15.992440197031714	2.5228515	1.5883486
16.01013921736862	2.4839523	1.5760559
16.02783862215259	2.4315393	1.5593394
16.045538411830933	2.4233086	1.556698
16.06323858685107	2.4456074	1.5638438
16.080939147660512	2.4635797	1.5695795
16.09864009470684	2.4232886	1.5566915
16.11634142843774	2.4314942	1.559325
16.134043149300954	2.429999	1.5588454
16.15174525774433	2.4225497	1.5564542
16.169447754215817	2.399548	1.5490475
16.18715063916342	2.4202375	1.5557113
16.204853913035244	2.4191306	1.5553554
16.222557576279478	2.4344964	1.5602872
16.240261629344403	22.414345	4.734379
16.257966072678386	42.95545	6.5540404
16.275670906729868	38.04588	6.168134
16.293376131947387	2.4568226	1.5674255
16.31108174877957	2.4908023	1.5782275
16.328787757675133	2.5083423	1.5837747
16.34649415908287	2.5081446	1.5837123
16.364200953451657	2.5238874	1.5886748
16.38190814123048	2.5625758	1.6008047
16.39961572286839	2.5968723	1.6114814
16.41732369881455	2.6441069	1.626071
16.43503206951817	2.6396213	1.6246911
16.45274083542859	2.6881788	1.6395667
16.47044999699522	2.7307496	1.652498
16.488159554667558	2.7936294	1.6714154
16.505869508895184	2.8387575	1.6848613
16.523579860127786	2.9139268	1.7070228
16.541290608815117	2.9698431	1.7233233
16.559001755407035	3.0507026	1.746626
16.57671330035348	3.161989	1.7781982
16.59442524410448	3.2625172	1.8062439
16.61213758711015	3.4543724	1.8585942
16.629850329820705	3.5041785	1.8719451
16.647563472686436	3.559481	1.8866587
16.665277016157724	3.46878	1.8624661
16.682990960685053	3.4960802	1.8697808
16.70070530671898	3.4860609	1.8670996
16.718420054710155	3.5296047	1.8787242
16.736135205109335	3.5134385	1.8744168
16.753850758367335	3.5110648	1.8737836
16.771566714935087	3.571561	1.8898574
16.789283075263597	3.6648297	1.9143745
16.80699983980398	3.7542808	1.9375967
16.82471700900741	3.8240554	1.9555192
16.84243458332518	3.835029	1.958323
16.860152563208665	3.8783023	1.9693406
16.87787094910932	3.9117286	1.9778091
16.89558974147871	4.0051017	2.001275
16.913308940768466	4.083154	2.0206816
16.931028547430333	4.1805162	2.044631
16.94874856191613	4.231407	2.0570385
16.966468984677785	4.264522	2.0650718
16.98418981616729	4.338012	2.0827894
17.00191105683676	4.3993344	2.097459
17.019632707138374	4.420222	2.1024323
17.03735476752442	4.449756	2.1094446
17.05507723844728	4.4664526	2.1133983
17.072800120359403	4.559007	2.135183
17.090523413713353	4.620257	2.1494782
17.108247118961785	4.598105	2.1443193
17.125971236557437	4.5379686	2.130251
17.143695766953133	4.525829	2.1273994
17.161420710601806	4.555839	2.1344411
17.179146067956477	4.6118746	2.1475275
17.19687183947025	4.6804185	2.1634276
17.21459802559634	4.6720543	2.1614935
17.232324626788028	4.638413	2.1536975
17.25005164349871	4.556299	2.134549
17.267779076181863	4.5598927	2.1353905
17.285506925291074	4.572831	2.138418
17.30323519127999	4.549138	2.132871
17.320963874602384	4.5152283	2.1249065
17.33869297571211	4.529909	2.1283584
17.356422495063114	4.5459995	2.132135
17.37415243310944	4.486608	2.1181614
17.391882790305218	4.4339385	2.105692
17.40961356710468	4.415977	2.1014225
17.42734476396215	4.501762	2.1217356
17.445076381332044	4.559301	2.135252
17.462808419668868	4.603643	2.14561
17.48054087942723	4.674741	2.1621149
17.498273761061835	4.761357	2.1820533
17.51600706502747	5.063631	2.2502513
17.533740791779024	5.591306	2.3645942
17.551474941771485	6.4390526	2.5375288
17.56920951545993	8.30536	2.8819022
17.586944513299528	9.624391	3.1023202
17.60467993574556	12.65709	3.5576804
17.622415783253373	15.523981	3.9400485
17.64015205627843	18.51207	4.3025656
17.657888755276293	21.102064	4.5936985
17.675625880702604	22.808441	4.7758183
17.69336343301311	21.30469	4.6157002
17.71110141266366	19.153597	4.3764825
17.728839820110178	16.14458	4.018032
17.746578655808705	12.848127	3.5844285
17.764317920215372	10.580278	3.252734
17.7820576137864	8.845113	2.9740734
17.79979773697811	7.4362044	2.7269404
17.81753829024692	6.0583177	2.461365
17.835279274049356	5.233954	2.2877836
17.85302068884201	4.4481125	2.1090548
17.870762535081607	4.070363	2.017514
17.888504813224934	3.8876853	1.9717214
17.90624752372891	3.7112758	1.9264672
17.923990667050536	3.599829	1.8973215
17.941734243646895	3.5282419	1.8783615
17.959478253975185	3.4788713	1.8651732
17.9772226984927	3.3886325	1.8408239
17.994967577656833	3.3815057	1.8388871
18.01271289192506	3.393118	1.8420417
18.030458641754965	3.3450122	1.8289374
18.04820482760425	3.2818048	1.8115752
18.06595144993067	3.2170649	1.7936178
18.083698509192125	3.240136	1.8000377
18.101446005846576	3.2423406	1.80065
18.119193940352105	3.2151864	1.793094
18.136942313166887	3.16599	1.779323
18.1546911247492	3.120607	1.766524
18.1724403755574	3.123613	1.7673746
18.19019006604997	3.1124399	1.7642108
18.207940196685467	3.0936222	1.7588695
18.225690767922575	3.0912795	1.7582035
18.243441780220046	3.1096194	1.7634113
18.261193234036764	3.092279	1.7584877
18.278945129831676	3.0351152	1.7421582
18.29669746806386	2.9936738	1.7302237
18.314450249192483	2.9622626	1.7211225
18.3322034736768	2.977692	1.725599
18.349957141976184	3.003789	1.7331443
18.3677112545501	3.0228631	1.7386383
18.385465811858108	3.0640628	1.7504464
18.403220814359884	3.0783482	1.7545222
18.420976262515172	3.0981472	1.7601554
18.43873215678387	3.0934114	1.7588097
18.456488497625923	3.09295	1.7586786
18.474245285501407	3.1524396	1.775511
18.492002520870486	3.2532957	1.8036895
18.50976020419343	3.3479886	1.829751
18.527518335930615	3.6103373	1.9000888
18.545276916542516	4.1323004	2.032806
18.563035946489688	4.2671685	2.0657127
18.580795426232832	4.6488333	2.1561153
18.598555356232698	4.5365734	2.1299233
18.616315736950185	4.898463	2.213247
18.63407656884626	4.6391983	2.15388
18.65183785238201	4.8289013	2.1974761
18.669599588018617	4.609802	2.147045
18.68736177621737	4.5805244	2.1402159
18.705124417439652	4.607719	2.1465597
18.72288751214696	4.4534802	2.110327
18.740651060800886	4.5475893	2.1325078
18.758415063863115	4.190542	2.0470815
18.77617952179546	4.3356986	2.0822341
18.793944435059814	4.1163	2.0288668
18.811709804118184	4.119543	2.0296657
18.829475629432675	4.0324597	2.0080986
18.8472419114655	3.8624735	1.9653176
18.86500865067897	3.942391	1.9855455
18.88277584753551	3.6643088	1.9142385
18.90054350249763	3.6693141	1.9155453
18.918311616027957	3.3211582	1.8224045
18.936080188589226	3.1898556	1.7860167
18.953849220644265	2.9611878	1.7208102
18.971618712656007	2.8411856	1.6855817
18.9893886650875	2.781538	1.6677943
19.007159078401887	7.9721274	2.8234956
19.024929953062408	32.857056	5.7321076
19.042701289532435	32.83749	5.7304006
19.060473088275405	25.399012	5.0397434
19.07824534975489	2.647831	1.6272157
19.096018074434568	2.642807	1.6256713
19.113791262778197	2.6221864	1.6193167
19.13156491524966	2.563096	1.6009672
19.149339032312945	2.5536985	1.5980296
19.167113614432136	2.5275733	1.5898343
19.184888662071433	2.5120747	1.5849526
19.202664175695123	2.4592898	1.5682123
19.220440155767623	2.4740639	1.5729157
19.238216602753447	2.4667103	1.5705764
19.2559935171172	2.483959	1.576058
19.27377089932361	2.4743605	1.57301
19.291548749837514	2.4755788	1.5733972
19.309327069123835	2.4847662	1.5763141
19.32710585764763	2.4926467	1.5788118
19.344885115874032	2.500695	1.5813586
19.362664844268313	2.4736354	1.5727795
19.380445043295822	2.464867	1.5699896
19.39822571342203	2.47414	1.5729399
19.41600685511252	2.492824	1.578868
19.43378846883297	2.4988852	1.5807862
19.451570555049173	2.463721	1.5696245
19.469353114227037	2.4643528	1.5698258
19.48713614683254	2.4863765	1.5768248
19.50491965333182	2.512584	1.5851133
19.52270363419109	2.511901	1.5848978
19.540488089876686	2.4983408	1.5806141
19.55827302085503	2.4922047	1.5786718
19.576058427592674	2.456923	1.5674576
19.593844310556282	2.424294	1.5570145
19.611630670212598	2.4427757	1.5629382
19.629417507028506	2.4698796	1.571585
19.64720482147098	2.4652572	1.5701138
19.6649926140071	2.479467	1.5746323
19.682780885104084	2.4866734	1.576919
19.70056963522921	2.4664555	1.5704952
19.718358864849908	2.4876091	1.5772157
19.7361485744337	2.5088437	1.583933
19.753938764448215	2.542304	1.5944604
19.771729435361202	2.5311506	1.590959
19.789520587640506	2.4741325	1.5729376
19.807312221754092	2.4175172	1.5548368
19.825104338170043	2.4123218	1.5531651
19.842896937356517	2.4335334	1.5599786
19.860690019781824	2.462176	1.5691323
19.87848358591436	2.4863698	1.5768228
19.896277636222635	2.5087085	1.5838903
19.914072171175278	2.539833	1.5936854
19.931867191241015	2.5332675	1.5916241
19.94966269688869	2.4775057	1.5740094
19.967458688587264	2.4440882	1.563358
19.985255166805807	2.443999	1.5633295
20.00305213201348	2.402243	1.5499171
20.020849584679578	2.4030693	1.5501837
20.038647525273507	2.3797994	1.5426599
20.05644595426477	2.3806632	1.5429398
20.07424487212299	2.3812716	1.543137
20.092044279317903	2.388923	1.5456141
20.109844176319353	2.4141493	1.5537533
20.127644563597304	2.412168	1.5531156
20.145445441621817	2.428307	1.5583026
20.16324681086307	2.3992238	1.5489428
20.181048671791373	2.369013	1.5391599
20.198851024877122	2.35658	1.5351156
20.216653870590836	2.3757062	1.5413326
20.234457209403146	2.3558784	1.5348871
20.252261041784802	2.3466809	1.531888
20.270065368206662	2.3084517	1.519359
20.287870189139685	2.2916322	1.5138137
20.305675505054968	2.2729256	1.5076225
20.323481316423702	2.3128543	1.5208071
20.341287623717207	2.3630707	1.5372282
20.359094427406884	2.3662179	1.5382515
20.376901727964288	2.313227	1.5209296
20.39470952586107	2.2870939	1.5123141
20.41251782156899	2.3056133	1.5184246
20.430326615559935	2.2976787	1.5158095
20.448135908305886	2.2999086	1.5165449
20.465945700278965	2.319522	1.5229976
20.483755991951384	2.3237567	1.5243874
20.50156678379548	2.3071685	1.5189366
20.519378076283708	2.3013632	1.5170245
20.537189869888635	2.328998	1.5261055
20.55500216508294	2.3457906	1.5315974
20.572814962339415	2.336552	1.5285784
20.59062826213098	2.2932796	1.5143578
20.60844206493066	2.2758126	1.5085797
20.626256371211593	2.2844276	1.5114323
20.644071181447032	2.2721682	1.5073713
20.66188649611036	2.2617342	1.5039064
20.67970231567506	2.2659159	1.505296
20.697518640614742	2.2876806	1.512508
20.715335471403122	2.2826123	1.5108317
20.73315280851404	2.269407	1.5064551
20.750970652421447	2.2480245	1.4993414
20.768789003599412	2.2359993	1.4953258
20.786607862522136	2.219908	1.4899355
20.8044272296639	2.2288294	1.4929265
20.82224710549913	2.2217073	1.4905393
20.84006749050237	2.2508657	1.5002885
20.857888385148268	3.815519	1.9533354
20.8757097899116	45.939632	6.7778783
20.893531705267254	64.784836	8.0489025
20.911354131690224	83.82223	9.155448
20.92917706965566	69.087296	8.311877
20.94700051963877	50.148716	7.081576
20.96482448211493	29.38917	5.421178
20.982648957559622	4.105986	2.0263233
21.00047394644843	2.1957476	1.4818056
21.01829944925707	2.2087078	1.4861722
21.036125466461375	2.1903157	1.4799715
21.053951998537297	2.1624968	1.470543
21.071779045960906	2.1188295	1.4556199
21.089606609208378	2.1245754	1.4575924
21.10743468875603	2.146017	1.464929
21.12526328508028	2.1652215	1.4714692
21.143092398657675	2.1650116	1.4713979
21.16092202996488	2.1725614	1.4739611
21.17875217947867	2.1653068	1.4714981
21.19658284767596	2.1882036	1.4792578
21.21441403503377	2.1940544	1.4812341
21.232245742029225	2.1975374	1.4824094
21.2500779691396	2.1830924	1.4775292
21.26791071684227	2.1850984	1.4782078
21.28574398561475	2.1819687	1.4771489
21.30357777593465	2.1665823	1.4719315
21.321412088279704	2.1350343	1.4611757
21.339246923127792	2.1319988	1.4601365
21.357082280956888	2.1473298	1.465377
21.3749181622451	2.1737497	1.4743642
21.392754567470647	2.144718	1.4644855
21.41059149711187	2.0958903	1.447719
21.42842895164726	2.0498846	1.4317418
21.446266931555378	2.0426922	1.4292278
21.464105437314945	2.0554225	1.4336745
21.481944469404798	2.0847123	1.4438533
21.49978402830388	2.0888941	1.4453007
21.51762411449127	2.0825036	1.4430882
21.53546472844617	2.0757835	1.440758
21.553305870647876	2.0737002	1.4400347
21.571147541575865	2.0846	1.4438144
21.58898974170967	2.100575	1.449336
21.60683247152899	2.0631604	1.4363706
21.62467573151363	2.0308414	1.4250759
21.642519522143523	2.0095494	1.4175857
21.660363843898722	2.053649	1.4330558
21.6782086972594	2.0784168	1.4416715
21.696054082705864	2.0727339	1.4396992
21.713900000718535	2.0135603	1.4189998
21.73174645177795	1.9777598	1.4063284
21.749593436364794	1.966739	1.4024048
21.767440954959845	2.0110834	1.4181267
21.785289008044032	1.9995974	1.4140712
21.803137596098388	1.9452807	1.3947332
21.820986719604086	1.9356582	1.3912793
21.838836379042412	1.9419378	1.3935343
21.85668657489478	1.9969314	1.4131283
21.87453730764273	2.006061	1.4163549
21.892388577767914	1.9995273	1.4140464
21.91024038575213	1.9843497	1.4086695
21.928092732077285	1.9941509	1.4121441
21.945945617225426	1.988297	1.4100698
21.963799041678694	1.971032	1.4039345
21.981653005919398	31.287237	5.5934997
21.999507510429943	78.09147	8.836938
22.01736255569286	73.05036	8.54695
22.035218142190818	4.1443577	2.0357695
22.05307427040661	1.9407747	1.393117
22.07093094082315	1.905053	1.3802366
22.088788153923474	1.8892316	1.3744932
22.106645910190746	1.916957	1.3845422
22.12450421010827	1.9417074	1.3934516
22.142363054159464	1.959409	1.3997889
22.16022244282787	1.9609709	1.4003468
22.178082376597164	1.9912816	1.4111278
22.195942855951145	1.9817165	1.4077345
22.213803881373742	1.9771538	1.406113
22.231665453349002	1.9429252	1.3938885
22.24952757236111	1.9484758	1.3958782
22.26739023889438	1.9458174	1.3949256
22.28525345343323	1.9578425	1.3992293
22.30311721646225	1.9377866	1.3920441
22.320981528466113	1.9655032	1.4019641
22.33884638992964	1.9865836	1.4094622
22.356711801337788	1.9822886	1.4079378
22.37457776317561	1.9497263	1.3963261
22.392444275928337	1.9308743	1.389559
22.410311340081282	1.9017105	1.3790252
22.428178956119904	1.9327164	1.3902217
22.446047124529805	1.9292082	1.3889594
22.46391584579669	1.9235576	1.3869238
22.481785120406414	1.9046307	1.3800836
22.49965494884496	1.8789669	1.3707541
22.51752533159841	1.9025155	1.379317
22.53539626915302	1.9306996	1.3894962
22.553267761995137	1.9739197	1.4049625
22.571139810611264	1.9586434	1.3995154
22.589012415488025	1.9643997	1.4015704
22.60688557711216	1.9458296	1.39493
22.624759295970566	1.9557459	1.3984798
22.642633572550263	1.9449239	1.3946053
22.660508407338362	1.9819547	1.4078192
22.67838380082217	2.005519	1.4161634
22.696259753489077	1.9806982	1.4073728
22.714136265826614	1.9627215	1.4009717
22.73201333832246	1.9199048	1.3856063
22.74989097146439	1.9134662	1.383281
22.76776916574035	1.8596734	1.3636984
22.785647921638393	1.8523238	1.361001
22.803527239646712	1.867439	1.3665427
22.82140712025363	1.8858002	1.3732444
22.839287563947593	1.9270983	1.3881997
22.85716857121719	1.9365178	1.3915882
22.875050142551135	1.9141537	1.3835294
22.892932278438277	1.9040462	1.3798718
22.910814979367604	1.920084	1.3856709
22.928698245828222	1.9092875	1.3817697
22.946582078309387	1.9215016	1.3861824
22.96446647730047	1.934737	1.3909482
22.98235144329098	1.9024278	1.3792852
23.000236976770562	1.875954	1.3696547
23.018123078229	1.8583564	1.3632154
23.03600974815619	1.8643569	1.3654145
23.053896987042194	1.8862089	1.3733932
23.071784795377173	1.9028676	1.3794446
23.08967317365145	1.871427	1.3680011
23.10756212235546	1.8891766	1.3744732
23.125451641979787	1.9035941	1.3797079
23.143341733015134	1.8789009	1.37073
23.161232395952357	1.868922	1.3670852
23.179123631282426	1.8515285	1.3607088
23.197015439496468	1.8734822	1.3687521
23.214907821085717	1.8897014	1.3746641
23.23280077654157	1.9295135	1.3890693
23.250694306355538	1.9289826	1.3888782
23.268588411019277	1.9347492	1.3909526
23.28648309102458	1.9342178	1.3907616
23.304378346863356	1.9262885	1.387908
23.322274179027676	1.9375582	1.3919619
23.340170588009723	1.9323974	1.3901069
23.358067574301852	1.9134642	1.3832803
23.37596513839651	1.8725495	1.3684113
23.39386328078629	1.8819315	1.3718351
23.411762001963947	1.8953593	1.3767204
23.429661302422353	1.8852404	1.3730406
23.4475611826545	1.8487587	1.3596907
23.46546164315356	1.8609413	1.3641633
23.48336268441279	1.8772542	1.3701292
23.501264306925638	1.9156102	1.3840557
23.51916651118564	1.9512684	1.3968781
23.537069297686497	1.9671654	1.4025568
23.554972666922037	1.9437219	1.3941742
23.57287661938623	1.91429	1.3835787
23.59078115557318	1.9095552	1.3818666
23.608686275977128	1.9379829	1.3921145
23.62659198109246	1.907577	1.3811506
23.6444982714137	1.8645321	1.3654788
23.66240514743549	1.8515928	1.3607324
23.68031260965263	1.8768374	1.3699771
23.698220658560068	1.8994243	1.378196
23.716129294652845	1.9204441	1.385801
23.7340385184262	1.8962651	1.3770494
23.75194833037546	1.8808084	1.3714256
23.769858730996123	1.9206977	1.3858924
23.78776972078382	1.9490551	1.3960856
23.80568130023431	1.9394867	1.3926545
23.823593469843495	1.9044136	1.3800049
23.841506230107424	1.8697872	1.3674016
23.859419581522275	1.8767705	1.3699527
23.87733352458438	1.8868489	1.3736262
23.89524805979019	1.8694819	1.36729
23.913163187636318	1.8788074	1.370696
23.931078908619508	1.9261036	1.3878413
23.948995223236633	1.9276841	1.3884106
23.966912131984735	1.9469525	1.3953323
23.98482963536096	2.0379844	1.4275799
24.002747733862616	2.0795734	1.4420726
24.020666427987155	2.0531843	1.4328936
24.038585718232156	2.0436165	1.4295511
24.056505605095353	2.0285625	1.4242761
24.074426089074617	2.0410578	1.428656
24.092347170667946	2.0302272	1.4248604
24.110268850373515	2.009074	1.4174181
24.128191128689586	1.9843439	1.4086674
24.146114006114626	1.9659492	1.4021231
24.164037483147187	1.97861	1.4066308
24.181961560286005	2.032538	1.4256711
24.199886238029926	2.0580325	1.4345845
24.21781151687797	2.0675426	1.4378952
24.235737397329274	2.0624769	1.4361327
24.253663879883135	2.0854323	1.4441026
24.271590965038975	2.0908184	1.4459662
24.289518653296376	2.0746126	1.4403516
24.30744694515505	2.0129821	1.4187961
24.32537584111486	1.9732227	1.4047145
24.34330534167581	1.9775299	1.4062468
24.361235447338046	1.9976861	1.4133953
24.379166158601876	1.9922116	1.4114573
24.39709747596772	2.0038815	1.4155852
24.41502939993615	1.9755454	1.405541
24.432961931007917	1.9211838	1.3860677
24.450895069683856	1.8957732	1.3768708
24.468828816465	1.911447	1.382551
24.4867631718525	1.9467797	1.3952705
24.504698136347656	2.0117881	1.4183751
24.52263371045192	2.026741	1.4236366
24.540569894666874	1.9835972	1.4084023
24.558506689494266	1.9274504	1.3883265
24.57644409543597	1.9351386	1.3910925
24.594382112994012	1.9551626	1.3982713
24.61232074267057	1.9718715	1.4042335
24.630259984967953	1.978629	1.4066374
24.64819984038863	1.996361	1.4129264
24.66614030943522	2.0223033	1.4220772
24.684081392610462	2.0148268	1.419446
24.702023090417274	1.9888083	1.4102511
24.7199654033587	1.9526876	1.397386
24.737908331937927	1.9544536	1.3980178
24.755851876658305	1.9901032	1.4107102
24.773796038023324	1.9964005	1.4129404
24.79174081653661	2.0758257	1.4407727
24.809686212701962	2.1490278	1.4659563
24.827632227023294	2.1609488	1.4700166
24.8455788600047	2.1187084	1.4555783
24.8635261121504	2.0841026	1.4436421
24.88147398396475	2.0836737	1.4434936
24.899422475952303	2.049629	1.4316525
24.917371588617698	2.083164	1.443317
24.935321322465768	2.103227	1.4502506
24.953271678001478	2.209937	1.4865857
24.97122265572994	2.4123454	1.5531727
24.989174256156414	2.7654243	1.6629565
25.00712647978632	3.3303428	1.8249227
25.02507932712521	4.345318	2.0845425
25.043032798678798	5.8870025	2.4263146
25.060986894952933	7.501804	2.7389421
25.078941616453637	8.943202	2.9905186
25.096896963687055	9.870265	3.141698
25.114852937159508	10.601927	3.2560601
25.132809537377444	10.517419	3.243057
25.150766764847468	9.753096	3.1229947
25.168724620076347	8.264941	2.874881
25.186683103570985	6.9754777	2.641113
25.204642215838426	5.685349	2.384397
25.222601957385894	4.635847	2.1531017
25.24056232872074	3.6370826	1.9071137
25.25852333035048	2.8500612	1.6882124
25.276484962782778	2.3694458	1.5393004
25.294447226525435	2.1291442	1.4591588
25.312410122086423	1.9844639	1.40871
25.330373649973843	1.9758763	1.4056587
25.348337810695988	1.9546614	1.398092
25.366302604761245	1.9057314	1.3804823
25.384268032678207	1.8930497	1.3758814
25.40223409495558	1.870565	1.367686
25.420200792102257	1.86235	1.3646795
25.438168124627246	1.8739536	1.3689243
25.45613609303974	1.9109391	1.3823673
25.474104697849057	1.9133645	1.3832442
25.492073939564698	1.9177266	1.3848201
25.510043818696285	1.9372182	1.3918399
25.528014335753614	1.9438816	1.3942316
25.54598549124664	1.918652	1.3851541
25.56395728568544	1.8969812	1.3773094
25.58192971958028	1.884442	1.3727498
25.59990279344156	1.9110876	1.3824209
25.617876507779833	1.875299	1.3694155
25.635850863105826	1.872982	1.3685694
25.653825859930386	1.8233953	1.3503315
25.671801498764548	1.8346143	1.3544793
25.68977778011949	1.8262342	1.3513824
25.707754704506524	1.843137	1.3576218
25.725732272437153	1.8959366	1.3769301
25.743710484423012	1.9451777	1.3946962
25.761689340975888	1.967554	1.4026953
25.77966884260774	1.9152744	1.3839344
25.797648989830662	1.8574009	1.362865
25.815629783156922	1.8335894	1.354101
25.83361122309895	1.8806357	1.3713627
25.85159331016929	1.9002868	1.3785089
25.869576044880695	1.8887202	1.3743072
25.887559427746034	1.8919137	1.3754685
25.90554345927836	1.8422949	1.3573116
25.92352813999086	1.7511175	1.323298
25.94151347039689	1.7333338	1.3165613
25.959499451009965	1.7893367	1.3376609
25.97748608234374	1.864055	1.365304
25.995473364912062	1.8443052	1.358052
26.013461299228904	1.8478354	1.3593512
26.03144988580839	1.8076375	1.3444841
26.04943912516483	1.8124881	1.3462868
26.067429017812675	1.8467084	1.3589365
26.085419564266537	1.8440751	1.3579673
26.103410765041186	1.8298646	1.3527249
26.12140262065155	1.8273444	1.351793
26.139395131612723	1.8308196	1.3530778
26.157388298439948	1.8441682	1.3580016
26.17538212164861	1.8094822	1.3451699
26.193376601754295	1.7967186	1.3404173
26.211371739272714	1.7842758	1.3357679
26.229367534719746	1.7876214	1.3370196
26.247363988611433	1.8086724	1.3448689
26.26536110146397	1.8383024	1.3558401
26.283358873793727	1.8291854	1.3524737
26.301357306117204	1.8248436	1.3508677
26.319356398951104	1.8286742	1.3522848
26.33735615281224	1.7702942	1.3305241
26.35535656821762	1.73715	1.3180099
26.373357645684404	1.7876519	1.337031
26.39135938572991	1.8439482	1.3579205
26.409361788871614	1.8412455	1.356925
26.427364855627165	1.8149222	1.3471905
26.445368586514352	1.7918094	1.3385849
26.46337298205115	1.784994	1.3360367
26.48137804275568	1.7884967	1.3373469
26.499383769146217	1.7945842	1.339621
26.517390161741215	1.8102311	1.3454483
26.53539722105928	1.7936897	1.339287
26.553404947619182	1.7656329	1.3287712
26.571413341939856	1.7475468	1.321948
26.589422404540397	1.743059	1.3202496
26.60743213594006	1.7263043	1.313889
26.62544253665827	1.7460489	1.3213814
26.64345360721459	1.7708553	1.3307348
26.66146534812879	1.7905011	1.338096
26.679477759920758	1.8032349	1.3428458
26.69749084311057	1.7946188	1.3396338
26.71550459821847	1.8188995	1.3486658
26.733519025764842	1.8231725	1.350249
26.751534126270258	1.7348886	1.3171517
26.769549900255434	1.7351329	1.3172444
26.787566348241267	1.7603718	1.3267901
26.80558347074881	1.8009045	1.3419778
26.823601268299267	1.8340871	1.3542848
26.841619741414036	1.8714353	1.3680041
26.85963889061465	1.8887429	1.3743154
26.877658716422832	1.8478544	1.3593581
26.89567921936045	1.8031275	1.3428059
26.913700399949544	1.7707301	1.3306879
26.93172225871233	1.7726918	1.3314247
26.949744796171174	1.8030788	1.3427877
26.967768012848605	1.8230883	1.3502178
26.98579190926733	1.8334198	1.3540384
27.003816485950225	1.8431052	1.3576101
27.021841743420318	1.8177465	1.3482383
27.039867682200814	1.776429	1.3328274
27.057894302815072	1.777384	1.3331857
27.07592160578664	1.7972019	1.3405976
27.0939495916392	1.7652694	1.3286344
27.111978260896635	1.7905409	1.3381109
27.13000761408296	1.855854	1.3622973
27.148037651722397	1.8326772	1.353764
27.166068374339304	1.8022293	1.3424714
27.184099782458215	1.8064388	1.3440382
27.20213187660384	1.8157707	1.3475053
27.22016465730105	1.781852	1.3348603
27.23819812507487	1.8073711	1.344385
27.256232280450533	1.855937	1.3623278
27.274267123953383	1.819883	1.3490304
27.292302656108987	1.7812226	1.3346245
27.31033887744306	1.7391964	1.3187859
27.32837578848146	1.7605524	1.326858
27.34641338975026	1.8046497	1.3433725
27.364451681775673	1.8565018	1.3625351
27.382490665084074	1.8368952	1.355321
27.400530340202046	1.7918259	1.338591
27.41857070765629	1.7188184	1.3110372
27.436611767973726	1.751651	1.3234996
27.454653521681404	1.7814517	1.3347104
27.472695969306564	1.8110144	1.3457394
27.490739111376627	1.8045686	1.3433423
27.508782948419153	1.8470986	1.3590801
27.526827480961902	1.8856405	1.3731862
27.54487270953279	1.8711591	1.3679031
27.562918634659898	1.8087606	1.3449017
27.580965256871508	1.7762233	1.3327503
27.599012576696026	1.7891734	1.3375999
27.617060594662068	1.8226525	1.3500564
27.63510931129842	1.8248355	1.3508648
27.65315872713401	1.7954429	1.3399414
27.67120884269797	1.8237402	1.3504592
27.68925965851958	1.8413011	1.3569455
27.707311175128307	1.825157	1.3509837
27.725363393053787	1.8173786	1.3481019
27.74341631282583	1.8739287	1.3689152
27.7614699349744	1.9410261	1.3932071
27.77952426002968	2.107604	1.451759
27.797579288521973	2.155702	1.468231
27.815635020981784	2.5024116	1.5819013
27.83369145793979	2.59908	1.6121663
27.85174859992682	2.4237363	1.5568354
27.869806447473923	2.2869449	1.5122648
27.887865001112267	2.0488844	1.4313924
27.905924261373233	1.9364107	1.3915497
27.92398422878836	1.8727431	1.368482
27.94204490388936	1.8212034	1.3495197
27.96010628720813	1.815588	1.3474376
27.978168379276728	1.8186225	1.3485631
27.9962311806274	1.8019593	1.3423707
28.014294691792568	1.8339204	1.3542231
28.0323589133048	1.8831081	1.3722639
28.050423845696887	1.9161313	1.384244
28.068489489501758	1.8991662	1.3781024
28.086555845252523	1.8679765	1.3667394
28.104622913482487	1.8419341	1.3571787
28.122690694725115	1.897868	1.3776313
28.14075918951405	1.9200721	1.3856666
28.15882839838312	1.9461596	1.3950483
28.176898321866304	1.886815	1.3736138
28.1949689604978	1.8559873	1.3623463
28.213040314811945	1.8762165	1.3697505
28.23111238534327	1.9573781	1.3990633
28.249185172626493	1.9911273	1.4110731
28.267258677196473	1.9897951	1.410601
28.285332899588294	1.9345663	1.3908869
28.303407840337172	1.9724238	1.40443
28.321483499978545	1.9862437	1.4093416
28.33955987904799	1.9867039	1.4095049
28.357636978081285	1.9810196	1.407487
28.37571479761439	2.0046463	1.4158553
28.393793338183425	2.025203	1.4230963
28.41187260032469	1.9827346	1.4080961
28.429952584574686	1.9306915	1.3894932
28.448033291470065	1.9922166	1.411459
28.46611472154769	2.0506911	1.4320234
28.484196875344566	2.1135352	1.4538002
28.502279753397914	2.1049607	1.4508482
28.52036335624511	2.1018765	1.449785
28.538447684423716	2.053965	1.4331661
28.556532738471482	2.063806	1.4365953
28.574618518926325	2.0709302	1.4390727
28.59270502632635	2.0639968	1.4366617
28.61079226120985	2.0755484	1.4406763
28.628880224115274	2.1163878	1.454781
28.646968915581287	2.061272	1.435713
28.66505833614671	2.0445187	1.4298667
28.68314848635055	2.0436337	1.4295572
28.701239366732004	2.0639858	1.4366579
28.71933097783044	2.087856	1.4449415
28.737423320185403	2.1148417	1.4542495
28.75551639433665	2.0594945	1.4350939
28.773610200824074	2.0964563	1.4479145
28.791704740187793	2.1457708	1.464845
28.80980001296809	2.1389415	1.462512
28.827896019705413	2.1077685	1.4518156
28.845992760940433	2.1045015	1.45069
28.86409023721397	2.077608	1.441391
28.88218844906704	2.1015291	1.4496652
28.900287397040845	2.170044	1.4731069
28.918387081676755	2.2117717	1.4872026
28.936487503516343	2.1954637	1.4817097
28.954588663101365	2.2138083	1.4878871
28.97269056097374	2.2845213	1.5114633
28.990793197675597	2.3798134	1.5426644
29.00889657374923	2.3812199	1.5431201
29.027000689737125	2.4269164	1.5578563
29.04510554618196	2.4519105	1.5658578
29.06321114362659	2.4778578	1.5741212
29.08131748261405	2.4926922	1.5788262
29.099424563687567	2.4875891	1.5772092
29.11753238739057	2.4467046	1.5641946
29.13564095426663	2.477148	1.5738958
29.15375026485954	2.5489864	1.5965545
29.171860319713275	2.6375933	1.624067
29.18997111937199	2.691015	1.6404314
29.20808266438002	2.700741	1.6433932
29.226194955281898	2.6741948	1.6352966
29.244307992622335	2.7486334	1.6579003
29.26242177694624	2.845952	1.686995
29.2805363087987	2.925287	1.710347
29.29865158872498	2.9417624	1.7151567
29.316767617270557	2.9364965	1.7136209
29.334884394981064	2.8878067	1.6993548
29.353001922402367	2.924159	1.7100173
29.37112020008047	2.9984574	1.7316054
29.389239228561596	3.0455024	1.7451367
29.407359008392152	3.190596	1.786224
29.42547954011872	3.5394394	1.8813398
29.44360082428809	4.018425	2.004601
29.46172286144722	4.85247	2.2028322
29.479845652143283	6.380651	2.525995
29.497969196923606	9.033763	3.005622
29.516093496335728	12.692234	3.562616
29.5342185509274	16.298172	4.0370994
29.55234436124651	19.603506	4.4275846
29.570470927841175	21.117224	4.595348
29.588598251259686	20.964638	4.578716
29.60672633205055	19.48998	4.414746
29.624855170762405	16.462637	4.0574174
29.642984767944146	12.913726	3.5935674
29.66111512414481	9.400901	3.066089
29.67924623991366	6.939038	2.6342053
29.697378115800138	5.1717315	2.2741442
29.71551075235387	4.227809	2.0561635
29.733644150124675	3.7520568	1.9370227
29.751778309662576	3.5563514	1.8858291
29.769913231517766	3.4520462	1.8579683
29.78804891624066	3.4452474	1.8561378
29.806185364381818	3.3996332	1.8438094
29.82432257649206	3.420281	1.8494002
29.842460553122333	3.4343498	1.8531998
29.86059929482382	3.4163735	1.8483435
29.878738802147872	3.269459	1.8081646
29.896879075646048	3.233366	1.7981563
29.915020115870114	3.2536726	1.8037939
29.933161923371976	3.2440984	1.801138
29.951304498703777	3.2650418	1.8069427
29.969447842417857	3.344385	1.828766
29.987591955066733	3.3482094	1.8298113
30.005736837203123	3.258105	1.8050221
30.023882489379943	3.1525583	1.7755445
30.04202891215028	3.1174505	1.7656304
30.060176106067455	3.1443536	1.7732326
30.078324071684946	3.1090696	1.7632554
30.09647280955646	3.0990465	1.7604109
30.114622320235863	3.090255	1.7579122
30.132772604277257	3.0809877	1.7552743
30.1509236622349	3.137951	1.7714262
30.16907549466328	3.1262143	1.7681104
30.18722810211705	3.085814	1.7566485
30.205381485151097	3.0312908	1.7410603
30.22353564432045	2.9932837	1.7301109
30.241690580180403	3.0358455	1.7423677
30.25984629328638	3.0087368	1.7345711
30.278002784194037	2.9691765	1.7231299
30.296160053459246	2.976549	1.7252678
30.314318101638033	3.0188193	1.737475
30.332476929286646	2.9893177	1.7289643
30.35063653696153	2.89905	1.7026597
30.368796925219307	2.8533897	1.689198
30.386958094616844	2.869528	1.6939682
30.40512004571115	2.9203057	1.7088902
30.423282779059463	2.9712367	1.7237276
30.441446295219233	3.0047634	1.7334254
30.459610594748067	2.880751	1.6972775
30.47777567820382	2.8288717	1.681925
30.495941546144504	2.8504303	1.6883217
30.51410819912835	2.8118224	1.676849
30.532275637713795	2.775647	1.6660273
30.55044386245946	2.7903886	1.6704457
30.56861287392416	2.769594	1.6642097
30.586782672666956	2.7633343	1.662328
30.604953259247047	2.7952106	1.6718884
30.623124634223885	2.8198044	1.6792274
30.641296798157075	2.8535643	1.6892496
30.659469751606462	2.889741	1.6999238
30.677643495132074	2.848321	1.6876969
30.695818029294152	2.826684	1.6812745
30.713993354653116	2.840176	1.6852822
30.73216947176962	2.8228269	1.680127
30.75034638120448	2.822311	1.6799735
30.768524083518756	2.8293831	1.682077
30.786702579273673	2.8306587	1.6824561
30.80488186903069	2.9091067	1.7056104
30.82306195335144	3.0466042	1.7454524
30.841242832797782	3.2669232	1.8074632
30.85942450793176	3.6247666	1.903882
30.877606979315637	4.015915	2.0039747
30.895790247511883	4.375251	2.09171
30.913974313083134	4.7853513	2.1875446
30.932159176592283	5.1426163	2.2677338
30.95034483860237	5.531514	2.351917
30.968531299676698	5.561079	2.358194
30.98671856037873	5.282974	2.2984722
31.00490662127215	4.7875404	2.1880448
31.023095482920848	4.257946	2.0634792
31.04128514588892	3.6901324	1.9209718
31.059475610740662	3.2038345	1.7899258
31.07766687804056	2.8473098	1.6873974
31.09585894835335	2.6729736	1.6349231
31.11405182224393	2.6168122	1.6176564
31.132245500277417	2.5838022	1.607421
31.15043998301914	2.535999	1.5924821
31.168635271034628	2.507071	1.5833733
31.18683136488964	2.4483187	1.5647104
31.20502826515008	2.3914182	1.546421
31.223225972382135	2.3861537	1.544718
31.241424487152155	2.3831017	1.5437298
31.259623810026692	2.3877022	1.5452192
31.27782394157253	2.422524	1.556446
31.296024882356644	2.4572275	1.5675546
31.314226632946237	2.5152705	1.5859604
31.332429193908684	2.4492495	1.5650078
31.350632565811598	2.3483372	1.5324285
31.368836749222787	2.4081528	1.5518224
31.387041744710295	2.5568626	1.5990193
31.40524755284232	2.6402194	1.6248752
31.423454174187317	2.5618765	1.6005863
31.441661609313922	2.5070693	1.5833728
31.459869858791002	2.4907768	1.5782195
31.478078923187628	2.4505901	1.5654361
31.496288803073064	2.4349234	1.5604241
31.514499499016807	2.365831	1.5381258
31.532711011588546	2.3351638	1.5281243
31.550923341358178	2.3427665	1.5306098
31.56913648889584	2.2978106	1.515853
31.587350454771844	2.3076212	1.5190856
31.605565239556732	2.3608465	1.5365046
31.62378084382127	2.3856046	1.5445403
31.641997268136382	2.3881414	1.5453613
31.660214513073274	2.4186873	1.555213
31.67843257920331	2.3559048	1.5348957
31.6966514670981	2.2695582	1.5065053
31.71487117732944	2.2650843	1.5050197
31.733091710469346	2.2776604	1.509192
31.751313067090052	2.2122736	1.4873713
31.769535247764008	2.238841	1.4962758
31.787758253063878	2.267183	1.5057168
31.805982083562526	2.2993553	1.5163625
31.824206739833024	2.356746	1.5351697
31.84243222244869	2.3433084	1.5307869
31.860658531983013	2.253909	1.5013025
31.878885669009737	2.219624	1.4898403
31.897113634102784	2.1644187	1.4711963
31.91534242783632	2.145472	1.464743
31.933572050784694	2.162555	1.4705628
31.951802503522508	2.130632	1.4596684
31.970033786624548	2.152209	1.4670409
31.988265900665834	2.197524	1.4824048
32.006498846221575	2.1799316	1.4764591
32.02473262386724	2.2246618	1.4915301
32.04296723417845	2.232531	1.4941657
32.0612026777311	2.2185786	1.4894893
32.07943895510129	2.145095	1.4646143
32.097676066865304	2.0669835	1.4377007
32.115914013599685	2.0918448	1.4463211
32.13415279588115	2.1311598	1.4598492
32.152392414286666	2.1316898	1.4600308
32.1706328693934	2.1538198	1.4675897
32.18887416177875	2.1057422	1.4511175
32.20711629202032	2.0898757	1.4456402
32.225359260695924	2.167488	1.4722391
32.243603068383614	2.2626173	1.5041999
32.26184771566166	2.2121432	1.4873276
32.28009320310852	2.1278014	1.4586985
32.2983395313029	2.0758665	1.4407867
32.31658670082372	2.0730126	1.439796
32.33483471225012	2.06444	1.436816
32.35308356616143	2.1136267	1.4538318
32.371333263137245	2.120213	1.4560951
32.38958380375734	2.0779252	1.441501
32.407835188601744	2.1094813	1.4524053
32.42608741825067	2.1153283	1.4544169
32.444340493284585	2.0071256	1.4167306
32.46259441428416	1.9123467	1.3828763
32.48084918183028	1.9809412	1.4074591
32.49910479650405	2.1715589	1.473621
32.51736125888683	2.1627753	1.4706377
32.53561856956014	2.0692356	1.4384837
32.5538767291058	2.0552747	1.433623
32.572135738105764	2.058055	1.4345922
32.59039559714228	2.0298393	1.4247243
32.608656306797776	2.0845664	1.4438027
32.62691786765491	2.1302235	1.4595286
32.645180280296586	2.1199312	1.4559983
32.663443545305896	2.064972	1.437001
32.68170766326619	2.016302	1.4199655
32.69997263476099	2.0607235	1.4355221
32.7182384603741	2.1200101	1.4560255
32.7365051406895	2.0927823	1.4466451
32.75477267629144	2.0405939	1.4284936
32.77304106776434	2.055859	1.4338267
32.79131031569289	2.1217072	1.456608
32.809580420661966	2.0981777	1.4485087
32.827851383256714	2.0337183	1.426085
32.84612320406245	2.0806115	1.4424325
32.86439588366476	2.1027565	1.4500885
32.88266942264945	2.0782104	1.4416
32.9009438216025	2.0159888	1.4198552
32.9192190811102	1.9452841	1.3947344
32.937495201758985	1.9413517	1.393324
32.95577218413556	2.0043983	1.4157678
32.974050028826866	1.9991608	1.4139168
32.992328736420035	1.9726087	1.4044958
33.010608307502444	1.9734957	1.4048116
33.02888874266169	1.9597249	1.3999017
33.047170042485604	1.9927877	1.4116614
33.06545220756225	2.0125673	1.4186498
33.083735238479896	2.0511138	1.432171
33.10201913582707	2.073953	1.4401225
33.12030390019248	1.9959775	1.4127907
33.138589532165135	1.9602296	1.400082
33.15687603233419	1.9954537	1.4126053
33.17516340128909	2.087547	1.4448346
33.19345163961947	2.05734	1.434343
33.211740747915215	1.9435592	1.3941159
33.23003072676643	1.8436713	1.3578186
33.248321576763466	1.9064677	1.380749
33.266613298496885	1.9969022	1.4131179
33.28490589255747	1.9526039	1.397356
33.30319935953626	1.95223	1.3972223
33.32149370002451	1.8603575	1.3639492
33.339788914613706	1.8706459	1.3677156
33.358085003895575	2.0189936	1.420913
33.376381968462034	2.0079637	1.4170264
33.39467980890529	1.9520706	1.3971652
33.41297852581774	2.0224433	1.4221263
33.43127811979204	2.0753129	1.4405947
33.44957859142105	2.1472967	1.4653658
33.467879941297866	2.124918	1.4577098
33.486182170015844	2.0359607	1.426871
33.50448527816853	2.0333889	1.4259695
33.522789266349754	2.0447173	1.4299362
33.541094135153514	2.0410738	1.4286616
33.55939988517411	2.0527518	1.4327427
33.57770651700602	1.923049	1.3867404
33.59601403124398	1.8497221	1.360045
33.61432242848296	1.861773	1.364468
33.632631709318154	1.8737334	1.3688438
33.650941874344994	1.8365188	1.3551822
33.66925292415916	1.8094332	1.3451518
33.68756485935654	1.958642	1.3995149
33.70587768053328	2.128061	1.4587876
33.724191388285746	2.1428561	1.4638498
33.74250598321054	1.9226656	1.3866022
33.760821465904506	1.8274924	1.3518478
33.77913783696474	1.8451223	1.3583528
33.79745509698852	1.9496269	1.3962904
33.815773246573414	1.9815173	1.4076638
33.8340922863172	1.9039047	1.3798205
33.852412216817896	1.8381498	1.3557838
33.87073303867377	1.8352875	1.3547279
33.889054752483304	1.8932685	1.375961
33.907377358845245	1.9889005	1.4102838
33.92570085835853	1.9609562	1.4003415
33.94402525162239	1.9727811	1.4045572
33.96235053923627	1.864478	1.3654588
33.980676721799824	1.7811165	1.3345847
33.999003799912984	1.9178357	1.3848594
34.01733177417592	2.0563664	1.4340036
34.03566064518901	1.9903204	1.4107872
34.0539904135529	1.9186772	1.3851632
34.07232107986846	1.9485781	1.3959148
34.090652644736785	1.8624322	1.3647096
34.108985108759235	1.6850249	1.2980851
34.12731847253742	1.8074216	1.3444037
34.14565273667313	1.9065102	1.3807644
34.16398790176847	1.9025668	1.3793356
34.18232396842574	1.8351506	1.3546773
34.20066093724749	1.8739508	1.3689232
34.21899880883651	1.998888	1.4138204
34.23733758379583	2.131003	1.4597955
34.25567726272874	2.058605	1.4347839
34.27401784623872	1.7954503	1.3399441
34.29235933492957	1.700805	1.3041492
34.31070172940526	1.8675014	1.3665656
34.32904503027003	2.0239105	1.4226421
34.347389238128386	2.1299002	1.4594178
34.36573435358502	2.1352382	1.4612454
34.38408037724492	2.1339931	1.4608194
34.402427309713296	2.1122415	1.4533553
34.42077515159559	2.0643244	1.4367757
34.43912390349752	2.0037289	1.4155313
34.45747356602499	1.8550079	1.3619868
34.47582413978423	1.8950388	1.3766041
34.49417562538163	1.9137995	1.3834014
34.51252802342388	1.962237	1.4007987
34.53088133451789	1.9496773	1.3963084
34.54923555927084	1.9054515	1.380381
34.567590698290104	1.793008	1.3390325
34.58594675218336	1.8545482	1.361818
34.6043037215585	1.8814285	1.3716518
34.62266160702365	1.8038	1.3430562
34.641020409187234	1.8009173	1.3419826
34.65938012865785	1.9125414	1.3829466
34.677740766044394	2.0492527	1.4315212
34.69610232195598	2.0295649	1.424628
34.714464797002016	1.8475876	1.35926
34.73282819179208	1.9060266	1.3805892
34.751192506936064	1.9566109	1.398789
34.76955774304408	1.8247705	1.3508407
34.7879239007265	1.7588081	1.3262006
34.80629098059391	1.8195472	1.3489059
34.824658983257194	1.8412291	1.3569189
34.843027909327446	1.7999502	1.3416222
34.86139775941603	1.9558252	1.3985082
34.879768534134534	2.0290046	1.4244313
34.89814023409483	2.1121182	1.4533129
34.91651285990901	2.1975527	1.4824145
34.93488641218944	2.2165604	1.4888117
34.95326089154871	2.0091398	1.4174412
34.97163629859967	1.9651921	1.4018531
34.99001263395542	1.9715972	1.4041357
35.00838989822934	2.0068922	1.4166483
35.02676809203499	1.9031068	1.3795314
35.04514721598624	1.9644654	1.4015939
35.063527270697215	2.1186075	1.4555438
35.081908256782256	2.0919256	1.446349
35.10029017485597	1.9387392	1.3923862
35.11867302553321	1.8505648	1.3603547
35.137056809429104	1.7443072	1.3207222
35.155441527159006	1.7983048	1.3410089
35.173827179338524	1.8485487	1.3596134
35.19221376658354	1.8569218	1.3626891
35.21060128951017	1.94935	1.3961912
35.2289897487348	2.02911	1.4244683
35.24737914487405	2.1081424	1.4519444
35.26576947854479	2.1196153	1.4558898
35.28416075036418	1.8872598	1.3737757
35.30255296094958	1.9774542	1.4062198
35.32094611091867	2.0386004	1.4277956
35.33934020088932	2.0985491	1.448637
35.35773523147969	2.1748018	1.474721
35.3761312033082	2.1054323	1.4510108
35.394528116993506	1.9267749	1.3880832
35.41292597315452	1.97936	1.4068973
35.431324772410434	2.1539652	1.4676393
35.449724515380666	2.3649697	1.5378458
35.46812520268491	2.6173773	1.617831
35.486526834943106	2.885135	1.6985685
35.504929412775454	2.5129619	1.5852324
35.52333293680242	1.8928231	1.3757991
35.54173740764471	1.7092532	1.3073841
35.560142825923286	1.626535	1.2753569
35.5785491922594	1.6212884	1.2732983
35.59695650727454	1.3650686	1.1683614
35.61536477159042	0.57398254	0.75761634
