0.008763373481513119	0.3822274	0.6182454
0.026290120649546365	0.3426002	0.5853206
0.043816868432600686	0.25735375	0.50730044
0.06134361724069026	0.10201703	0.31940106
0.07887036748382949	0.04262064	0.20644768
0.0963971195720331	0.055701267	0.23601116
0.11392387391531617	0.099765405	0.31585664
0.1314506309236943	0.14546293	0.38139603
0.1489773910071836	0.13781616	0.371236
0.16650415457580078	0.12791663	0.35765436
0.18403092203956356	0.05322462	0.23070462
0.20155769380849	0.097943716	0.3129596
0.2190844702925996	0.18872684	0.43442702
0.2366112519019124	0.27456644	0.52399087
0.2541380390464497	0.23680489	0.48662603
0.27166483213623416	0.18997546	0.43586174
0.28919163158128947	0.14385593	0.37928343
0.3067184377916406	0.13121034	0.36222968
0.324245251177314	0.12919636	0.35943896
0.34177207214833777	0.110779926	0.33283618
0.3592989011147415	0.13453777	0.3667939
0.37682573848655654	0.22100931	0.4701163
0.39435258467381573	0.20655607	0.4544844
0.41187944008655414	0.21631053	0.46509197
0.42940630513480854	0.16713072	0.40881625
0.446933180228618	0.10419991	0.3228001
0.4644600657780234	0.11391289	0.33750984
0.48198696219306775	0.10708383	0.32723665
0.49951386988379676	0.13974962	0.373831
0.5170407892602581	0.17094462	0.4134545
0.5345677207325025	0.15520895	0.39396566
0.5520946647105822	0.18376778	0.42868143
0.5696216216045534	0.13903	0.37286726
0.5871485918244737	0.14406537	0.37955943
0.6046755757804043	0.15797067	0.39745525
0.6222025738824094	0.15712011	0.3963838
0.6397295865405557	0.12866303	0.35869628
0.6572566141649129	0.13152067	0.3626578
0.6747836571655547	0.14906074	0.38608384
0.6923107159525568	0.18400487	0.42895788
0.7098377909359992	0.20128524	0.44864824
0.7273648825259653	0.18293819	0.42771274
0.7448919911325411	0.17752953	0.42134252
0.762419117165817	0.15333527	0.3915805
0.7799462610358868	0.1520351	0.38991678
0.7974734231528482	0.19338924	0.43976042
0.8150006039268024	0.25778994	0.5077302
0.8325278037678551	0.2845619	0.53344345
0.8500550230861152	0.26951078	0.5191443
0.8675822622916969	0.18669716	0.43208465
0.8851095217947171	0.15206754	0.38995838
0.9026368020052984	0.18977109	0.43562722
0.9201641033335665	0.21328267	0.46182537
0.9376914261896523	0.23856765	0.48843387
0.9552187709836915	0.23163646	0.48128626
0.9727461381258234	0.24578516	0.49576724
0.990273528026193	0.26377457	0.51358986
1.0078009410949496	0.23826788	0.4881269
1.0253283777422473	0.240218	0.49012038
1.0428558383782454	0.23132169	0.48095915
1.0603833234131086	0.24429674	0.49426383
1.0779108332570058	0.30781335	0.5548093
1.0954383683201119	0.34535292	0.58766735
1.112965929012607	0.4184403	0.6468696
1.1304935157446763	0.5804656	0.76188296
1.1480211289265108	0.59315574	0.77016604
1.1655487689683062	1.3903078	1.1791131
1.1830764362802655	1.6330843	1.2779219
1.200604131272596	2.1012454	1.4495673
1.2181318543555117	2.4328089	1.5597464
1.235659605939232	2.42217	1.5563322
1.253187386433982	3.9590144	1.9897273
1.270715196249994	6.1103067	2.4719036
1.2882430357975057	11.486608	3.3891897
1.3057709054867608	16.209738	4.0261316
1.3232988057280106	22.352262	4.727818
1.3408267369315112	27.44292	5.2385993
1.358354699507526	31.201374	5.5858192
1.3758826938663256	35.247845	5.9369893
1.3934107204181858	37.080578	6.089382
1.410938779573391	37.694572	6.1395907
1.4284668717422309	38.205654	6.181072
1.4459949973350033	37.636127	6.134829
1.4635231567620117	37.42438	6.117547
1.4810513504335687	36.51799	6.0430117
1.4985795787599925	35.801064	5.983399
1.5161078421516088	35.421303	5.95158
1.5336361410187505	34.995193	5.9156737
1.5511644757717598	34.816986	5.900592
1.5686928468209842	35.515915	5.959523
1.58622125457678	35.91045	5.9925327
1.6037496994495108	37.105713	6.091446
1.621278181849548	36.89637	6.0742383
1.6388067021872719	37.677185	6.1381745
1.6563352608730693	37.087906	6.089984
1.673863858317336	36.039375	6.00328
1.6913924949304753	35.313313	5.9425006
1.7089211711228998	34.35768	5.8615427
1.7264498873050296	33.93633	5.8254895
1.7439786438872935	33.24855	5.7661557
1.7615074412801288	32.082905	5.6641774
1.779036279893981	31.046244	5.5719156
1.796565160139305	30.040009	5.4808764
1.814094082426564	29.317633	5.414576
1.8316230471662298	28.492132	5.3378024
1.849152054768784	27.752142	5.26803
1.8666811056447168	27.288666	5.2238555
1.8842102002045273	26.831108	5.1798754
1.901739338858724	26.31209	5.1295314
1.9192685220178245	25.893925	5.0886073
1.9367977500923557	25.421906	5.042014
1.9543270234928547	24.820732	4.982041
1.971856342629867	24.014448	4.900454
1.9893857079139496	23.05187	4.801236
2.006915119755667	22.606823	4.7546635
2.0244445785655945	22.02667	4.693258
2.0419740847543175	21.757269	4.664469
2.0595036387324317	21.316593	4.6169896
2.0770332409105414	20.67593	4.547079
2.094562891699263	20.305939	4.5062113
2.1120925915092217	19.714201	4.440068
2.129622340751053	19.53515	4.4198585
2.1471521398354043	187.8969	13.707549
2.1646819891729323	444.1817	21.075619
2.182211889174303	440.36923	20.984976
2.1997418402501974	452.78113	21.278654
2.2172718428113023	432.86575	20.805426
2.234801897268317	320.77536	17.910202
2.2523320040319548	17.170383	4.1437163
2.269862163512935	16.63386	4.078463
2.287392376121992	16.116377	4.0145206
2.304922642269869	15.871177	3.9838645
2.322452962367322	15.839548	3.979893
2.3399833368251164	15.752008	3.96888
2.357513766054032	15.666567	3.9581015
2.3750442504648586	15.328259	3.915132
2.3925747904683963	14.990117	3.8717072
2.410105386475459	14.607917	3.8220305
2.4276360388968707	14.178009	3.7653697
2.445166748143469	13.866616	3.7237906
2.4626975146261025	13.575697	3.6845212
2.4802283387556323	13.5105295	3.6756673
2.4977592209429305	13.457176	3.6684024
2.5152901615988825	13.307272	3.6479135
2.5328211611343865	13.075653	3.6160274
2.5503522199603523	12.673425	3.5599754
2.5678833384877024	12.397329	3.5209842
2.5854145171273712	12.033605	3.4689486
2.6029457562903064	11.786595	3.433161
2.620477056387469	11.693655	3.4195986
2.6380084178298326	11.484562	3.3888881
2.655539841028383	11.132525	3.336544
2.673071326394119	10.883983	3.2990882
2.6906028743380523	10.720503	3.2742178
2.708134485271211	10.576266	3.2521172
2.7256661596046325	10.583743	3.2532666
2.743197897749369	10.433642	3.230115
2.760729700116486	10.37073	3.220362
2.778261567117063	10.077049	3.1744368
2.795793499162193	9.888802	3.1446464
2.8133254966629817	9.796196	3.1298876
2.830857560030551	9.823917	3.1343129
2.8483896896760337	9.881701	3.1435173
2.865921886010578	9.82784	3.1349385
2.883454149445347	9.743623	3.1214776
2.9009864803915177	9.496867	3.0816987
2.91851887926028	9.233676	3.0386965
2.9360513464628384	9.065306	3.0108645
2.953583882410413	8.908125	2.9846482
2.9711164875142373	8.886996	2.9811065
2.9886491621855606	8.769141	2.9612737
3.0061819068356455	8.621627	2.9362607
3.023714721875769	8.461417	2.9088516
3.041247607717225	8.359192	2.8912268
3.0587805647713213	8.356253	2.8907185
3.0763135934493806	8.317863	2.8840706
3.0938466941627407	8.078925	2.842345
3.1113798673227544	7.9430594	2.8183434
3.1289131133407904	7.7492204	2.7837422
3.1464464326282315	7.680205	2.7713182
3.1639798255964786	7.6138554	2.7593215
3.1815132926569443	7.5549407	2.7486253
3.1990468342210603	7.5836577	2.7538443
3.216580450700272	7.538031	2.7455475
3.2341141425060416	7.481645	2.7352595
3.251647910049847	7.489244	2.7366483
3.2691817537431813	7.332904	2.7079334
3.286715673997555	7.3328905	2.707931
3.3042496712244938	7.234448	2.689693
3.32178374583554	7.163777	2.6765232
3.339317898242251	7.021554	2.6498215
3.3568521288562034	6.8421197	2.6157446
3.3743864380889876	6.736748	2.5955245
3.3919208263522127	6.661813	2.5810487
3.4094552940575023	6.6545696	2.5796452
3.4269898416164972	6.601774	2.5693917
3.444524469440858	6.548564	2.5590162
3.4620591779422587	6.539869	2.5573168
3.479593967532391	6.5653677	2.5622973
3.4971288386229658	6.5782485	2.5648096
3.5146637916257086	6.491738	2.547889
3.5321988269523628	6.3938546	2.5286071
3.5497339450146903	6.4275546	2.5352623
3.5672691462244708	6.4415684	2.5380244
3.5848044309934988	6.429568	2.5356593
3.60233979973359	6.40863	2.5315273
3.619875252856575	6.404293	2.5306704
3.6374107907743034	6.314282	2.5128236
3.6549464138986427	6.2746572	2.5049267
3.6724821226414788	6.2732925	2.5046542
3.690017917414714	6.2511473	2.5002294
3.7075537986302702	6.2266073	2.495317
3.7250897667000857	6.193851	2.488745
3.7426258220361235	6.255578	2.5011153
3.7601619650503553	6.446401	2.5389764
3.777698196154779	7.0498486	2.6551552
3.7952345157614067	8.085773	2.8435495
3.8127709242822716	9.016353	3.0027242
3.830307422129425	11.283469	3.3590875
3.847844009714936	30.235985	5.498726
3.8653806874508954	97.78407	9.888583
3.882917455749409	97.06653	9.852235
3.900454315022606	96.893555	9.843452
3.917991265682631	41.4019	6.434431
3.9355283081416506	11.088243	3.3299012
3.9530654428118495	8.791698	2.9650798
3.970602670105433	7.573697	2.7520351
3.9881399904346244	6.64089	2.5769925
4.005677404211669	6.572479	2.5636847
4.023214911848827	6.41085	2.5319657
4.0407525137583855	6.317445	2.5134528
4.058290210352644	6.2373624	2.497471
4.075828002043927	6.168768	2.4837005
4.0933658892445814	6.280237	2.50604
4.110903872366966	6.26008	2.502015
4.128441951823468	6.235804	2.4971592
4.145980128026488	6.194184	2.4888117
4.163518401388452	6.1776853	2.485495
4.181056772321807	6.1454377	2.4789994
4.1985952412390155	6.150719	2.4800644
4.216133808552567	6.152022	2.480327
4.233672474674966	6.2423897	2.4984775
4.251211240018741	6.428889	2.5355253
4.268750104996445	6.587019	2.5665188
4.286289070020643	7.509076	2.7402694
4.303828135503928	9.120971	3.0200944
4.3213673018589125	29.401205	5.422288
4.3389065694982305	90.593185	9.518045
4.356445938834537	165.82404	12.877268
4.3739854102805085	171.42477	13.092928
4.391524984248844	172.28256	13.125646
4.409064661152262	136.54375	11.685193
4.426604441403504	96.737625	9.835528
4.444144325415337	75.7904	8.705768
4.461684313600543	21.708632	4.659252
4.47922440637193	22.12956	4.7042065
4.496764604142329	20.29704	4.5052238
4.5143049073245916	18.243406	4.27123
4.531845316331589	16.186342	4.0232253
4.5493858315762195	13.355277	3.6544871
4.566926453471405	11.234363	3.3517702
4.584467182430081	9.149156	3.0247571
4.602008018865218	8.173514	2.8589358
4.619548963189798	7.5426836	2.7463946
4.637090015816834	7.0931873	2.6633039
4.654631177159353	6.8404016	2.615416
4.672172447630417	6.523966	2.5542054
4.689713827643102	6.3262553	2.515205
4.7072553176105085	6.0413513	2.457916
4.724796917945764	5.889268	2.4267814
4.742338629062015	5.838449	2.4162884
4.759880451372434	5.720998	2.3918607
4.777422385290215	5.7027545	2.388044
4.794964431228581	5.6246	2.371624
4.812506589600768	5.6521263	2.3774202
4.830048860820047	5.6269584	2.372121
4.847591245299709	5.653231	2.3776524
4.8651337434530655	5.6461377	2.3761604
4.882676355693457	5.6131825	2.3692155
4.900219082434242	5.6078176	2.368083
4.917761924088813	5.55417	2.3567288
4.935304881070575	5.5624657	2.358488
4.952847953792969	5.510481	2.3474414
4.970391142669449	5.464129	2.3375475
4.9879344481135055	5.4691715	2.338626
5.005477870538642	5.438671	2.3320959
5.023021410358394	5.3995147	2.3236856
5.040565067986324	5.354594	2.3139997
5.05810884383601	5.3569384	2.314506
5.075652738321066	5.3875856	2.3211174
5.09319675185512	5.377834	2.3190157
5.110740884851836	5.3676605	2.316821
5.128285137724894	5.3943996	2.3225846
5.145829510888007	5.3668103	2.3166378
5.163374004754908	5.285914	2.2991116
5.1809186197393595	5.1877413	2.2776613
5.198463356255145	5.125139	2.2638772
5.216008214716077	5.062978	2.250106
5.233553195535998	5.076672	2.2531471
5.251098299128764	5.1191077	2.2625446
5.268643525908272	5.191503	2.278487
5.286188876288432	5.207226	2.2819347
5.3037343506831895	5.1629987	2.2722232
5.32127994950651	5.1384	2.266804
5.3388256731723915	5.131104	2.265194
5.356371522094851	5.130917	2.2651527
5.373917496687938	5.11823	2.2623506
5.391463597365729	5.163367	2.2723043
5.40900982454232	5.150927	2.2695653
5.426556178631843	5.191922	2.278579
5.444102660048449	5.193421	2.2789078
5.4616492692063225	5.175251	2.2749178
5.479196006519669	5.1350975	2.2660754
5.496742872402727	5.1195397	2.26264
5.514289867269756	5.155796	2.2706378
5.531836991535049	5.192394	2.2786825
5.549384245612924	5.167566	2.2732282
5.566931629917724	5.074981	2.2527719
5.584479144863822	5.023908	2.2414076
5.6020267908656205	4.995995	2.2351723
5.619574568337545	4.982865	2.232233
5.637122477694054	4.952589	2.2254412
5.654670519349629	5.067462	2.2511024
5.672218693718784	5.1097646	2.2604787
5.689767001216059	5.1768436	2.2752678
5.707315442256021	5.125766	2.2640154
5.724864017253266	5.123337	2.263479
5.7424127266224225	5.186031	2.2772858
5.75996157077814	5.223165	2.2854245
5.777510550135105	5.2310286	2.2871442
5.795059665108022	5.2305593	2.2870417
5.812608916111639	5.2860923	2.2991502
5.830158303560715	5.4217443	2.328464
5.847707827870055	5.3816304	2.3198342
5.86525748945448	5.4034753	2.3245378
5.8828072887288485	5.442118	2.3328347
5.900357226108044	5.5187516	2.3492024
5.917907302006979	5.6096325	2.3684664
5.9354575168406	6.187879	2.4875448
5.9530078710238765	6.820457	2.6116004
5.970558364971812	7.323082	2.7061193
5.988108999099438	7.619186	2.7602873
6.005659773821818	8.109576	2.8477318
6.023210689554039	7.9121914	2.8128617
6.040761746711227	8.359595	2.8912964
6.058312945708531	7.722896	2.7790098
6.075864286961132	7.2603474	2.694503
6.093415770884244	6.55807	2.560873
6.1109673978931065	6.0061307	2.4507408
6.128519168402993	5.390406	2.321725
6.146071082829204	5.280435	2.2979198
6.163623141587075	5.215551	2.2837582
6.181175345091969	5.2252116	2.2858722
6.198727693759281	5.1926913	2.2787478
6.216280188004435	5.1993074	2.280199
6.233832828242885	5.1129127	2.2611752
6.251385614890126	5.1203775	2.262825
6.268938548361669	5.0680137	2.251225
6.286491629073067	5.06791	2.2512019
6.304044857439898	5.0666122	2.2509136
6.321598233877777	5.082614	2.2544653
6.339151758802344	5.064028	2.2503395
6.356705432629277	5.05745	2.2488775
6.37425925577428	4.9875154	2.2332747
6.391813228653095	4.9770346	2.2309268
6.409367351681486	4.996285	2.2352371
6.426921625275259	5.0248985	2.2416286
6.44447604985025	4.989486	2.2337158
6.46203062582232	4.939416	2.2224796
6.47958535360737	4.9025836	2.2141778
6.497140233621328	4.943248	2.2233415
6.514695266280161	5.004689	2.2371163
6.532250451999859	5.1002183	2.2583663
6.549805791196454	5.1244097	2.263716
6.567361284286002	5.0669518	2.250989
6.584916931684597	5.04351	2.245776
6.602472733808367	4.9750113	2.2304733
6.6200286910734665	4.999622	2.2359834
6.637584803896092	5.0427694	2.2456112
6.655141072692462	5.0374045	2.2444162
6.672697497878842	5.0078096	2.2378135
6.690254079871514	4.892432	2.2118843
6.707810819086808	4.938368	2.2222438
6.725367715941078	4.9477787	2.2243602
6.742924770850719	4.964441	2.2281024
6.760481984232151	4.9407597	2.222782
6.778039356501836	4.9102607	2.215911
6.795596888076266	4.904506	2.214612
6.813154579371963	4.9267077	2.2196188
6.830712430805492	4.9651017	2.2282507
6.84827044279344	4.9772544	2.230976
6.865828615752445	5.012375	2.2388334
6.883386950099159	5.0307913	2.2429426
6.900945446250287	5.007994	2.2378547
6.918504104622553	5.0209584	2.2407496
6.936062925632727	5.0294995	2.2426546
6.953621909697607	5.0584006	2.2490888
6.971181057234028	5.087496	2.2555478
6.988740368658859	5.153806	2.2701995
7.006299844389007	5.1463194	2.2685502
7.023859484841407	5.192071	2.2786117
7.041419290433036	5.1763277	2.2751544
7.058979261580902	5.3047576	2.303206
7.0765393987020495	5.530313	2.3516617
7.094099702213559	5.9349413	2.4361734
7.111660172532549	6.3362246	2.517186
7.129220810076164	6.673568	2.583325
7.146781615261595	7.275839	2.6973763
7.16434258850606	7.56729	2.7508707
7.181903730226821	8.041558	2.8357642
7.1994650408411704	8.108005	2.8474557
7.217026520766437	8.208941	2.865125
7.234588170419983	8.404402	2.8990347
7.252149990219215	8.4311495	2.903644
7.269711980581568	8.360062	2.8913772
7.2872741419245175	8.219556	2.8669767
7.304836474665574	7.8118234	2.7949638
7.322398979222286	7.562166	2.7499392
7.339961656012233	7.271029	2.6964846
7.357524505453039	6.918302	2.6302664
7.375087527962357	6.583853	2.565902
7.392650723957886	6.280158	2.5060244
7.410214093857353	5.907654	2.4305665
7.427777638078528	5.7043047	2.3883686
7.445341357039213	5.5867887	2.3636389
7.4629052511572525	5.4796014	2.340855
7.480469320850524	5.399537	2.3236904
7.498033566536948	5.2938027	2.3008265
7.5155979886344735	5.2341146	2.2878187
7.5331625875610975	5.134527	2.2659495
7.550727363734844	5.171018	2.2739873
7.568292317573788	5.196535	2.279591
7.585857449496025	5.2306566	2.287063
7.603422759919705	5.1943684	2.2791157
7.620988249263007	5.1981416	2.2799432
7.638553917944147	5.2101173	2.2825682
7.656119766381391	5.225591	2.2859552
7.673685794993023	5.19114	2.2784073
7.691252004197388	5.20536	2.2815259
7.70881839441285	5.2355733	2.2881374
7.726384966057826	5.2607074	2.2936232
7.743951719550762	5.2611694	2.2937238
7.761518655310149	5.265618	2.2946935
7.779085773754511	5.253056	2.2919545
7.796653075302419	5.260043	2.2934785
7.814220560372475	5.227908	2.2864618
7.831788229383323	5.2261395	2.286075
7.8493560827536495	5.1934094	2.2789054
7.866924120902174	5.2811737	2.2980804
7.884492344247663	5.347127	2.3123856
7.9020607532089135	5.3833146	2.320197
7.919629348204771	5.3626275	2.3157349
7.937198129654115	5.332084	2.3091307
7.954767097975865	5.3396087	2.3107593
7.972336253588986	5.3700056	2.3173273
7.989905596912472	5.3776355	2.3189728
8.007475128365371	5.406657	2.325222
8.025044848366756	5.4482355	2.3341455
8.042614757335754	5.564743	2.3589706
8.060184855691523	5.597913	2.3659909
8.07775514385327	5.762548	2.4005308
8.095325622240228	5.8253846	2.4135833
8.112896291271687	5.874528	2.4237425
8.130467151366968	5.880064	2.4248843
8.148038202945436	5.811775	2.4107623
8.165609446426497	5.7865653	2.405528
8.183180882229594	5.851605	2.419009
8.200752510774217	5.868844	2.4225698
8.218324332479893	5.8909664	2.4271314
8.235896347766193	5.8889327	2.4267123
8.253468557052724	5.851086	2.418902
8.27104096075914	5.864398	2.4216518
8.288613559305137	5.876106	2.424068
8.306186353110448	5.961076	2.4415314
8.32375934259485	6.1190777	2.473677
8.341332528178162	6.1657157	2.4830859
8.358905910280246	6.260602	2.5021195
8.376479489321003	6.286011	2.507192
8.394053265720377	6.3158617	2.5131378
8.411627239898356	6.3036265	2.5107024
8.42920141227497	6.266209	2.5032396
8.44677578327029	6.323799	2.5147166
8.464350353304427	6.268482	2.5036938
8.48192512279754	6.228788	2.495754
8.499500092169827	6.164543	2.4828498
8.51707526184153	6.1506214	2.4800446
8.534650632232934	6.1036606	2.4705586
8.552226203764365	6.099433	2.469703
8.569801976856192	6.08498	2.4667752
8.587377951928834	6.1367188	2.47724
8.60495412940274	6.1423283	2.478372
8.622530509698416	6.152409	2.480405
8.6401070932364	6.2608466	2.5021684
8.657683880437283	6.4147534	2.5327363
8.675260871721695	6.5955625	2.5681827
8.692838067510303	6.713469	2.5910363
8.710415468223834	6.8267193	2.6127992
8.727993074283043	7.0152664	2.648635
8.745570886108737	7.128713	2.669965
8.763148904121765	7.2905726	2.7001061
8.78072712874302	7.310931	2.7038734
8.798305560393441	7.476883	2.734389
8.815884199494006	7.4997344	2.7385643
8.833463046465745	7.6345267	2.7630646
8.851042101729728	7.7662883	2.786806
8.86862136570707	8.159986	2.8565688
8.886200838818924	8.361527	2.8916306
8.903780521486505	8.347662	2.8892322
8.921360414131055	8.375784	2.8940947
8.938940517173874	8.478189	2.9117332
8.956520831036297	8.662377	2.9431918
8.97410135613971	8.931162	2.988505
8.99168209290554	9.11413	3.0189617
9.009263041755265	9.486879	3.080078
9.026844203110405	9.756409	3.1235251
9.044425577392525	9.985382	3.1599655
9.062007165023239	10.0723095	3.1736903
9.079588966424197	10.253595	3.2021236
9.097170982017108	10.317803	3.212134
9.11475321222372	11.250613	3.3541934
9.132335657465825	12.214738	3.4949589
9.149918318165264	12.355418	3.5150275
9.167501194743924	12.933519	3.5963202
9.18508428762374	12.601627	3.5498772
9.202667597226693	12.592958	3.5486557
9.220251123974803	12.265698	3.5022418
9.237834868290143	11.980708	3.4613159
9.255418830594836	11.823602	3.4385464
9.273003011311046	11.274539	3.357758
9.290587410860985	11.124241	3.335302
9.308172029666911	10.505873	3.2412765
9.32575686815113	10.225767	3.1977754
9.343341926735997	8.956396	2.992724
9.360927205843916	8.697653	2.9491782
9.378512705897327	8.454784	2.9077113
9.396098427318728	8.17697	2.85954
9.413684370530664	8.04879	2.837039
9.431270535955722	7.9349246	2.8168998
9.448856924016539	7.858705	2.8033383
9.466443535135806	7.733319	2.7808845
9.484030369736251	7.7018723	2.7752247
9.501617428240658	7.659478	2.7675762
9.519204711071852	7.7831917	2.7898371
9.536792218652714	7.80075	2.7929823
9.55437995140617	7.9307346	2.816156
9.571967909755191	7.840784	2.80014
9.589556094122802	7.8292866	2.7980862
9.60714450493207	7.85347	2.8024044
9.624733142606116	7.8637433	2.8042367
9.642322007568108	7.927954	2.8156624
9.659911100241267	7.961106	2.8215432
9.677500421048851	7.944271	2.8185582
9.695089970414175	8.018409	2.8316796
9.712679748760609	8.067996	2.840422
9.730269756511557	8.11975	2.8495176
9.747859994090492	8.1249485	2.8504295
9.765450461920915	8.134434	2.852093
9.78304116042639	8.104968	2.8469226
9.800632090030527	8.098016	2.8457012
9.81822325115699	8.165139	2.8574708
9.835814644229481	8.191064	2.8620036
9.853406269671762	8.20978	2.8652713
9.870998127907646	8.253483	2.8728876
9.888590219360985	8.296553	2.8803737
9.906182544455698	8.319465	2.8843482
9.923775103615734	8.312932	2.8832157
9.941367897265108	8.289702	2.8791842
9.958960925827878	8.291287	2.8794596
9.97655418972816	8.298427	2.880699
9.994147689390106	8.30097	2.8811405
10.011741425237934	8.236022	2.869847
10.029335397695904	8.142976	2.85359
10.04692960718833	8.164729	2.857399
10.06452405413958	8.25056	2.8723788
10.082118738974064	8.330428	2.886248
10.099713662116246	8.318703	2.884216
10.117308823990651	8.236165	2.8698719
10.134904225021844	8.22868	2.8685675
10.152499865634445	8.174731	2.8591487
10.170095746253125	8.182917	2.8605797
10.18769186730261	8.165418	2.8575194
10.205288229207675	8.184394	2.860838
10.222884832393145	8.188631	2.8615785
10.2404816772839	8.126449	2.8506927
10.258078764304868	8.073952	2.84147
10.275676093881035	7.971365	2.8233607
10.293273666437438	8.078364	2.8422463
10.310871482399158	8.111923	2.8481438
10.32846954219134	8.094656	2.845111
10.346067846239173	8.068304	2.840476
10.363666394967908	8.00461	2.829242
10.38126518880283	8.053945	2.8379471
10.398864228169298	8.178413	2.8597925
10.416463513492713	8.218182	2.8667371
10.434063045198531	8.211215	2.8655217
10.451662823712262	8.173246	2.858889
10.469262849459467	8.213568	2.8659322
10.486863122865758	8.118266	2.8492572
10.504463644356806	8.069116	2.8406188
10.522064414358338	7.9541054	2.8203022
10.539665433296118	7.909117	2.8123152
10.557266701595987	7.8794045	2.8070278
10.574868219683818	7.829395	2.7981055
10.592469987985552	7.801506	2.7931175
10.610072006927185	7.672012	2.7698398
10.627674276934751	7.524875	2.7431505
10.64527679843435	7.3436284	2.709913
10.662879571852143	7.266792	2.6956987
10.680482597614331	7.1729994	2.6782455
10.698085876147173	7.0439754	2.654049
10.715689407876988	6.982057	2.6423583
10.733293193230146	6.9269166	2.6319036
10.750897232633072	6.8591022	2.6189888
10.76850152651225	6.779598	2.6037662
10.786106075294207	6.6473646	2.5782483
10.803710879405534	6.5645213	2.5621321
10.821315939272877	6.473928	2.5443914
10.83892125532294	6.3488936	2.519701
10.856526827982472	6.2541456	2.500829
10.874132657678285	6.232395	2.4964767
10.891738744837243	6.227008	2.4953973
10.909345089886271	6.233623	2.4967225
10.926951693252343	6.1521797	2.4803588
10.944558555362494	6.108165	2.47147
10.96216567664381	6.01419	2.4523847
10.979773057523436	5.9451666	2.4382713
10.997380698428573	5.8573647	2.4201994
11.014988599786477	5.767268	2.4015138
11.032596762024461	5.7178917	2.3912113
11.050205185569892	5.7222624	2.3921251
11.067813870850198	5.6692567	2.38102
11.085422818292859	5.603819	2.3672388
11.10303202832541	5.494607	2.3440578
11.120641501375454	5.415423	2.3271062
11.138251237870636	5.328392	2.308331
11.155861238238671	5.273379	2.2963839
11.173471502907317	5.2163806	2.2839396
11.191082032304402	5.203461	2.2811096
11.208692826857805	5.2046423	2.2813685
11.226303886995465	5.1589413	2.2713304
11.243915213145371	5.067963	2.2512138
11.261526805735578	4.9410205	2.2228405
11.279138665194196	4.889021	2.211113
11.296750791949393	4.8274045	2.1971354
11.314363186429393	4.811419	2.1934948
11.331975849062479	4.7450457	2.1783125
11.34958878027699	4.652333	2.1569266
11.36720198050133	4.578696	2.1397886
11.384815450163948	4.5515995	2.133448
11.402429189693366	4.5266757	2.1275985
11.420043199518153	4.4775434	2.1160207
11.437657480066942	63.4824	7.967584
11.455272031768422	85.24529	9.232838
11.472886855051353	107.63385	10.374674
11.490501950344528	99.21687	9.960767
11.508117318076819	84.50787	9.192817
11.52573295867715	45.842865	6.7707357
11.543348872574514	4.1440988	2.035706
11.560965060197946	4.128519	2.0318758
11.57858152197655	4.110329	2.0273948
11.59619825833949	4.0633717	2.0157807
11.613815269715985	4.0318837	2.007955
11.631432556535323	38.594246	6.2124267
11.649050119226837	83.16252	9.119349
11.666667958219929	93.5608	9.672683
11.68428607394406	107.740036	10.379789
11.701904466828756	82.48823	9.082303
11.719523137303586	65.35848	8.084459
11.737142085798196	4.607405	2.1464868
11.754761312742286	3.7331424	1.9321342
11.772380818565619	3.6559734	1.91206
11.790000603698015	3.596472	1.8964367
11.80762066856935	3.5337472	1.8798264
11.825241013609572	3.5651345	1.8881564
11.842861639248683	3.5873835	1.8940389
11.860482545916748	3.5459158	1.8830602
11.878103734043883	3.4502344	1.8574806
11.895725204060282	3.3631046	1.833877
11.91334695639619	3.2977498	1.8159708
11.930968991481919	3.285037	1.8124671
11.948591309747824	3.3002748	1.8166659
11.966213911624347	3.336585	1.8266321
11.98383679754198	3.3381689	1.8270656
12.001459967931268	3.2808502	1.8113117
12.019083423222835	3.2577808	1.8049324
12.036707163847352	3.2362938	1.7989702
12.05433119023556	3.2591906	1.8053229
12.071955502818259	3.2181199	1.7939119
12.089580102026313	3.1836102	1.7842674
12.107204988290643	3.173263	1.7813655
12.12483016204224	3.1624858	1.778338
12.142455623712152	3.132456	1.7698746
12.16008137373149	3.0840285	1.7561402
12.177707412531431	3.0698726	1.7521052
12.19533374054321	3.0710418	1.7524388
12.212960358198126	3.0781662	1.7544703
12.230587265927545	3.054605	1.7477429
12.248214464162889	3.0205388	1.7379698
12.265841953335649	2.9734027	1.7243557
12.283469733877375	2.978562	1.7258512
12.301097806219685	2.9760969	1.7251368
12.31872617079425	2.9751396	1.7248594
12.336354828032825	2.9202545	1.7088752
12.353983778367205	2.8924677	1.7007257
12.371613022229262	2.9042218	1.7041777
12.389242560050928	2.9069045	1.7049646
12.406872392264201	2.893449	1.7010142
12.424502519301143	2.8927252	1.7008014
12.442132941593874	2.8988726	1.7026076
12.459763659574586	2.875595	1.695758
12.477394673675532	2.8257048	1.6809833
12.49502598432903	2.757225	1.6604894
12.51265759196746	2.7346344	1.653673
12.530289497023267	2.740724	1.6555133
12.547921699928967	2.77001	1.6643347
12.565554201117134	2.7964654	1.6722635
12.583187001020404	2.793038	1.6712384
12.600820100071486	2.8216927	1.6797894
12.618453498703152	2.8269756	1.6813612
12.636087197348235	2.845429	1.6868399
12.65372119643964	2.8520503	1.6888014
12.671355496410326	2.8349066	1.6837181
12.68899009769333	2.8621647	1.6917933
12.706625000721749	2.840678	1.6854311
12.724260205928752	2.9060745	1.7047212
12.741895713747551	2.9167492	1.7078493
12.759531524611454	2.9995465	1.7319199
12.777167638953818	3.021736	1.7383142
12.794804057208072	3.0371892	1.7427534
12.812440779807702	3.0726619	1.752901
12.830077807186271	3.2199244	1.7944148
12.847715139777405	3.2718198	1.8088173
12.865352778014795	3.4566054	1.8591949
12.882990722332197	3.563399	1.8876967
12.90062897316344	3.6395319	1.9077557
12.918267530942412	3.746909	1.9356934
12.935906396103071	3.6605308	1.9132514
12.953545569079449	3.823819	1.9554588
12.971185050305628	3.651129	1.9107928
12.988824840215775	3.6446896	1.909107
13.006464939244115	3.6473029	1.9097914
13.024105347824943	3.5054932	1.8722962
13.041746066392617	3.589325	1.8945514
13.05938709538157	3.377689	1.837849
13.077028435226296	3.4066699	1.8457166
13.094670086361363	3.2854037	1.8125683
13.112312049221401	3.1820292	1.7838243
13.129954324241112	3.0568614	1.7483882
13.147596911855258	2.8709168	1.694378
13.165239812498685	2.8440332	1.6864262
13.182883026606293	2.7889924	1.6700276
13.200526554613058	2.7656066	1.6630113
13.218170396954017	2.7136066	1.6473029
13.235814554064284	2.7241158	1.6504896
13.253459026379034	2.7176437	1.6485277
13.271103814333523	2.6972814	1.6423402
13.288748918363058	2.6842544	1.6383694
13.306394338903031	2.680336	1.6371732
13.32404007638889	2.682424	1.6378107
13.341686131256164	2.688159	1.6395606
13.359332503940449	2.6470687	1.6269815
13.376979194877402	2.6470063	1.6269623
13.394626204502751	2.6795382	1.6369295
13.412273533252307	2.7597597	1.6612524
13.429921181561937	2.7602744	1.6614074
13.447569149867581	2.7795403	1.6671953
13.465217438605247	2.7626603	1.6621252
13.482866048211022	2.7519267	1.6588932
13.500514979121052	2.70619	1.6450502
13.518164231771568	2.677938	1.6364406
13.535813806598844	2.6659	1.6327584
13.553463704039254	2.646799	1.6268986
13.571113924529229	2.6281319	1.6211514
13.588764468505275	2.6378067	1.6241326
13.606415336403956	2.6903346	1.640224
13.624066528661917	2.7409656	1.6555861
13.641718045715882	2.7939405	1.6715084
13.659369888002635	2.8283074	1.6817572
13.67702205595903	2.8784792	1.6966082
13.694674550021993	2.9342442	1.7129636
13.712327370628532	3.0161085	1.7366947
13.729980518215713	3.0732903	1.7530802
13.747633993220681	3.1535974	1.7758371
13.765287796080647	3.1899383	1.7860398
13.7829419272329	3.2723823	1.8089727
13.800596387114801	3.3056839	1.818154
13.818251176163775	3.3359368	1.8264548
13.835906294817324	3.3974812	1.8432257
13.853561743513023	3.4270847	1.8512387
13.871217522688525	3.4699378	1.8627769
13.888873632781538	3.545312	1.8828999
13.906530074229858	3.556387	1.8858385
13.92418684747135	3.5281892	1.8783475
13.941843952943948	3.4393115	1.8545381
13.959501391085665	3.4316132	1.8524613
13.977159162334578	3.3577833	1.8324255
13.994817267128846	3.3560367	1.8319489
14.012475705906693	3.2577472	1.804923
14.030134479106424	3.1788998	1.782947
14.047793587166414	3.104046	1.7618303
14.065453030525108	3.05212	1.7470318
14.083112809621026	3.001018	1.7323446
14.100772924892766	2.9286978	1.7113439
14.118433376778997	2.9029903	1.7038164
14.136094165718458	2.8092103	1.6760699
14.153755292149969	2.764968	1.6628193
14.171416756512416	2.6861718	1.6389545
14.189078559244768	2.6260328	1.6205039
14.20674070078606	2.5643697	1.601365
14.224403181575408	2.4777212	1.5740778
14.242066002051999	2.4661958	1.5704126
14.259729162655093	2.4485543	1.5647857
14.277392663824022	2.4226573	1.5564888
14.295056505998208	2.404013	1.550488
14.312720689617128	2.4163196	1.5544516
14.330385215120348	2.44136	1.5624852
14.348050082947497	2.4379709	1.5614003
14.3657152935383	2.4120479	1.5530769
14.383380847332528	2.4035022	1.5503232
14.401046744770051	2.3839304	1.5439982
14.418712986290798	2.349792	1.5329031
14.436379572334793	2.3412974	1.5301299
14.454046503342123	2.343134	1.5307299
14.471713779752946	2.3510332	1.5333079
14.489381402007504	2.3475885	1.5321842
14.507049370546113	2.3154323	1.5216545
14.524717685809168	2.3474858	1.5321507
14.542386348237134	2.3572876	1.5353462
14.560055358270553	2.3867118	1.5448986
14.577724716350051	2.4185946	1.5551832
14.595394422916325	2.422591	1.5564674
14.61306447841015	2.4374628	1.5612376
14.63073488327237	2.4598787	1.5684
14.648405637943917	2.5080523	1.5836831
14.6660767428658	2.5300055	1.5905991
14.683748198479094	2.5474524	1.5960741
14.701420005224954	2.5582736	1.5994604
14.719092163544628	2.6175961	1.6178987
14.73676467387942	2.649174	1.6276283
14.754437536670727	2.6624882	1.6317133
14.772110752360014	2.66323	1.6319406
14.78978432138882	2.6920087	1.6407342
14.807458244198777	2.72237	1.6499606
14.82513252123159	2.7009385	1.6434532
14.842807152929028	2.6713254	1.634419
14.860482139732962	2.6258335	1.6204424
14.87815748208531	2.636674	1.6237838
14.8958331804281	2.6823559	1.63779
14.91350923520342	2.678374	1.6365739
14.931185646853438	2.7038007	1.6443238
14.948862415820408	2.6721332	1.6346661
14.966539542546656	2.7140281	1.6474308
14.98421702747459	2.7232218	1.6502187
15.001894871046696	2.7318532	1.6528319
15.019573073705542	2.7328331	1.6531283
15.037251635893766	2.6694	1.6338298
15.054930558054092	2.6496441	1.6277728
15.072609840629323	2.6977408	1.64248
15.090289484062351	2.8307488	1.682483
15.107969488796124	3.112762	1.7643021
15.125649855273691	3.5178652	1.8755972
15.14333058393817	4.0356336	2.0088887
15.161011675232768	5.0154624	2.2395227
15.17869312960076	6.34625	2.5191765
15.196374947485506	8.148825	2.8546147
15.214057129330447	11.171658	3.342403
15.231739675579114	15.921057	3.99012
15.249422586675102	21.027815	4.5856094
15.267105863062092	24.243639	4.923783
15.284789505183847	24.600386	4.9598775
15.302473513484218	22.647615	4.758951
15.320157888407127	19.171124	4.3784842
15.337842630396578	14.974143	3.8696437
15.355527739896656	11.60062	3.4059684
15.37321321735153	8.950069	2.9916666
15.39089906320545	6.486157	2.5467935
15.408585277902748	4.8497853	2.2022228
15.42627186188783	3.724602	1.9299228
15.443958815605198	3.1982973	1.7883784
15.461646139499424	2.901155	1.7032777
15.479333834015168	2.7600563	1.6613417
15.497021899597165	2.7034807	1.6442264
15.514710336690234	2.6482222	1.6273359
15.53239914573928	2.5797718	1.6061668
15.550088327189297	2.5187101	1.5870445
15.567777881485336	2.4887474	1.5775764
15.58546780907256	2.455189	1.5669043
15.6031581103962	2.4434545	1.5631553
15.620848785901568	2.434486	1.5602839
15.638539836034063	2.4183688	1.5551106
15.656231261239173	2.4368327	1.5610358
15.673923061962451	2.4232097	1.5566663
15.691615238649552	2.3838835	1.543983
15.709307791746202	2.3537717	1.5342007
15.727000721698221	2.4089603	1.5520825
15.744694028951498	2.4255846	1.5574288
15.76238771395202	2.425351	1.5573539
15.780081777145844	2.3531275	1.5339907
15.797776218979125	2.3292997	1.5262043
15.815471039898094	2.3174648	1.5223222
15.833166240349064	2.3101757	1.5199262
15.850861820778437	2.295918	1.5152287
15.868557781632699	2.312024	1.5205342
15.886254123358412	2.325362	1.5249138
15.903950846402232	2.345281	1.531431
15.921647951210897	2.3423367	1.5304694
15.939345438231225	2.3251333	1.5248388
15.957043307910133	2.3200824	1.5231817
15.974741560694602	2.358564	1.5357617
15.992440197031714	2.4066136	1.5513264
16.01013921736862	2.4370131	1.5610936
16.02783862215259	2.4235387	1.5567719
16.045538411830933	2.3930817	1.5469588
16.06323858685107	2.3813078	1.5431486
16.080939147660512	2.3934581	1.5470805
16.09864009470684	2.4022365	1.549915
16.11634142843774	2.397033	1.5482354
16.134043149300954	2.427388	1.5580077
16.15174525774433	2.4441187	1.5633677
16.169447754215817	2.473153	1.5726262
16.18715063916342	2.456399	1.5672903
16.204853913035244	2.4388149	1.5616705
16.222557576279478	2.44955	1.5651038
16.240261629344403	22.423662	4.735363
16.257966072678386	42.990166	6.556689
16.275670906729868	38.075825	6.1705613
16.293376131947387	2.490682	1.5781895
16.31108174877957	2.5074859	1.5835043
16.328787757675133	2.5292387	1.590358
16.34649415908287	2.5575197	1.5992247
16.364200953451657	2.5855372	1.6079606
16.38190814123048	2.6060145	1.6143155
16.39961572286839	2.640222	1.624876
16.41732369881455	2.6421595	1.6254721
16.43503206951817	2.6700315	1.6340231
16.45274083542859	2.724029	1.6504633
16.47044999699522	2.7924342	1.6710578
16.488159554667558	2.8467624	1.6872351
16.505869508895184	2.889358	1.6998112
16.523579860127786	2.919664	1.7087024
16.541290608815117	2.9506514	1.717746
16.559001755407035	2.9893024	1.7289599
16.57671330035348	3.0690272	1.751864
16.59442524410448	3.136897	1.7711288
16.61213758711015	3.2203066	1.7945213
16.629850329820705	3.23278	1.7979933
16.647563472686436	3.275047	1.8097091
16.665277016157724	3.3400123	1.8275701
16.682990960685053	3.398051	1.8433803
16.70070530671898	3.4589334	1.8598208
16.718420054710155	3.510379	1.8736006
16.736135205109335	3.573661	1.8904129
16.753850758367335	3.6691716	1.9155082
16.771566714935087	3.702082	1.9240795
16.789283075263597	3.7235942	1.9296616
16.80699983980398	3.7656527	1.940529
16.82471700900741	3.8460965	1.9611467
16.84243458332518	3.927432	1.9817749
16.860152563208665	3.9664822	1.9916029
16.87787094910932	4.0401077	2.010002
16.89558974147871	4.1048207	2.0260358
16.913308940768466	4.1625943	2.0402436
16.931028547430333	4.195129	2.0482013
16.94874856191613	4.1812835	2.0448186
16.966468984677785	4.266201	2.0654783
16.98418981616729	4.3864913	2.0943952
17.00191105683676	4.439151	2.1069293
17.019632707138374	4.5129433	2.124369
17.03735476752442	4.503835	2.122224
17.05507723844728	4.557024	2.1347187
17.072800120359403	4.606748	2.1463337
17.090523413713353	4.701126	2.1682081
17.108247118961785	4.718083	2.1721148
17.125971236557437	4.672717	2.1616468
17.143695766953133	4.6847196	2.1644213
17.161420710601806	4.7350063	2.176007
17.179146067956477	4.7505245	2.1795697
17.19687183947025	4.7220616	2.1730306
17.21459802559634	4.6873336	2.165025
17.232324626788028	4.6245575	2.1504784
17.25005164349871	4.56704	2.1370635
17.267779076181863	4.5294933	2.1282606
17.285506925291074	4.5178747	2.1255293
17.30323519127999	4.519794	2.1259806
17.320963874602384	4.51615	2.1251235
17.33869297571211	4.5270076	2.1276765
17.356422495063114	4.532841	2.129047
17.37415243310944	4.504854	2.1224642
17.391882790305218	4.488593	2.11863
17.40961356710468	4.452367	2.1100633
17.42734476396215	4.4387426	2.1068323
17.445076381332044	4.4722595	2.1147718
17.462808419668868	4.5556574	2.1343987
17.48054087942723	4.694582	2.1666985
17.498273761061835	4.956467	2.2263124
17.51600706502747	5.4522657	2.3350086
17.533740791779024	6.1740003	2.4847536
17.551474941771485	7.634085	2.7629848
17.56920951545993	8.742458	2.956765
17.586944513299528	10.943232	3.3080556
17.60467993574556	12.681632	3.561128
17.622415783253373	14.451944	3.8015714
17.64015205627843	15.867818	3.983443
17.657888755276293	16.97699	4.120314
17.675625880702604	17.42217	4.1739874
17.69336343301311	17.20306	4.1476574
17.71110141266366	16.276865	4.0344596
17.728839820110178	15.3492155	3.9178076
17.746578655808705	14.470844	3.8040564
17.764317920215372	13.050262	3.6125147
17.7820576137864	11.55671	3.399516
17.79979773697811	9.5377035	3.0883172
17.81753829024692	7.6701884	2.7695105
17.835279274049356	5.9953575	2.4485419
17.85302068884201	4.9064693	2.2150552
17.870762535081607	4.209327	2.0516646
17.888504813224934	3.8975031	1.9742095
17.90624752372891	3.7018106	1.924009
17.923990667050536	3.63101	1.9055209
17.941734243646895	3.5279064	1.8782722
17.959478253975185	3.4803777	1.865577
17.9772226984927	3.458262	1.8596402
17.994967577656833	3.4286895	1.851672
18.01271289192506	3.4126246	1.847329
18.030458641754965	3.354864	1.8316288
18.04820482760425	3.330917	1.8250799
18.06595144993067	3.3124974	1.8200268
18.083698509192125	3.2679036	1.8077344
18.101446005846576	3.2424695	1.8006859
18.119193940352105	3.2451847	1.8014396
18.136942313166887	3.25274	1.8035353
18.1546911247492	3.2094874	1.7915043
18.1724403755574	3.1798418	1.7832111
18.19019006604997	3.1648412	1.779
18.207940196685467	3.1399543	1.7719916
18.225690767922575	3.1153991	1.7650493
18.243441780220046	3.0531597	1.7473294
18.261193234036764	3.0274284	1.7399507
18.278945129831676	3.0132737	1.7358783
18.29669746806386	3.0261142	1.739573
18.314450249192483	3.0289326	1.7403829
18.3322034736768	3.048448	1.7459805
18.349957141976184	3.0316086	1.7411515
18.3677112545501	3.0478907	1.7458209
18.385465811858108	3.05157	1.7468743
18.403220814359884	3.058754	1.7489294
18.420976262515172	3.0684195	1.7516905
18.43873215678387	3.101595	1.7611345
18.456488497625923	3.128322	1.7687063
18.474245285501407	3.2006502	1.7890362
18.492002520870486	3.2486115	1.8023905
18.50976020419343	3.3402593	1.8276377
18.527518335930615	3.6379154	1.9073321
18.545276916542516	4.2231593	2.0550327
18.563035946489688	4.39442	2.0962873
18.580795426232832	4.8376064	2.199456
18.598555356232698	4.7421293	2.177643
18.616315736950185	5.0272827	2.2421603
18.63407656884626	4.6698174	2.160976
18.65183785238201	4.8222227	2.195956
18.669599588018617	4.5598345	2.135377
18.68736177621737	4.5420327	2.1312046
18.705124417439652	4.585805	2.1414492
18.72288751214696	4.4031186	2.098361
18.740651060800886	4.5490475	2.1328497
18.758415063863115	4.22771	2.0561395
18.77617952179546	4.3980327	2.0971487
18.793944435059814	4.170653	2.0422177
18.811709804118184	4.188365	2.0465496
18.829475629432675	4.1317244	2.0326643
18.8472419114655	3.972212	1.9930409
18.86500865067897	4.0948534	2.0235744
18.88277584753551	3.8281806	1.9565737
18.90054350249763	3.8292325	1.9568424
18.918311616027957	3.4731877	1.863649
18.936080188589226	3.3399146	1.8275433
18.953849220644265	3.0321875	1.7413177
18.971618712656007	2.8701918	1.694164
18.9893886650875	2.778994	1.6670315
19.007159078401887	7.9784465	2.8246143
19.024929953062408	32.861652	5.732508
19.042701289532435	32.821754	5.7290273
19.060473088275405	25.342257	5.034109
19.07824534975489	2.636709	1.6237947
19.096018074434568	2.6616085	1.6314436
19.113791262778197	2.6495695	1.6277498
19.13156491524966	2.6349063	1.6232394
19.149339032312945	2.5929615	1.6102675
19.167113614432136	2.5741143	1.6044047
19.184888662071433	2.5462272	1.5956903
19.202664175695123	2.544755	1.5952288
19.220440155767623	2.532255	1.5913061
19.238216602753447	2.5179522	1.5868057
19.2559935171172	2.489197	1.577719
19.27377089932361	2.504086	1.5824304
19.291548749837514	2.4862814	1.5767946
19.309327069123835	2.4834702	1.5759029
19.32710585764763	2.4720051	1.5722611
19.344885115874032	2.4823437	1.5755455
19.362664844268313	2.481408	1.5752486
19.380445043295822	2.4458997	1.5639373
19.39822571342203	2.4387126	1.5616378
19.41600685511252	2.477443	1.5739895
19.43378846883297	2.5205343	1.5876191
19.451570555049173	2.526081	1.589365
19.469353114227037	2.4789443	1.5744663
19.48713614683254	2.4520082	1.565889
19.50491965333182	2.4318464	1.5594379
19.52270363419109	2.4356053	1.5606426
19.540488089876686	2.4584308	1.5679383
19.55827302085503	2.4783516	1.5742781
19.576058427592674	2.4987836	1.5807542
19.593844310556282	2.5179856	1.5868162
19.611630670212598	2.5378468	1.593062
19.629417507028506	2.516948	1.5864892
19.64720482147098	2.5179315	1.5867991
19.6649926140071	2.4789803	1.5744778
19.682780885104084	2.4944842	1.5793936
19.70056963522921	2.4781902	1.5742269
19.718358864849908	2.4976315	1.5803897
19.7361485744337	2.4785795	1.5743505
19.753938764448215	2.5185893	1.5870063
19.771729435361202	2.525403	1.5891516
19.789520587640506	2.5201576	1.5875005
19.807312221754092	2.505836	1.5829833
19.825104338170043	2.487991	1.5773367
19.842896937356517	2.5171995	1.5865685
19.860690019781824	2.541677	1.5942638
19.87848358591436	2.588804	1.6089761
19.896277636222635	2.5611022	1.6003444
19.914072171175278	2.534134	1.5918963
19.931867191241015	2.480288	1.574893
19.94966269688869	2.4770982	1.57388
19.967458688587264	2.4834907	1.5759095
19.985255166805807	2.4597318	1.5683532
20.00305213201348	2.4380758	1.5614339
20.020849584679578	2.421838	1.5562255
20.038647525273507	2.431377	1.5592873
20.05644595426477	2.4300823	1.5588721
20.07424487212299	2.42401	1.5569233
20.092044279317903	2.4075003	1.5516121
20.109844176319353	2.402577	1.5500249
20.127644563597304	2.3661506	1.5382297
20.145445441621817	2.3925579	1.5467895
20.16324681086307	2.394747	1.547497
20.181048671791373	2.4049234	1.5507816
20.198851024877122	2.3894517	1.5457852
20.216653870590836	2.4067285	1.5513635
20.234457209403146	2.3848896	1.5443088
20.252261041784802	2.3809342	1.5430276
20.270065368206662	2.3549554	1.5345864
20.287870189139685	2.3484533	1.5324664
20.305675505054968	2.356216	1.5349971
20.323481316423702	2.3734868	1.5406125
20.341287623717207	2.3652759	1.5379454
20.359094427406884	2.3711445	1.5398521
20.376901727964288	2.368844	1.5391049
20.39470952586107	2.38219	1.5434345
20.41251782156899	2.3559835	1.5349213
20.430326615559935	2.335872	1.528356
20.448135908305886	2.3039951	1.5178916
20.465945700278965	2.2688136	1.5062581
20.483755991951384	2.2652645	1.5050796
20.50156678379548	2.311835	1.5204719
20.519378076283708	2.3329134	1.5273877
20.537189869888635	2.3087075	1.5194432
20.55500216508294	2.3246512	1.5246807
20.572814962339415	2.351183	1.5333568
20.59062826213098	2.3307986	1.5266954
20.60844206493066	2.312163	1.5205798
20.626256371211593	2.3391044	1.5294131
20.644071181447032	2.3437996	1.5309473
20.66188649611036	2.3357503	1.5283161
20.67970231567506	2.304826	1.5181653
20.697518640614742	2.284914	1.5115932
20.715335471403122	2.284544	1.5114708
20.73315280851404	2.3236666	1.5243578
20.750970652421447	2.354447	1.5344207
20.768789003599412	2.3507886	1.5332282
20.786607862522136	2.3427088	1.530591
20.8044272296639	2.3054898	1.518384
20.82224710549913	2.3289847	1.5261011
20.84006749050237	2.3266795	1.5253457
20.857888385148268	3.8581884	1.9642272
20.8757097899116	45.911427	6.775797
20.893531705267254	64.786514	8.049007
20.911354131690224	83.83618	9.15621
20.92917706965566	69.08665	8.311838
20.94700051963877	50.141617	7.0810747
20.96482448211493	29.428305	5.424786
20.982648957559622	4.196606	2.048562
21.00047394644843	2.2859585	1.5119387
21.01829944925707	2.252281	1.5007601
21.036125466461375	2.2106202	1.4868155
21.053951998537297	2.212752	1.4875323
21.071779045960906	2.210922	1.4869169
21.089606609208378	2.2303727	1.4934433
21.10743468875603	2.2217565	1.4905558
21.12526328508028	2.23208	1.4940147
21.143092398657675	2.2017186	1.4838189
21.16092202996488	2.1862764	1.4786062
21.17875217947867	2.2007425	1.48349
21.19658284767596	2.2155204	1.4884624
21.21441403503377	2.1796806	1.4763741
21.232245742029225	2.168565	1.4726049
21.2500779691396	2.1864831	1.4786762
21.26791071684227	2.1603508	1.4698132
21.28574398561475	2.1460116	1.4649272
21.30357777593465	2.1520736	1.4669948
21.321412088279704	2.1592877	1.4694515
21.339246923127792	2.1209216	1.4563384
21.357082280956888	2.1014814	1.4496487
21.3749181622451	2.142926	1.4638736
21.392754567470647	2.157442	1.4688233
21.41059149711187	2.1473768	1.4653931
21.42842895164726	2.1179028	1.4553016
21.446266931555378	2.1019921	1.4498248
21.464105437314945	2.0909228	1.4460024
21.481944469404798	2.1118512	1.453221
21.49978402830388	2.1429307	1.4638753
21.51762411449127	2.1655993	1.4715976
21.53546472844617	2.164323	1.4711639
21.553305870647876	2.1053119	1.4509693
21.571147541575865	2.0578392	1.434517
21.58898974170967	2.039828	1.4282255
21.60683247152899	2.0456536	1.4302635
21.62467573151363	2.0583127	1.4346821
21.642519522143523	2.0949895	1.4474078
21.660363843898722	2.0818129	1.4428489
21.6782086972594	2.0671737	1.4377669
21.696054082705864	2.0435977	1.4295446
21.713900000718535	2.0532315	1.4329101
21.73174645177795	2.0594504	1.4350785
21.749593436364794	2.03792	1.4275573
21.767440954959845	2.001452	1.4147269
21.785289008044032	1.9931672	1.4117957
21.803137596098388	2.0109615	1.4180838
21.820986719604086	2.0120263	1.4184592
21.838836379042412	2.014704	1.4194027
21.85668657489478	2.0030365	1.4152867
21.87453730764273	2.036776	1.4271567
21.892388577767914	2.0620072	1.4359691
21.91024038575213	2.057425	1.4343727
21.928092732077285	2.0558116	1.4338102
21.945945617225426	2.0319588	1.425468
21.963799041678694	2.002395	1.41506
21.981653005919398	31.318096	5.596257
21.999507510429943	78.104126	8.837654
22.01736255569286	73.07111	8.548164
22.035218142190818	4.1470513	2.036431
22.05307427040661	1.9944613	1.412254
22.07093094082315	2.0048368	1.4159226
22.088788153923474	2.0211384	1.4216675
22.106645910190746	1.9913262	1.4111435
22.12450421010827	2.0190365	1.420928
22.142363054159464	1.9874011	1.4097521
22.16022244282787	2.0114849	1.4182682
22.178082376597164	1.9707718	1.4038419
22.195942855951145	2.010058	1.4177651
22.213803881373742	2.0004592	1.4143759
22.231665453349002	2.0226915	1.4222136
22.24952757236111	1.9979905	1.4135029
22.26739023889438	1.971446	1.404082
22.28525345343323	1.9471084	1.3953882
22.30311721646225	1.958441	1.3994431
22.320981528466113	1.9811187	1.4075222
22.33884638992964	1.9767845	1.4059817
22.356711801337788	1.9699509	1.4035494
22.37457776317561	1.9521322	1.3971872
22.392444275928337	1.9735769	1.4048405
22.410311340081282	1.9642942	1.4015328
22.428178956119904	1.9239391	1.3870614
22.446047124529805	1.8978764	1.3776343
22.46391584579669	1.9076499	1.381177
22.481785120406414	1.9554421	1.3983712
22.49965494884496	1.950244	1.3965113
22.51752533159841	1.9407605	1.3931118
22.53539626915302	1.9370656	1.391785
22.553267761995137	1.927198	1.3882356
22.571139810611264	1.9284936	1.3887022
22.589012415488025	1.9643914	1.4015675
22.60688557711216	1.9986991	1.4137535
22.624759295970566	1.9733992	1.4047773
22.642633572550263	1.9630802	1.4010997
22.660508407338362	1.9535308	1.3976877
22.67838380082217	1.9661275	1.4021866
22.696259753489077	1.9401107	1.3928785
22.714136265826614	1.9224075	1.3865091
22.73201333832246	1.9295216	1.3890722
22.74989097146439	1.902525	1.3793205
22.76776916574035	1.8981984	1.3777512
22.785647921638393	1.8753595	1.3694377
22.803527239646712	1.9188856	1.3852384
22.82140712025363	1.919615	1.3855017
22.839287563947593	1.9137436	1.3833812
22.85716857121719	1.9050208	1.380225
22.875050142551135	1.8981578	1.3777364
22.892932278438277	1.903671	1.3797358
22.910814979367604	1.88294	1.3722026
22.928698245828222	1.8727639	1.3684896
22.946582078309387	1.8933774	1.3760005
22.96446647730047	1.9370263	1.391771
22.98235144329098	1.962869	1.4010243
23.000236976770562	1.9397154	1.3927367
23.018123078229	1.9422069	1.3936309
23.03600974815619	1.9536277	1.3977224
23.053896987042194	1.926861	1.3881142
23.071784795377173	1.8799849	1.3711253
23.08967317365145	1.8712587	1.3679396
23.10756212235546	1.8541392	1.3616678
23.125451641979787	1.8733846	1.3687164
23.143341733015134	1.8864766	1.3734907
23.161232395952357	1.8664179	1.3661691
23.179123631282426	1.8794482	1.3709297
23.197015439496468	1.9291348	1.388933
23.214907821085717	1.9750446	1.4053628
23.23280077654157	1.9483565	1.3958354
23.250694306355538	1.9321527	1.3900189
23.268588411019277	1.9042444	1.3799436
23.28648309102458	1.9097124	1.3819234
23.304378346863356	1.933357	1.390452
23.322274179027676	1.9726981	1.4045277
23.340170588009723	1.9266313	1.3880315
23.358067574301852	1.9040622	1.3798776
23.37596513839651	1.9131291	1.383159
23.39386328078629	1.9425822	1.3937654
23.411762001963947	1.9184519	1.3850819
23.429661302422353	1.9325404	1.3901584
23.4475611826545	1.9467914	1.3952746
23.46546164315356	1.9332219	1.3904035
23.48336268441279	1.9178071	1.3848491
23.501264306925638	1.9110405	1.3824039
23.51916651118564	1.920596	1.3858557
23.537069297686497	1.900509	1.3785895
23.554972666922037	1.9339595	1.3906687
23.57287661938623	1.9609203	1.4003286
23.59078115557318	1.9899571	1.4106584
23.608686275977128	1.9831334	1.4082377
23.62659198109246	1.9200964	1.3856754
23.6444982714137	1.8957376	1.3768579
23.66240514743549	1.8749195	1.369277
23.68031260965263	1.8653374	1.3657736
23.698220658560068	1.838388	1.3558717
23.716129294652845	1.8706654	1.3677227
23.7340385184262	1.8921728	1.3755627
23.75194833037546	1.9163073	1.3843075
23.769858730996123	1.9019421	1.3791091
23.78776972078382	1.905763	1.3804938
23.80568130023431	1.934973	1.391033
23.823593469843495	1.9455739	1.3948383
23.841506230107424	1.9448718	1.3945866
23.859419581522275	1.9319824	1.3899577
23.87733352458438	1.8878074	1.373975
23.89524805979019	1.8304799	1.3529522
23.913163187636318	1.8352213	1.3547034
23.931078908619508	1.8970972	1.3773515
23.948995223236633	1.9531808	1.3975625
23.966912131984735	1.9892476	1.4104068
23.98482963536096	2.020887	1.421579
24.002747733862616	1.9992728	1.4139564
24.020666427987155	2.0049143	1.41595
24.038585718232156	2.0288894	1.4243909
24.056505605095353	2.05064	1.4320056
24.074426089074617	2.0644722	1.4368272
24.092347170667946	2.0100424	1.4177597
24.110268850373515	2.0368018	1.4271656
24.128191128689586	2.0598147	1.4352055
24.146114006114626	2.0641644	1.43672
24.164037483147187	2.0527625	1.4327465
24.181961560286005	2.0629916	1.4363118
24.199886238029926	2.0698373	1.4386929
24.21781151687797	2.0756562	1.4407138
24.235737397329274	2.05006	1.4318031
24.253663879883135	2.0213335	1.4217361
24.271590965038975	2.0132902	1.4189045
24.289518653296376	2.0171664	1.4202698
24.30744694515505	2.007119	1.4167283
24.32537584111486	1.9783808	1.4065492
24.34330534167581	1.9561983	1.3986416
24.361235447338046	2.0245917	1.4228815
24.379166158601876	2.0456579	1.430265
24.39709747596772	2.0351915	1.4266014
24.41502939993615	2.0450754	1.4300613
24.432961931007917	2.0355139	1.4267144
24.450895069683856	2.004058	1.4156475
24.468828816465	1.9534285	1.3976511
24.4867631718525	1.9267553	1.3880761
24.504698136347656	1.9088787	1.3816217
24.52263371045192	1.9166101	1.3844169
24.540569894666874	1.9219937	1.3863599
24.558506689494266	1.9284506	1.3886867
24.57644409543597	1.9382117	1.3921967
24.594382112994012	1.9876994	1.409858
24.61232074267057	1.9666592	1.4023763
24.630259984967953	1.9724106	1.4044254
24.64819984038863	1.9721758	1.4043418
24.66614030943522	1.9231545	1.3867785
24.684081392610462	1.8880391	1.3740593
24.702023090417274	1.8987212	1.3779409
24.7199654033587	1.9466314	1.3952173
24.737908331937927	1.9813703	1.4076116
24.755851876658305	2.0169294	1.4201864
24.773796038023324	2.0590456	1.4349375
24.79174081653661	2.1133184	1.4537257
24.809686212701962	2.1353137	1.4612713
24.827632227023294	2.0974135	1.4482449
24.8455788600047	2.1024444	1.4499809
24.8635261121504	2.127362	1.458548
24.88147398396475	2.0873318	1.4447601
24.899422475952303	2.0599859	1.4352651
24.917371588617698	2.0999928	1.4491352
24.935321322465768	2.0941274	1.44711
24.953271678001478	2.158842	1.4692999
24.97122265572994	2.347357	1.5321087
24.989174256156414	2.728594	1.6518457
25.00712647978632	3.2363415	1.7989835
25.02507932712521	3.771581	1.9420558
25.043032798678798	4.35685	2.087307
25.060986894952933	5.0158963	2.2396197
25.078941616453637	5.750835	2.39809
25.096896963687055	6.629865	2.5748525
25.114852937159508	7.763419	2.7862914
25.132809537377444	8.288533	2.8789814
25.150766764847468	8.401096	2.8984644
25.168724620076347	7.8033147	2.7934413
25.186683103570985	6.8253546	2.6125379
25.204642215838426	5.6031833	2.3671043
25.222601957385894	4.2655764	2.0653272
25.24056232872074	3.2061582	1.7905748
25.25852333035048	2.5800745	1.606261
25.276484962782778	2.223791	1.491238
25.294447226525435	2.0421205	1.4290278
25.312410122086423	1.9658061	1.4020721
25.330373649973843	1.9724047	1.4044232
25.348337810695988	1.9574084	1.3990741
25.366302604761245	1.9473852	1.3954874
25.384268032678207	1.9170271	1.3845675
25.40223409495558	1.9337898	1.3906077
25.420200792102257	1.9491541	1.3961211
25.438168124627246	1.9380857	1.3921515
25.45613609303974	1.9380478	1.3921379
25.474104697849057	1.9055451	1.3804148
25.492073939564698	1.8840944	1.3726232
25.510043818696285	1.8746343	1.3691728
25.528014335753614	1.8747123	1.3692013
25.54598549124664	1.9126551	1.3829877
25.56395728568544	1.8816775	1.3717425
25.58192971958028	1.8355842	1.3548373
25.59990279344156	1.8242958	1.350665
25.617876507779833	1.8679341	1.3667239
25.635850863105826	1.8391811	1.3561641
25.653825859930386	1.806075	1.343903
25.671801498764548	1.8058345	1.3438134
25.68977778011949	1.8292865	1.3525112
25.707754704506524	1.8164471	1.3477564
25.725732272437153	1.8367854	1.3552805
25.743710484423012	1.882201	1.3719333
25.761689340975888	1.8537838	1.3615373
25.77966884260774	1.8295252	1.3525994
25.797648989830662	1.8040838	1.3431618
25.815629783156922	1.788801	1.3374606
25.83361122309895	1.7762313	1.3327533
25.85159331016929	1.7756256	1.332526
25.869576044880695	1.7965293	1.3403467
25.887559427746034	1.8511835	1.3605821
25.90554345927836	1.8750281	1.3693167
25.92352813999086	1.877908	1.3703679
25.94151347039689	1.863799	1.3652102
25.959499451009965	1.795726	1.340047
25.97748608234374	1.7414002	1.3196212
25.995473364912062	1.7663746	1.3290503
26.013461299228904	1.8161966	1.3476634
26.03144988580839	1.840836	1.3567741
26.04943912516483	1.8504289	1.3603047
26.067429017812675	1.8329217	1.3538544
26.085419564266537	1.7608941	1.3269868
26.103410765041186	1.7661908	1.328981
26.12140262065155	1.7625949	1.3276275
26.139395131612723	1.7987638	1.34118
26.157388298439948	1.8198587	1.3490213
26.17538212164861	1.8260648	1.3513197
26.193376601754295	1.8115094	1.3459232
26.211371739272714	1.801773	1.3423014
26.229367534719746	1.7793069	1.3339067
26.247363988611433	1.8280346	1.3520483
26.26536110146397	1.8489925	1.3597766
26.283358873793727	1.8219396	1.3497925
26.301357306117204	1.7923098	1.3387717
26.319356398951104	1.8339623	1.3542386
26.33735615281224	1.882101	1.3718969
26.35535656821762	1.8728846	1.3685337
26.373357645684404	1.7929282	1.3390027
26.39135938572991	1.7814019	1.3346916
26.409361788871614	1.8287773	1.3523229
26.427364855627165	1.8408045	1.3567625
26.445368586514352	1.8740535	1.3689607
26.46337298205115	1.8656342	1.3658822
26.48137804275568	1.8383497	1.3558576
26.499383769146217	1.7617527	1.3273103
26.517390161741215	1.7399129	1.3190576
26.53539722105928	1.7750111	1.3322954
26.553404947619182	1.8194771	1.3488799
26.571413341939856	1.8213938	1.3495903
26.589422404540397	1.8400526	1.3564854
26.60743213594006	1.8476559	1.3592851
26.62544253665827	1.8413393	1.3569596
26.64345360721459	1.8599639	1.3638049
26.66146534812879	1.8290858	1.352437
26.679477759920758	1.8056036	1.3437275
26.69749084311057	1.7772084	1.3331199
26.71550459821847	1.7638175	1.3280879
26.733519025764842	1.795479	1.3399549
26.751534126270258	1.816653	1.3478327
26.769549900255434	1.8187448	1.3486085
26.787566348241267	1.7905488	1.3381139
26.80558347074881	1.8169727	1.3479513
26.823601268299267	1.8266714	1.351544
26.841619741414036	1.833948	1.3542334
26.85963889061465	1.8076226	1.3444785
26.877658716422832	1.7699909	1.33041
26.89567921936045	1.7648832	1.3284891
26.913700399949544	1.7466958	1.3216262
26.93172225871233	1.7448026	1.3209097
26.949744796171174	1.7465137	1.3215573
26.967768012848605	1.7767038	1.3329306
26.98579190926733	1.7881613	1.3372215
27.003816485950225	1.8303672	1.3529106
27.021841743420318	1.8267331	1.3515669
27.039867682200814	1.809038	1.3450048
27.057894302815072	1.7952172	1.3398571
27.07592160578664	1.7928827	1.3389857
27.0939495916392	1.7631804	1.3278481
27.111978260896635	1.7582672	1.3259966
27.13000761408296	1.765855	1.3288548
27.148037651722397	1.7786214	1.3336496
27.166068374339304	1.8420231	1.3572115
27.184099782458215	1.8400241	1.3564749
27.20213187660384	1.8093352	1.3451153
27.22016465730105	1.7767317	1.332941
27.23819812507487	1.7627016	1.3276677
27.256232280450533	1.7912036	1.3383585
27.274267123953383	1.8122884	1.3462126
27.292302656108987	1.7851051	1.3360783
27.31033887744306	1.7574599	1.3256922
27.32837578848146	1.7994518	1.3414365
27.34641338975026	1.8256465	1.3511648
27.364451681775673	1.8191488	1.3487582
27.382490665084074	1.7844892	1.3358477
27.400530340202046	1.7383771	1.3184752
27.41857070765629	1.7112433	1.3081449
27.436611767973726	1.7750487	1.3323096
27.454653521681404	1.8259007	1.3512589
27.472695969306564	1.8125554	1.3463118
27.490739111376627	1.7853369	1.336165
27.508782948419153	1.7892557	1.3376306
27.526827480961902	1.830573	1.3529867
27.54487270953279	1.8172935	1.3480703
27.562918634659898	1.7806014	1.3343917
27.580965256871508	1.7354869	1.3173788
27.599012576696026	1.7552699	1.3248659
27.617060594662068	1.8115407	1.3459349
27.63510931129842	1.7911043	1.3383214
27.65315872713401	1.7925812	1.3388731
27.67120884269797	1.8307981	1.3530699
27.68925965851958	1.8055779	1.3437179
27.707311175128307	1.769753	1.3303206
27.725363393053787	1.7734094	1.3316941
27.74341631282583	1.8165692	1.3478016
27.7614699349744	1.8746749	1.3691877
27.77952426002968	2.0691245	1.4384452
27.797579288521973	2.1256156	1.4579492
27.815635020981784	2.4572415	1.5675591
27.83369145793979	2.5296776	1.5904961
27.85174859992682	2.4374464	1.5612323
27.869806447473923	2.3343554	1.5278597
27.887865001112267	2.054199	1.4332477
27.905924261373233	1.8986361	1.37791
27.92398422878836	1.838435	1.3558891
27.94204490388936	1.818041	1.3483475
27.96010628720813	1.8706166	1.3677049
27.978168379276728	1.9214288	1.3861561
27.9962311806274	1.9156849	1.3840827
28.014294691792568	1.8474636	1.3592143
28.0323589133048	1.8508526	1.3604604
28.050423845696887	1.8715712	1.3680538
28.068489489501758	1.9237502	1.3869932
28.086555845252523	1.9220742	1.3863889
28.104622913482487	1.8739666	1.368929
28.122690694725115	1.8302163	1.3528548
28.14075918951405	1.8747623	1.3692195
28.15882839838312	1.9165334	1.3843892
28.176898321866304	1.8886203	1.3742708
28.1949689604978	1.9171847	1.3846244
28.213040314811945	1.926769	1.3880811
28.23111238534327	1.9153825	1.3839735
28.249185172626493	1.9024913	1.3793082
28.267258677196473	1.901909	1.3790972
28.285332899588294	1.8784792	1.3705763
28.303407840337172	1.922614	1.3865836
28.321483499978545	1.9508599	1.3967319
28.33955987904799	1.92211	1.3864018
28.357636978081285	1.9323056	1.3900739
28.37571479761439	1.9697603	1.4034815
28.393793338183425	1.9662718	1.4022381
28.41187260032469	1.9665387	1.4023333
28.429952584574686	1.9810572	1.4075003
28.448033291470065	1.9687929	1.4031368
28.46611472154769	1.9388695	1.3924329
28.484196875344566	1.9301069	1.3892828
28.502279753397914	1.9184151	1.3850687
28.52036335624511	1.9488451	1.3960104
28.538447684423716	2.000512	1.4143945
28.556532738471482	2.0477393	1.4309924
28.574618518926325	1.9811788	1.4075435
28.59270502632635	1.966264	1.4022354
28.61079226120985	2.0143194	1.4192672
28.628880224115274	2.0239615	1.42266
28.646968915581287	2.0154874	1.4196787
28.66505833614671	2.0381846	1.4276501
28.68314848635055	2.0527434	1.4327399
28.701239366732004	2.0036345	1.4154979
28.71933097783044	2.0518544	1.4324296
28.737423320185403	2.1417422	1.4634693
28.75551639433665	2.1508849	1.4665896
28.773610200824074	2.11613	1.4546925
28.791704740187793	2.09441	1.4472077
28.80980001296809	2.1389532	1.4625161
28.827896019705413	2.1527889	1.4672385
28.845992760940433	2.1678934	1.4723768
28.86409023721397	2.1277041	1.4586653
28.88218844906704	2.1756277	1.475001
28.900287397040845	2.2139168	1.4879236
28.918387081676755	2.2174227	1.4891013
28.936487503516343	2.2017348	1.4838244
28.954588663101365	2.2257347	1.4918896
28.97269056097374	2.2533486	1.5011158
28.990793197675597	2.3096254	1.5197452
29.00889657374923	2.3883994	1.5454447
29.027000689737125	2.4588056	1.5680579
29.04510554618196	2.4569328	1.5674607
29.06321114362659	2.482545	1.5756093
29.08131748261405	2.486486	1.5768595
29.099424563687567	2.4178643	1.5549483
29.11753238739057	2.43811	1.5614449
29.13564095426663	2.4831693	1.5758076
29.15375026485954	2.531941	1.5912074
29.171860319713275	2.5806022	1.6064253
29.18997111937199	2.6258368	1.6204435
29.20808266438002	2.7525995	1.659096
29.226194955281898	2.8004942	1.6734678
29.244307992622335	2.850631	1.6883812
29.26242177694624	2.8824842	1.697788
29.2805363087987	2.9497826	1.7174932
29.29865158872498	2.967369	1.7226053
29.316767617270557	2.8827624	1.69787
29.334884394981064	2.9171555	1.7079682
29.353001922402367	2.9956448	1.7307931
29.37112020008047	3.0335877	1.7417197
29.389239228561596	3.1618161	1.7781496
29.407359008392152	3.3310668	1.825121
29.42547954011872	3.629249	1.9050589
29.44360082428809	4.264362	2.0650332
29.46172286144722	5.3117905	2.304732
29.479845652143283	6.8663244	2.6203673
29.497969196923606	8.921788	2.9869363
29.516093496335728	11.611773	3.4076052
29.5342185509274	14.4541855	3.801866
29.55234436124651	16.892113	4.1100016
29.570470927841175	18.48019	4.298859
29.588598251259686	18.216005	4.268021
29.60672633205055	16.813808	4.1004643
29.624855170762405	14.658683	3.828666
29.642984767944146	11.792382	3.4340038
29.66111512414481	9.029887	3.004977
29.67924623991366	6.723442	2.5929601
29.697378115800138	5.190588	2.2782862
29.71551075235387	4.206184	2.0508983
29.733644150124675	3.724845	1.9299858
29.751778309662576	3.5181146	1.8756638
29.769913231517766	3.4438372	1.8557578
29.78804891624066	3.3567286	1.8321377
29.806185364381818	3.3229907	1.8229072
29.82432257649206	3.4050012	1.8452646
29.842460553122333	3.4232042	1.8501903
29.86059929482382	3.3630462	1.833861
29.878738802147872	3.345213	1.8289924
29.896879075646048	3.2947824	1.8151536
29.915020115870114	3.217303	1.7936842
29.933161923371976	3.209026	1.7913755
29.951304498703777	3.280175	1.8111253
29.969447842417857	3.2571042	1.804745
29.987591955066733	3.1984987	1.7884347
30.005736837203123	3.1277845	1.7685543
30.023882489379943	3.128419	1.7687337
30.04202891215028	3.178376	1.7828001
30.060176106067455	3.1906464	1.7862381
30.078324071684946	3.164958	1.7790328
30.09647280955646	3.1707153	1.7806503
30.114622320235863	3.1415327	1.772437
30.132772604277257	3.1632676	1.7785578
30.1509236622349	3.1674128	1.7797227
30.16907549466328	3.146544	1.7738501
30.18722810211705	3.0295665	1.7405651
30.205381485151097	2.9404175	1.7147646
30.22353564432045	2.986167	1.728053
30.241690580180403	3.0393994	1.7433873
30.25984629328638	2.9626102	1.7212235
30.278002784194037	2.9632254	1.7214022
30.296160053459246	2.969029	1.7230871
30.314318101638033	2.9393845	1.7144634
30.332476929286646	2.9238644	1.7099311
30.35063653696153	2.9642866	1.7217103
30.368796925219307	2.9974115	1.7313035
30.386958094616844	2.9443305	1.7159052
30.40512004571115	2.8950548	1.7014861
30.423282779059463	2.9092414	1.7056499
30.441446295219233	2.8090308	1.6760163
30.459610594748067	2.722664	1.6500497
30.47777567820382	2.7182767	1.6487197
30.495941546144504	2.7680368	1.6637418
30.51410819912835	2.8248203	1.6807202
30.532275637713795	2.889019	1.6997114
30.55044386245946	2.8548436	1.6896282
30.56861287392416	2.8720098	1.6947005
30.586782672666956	2.836652	1.6842363
30.604953259247047	2.7838736	1.6684943
30.623124634223885	2.8412132	1.6855899
30.641296798157075	2.8435192	1.6862738
30.659469751606462	2.7655387	1.6629909
30.677643495132074	2.7693262	1.6641293
30.695818029294152	2.773709	1.6654456
30.713993354653116	2.724222	1.6505218
30.73216947176962	2.690816	1.6403707
30.75034638120448	2.694403	1.6414636
30.768524083518756	2.7608244	1.6615729
30.786702579273673	2.8474896	1.6874506
30.80488186903069	2.8936973	1.7010871
30.82306195335144	2.9894698	1.7290083
30.841242832797782	3.1056764	1.762293
30.85942450793176	3.326769	1.8239433
30.877606979315637	3.714768	1.9273733
30.895790247511883	4.172737	2.042728
30.913974313083134	4.6161723	2.1485279
30.932159176592283	4.886606	2.210567
30.95034483860237	4.8625054	2.205109
30.968531299676698	4.712227	2.1707664
30.98671856037873	4.424667	2.1034892
31.00490662127215	3.961528	1.9903588
31.023095482920848	3.4827754	1.8662195
31.04128514588892	3.064203	1.7504865
31.059475610740662	2.6942847	1.6414276
31.07766687804056	2.5102513	1.5843773
31.09585894835335	2.48115	1.5751666
31.11405182224393	2.450408	1.565378
31.132245500277417	2.4247322	1.5571551
31.15043998301914	2.4609394	1.5687381
31.168635271034628	2.5007646	1.5813806
31.18683136488964	2.4667692	1.5705951
31.20502826515008	2.4487097	1.5648353
31.223225972382135	2.458849	1.5680717
31.241424487152155	2.417761	1.5549152
31.259623810026692	2.3846319	1.5442253
31.27782394157253	2.3965392	1.5480759
31.296024882356644	2.4467711	1.5642158
31.314226632946237	2.4476898	1.5645094
31.332429193908684	2.4270208	1.5578898
31.350632565811598	2.4239593	1.5569069
31.368836749222787	2.4437401	1.5632466
31.387041744710295	2.5034015	1.5822141
31.40524755284232	2.5766253	1.605187
31.423454174187317	2.617711	1.6179342
31.441661609313922	2.6266646	1.6206988
31.459869858791002	2.5974631	1.6116647
31.478078923187628	2.467605	1.5708612
31.496288803073064	2.2639325	1.504637
31.514499499016807	2.1841378	1.4778829
31.532711011588546	2.2499585	1.4999862
31.550923341358178	2.344219	1.5310843
31.56913648889584	2.3415778	1.5302215
31.587350454771844	2.2718022	1.5072498
31.605565239556732	2.278493	1.5094677
31.62378084382127	2.2942011	1.514662
31.641997268136382	2.3136287	1.5210617
31.660214513073274	2.3002422	1.516655
31.67843257920331	2.2512827	1.5004275
31.6966514670981	2.17412	1.4744897
31.71487117732944	2.2383327	1.4961059
31.733091710469346	2.3860414	1.5446817
31.751313067090052	2.4335856	1.5599954
31.769535247764008	2.325878	1.525083
31.787758253063878	2.302012	1.5172383
31.805982083562526	2.2766962	1.5088725
31.824206739833024	2.250135	1.500045
31.84243222244869	2.2782547	1.5093889
31.860658531983013	2.348193	1.5323814
31.878885669009737	2.266806	1.5055915
31.897113634102784	2.2231572	1.4910256
31.91534242783632	2.2371733	1.4957184
31.933572050784694	2.280561	1.5101526
31.951802503522508	2.1844234	1.4779795
31.970033786624548	2.1118782	1.4532303
31.988265900665834	2.0960226	1.4477646
32.006498846221575	2.1905432	1.4800484
32.02473262386724	2.196896	1.482193
32.04296723417845	2.1764758	1.4752884
32.0612026777311	2.1515756	1.466825
32.07943895510129	2.144838	1.4645265
32.097676066865304	2.1852758	1.4782678
32.115914013599685	2.234533	1.4948355
32.13415279588115	2.1767397	1.4753778
32.152392414286666	2.0068884	1.4166468
32.1706328693934	1.9611304	1.4004036
32.18887416177875	1.9582423	1.3993721
32.20711629202032	2.0103838	1.41788
32.225359260695924	2.0757189	1.4407356
32.243603068383614	2.1141968	1.4540278
32.26184771566166	2.0734117	1.4399346
32.28009320310852	2.0797899	1.4421476
32.2983395313029	2.0936956	1.4469608
32.31658670082372	2.0681732	1.4381144
32.33483471225012	2.0384057	1.4277275
32.35308356616143	2.0918965	1.446339
32.371333263137245	2.094155	1.4471196
32.38958380375734	2.075609	1.4406974
32.407835188601744	2.0312896	1.4252331
32.42608741825067	2.0624504	1.4361234
32.444340493284585	2.0593483	1.435043
32.46259441428416	2.0172188	1.4202883
32.48084918183028	2.0732331	1.4398726
32.49910479650405	2.1605785	1.4698906
32.51736125888683	2.124233	1.4574748
32.53561856956014	2.0324855	1.4256526
32.5538767291058	2.114278	1.4540558
32.572135738105764	2.0778902	1.4414889
32.59039559714228	1.9998531	1.4141617
32.608656306797776	2.029837	1.4247234
32.62691786765491	2.072998	1.439791
32.645180280296586	2.0152407	1.4195918
32.663443545305896	2.012697	1.4186956
32.68170766326619	2.004374	1.4157592
32.69997263476099	1.9845024	1.4087237
32.7182384603741	2.0075355	1.4168752
32.7365051406895	1.9744494	1.405151
32.75477267629144	1.9635669	1.4012734
32.77304106776434	1.9628433	1.401015
32.79131031569289	1.9126738	1.3829945
32.809580420661966	1.8993026	1.3781519
32.827851383256714	1.9664997	1.4023194
32.84612320406245	2.091353	1.446151
32.86439588366476	2.1612139	1.4701067
32.88266942264945	2.135883	1.4614661
32.9009438216025	2.1241412	1.4574434
32.9192190811102	2.0577052	1.4344703
32.937495201758985	1.9885399	1.410156
32.95577218413556	1.9517628	1.397055
32.974050028826866	1.9666414	1.40237
32.992328736420035	2.0561335	1.4339224
33.010608307502444	2.0085917	1.4172479
33.02888874266169	1.9041792	1.37992
33.047170042485604	1.8940965	1.3762618
33.06545220756225	1.9565332	1.3987613
33.083735238479896	1.978137	1.4064626
33.10201913582707	1.9020996	1.3791662
33.12030390019248	1.9533517	1.3976237
33.138589532165135	2.0215116	1.4217987
33.15687603233419	2.0058475	1.4162794
33.17516340128909	1.967665	1.4027348
33.19345163961947	1.9350681	1.3910673
33.211740747915215	2.0038927	1.4155892
33.23003072676643	2.0642166	1.4367381
33.248321576763466	2.0389326	1.427912
33.266613298496885	1.965182	1.4018495
33.28490589255747	1.9135466	1.38331
33.30319935953626	1.8804592	1.3712983
33.32149370002451	1.9164077	1.3843437
33.339788914613706	1.9953889	1.4125824
33.358085003895575	2.0119019	1.4184153
33.376381968462034	1.9713494	1.4040475
33.39467980890529	1.9338653	1.3906349
33.41297852581774	1.8620564	1.3645718
33.43127811979204	1.8965985	1.3771704
33.44957859142105	1.9641733	1.4014897
33.467879941297866	1.9618227	1.4006509
33.486182170015844	1.9266053	1.3880221
33.50448527816853	2.0403118	1.4283948
33.522789266349754	1.9834543	1.4083517
33.541094135153514	1.9415212	1.3933848
33.55939988517411	1.9476806	1.3955933
33.57770651700602	2.0359652	1.4268725
33.59601403124398	1.9923561	1.4115084
33.61432242848296	1.9290911	1.3889172
33.632631709318154	1.8839445	1.3725686
33.650941874344994	1.8899069	1.3747388
33.66925292415916	1.9302276	1.3893263
33.68756485935654	1.9752766	1.4054453
33.70587768053328	1.9255927	1.3876573
33.724191388285746	1.9728782	1.4045918
33.74250598321054	2.0207162	1.4215189
33.760821465904506	1.9554251	1.3983651
33.77913783696474	1.8791381	1.3708166
33.79745509698852	1.8447732	1.3582243
33.815773246573414	1.9084251	1.3814576
33.8340922863172	1.907837	1.3812448
33.852412216817896	1.8967783	1.3772358
33.87073303867377	2.0066376	1.4165584
33.889054752483304	2.0235016	1.4224983
33.907377358845245	1.9736898	1.4048808
33.92570085835853	1.9003491	1.3785316
33.94402525162239	1.8822958	1.3719679
33.96235053923627	1.8912463	1.3752259
33.980676721799824	1.8463926	1.3588203
33.999003799912984	1.761056	1.3270478
34.01733177417592	1.775863	1.3326151
34.03566064518901	1.8618963	1.3645132
34.0539904135529	1.8979294	1.3776536
34.07232107986846	1.9648796	1.4017416
34.090652644736785	1.9543916	1.3979956
34.108985108759235	1.8988663	1.3779936
34.12731847253742	1.8936485	1.376099
34.14565273667313	1.9382334	1.3922045
34.16398790176847	2.0605528	1.4354626
34.18232396842574	2.044649	1.4299122
34.20066093724749	2.054562	1.4333744
34.21899880883651	1.8935354	1.3760579
34.23733758379583	1.8310359	1.3531578
34.25567726272874	1.7537094	1.3242769
34.27401784623872	1.7909063	1.3382474
34.29235933492957	1.8660165	1.3660221
34.31070172940526	1.8911368	1.3751861
34.32904503027003	1.9091486	1.3817195
34.347389238128386	1.8280649	1.3520595
34.36573435358502	1.7947946	1.3396994
34.38408037724492	1.9470228	1.3953576
34.402427309713296	1.9993225	1.413974
34.42077515159559	1.9101709	1.3820894
34.43912390349752	1.8652649	1.365747
34.45747356602499	2.0000184	1.4142201
34.47582413978423	1.9882114	1.4100395
34.49417562538163	1.9367217	1.3916615
34.51252802342388	2.0126393	1.4186752
34.53088133451789	2.0236824	1.4225619
34.54923555927084	1.9235177	1.3869094
34.567590698290104	1.9441851	1.3943404
34.58594675218336	1.8983564	1.3778086
34.6043037215585	1.8404101	1.3566172
34.62266160702365	1.8839301	1.3725634
34.641020409187234	1.893451	1.3760272
34.65938012865785	1.9405974	1.3930533
34.677740766044394	1.9972523	1.4132417
34.69610232195598	2.0010629	1.4145893
34.714464797002016	1.9485847	1.3959172
34.73282819179208	1.8797053	1.3710234
34.751192506936064	1.9813143	1.4075917
34.76955774304408	2.0093915	1.4175301
34.7879239007265	1.9119059	1.3827169
34.80629098059391	1.8346809	1.354504
34.824658983257194	1.7368819	1.3179082
34.843027909327446	1.7183275	1.3108499
34.86139775941603	1.965312	1.4018959
34.879768534134534	1.8789989	1.3707658
34.89814023409483	1.6639587	1.2899452
34.91651285990901	1.8578329	1.3630234
34.93488641218944	1.9656543	1.402018
34.95326089154871	1.9869292	1.4095848
34.97163629859967	1.9662225	1.4022206
34.99001263395542	1.8277858	1.3519562
35.00838989822934	1.7994667	1.341442
35.02676809203499	1.9992325	1.4139422
35.04514721598624	2.1579082	1.468982
35.063527270697215	1.9107332	1.3822927
35.081908256782256	1.9361153	1.3914436
35.10029017485597	2.1469953	1.4652629
35.11867302553321	2.0296535	1.4246591
35.137056809429104	1.8957694	1.3768694
35.155441527159006	1.7925094	1.3388463
35.173827179338524	1.6243165	1.2744868
35.19221376658354	1.805667	1.3437511
35.21060128951017	2.1053715	1.4509898
35.2289897487348	1.8573453	1.3628446
35.24737914487405	1.7656341	1.3287716
35.26576947854479	1.889039	1.3744231
35.28416075036418	1.9692727	1.4033078
35.30255296094958	2.053039	1.432843
35.32094611091867	2.101184	1.4495461
35.33934020088932	1.8976146	1.3775393
35.35773523147969	1.6799184	1.2961167
35.3761312033082	1.8996308	1.378271
35.394528116993506	2.186082	1.4785404
35.41292597315452	1.9797572	1.4070385
35.431324772410434	1.9820099	1.4078387
35.449724515380666	2.2442148	1.4980704
35.46812520268491	2.4406207	1.5622486
35.486526834943106	2.3742104	1.5408473
35.504929412775454	2.1150663	1.4543267
35.52333293680242	2.0547903	1.4334539
35.54173740764471	2.1150646	1.4543262
35.560142825923286	1.9601398	1.4000499
35.5785491922594	1.5393922	1.2407224
35.59695650727454	0.8871181	0.9418695
35.61536477159042	0.42420965	0.6513138
