0.008763373481513119	0.0	0.0
0.026290120649546365	0.0	0.0
0.043816868432600686	0.0	0.0
0.06134361724069026	0.0	0.0
0.07887036748382949	0.00063309097	0.0251613
0.0963971195720331	0.055701267	0.23601116
0.11392387391531617	0.068752475	0.26220694
0.1314506309236943	0.12026804	0.34679684
0.1489773910071836	0.17486964	0.41817418
0.16650415457580078	0.17917638	0.4232923
0.18403092203956356	0.16318758	0.40396482
0.20155769380849	0.10091776	0.31767556
0.2190844702925996	0.06635663	0.2575978
0.2366112519019124	0.06531031	0.25555882
0.2541380390464497	0.07941964	0.2818149
0.27166483213623416	0.09947368	0.3153945
0.28919163158128947	0.13570464	0.3683811
0.3067184377916406	0.14512372	0.38095108
0.324245251177314	0.15717961	0.39645883
0.34177207214833777	0.1928249	0.43911833
0.3592989011147415	0.19965255	0.44682497
0.37682573848655654	0.2311854	0.48081744
0.39435258467381573	0.22745396	0.47692135
0.41187944008655414	0.21379767	0.4623826
0.42940630513480854	0.21563402	0.4643641
0.446933180228618	0.16207819	0.40258935
0.4644600657780234	0.1529871	0.39113563
0.48198696219306775	0.116796285	0.3417547
0.49951386988379676	0.10669508	0.32664213
0.5170407892602581	0.09684463	0.31119868
0.5345677207325025	0.11670774	0.34162515
0.5520946647105822	0.1454684	0.3814032
0.5696216216045534	0.16947877	0.411678
0.5871485918244737	0.16666012	0.40824026
0.6046755757804043	0.13705225	0.3702057
0.6222025738824094	0.11239887	0.3352594
0.6397295865405557	0.11983883	0.34617746
0.6572566141649129	0.14227252	0.3771903
0.6747836571655547	0.14418732	0.37972006
0.6923107159525568	0.12670091	0.3559507
0.7098377909359992	0.09027567	0.3004591
0.7273648825259653	0.110267974	0.3320662
0.7448919911325411	0.15915728	0.3989452
0.762419117165817	0.18622619	0.43153933
0.7799462610358868	0.17101671	0.41354167
0.7974734231528482	0.15904026	0.39879853
0.8150006039268024	0.18871695	0.43441564
0.8325278037678551	0.21163984	0.4600433
0.8500550230861152	0.21488464	0.4635565
0.8675822622916969	0.17748885	0.42129424
0.8851095217947171	0.15976992	0.3997123
0.9026368020052984	0.15725124	0.39654917
0.9201641033335665	0.19276349	0.43904838
0.9376914261896523	0.21811344	0.46702617
0.9552187709836915	0.21983667	0.46886742
0.9727461381258234	0.22708504	0.4765344
0.990273528026193	0.21765748	0.46653774
1.0078009410949496	0.2296985	0.4792687
1.0253283777422473	0.26150456	0.5113752
1.0428558383782454	0.3040527	0.5514097
1.0603833234131086	0.34563494	0.58790725
1.0779108332570058	0.35350254	0.5945608
1.0954383683201119	0.32848564	0.5731367
1.112965929012607	0.3292084	0.5737668
1.1304935157446763	0.4912044	0.7008598
1.1480211289265108	0.54634494	0.7391515
1.1655487689683062	1.3779953	1.1738805
1.1830764362802655	1.6645975	1.2901928
1.200604131272596	2.1744068	1.474587
1.2181318543555117	2.6263874	1.6206132
1.235659605939232	2.5988564	1.6120969
1.253187386433982	4.0184593	2.0046096
1.270715196249994	6.268783	2.503754
1.2882430357975057	12.046729	3.4708397
1.3057709054867608	16.967037	4.1191063
1.3232988057280106	23.01045	4.796921
1.3408267369315112	28.146751	5.3053513
1.358354699507526	32.006165	5.657399
1.3758826938663256	36.198925	6.0165544
1.3934107204181858	37.721382	6.1417737
1.410938779573391	38.06817	6.169941
1.4284668717422309	38.282127	6.1872554
1.4459949973350033	38.08777	6.171529
1.4635231567620117	38.134377	6.175304
1.4810513504335687	37.76797	6.145565
1.4985795787599925	36.879303	6.072833
1.5161078421516088	36.510418	6.042385
1.5336361410187505	35.556957	5.9629655
1.5511644757717598	35.60123	5.9666767
1.5686928468209842	36.13438	6.011188
1.58622125457678	36.484985	6.0402803
1.6037496994495108	37.50161	6.1238556
1.621278181849548	37.337612	6.110451
1.6388067021872719	38.356194	6.193238
1.6563352608730693	38.07427	6.170435
1.673863858317336	37.221684	6.1009574
1.6913924949304753	36.364414	6.0302916
1.7089211711228998	35.04538	5.919914
1.7264498873050296	34.10116	5.8396196
1.7439786438872935	33.336044	5.7737374
1.7615074412801288	32.440884	5.69569
1.779036279893981	31.903872	5.648351
1.796565160139305	30.861256	5.5552907
1.814094082426564	30.01898	5.478958
1.8316230471662298	29.309769	5.41385
1.849152054768784	28.668936	5.354338
1.8666811056447168	28.056536	5.296842
1.8842102002045273	27.1423	5.2098274
1.901739338858724	26.465681	5.1444807
1.9192685220178245	25.879498	5.0871897
1.9367977500923557	25.256536	5.025588
1.9543270234928547	24.816874	4.9816537
1.971856342629867	24.17563	4.916872
1.9893857079139496	23.568506	4.8547406
2.006915119755667	23.186731	4.8152604
2.0244445785655945	23.064964	4.8026
2.0419740847543175	22.967241	4.792415
2.0595036387324317	22.377365	4.730472
2.0770332409105414	21.67998	4.6561766
2.094562891699263	20.96602	4.578867
2.1120925915092217	20.234924	4.4983244
2.129622340751053	20.023134	4.474722
2.1471521398354043	188.41463	13.72642
2.1646819891729323	445.02368	21.095585
2.182211889174303	441.29813	21.007097
2.1997418402501974	453.5891	21.297632
2.2172718428113023	433.30823	20.816057
2.234801897268317	321.09357	17.919085
2.2523320040319548	17.566223	4.191208
2.269862163512935	17.167446	4.1433616
2.287392376121992	16.747478	4.092368
2.304922642269869	16.31411	4.039073
2.322452962367322	16.132317	4.0165057
2.3399833368251164	15.590105	3.9484308
2.357513766054032	15.515017	3.9389105
2.3750442504648586	15.16075	3.8936808
2.3925747904683963	14.911618	3.8615565
2.410105386475459	14.823929	3.8501856
2.4276360388968707	14.527608	3.8115098
2.445166748143469	14.394571	3.7940178
2.4626975146261025	14.038119	3.7467477
2.4802283387556323	13.534083	3.67887
2.4977592209429305	13.210901	3.6346803
2.5152901615988825	12.96483	3.6006708
2.5328211611343865	12.793036	3.5767355
2.5503522199603523	12.590703	3.5483382
2.5678833384877024	12.535849	3.5406
2.5854145171273712	12.490032	3.534124
2.6029457562903064	12.107737	3.4796174
2.620477056387469	11.864047	3.4444225
2.6380084178298326	11.757178	3.4288743
2.655539841028383	11.715487	3.4227893
2.673071326394119	11.584631	3.4036202
2.6906028743380523	11.284484	3.3592386
2.708134485271211	11.102406	3.3320272
2.7256661596046325	10.820318	3.2894251
2.743197897749369	10.621938	3.2591314
2.760729700116486	10.486084	3.2382224
2.778261567117063	10.516508	3.2429166
2.795793499162193	10.292568	3.2082033
2.8133254966629817	10.118618	3.1809776
2.830857560030551	9.959661	3.155893
2.8483896896760337	9.826702	3.134757
2.865921886010578	9.640955	3.1049888
2.883454149445347	9.570645	3.093646
2.9009864803915177	9.272323	3.045049
2.91851887926028	9.091459	3.0152047
2.9360513464628384	9.067773	3.0112743
2.953583882410413	9.110501	3.0183606
2.9711164875142373	9.217906	3.0361004
2.9886491621855606	9.118555	3.0196946
3.0061819068356455	8.851624	2.9751678
3.023714721875769	8.715033	2.9521234
3.041247607717225	8.482751	2.9125164
3.0587805647713213	8.369654	2.8930354
3.0763135934493806	8.225251	2.86797
3.0938466941627407	8.079459	2.842439
3.1113798673227544	8.059862	2.8389897
3.1289131133407904	8.091874	2.844622
3.1464464326282315	7.996623	2.82783
3.1639798255964786	7.8453436	2.800954
3.1815132926569443	7.633008	2.76279
3.1990468342210603	7.5829678	2.7537189
3.216580450700272	7.5921674	2.7553887
3.2341141425060416	7.5309634	2.74426
3.251647910049847	7.522218	2.7426662
3.2691817537431813	7.4120793	2.7225134
3.286715673997555	7.2706933	2.6964223
3.3042496712244938	7.2342997	2.6896653
3.32178374583554	7.131568	2.6704996
3.339317898242251	7.05628	2.6563659
3.3568521288562034	6.9629693	2.6387439
3.3743864380889876	6.9218135	2.630934
3.3919208263522127	6.8053446	2.6087055
3.4094552940575023	6.813043	2.6101806
3.4269898416164972	6.7307663	2.594372
3.444524469440858	6.754378	2.5989187
3.4620591779422587	6.760553	2.6001062
3.479593967532391	6.662578	2.581197
3.4971288386229658	6.594175	2.5679126
3.5146637916257086	6.4681063	2.5432472
3.5321988269523628	6.3966613	2.5291622
3.5497339450146903	6.3679013	2.5234702
3.5672691462244708	6.3268166	2.5153165
3.5848044309934988	6.242045	2.4984086
3.60233979973359	6.2097316	2.4919333
3.619875252856575	6.2297554	2.4959478
3.6374107907743034	6.253148	2.5006294
3.6549464138986427	6.4256105	2.5348787
3.6724821226414788	6.4455643	2.5388117
3.690017917414714	6.4356923	2.5368667
3.7075537986302702	6.3892207	2.527691
3.7250897667000857	6.468941	2.5434113
3.7426258220361235	6.7349544	2.595179
3.7601619650503553	7.0290623	2.651238
3.777698196154779	7.5568132	2.7489657
3.7952345157614067	8.547664	2.9236388
3.8127709242822716	9.318351	3.0525973
3.830307422129425	11.457144	3.3848403
3.847844009714936	30.321228	5.5064716
3.8653806874508954	97.78993	9.888879
3.882917455749409	97.02465	9.850109
3.900454315022606	96.68419	9.832812
3.917991265682631	41.199028	6.418647
3.9355283081416506	10.874721	3.2976842
3.9530654428118495	8.816129	2.9691966
3.970602670105433	7.6926847	2.7735689
3.9881399904346244	6.7262325	2.5934982
4.005677404211669	6.495532	2.5486333
4.023214911848827	6.405307	2.5308707
4.0407525137583855	6.5220695	2.5538342
4.058290210352644	6.6338162	2.5756197
4.075828002043927	6.55506	2.560285
4.0933658892445814	6.4400773	2.5377307
4.110903872366966	6.2815228	2.5062966
4.128441951823468	6.221919	2.4943774
4.145980128026488	6.1679387	2.4835336
4.163518401388452	6.203	2.4905822
4.181056772321807	6.2131867	2.4926264
4.1985952412390155	6.1555886	2.481046
4.216133808552567	6.130081	2.4759002
4.233672474674966	6.1384387	2.4775872
4.251211240018741	6.435181	2.5367658
4.268750104996445	6.825812	2.6126254
4.286289070020643	7.8006234	2.7929597
4.303828135503928	9.397108	3.0654702
4.3213673018589125	29.636787	5.443968
4.3389065694982305	90.84184	9.531098
4.356445938834537	166.0699	12.886811
4.3739854102805085	171.71812	13.104126
4.391524984248844	172.5306	13.13509
4.409064661152262	136.69688	11.691744
4.426604441403504	97.16256	9.857107
4.444144325415337	76.202415	8.7294
4.461684313600543	22.228004	4.7146583
4.47922440637193	22.26647	4.718736
4.496764604142329	20.60156	4.538894
4.5143049073245916	18.76859	4.332273
4.531845316331589	16.590675	4.0731654
4.5493858315762195	13.664899	3.6966064
4.566926453471405	11.225597	3.3504622
4.584467182430081	9.250476	3.0414596
4.602008018865218	8.1638975	2.8572536
4.619548963189798	7.4970593	2.7380757
4.637090015816834	7.06688	2.6583605
4.654631177159353	6.79136	2.6060238
4.672172447630417	6.562259	2.5616908
4.689713827643102	6.454215	2.5405147
4.7072553176105085	6.1976213	2.4895022
4.724796917945764	6.001485	2.4497929
4.742338629062015	5.875778	2.4240005
4.759880451372434	5.84048	2.4167085
4.777422385290215	5.7642765	2.4008908
4.794964431228581	5.6808376	2.3834507
4.812506589600768	5.601249	2.366696
4.830048860820047	5.6641192	2.379941
4.847591245299709	5.6609273	2.3792703
4.8651337434530655	5.688105	2.384975
4.882676355693457	5.6461735	2.3761678
4.900219082434242	5.685451	2.3844185
4.917761924088813	5.663622	2.3798366
4.935304881070575	5.6988454	2.3872254
4.952847953792969	5.606887	2.3678865
4.970391142669449	5.509452	2.347222
4.9879344481135055	5.4148984	2.3269935
5.005477870538642	5.392673	2.322213
5.023021410358394	5.478484	2.3406162
5.040565067986324	5.53423	2.3524945
5.05810884383601	5.4987454	2.3449404
5.075652738321066	5.4798436	2.3409066
5.09319675185512	5.426458	2.3294759
5.110740884851836	5.567705	2.3595984
5.128285137724894	5.5861244	2.3634984
5.145829510888007	5.6024914	2.3669581
5.163374004754908	5.529873	2.3515682
5.1809186197393595	5.4642963	2.3375835
5.198463356255145	5.426645	2.329516
5.216008214716077	5.425905	2.3293571
5.233553195535998	5.49712	2.3445938
5.251098299128764	5.4617066	2.3370295
5.268643525908272	5.4255815	2.3292878
5.286188876288432	5.3586063	2.3148663
5.3037343506831895	5.334913	2.309743
5.32127994950651	5.341494	2.3111672
5.3388256731723915	5.2877083	2.2995017
5.356371522094851	5.2282615	2.286539
5.373917496687938	5.273653	2.2964435
5.391463597365729	5.276767	2.2971215
5.40900982454232	5.2677264	2.295153
5.426556178631843	5.2003145	2.2804198
5.444102660048449	5.2129364	2.2831855
5.4616492692063225	5.2352266	2.2880619
5.479196006519669	5.2697215	2.2955873
5.496742872402727	5.256684	2.2927458
5.514289867269756	5.2057023	2.2816007
5.531836991535049	5.1762624	2.27514
5.549384245612924	5.1941648	2.279071
5.566931629917724	5.249749	2.291233
5.584479144863822	5.304789	2.303213
5.6020267908656205	5.2590027	2.2932515
5.619574568337545	5.1665983	2.2730153
5.637122477694054	5.1455503	2.2683806
5.654670519349629	5.155231	2.2705133
5.672218693718784	5.22971	2.286856
5.689767001216059	5.339308	2.3106942
5.707315442256021	5.427946	2.3297954
5.724864017253266	5.387637	2.3211284
5.7424127266224225	5.311122	2.3045871
5.75996157077814	5.2478356	2.2908156
5.777510550135105	5.304317	2.3031104
5.795059665108022	5.3691893	2.317151
5.812608916111639	5.331782	2.309065
5.830158303560715	5.3922324	2.322118
5.847707827870055	5.317454	2.3059604
5.86525748945448	5.441039	2.3326035
5.8828072887288485	5.58702	2.3636878
5.900357226108044	5.7102914	2.3896215
5.917907302006979	5.7457476	2.397029
5.9354575168406	6.3067527	2.511325
5.9530078710238765	6.9196086	2.6305149
5.970558364971812	7.5047708	2.7394836
5.988108999099438	7.943149	2.8183594
6.005659773821818	8.644468	2.9401476
6.023210689554039	8.349023	2.8894675
6.040761746711227	8.676214	2.9455414
6.058312945708531	7.949875	2.8195522
6.075864286961132	7.454594	2.7303102
6.093415770884244	6.7921796	2.6061811
6.1109673978931065	6.1973467	2.489447
6.128519168402993	5.5248814	2.3505065
6.146071082829204	5.446827	2.3338437
6.163623141587075	5.3290205	2.3084671
6.181175345091969	5.2817154	2.2981982
6.198727693759281	5.2834396	2.2985735
6.216280188004435	5.293137	2.3006818
6.233832828242885	5.248755	2.291016
6.251385614890126	5.266094	2.2947972
6.268938548361669	5.2261963	2.2860875
6.286491629073067	5.208461	2.2822053
6.304044857439898	5.1806054	2.2760944
6.321598233877777	5.08896	2.2558725
6.339151758802344	5.0527296	2.2478278
6.356705432629277	5.0262284	2.2419252
6.37425925577428	5.0166626	2.2397907
6.391813228653095	5.0586534	2.249145
6.409367351681486	5.1322756	2.2654526
6.426921625275259	5.064941	2.2505424
6.44447604985025	5.0730195	2.2523365
6.46203062582232	4.986362	2.2330163
6.47958535360737	5.019532	2.2404313
6.497140233621328	5.0216937	2.2409136
6.514695266280161	5.003619	2.2368772
6.532250451999859	5.007857	2.2378242
6.549805791196454	5.0527725	2.2478373
6.567361284286002	5.1155667	2.261762
6.584916931684597	5.11355	2.261316
6.602472733808367	5.0693865	2.2515297
6.6200286910734665	5.033765	2.2436054
6.637584803896092	5.0873995	2.2555265
6.655141072692462	5.046191	2.246373
6.672697497878842	5.067715	2.2511587
6.690254079871514	5.0442157	2.245933
6.707810819086808	5.089379	2.2559652
6.725367715941078	5.1562366	2.2707348
6.742924770850719	5.1967645	2.2796414
6.760481984232151	5.212528	2.283096
6.778039356501836	5.1579647	2.2711153
6.795596888076266	5.0927606	2.2567146
6.813154579371963	4.9991145	2.23587
6.830712430805492	4.974335	2.230322
6.84827044279344	4.9932942	2.234568
6.865828615752445	4.965113	2.2282534
6.883386950099159	5.060132	2.2494738
6.900945446250287	5.0885262	2.2557762
6.918504104622553	5.1114435	2.2608502
6.936062925632727	5.160449	2.2716622
6.953621909697607	5.170128	2.2737916
6.971181057234028	5.2211633	2.2849865
6.988740368658859	5.2401037	2.2891273
7.006299844389007	5.322159	2.3069804
7.023859484841407	5.35096	2.313214
7.041419290433036	5.388877	2.3213954
7.058979261580902	5.4675446	2.338278
7.0765393987020495	5.727498	2.3932192
7.094099702213559	6.1943674	2.4888487
7.111660172532549	6.577322	2.564629
7.129220810076164	6.959373	2.6380622
7.146781615261595	7.5830092	2.7537265
7.16434258850606	7.7541585	2.7846289
7.181903730226821	8.143822	2.8537383
7.1994650408411704	8.206174	2.864642
7.217026520766437	8.406261	2.8993554
7.234588170419983	8.67949	2.9460974
7.252149990219215	8.650087	2.941103
7.269711980581568	8.537337	2.9218721
7.2872741419245175	8.313754	2.8833582
7.304836474665574	7.9151354	2.813385
7.322398979222286	7.597664	2.756386
7.339961656012233	7.29851	2.7015755
7.357524505453039	6.953756	2.6369975
7.375087527962357	6.7142406	2.591185
7.392650723957886	6.4491305	2.5395138
7.410214093857353	6.103704	2.4705675
7.427777638078528	5.8893447	2.4267972
7.445341357039213	5.700828	2.3876407
7.4629052511572525	5.548708	2.3555696
7.480469320850524	5.4185343	2.3277745
7.498033566536948	5.3093305	2.3041985
7.5155979886344735	5.261565	2.2938101
7.5331625875610975	5.233667	2.287721
7.550727363734844	5.27606	2.2969675
7.568292317573788	5.2199187	2.2847142
7.585857449496025	5.1993594	2.2802105
7.603422759919705	5.184222	2.2768886
7.620988249263007	5.1873727	2.2775805
7.638553917944147	5.255872	2.292569
7.656119766381391	5.232267	2.2874148
7.673685794993023	5.2515345	2.2916226
7.691252004197388	5.282109	2.2982838
7.70881839441285	5.3594546	2.3150496
7.726384966057826	5.320846	2.306696
7.743951719550762	5.241759	2.2894888
7.761518655310149	5.216474	2.28396
7.779085773754511	5.2656727	2.2947054
7.796653075302419	5.3867745	2.3209426
7.814220560372475	5.4108896	2.3261318
7.831788229383323	5.4212823	2.3283646
7.8493560827536495	5.3725653	2.3178794
7.866924120902174	5.2927485	2.3005974
7.884492344247663	5.3114777	2.3046644
7.9020607532089135	5.353547	2.3137734
7.919629348204771	5.4342237	2.3311422
7.937198129654115	5.476626	2.3402193
7.954767097975865	5.4642954	2.3375833
7.972336253588986	5.429073	2.330037
7.989905596912472	5.478593	2.3406394
8.007475128365371	5.485125	2.3420343
8.025044848366756	5.512233	2.3478146
8.042614757335754	5.582216	2.3626714
8.060184855691523	5.6898255	2.3853354
8.07775514385327	5.8246937	2.4134402
8.095325622240228	5.9422026	2.4376633
8.112896291271687	5.963016	2.4419289
8.130467151366968	5.9850407	2.4464343
8.148038202945436	5.965275	2.4423912
8.165609446426497	5.931691	2.4355063
8.183180882229594	6.0227275	2.4541247
8.200752510774217	6.084034	2.4665835
8.218324332479893	6.0417953	2.4580064
8.235896347766193	6.0976133	2.4693346
8.253468557052724	6.073655	2.4644787
8.27104096075914	6.1155987	2.4729736
8.288613559305137	6.1789513	2.4857497
8.306186353110448	6.2087255	2.4917314
8.32375934259485	6.3003864	2.510057
8.341332528178162	6.2830553	2.5066023
8.358905910280246	6.3094754	2.5118668
8.376479489321003	6.269769	2.5039508
8.394053265720377	6.3179398	2.5135512
8.411627239898356	6.3839016	2.5266385
8.42920141227497	6.440029	2.5377212
8.44677578327029	6.4257693	2.5349102
8.464350353304427	6.2973714	2.5094564
8.48192512279754	6.221598	2.4943132
8.499500092169827	6.2207437	2.4941418
8.51707526184153	6.267021	2.503402
8.534650632232934	6.2838345	2.5067577
8.552226203764365	6.325991	2.5151522
8.569801976856192	6.3518567	2.520289
8.587377951928834	6.3789983	2.525668
8.60495412940274	6.399876	2.5297976
8.622530509698416	6.411668	2.5321271
8.6401070932364	6.5554414	2.5603597
8.657683880437283	6.6740565	2.5834196
8.675260871721695	6.9025373	2.627268
8.692838067510303	7.0646715	2.657945
8.710415468223834	7.203936	2.684015
8.727993074283043	7.264385	2.6952524
8.745570886108737	7.188902	2.6812127
8.763148904121765	7.177964	2.6791723
8.78072712874302	7.2111044	2.68535
8.798305560393441	7.52972	2.7440336
8.815884199494006	7.7889915	2.7908764
8.833463046465745	7.9435654	2.818433
8.851042101729728	8.070039	2.8407815
8.86862136570707	8.329599	2.8861046
8.886200838818924	8.483347	2.9126186
8.903780521486505	8.539474	2.9222379
8.921360414131055	8.652774	2.9415598
8.938940517173874	8.765432	2.9606473
8.956520831036297	8.8875065	2.981192
8.97410135613971	9.14124	3.0234485
8.99168209290554	9.272907	3.0451448
9.009263041755265	9.594769	3.0975423
9.026844203110405	9.815683	3.1329992
9.044425577392525	10.054245	3.170843
9.062007165023239	10.175495	3.1899052
9.079588966424197	10.451327	3.2328513
9.097170982017108	10.527375	3.2445917
9.11475321222372	11.395332	3.3756974
9.132335657465825	12.319431	3.5099049
9.149918318165264	12.424941	3.524903
9.167501194743924	13.136448	3.6244237
9.18508428762374	12.772834	3.5739102
9.202667597226693	12.731916	3.568181
9.220251123974803	12.2813635	3.5044777
9.237834868290143	11.971127	3.4599316
9.255418830594836	11.808866	3.436403
9.273003011311046	11.277238	3.3581598
9.290587410860985	10.97787	3.3132868
9.308172029666911	10.347169	3.2167015
9.32575686815113	10.078228	3.1746225
9.343341926735997	8.839238	2.9730856
9.360927205843916	8.718286	2.9526744
9.378512705897327	8.558869	2.9255545
9.396098427318728	8.328432	2.8859024
9.413684370530664	8.1656885	2.8575668
9.431270535955722	8.0395775	2.835415
9.448856924016539	7.9839234	2.8255837
9.466443535135806	7.8653345	2.8045204
9.484030369736251	7.850235	2.8018272
9.501617428240658	7.7988286	2.7926383
9.519204711071852	7.810841	2.7947881
9.536792218652714	7.800478	2.7929335
9.55437995140617	7.9065404	2.8118572
9.571967909755191	7.999427	2.8283257
9.589556094122802	8.076554	2.841928
9.60714450493207	8.110354	2.8478684
9.624733142606116	8.122917	2.850073
9.642322007568108	8.079566	2.8424578
9.659911100241267	8.024647	2.8327808
9.677500421048851	8.064645	2.8398318
9.695089970414175	8.099091	2.84589
9.712679748760609	8.162793	2.8570602
9.730269756511557	8.120081	2.8495755
9.747859994090492	8.154641	2.8556333
9.765450461920915	8.194518	2.8626068
9.78304116042639	8.291788	2.8795464
9.800632090030527	8.307695	2.8823073
9.81822325115699	8.430315	2.9035006
9.835814644229481	8.432685	2.9039085
9.853406269671762	8.465973	2.9096346
9.870998127907646	8.429752	2.9034035
9.888590219360985	8.442803	2.9056501
9.906182544455698	8.365028	2.892236
9.923775103615734	8.389565	2.8964746
9.941367897265108	8.449299	2.9067678
9.958960925827878	8.490695	2.9138796
9.97655418972816	8.536217	2.9216805
9.994147689390106	8.505998	2.9165044
10.011741425237934	8.473697	2.9109614
10.029335397695904	8.413768	2.9006495
10.04692960718833	8.412967	2.9005115
10.06452405413958	8.436419	2.9045513
10.082118738974064	8.492964	2.914269
10.099713662116246	8.539378	2.9222214
10.117308823990651	8.478845	2.9118457
10.134904225021844	8.397782	2.8978927
10.152499865634445	8.309412	2.882605
10.170095746253125	8.257431	2.8735745
10.18769186730261	8.231759	2.8691041
10.205288229207675	8.2923	2.8796353
10.222884832393145	8.338965	2.8877268
10.2404816772839	8.350588	2.8897383
10.258078764304868	8.309492	2.882619
10.275676093881035	8.243652	2.8711762
10.293273666437438	8.250387	2.8723488
10.310871482399158	8.3192425	2.8843098
10.32846954219134	8.33725	2.8874297
10.346067846239173	8.250616	2.8723886
10.363666394967908	8.234058	2.869505
10.38126518880283	8.230696	2.868919
10.398864228169298	8.294668	2.8800466
10.416463513492713	8.290245	2.8792787
10.434063045198531	8.226834	2.8682458
10.451662823712262	8.237784	2.8701541
10.469262849459467	8.261541	2.8742898
10.486863122865758	8.139322	2.8529499
10.504463644356806	8.142488	2.8535044
10.522064414358338	8.105149	2.8469543
10.539665433296118	8.104728	2.8468804
10.557266701595987	8.046781	2.8366847
10.574868219683818	7.9428506	2.8183064
10.592469987985552	7.840036	2.8000064
10.610072006927185	7.718785	2.77827
10.627674276934751	7.534288	2.7448657
10.64527679843435	7.3816113	2.716912
10.662879571852143	7.3276534	2.7069638
10.680482597614331	7.2238092	2.6877146
10.698085876147173	7.050537	2.6552846
10.715689407876988	6.9404335	2.6344702
10.733293193230146	6.8802147	2.6230164
10.750897232633072	6.8623643	2.6196115
10.76850152651225	6.859244	2.619016
10.786106075294207	6.713316	2.5910068
10.803710879405534	6.582829	2.5657024
10.821315939272877	6.4855313	2.5466707
10.83892125532294	6.486392	2.5468397
10.856526827982472	6.462462	2.5421374
10.874132657678285	6.4128485	2.5323603
10.891738744837243	6.3319874	2.516344
10.909345089886271	6.305971	2.5111692
10.926951693252343	6.2553635	2.5010724
10.944558555362494	6.1902504	2.4880214
10.96216567664381	6.1487293	2.4796631
10.979773057523436	6.0460057	2.4588628
10.997380698428573	5.971929	2.443753
11.014988599786477	5.8266387	2.4138432
11.032596762024461	5.759851	2.3999689
11.050205185569892	5.6972327	2.3868876
11.067813870850198	5.686125	2.3845596
11.085422818292859	5.614955	2.3695896
11.10303202832541	5.558105	2.3575633
11.120641501375454	5.43451	2.3312037
11.138251237870636	5.3740687	2.3182037
11.155861238238671	5.3080144	2.3039129
11.173471502907317	5.2269897	2.286261
11.191082032304402	5.179642	2.2758827
11.208692826857805	5.1540895	2.270262
11.226303886995465	5.0762367	2.2530506
11.243915213145371	5.025915	2.2418554
11.261526805735578	5.029609	2.242679
11.279138665194196	5.0087466	2.238023
11.296750791949393	4.9471407	2.224217
11.314363186429393	4.870869	2.2070045
11.331975849062479	4.8245482	2.1964855
11.34958878027699	4.7849507	2.187453
11.36720198050133	4.718012	2.1720984
11.384815450163948	4.641992	2.1545284
11.402429189693366	4.5340743	2.1293366
11.420043199518153	4.4524713	2.1100879
11.437657480066942	63.388977	7.9617195
11.455272031768422	85.1746	9.229009
11.472886855051353	107.63105	10.374538
11.490501950344528	99.21994	9.96092
11.508117318076819	84.52066	9.193512
11.52573295867715	45.926403	6.776902
11.543348872574514	4.219112	2.0540476
11.560965060197946	4.169748	2.041996
11.57858152197655	4.09328	2.0231855
11.59619825833949	4.0636077	2.015839
11.613815269715985	4.0372105	2.0092812
11.631432556535323	38.542168	6.208234
11.649050119226837	83.092026	9.115482
11.666667958219929	93.47741	9.668371
11.68428607394406	107.73225	10.379415
11.701904466828756	82.57219	9.086925
11.719523137303586	65.44147	8.08959
11.737142085798196	4.6738462	2.161908
11.754761312742286	3.7482233	1.9360329
11.772380818565619	3.7146404	1.9273403
11.790000603698015	3.6774871	1.9176775
11.80762066856935	3.643878	1.9088944
11.825241013609572	3.6196446	1.9025364
11.842861639248683	3.6030536	1.8981711
11.860482545916748	3.5611076	1.8870897
11.878103734043883	3.532759	1.8795635
11.895725204060282	3.45762	1.8594676
11.91334695639619	3.4541142	1.8585247
11.930968991481919	3.4332027	1.8528904
11.948591309747824	3.383365	1.8393925
11.966213911624347	3.333371	1.8257521
11.98383679754198	3.317967	1.8215288
12.001459967931268	3.3212543	1.8224308
12.019083423222835	3.3057928	1.8181839
12.036707163847352	3.2663405	1.807302
12.05433119023556	3.2369294	1.7991469
12.071955502818259	3.2318792	1.7977428
12.089580102026313	3.2452037	1.8014449
12.107204988290643	3.2361817	1.7989391
12.12483016204224	3.2171035	1.7936286
12.142455623712152	3.1918678	1.78658
12.16008137373149	3.1765623	1.7822913
12.177707412531431	3.1781073	1.7827246
12.19533374054321	3.1383824	1.771548
12.212960358198126	3.1069434	1.7626524
12.230587265927545	3.1144934	1.7647927
12.248214464162889	3.1485906	1.7744268
12.265841953335649	3.1446183	1.7733072
12.283469733877375	3.071914	1.7526877
12.301097806219685	3.0081291	1.7343959
12.31872617079425	3.0137286	1.7360094
12.336354828032825	3.0426798	1.7443279
12.353983778367205	3.040191	1.7436143
12.371613022229262	2.998346	1.7315733
12.389242560050928	2.9878163	1.72853
12.406872392264201	2.974658	1.7247196
12.424502519301143	2.9679494	1.7227738
12.442132941593874	2.920548	1.7089611
12.459763659574586	2.9164033	1.707748
12.477394673675532	2.928593	1.7113132
12.49502598432903	2.9379961	1.7140584
12.51265759196746	2.8944416	1.7013059
12.530289497023267	2.8443687	1.6865256
12.547921699928967	2.8098059	1.6762476
12.565554201117134	2.8188224	1.6789349
12.583187001020404	2.8157108	1.678008
12.600820100071486	2.8373866	1.6844544
12.618453498703152	2.8329124	1.6831259
12.636087197348235	2.8196588	1.679184
12.65372119643964	2.847733	1.6875228
12.671355496410326	2.877092	1.6961993
12.68899009769333	2.895844	1.701718
12.706625000721749	2.9000607	1.7029564
12.724260205928752	2.9339182	1.7128685
12.741895713747551	2.9621809	1.7210988
12.759531524611454	3.0217276	1.7383116
12.777167638953818	3.022756	1.7386075
12.794804057208072	3.095186	1.7593141
12.812440779807702	3.1452596	1.7734879
12.830077807186271	3.3342423	1.8259908
12.847715139777405	3.366155	1.8347085
12.865352778014795	3.5789795	1.8918191
12.882990722332197	3.6676397	1.9151083
12.90062897316344	3.747757	1.9359125
12.918267530942412	3.7931116	1.9475912
12.935906396103071	3.6629105	1.9138732
12.953545569079449	3.8314118	1.9573992
12.971185050305628	3.6218474	1.9031152
12.988824840215775	3.658061	1.9126058
13.006464939244115	3.663307	1.9139768
13.024105347824943	3.5398586	1.8814512
13.041746066392617	3.5821764	1.8926638
13.05938709538157	3.4181118	1.8488137
13.077028435226296	3.4782429	1.8650048
13.094670086361363	3.4046245	1.8451624
13.112312049221401	3.298709	1.8162348
13.129954324241112	3.160716	1.7778403
13.147596911855258	2.9387844	1.7142884
13.165239812498685	2.9120045	1.7064596
13.182883026606293	2.852929	1.6890616
13.200526554613058	2.775332	1.6659328
13.218170396954017	2.7432256	1.6562686
13.235814554064284	2.7149808	1.6477199
13.253459026379034	2.7130458	1.6471326
13.271103814333523	2.6952333	1.6417166
13.288748918363058	2.6746888	1.6354476
13.306394338903031	2.724419	1.6505815
13.32404007638889	2.7475011	1.6575588
13.341686131256164	2.756768	1.6603518
13.359332503940449	2.692312	1.6408266
13.376979194877402	2.6446207	1.6262289
13.394626204502751	2.6817634	1.637609
13.412273533252307	2.7339835	1.6534762
13.429921181561937	2.7755694	1.6660041
13.447569149867581	2.781651	1.6678282
13.465217438605247	2.7638175	1.6624733
13.482866048211022	2.715363	1.6478359
13.500514979121052	2.7149942	1.6477239
13.518164231771568	2.6755679	1.6357163
13.535813806598844	2.6619663	1.6315533
13.553463704039254	2.6871905	1.6392653
13.571113924529229	2.6913764	1.6405416
13.588764468505275	2.6990104	1.6428665
13.606415336403956	2.7074785	1.6454418
13.624066528661917	2.7477717	1.6576405
13.641718045715882	2.8101625	1.6763539
13.659369888002635	2.9109232	1.7061428
13.67702205595903	2.9826162	1.7270253
13.694674550021993	3.081535	1.7554302
13.712327370628532	3.0763578	1.7539549
13.729980518215713	3.191844	1.7865733
13.747633993220681	3.2631958	1.8064318
13.765287796080647	3.3472726	1.8295553
13.7829419272329	3.371396	1.8361362
13.800596387114801	3.3817346	1.8389493
13.818251176163775	3.4061146	1.8455662
13.835906294817324	3.462175	1.860692
13.853561743513023	3.4720342	1.8633395
13.871217522688525	3.5345845	1.8800491
13.888873632781538	3.5428023	1.8822334
13.906530074229858	3.5879862	1.8941981
13.92418684747135	3.583121	1.8929133
13.941843952943948	3.6054595	1.8988048
13.959501391085665	3.5816782	1.8925322
13.977159162334578	3.525953	1.8777522
13.994817267128846	3.4766676	1.8645824
14.012475705906693	3.3533516	1.8312159
14.030134479106424	3.2336774	1.7982428
14.047793587166414	3.1170115	1.765506
14.065453030525108	3.0917974	1.7583507
14.083112809621026	3.0612047	1.7496299
14.100772924892766	3.0350416	1.7421371
14.118433376778997	2.9783237	1.725782
14.136094165718458	2.8573506	1.69037
14.153755292149969	2.7930138	1.6712313
14.171416756512416	2.7336946	1.6533889
14.189078559244768	2.7198703	1.649203
14.20674070078606	2.6526692	1.6287017
14.224403181575408	2.5990193	1.6121475
14.242066002051999	2.5130007	1.5852447
14.259729162655093	2.4914255	1.578425
14.277392663824022	2.4840117	1.5760747
14.295056505998208	2.5372372	1.5928707
14.312720689617128	2.5352154	1.5922359
14.330385215120348	2.5046277	1.5826015
14.348050082947497	2.485376	1.5765074
14.3657152935383	2.4642875	1.5698049
14.383380847332528	2.477821	1.5741097
14.401046744770051	2.4307547	1.5590878
14.418712986290798	2.3642774	1.5376207
14.436379572334793	2.3512316	1.5333726
14.454046503342123	2.4103515	1.5525306
14.471713779752946	2.4396665	1.5619432
14.489381402007504	2.4318626	1.559443
14.507049370546113	2.4108186	1.5526811
14.524717685809168	2.4062502	1.5512093
14.542386348237134	2.4148207	1.5539694
14.560055358270553	2.4310951	1.559197
14.577724716350051	2.493598	1.579113
14.595394422916325	2.5312617	1.5909939
14.61306447841015	2.5498035	1.5968105
14.63073488327237	2.548132	1.5962869
14.648405637943917	2.5713427	1.6035407
14.6660767428658	2.5481706	1.596299
14.683748198479094	2.547942	1.5962274
14.701420005224954	2.578565	1.6057911
14.719092163544628	2.646574	1.6268294
14.73676467387942	2.6738982	1.6352059
14.754437536670727	2.681787	1.6376163
14.772110752360014	2.6857364	1.6388216
14.78978432138882	2.6575794	1.6302084
14.807458244198777	2.6395533	1.6246703
14.82513252123159	2.6423748	1.6255383
14.842807152929028	2.688067	1.6395326
14.860482139732962	2.6850867	1.6386235
14.87815748208531	2.6942928	1.6414301
14.8958331804281	2.7081053	1.6456321
14.91350923520342	2.702175	1.6438293
14.931185646853438	2.7301085	1.652304
14.948862415820408	2.71469	1.6476316
14.966539542546656	2.7679858	1.6637264
14.98421702747459	2.6833618	1.638097
15.001894871046696	2.667091	1.633123
15.019573073705542	2.6628766	1.6318322
15.037251635893766	2.680097	1.6371002
15.054930558054092	2.7057953	1.6449301
15.072609840629323	2.8059359	1.6750928
15.090289484062351	2.951223	1.7179123
15.107969488796124	3.2168162	1.7935485
15.125649855273691	3.5829637	1.8928719
15.14333058393817	4.0714297	2.0177784
15.161011675232768	5.034809	2.243838
15.17869312960076	6.351053	2.5201297
15.196374947485506	8.191584	2.8620942
15.214057129330447	11.409263	3.37776
15.231739675579114	16.269402	4.0335345
15.249422586675102	21.362848	4.621996
15.267105863062092	24.3985	4.9394836
15.284789505183847	24.624037	4.962261
15.302473513484218	22.4491	4.738048
15.320157888407127	18.928488	4.350688
15.337842630396578	14.755039	3.841229
15.355527739896656	11.517146	3.393692
15.37321321735153	8.948977	2.9914842
15.39089906320545	6.584489	2.566026
15.408585277902748	4.948651	2.2245562
15.42627186188783	3.8029637	1.9501189
15.443958815605198	3.2461011	1.8016939
15.461646139499424	2.9333832	1.7127123
15.479333834015168	2.7970042	1.6724247
15.497021899597165	2.749391	1.6581287
15.514710336690234	2.7110379	1.646523
15.53239914573928	2.691576	1.6406024
15.550088327189297	2.6550431	1.6294303
15.567777881485336	2.6067417	1.6145407
15.58546780907256	2.5536544	1.5980158
15.6031581103962	2.5042243	1.5824741
15.620848785901568	2.4566565	1.5673724
15.638539836034063	2.4364295	1.5609066
15.656231261239173	2.4216049	1.5561507
15.673923061962451	2.435132	1.560491
15.691615238649552	2.4526367	1.5660896
15.709307791746202	2.4475918	1.5644782
15.727000721698221	2.4166727	1.5545651
15.744694028951498	2.3806493	1.5429353
15.76238771395202	2.3494747	1.5327996
15.780081777145844	2.3530066	1.5339513
15.797776218979125	2.3751442	1.5411503
15.815471039898094	2.402191	1.5499003
15.833166240349064	2.4102762	1.5525064
15.850861820778437	2.445704	1.5638747
15.868557781632699	2.4439917	1.5633271
15.886254123358412	2.4186842	1.5552119
15.903950846402232	2.3870907	1.5450213
15.921647951210897	2.3807886	1.5429804
15.939345438231225	2.4213688	1.5560749
15.957043307910133	2.439889	1.5620143
15.974741560694602	2.4351823	1.560507
15.992440197031714	2.4469748	1.5642809
16.01013921736862	2.4695535	1.5714813
16.02783862215259	2.461486	1.5689124
16.045538411830933	2.4576442	1.5676875
16.06323858685107	2.4484432	1.5647502
16.080939147660512	2.4108307	1.552685
16.09864009470684	2.3739717	1.5407698
16.11634142843774	2.3587143	1.5358106
16.134043149300954	2.376943	1.5417337
16.15174525774433	2.4030485	1.550177
16.169447754215817	2.4116807	1.5529587
16.18715063916342	2.4322765	1.5595758
16.204853913035244	2.444153	1.5633787
16.222557576279478	2.4370322	1.5610996
16.240261629344403	22.409798	4.7338986
16.257966072678386	42.992264	6.5568485
16.275670906729868	38.14744	6.1763616
16.293376131947387	2.5650167	1.6015669
16.31108174877957	2.5480285	1.5962545
16.328787757675133	2.5471158	1.5959686
16.34649415908287	2.5971403	1.6115645
16.364200953451657	2.6550229	1.6294241
16.38190814123048	2.683738	1.6382118
16.39961572286839	2.7005916	1.6433476
16.41732369881455	2.7308605	1.6525315
16.43503206951817	2.780785	1.6675686
16.45274083542859	2.8201075	1.6793176
16.47044999699522	2.8965926	1.7019379
16.488159554667558	2.9336977	1.7128041
16.505869508895184	2.948452	1.7171057
16.523579860127786	2.9393063	1.7144405
16.541290608815117	2.9238424	1.7099247
16.559001755407035	2.9818165	1.7267938
16.57671330035348	3.0225184	1.7385391
16.59442524410448	3.137513	1.7713026
16.61213758711015	3.2225716	1.7951523
16.629850329820705	3.2859895	1.8127298
16.647563472686436	3.3476355	1.8296545
16.665277016157724	3.3758562	1.8373504
16.682990960685053	3.4331791	1.852884
16.70070530671898	3.4900913	1.8681786
16.718420054710155	3.548712	1.8838025
16.736135205109335	3.6154935	1.9014452
16.753850758367335	3.6801755	1.9183784
16.771566714935087	3.7566671	1.9382124
16.789283075263597	3.83284	1.957764
16.80699983980398	3.9175467	1.9792794
16.82471700900741	3.9410636	1.9852113
16.84243458332518	3.979647	1.9949052
16.860152563208665	4.040838	2.0101836
16.87787094910932	4.059228	2.0147526
16.89558974147871	4.1204367	2.0298858
16.913308940768466	4.191021	2.0471983
16.931028547430333	4.2888036	2.0709426
16.94874856191613	4.3733068	2.0912452
16.966468984677785	4.4577575	2.1113403
16.98418981616729	4.4673705	2.1136155
17.00191105683676	4.5236573	2.1268892
17.019632707138374	4.5456123	2.132044
17.03735476752442	4.600658	2.1449144
17.05507723844728	4.6668677	2.1602933
17.072800120359403	4.7249784	2.1737015
17.090523413713353	4.765461	2.1829937
17.108247118961785	4.775704	2.1853385
17.125971236557437	4.813599	2.1939917
17.143695766953133	4.786053	2.187705
17.161420710601806	4.7052336	2.1691551
17.179146067956477	4.697419	2.167353
17.19687183947025	4.690885	2.1658452
17.21459802559634	4.6831236	2.1640525
17.232324626788028	4.6580386	2.158249
17.25005164349871	4.731549	2.1752124
17.267779076181863	4.7845626	2.1873643
17.285506925291074	4.757527	2.1811755
17.30323519127999	4.6601825	2.1587455
17.320963874602384	4.66974	2.160958
17.33869297571211	4.6354437	2.153008
17.356422495063114	4.638496	2.1537168
17.37415243310944	4.6500044	2.1563869
17.391882790305218	4.6017585	2.145171
17.40961356710468	4.5674615	2.137162
17.42734476396215	4.53812	2.1302862
17.445076381332044	4.5437746	2.1316133
17.462808419668868	4.5997505	2.144703
17.48054087942723	4.7254405	2.1738079
17.498273761061835	5.0184855	2.2401977
17.51600706502747	5.556899	2.3573077
17.533740791779024	6.3618526	2.5222714
17.551474941771485	7.8733087	2.8059416
17.56920951545993	8.948603	2.9914215
17.586944513299528	11.151336	3.3393617
17.60467993574556	12.764608	3.5727592
17.622415783253373	14.414317	3.7966192
17.64015205627843	15.771875	3.9713821
17.657888755276293	16.859764	4.1060643
17.675625880702604	17.418139	4.1735044
17.69336343301311	17.264076	4.155006
17.71110141266366	16.50286	4.0623713
17.728839820110178	15.507447	3.9379497
17.746578655808705	14.545324	3.8138332
17.764317920215372	13.142349	3.6252377
17.7820576137864	11.577827	3.4026208
17.79979773697811	9.542025	3.0890167
17.81753829024692	7.6271086	2.761722
17.835279274049356	5.9479637	2.4388447
17.85302068884201	4.9212775	2.2183952
17.870762535081607	4.289107	2.0710158
17.888504813224934	3.960073	1.9899932
17.90624752372891	3.7602963	1.9391483
17.923990667050536	3.6707692	1.9159251
17.941734243646895	3.618601	1.9022621
17.959478253975185	3.5657697	1.8883246
17.9772226984927	3.4816878	1.8659282
17.994967577656833	3.4857574	1.8670183
18.01271289192506	3.472322	1.8634168
18.030458641754965	3.4500406	1.8574284
18.04820482760425	3.401102	1.8442078
18.06595144993067	3.3833508	1.8393887
18.083698509192125	3.3284357	1.8244001
18.101446005846576	3.2810545	1.8113681
18.119193940352105	3.2317104	1.7976959
18.136942313166887	3.2695956	1.8082023
18.1546911247492	3.2844982	1.8123184
18.1724403755574	3.2622821	1.8061789
18.19019006604997	3.2272716	1.7964609
18.207940196685467	3.156143	1.7765536
18.225690767922575	3.1310344	1.769473
18.243441780220046	3.1380398	1.7714514
18.261193234036764	3.1569467	1.7767799
18.278945129831676	3.1597948	1.7775812
18.29669746806386	3.0917165	1.7583277
18.314450249192483	3.0657637	1.7509322
18.3322034736768	3.0342348	1.7419055
18.349957141976184	3.0925527	1.7585655
18.3677112545501	3.1120732	1.7641069
18.385465811858108	3.0964577	1.7596755
18.403220814359884	3.0889702	1.7575467
18.420976262515172	3.0995283	1.7605478
18.43873215678387	3.155672	1.7764212
18.456488497625923	3.2060728	1.790551
18.474245285501407	3.2919316	1.8143681
18.492002520870486	3.3508108	1.830522
18.50976020419343	3.391516	1.8416069
18.527518335930615	3.6916773	1.9213738
18.545276916542516	4.3366027	2.082451
18.563035946489688	4.524761	2.1271486
18.580795426232832	4.974701	2.2304037
18.598555356232698	4.828361	2.1973531
18.616315736950185	5.1207895	2.262916
18.63407656884626	4.822943	2.19612
18.65183785238201	5.03743	2.244422
18.669599588018617	4.7745967	2.185085
18.68736177621737	4.7621994	2.1822464
18.705124417439652	4.7478213	2.1789496
18.72288751214696	4.5272317	2.1277292
18.740651060800886	4.630067	2.151759
18.758415063863115	4.313181	2.07682
18.77617952179546	4.539217	2.1305437
18.793944435059814	4.31653	2.077626
18.811709804118184	4.3620014	2.0885406
18.829475629432675	4.2890916	2.0710123
18.8472419114655	4.0869017	2.0216086
18.86500865067897	4.1870437	2.0462267
18.88277584753551	3.8399525	1.9595797
18.90054350249763	3.8464255	1.9612306
18.918311616027957	3.5308828	1.8790643
18.936080188589226	3.423916	1.8503827
18.953849220644265	3.1051803	1.7621522
18.971618712656007	2.8713763	1.6945136
18.9893886650875	2.774223	1.6656
19.007159078401887	7.9701023	2.823137
19.024929953062408	32.86833	5.7330904
19.042701289532435	32.870308	5.7332635
19.060473088275405	25.433554	5.043169
19.07824534975489	2.7255492	1.6509237
19.096018074434568	2.7044315	1.6445156
19.113791262778197	2.667966	1.6333909
19.13156491524966	2.6257198	1.6204073
19.149339032312945	2.6719508	1.6346103
19.167113614432136	2.7149992	1.6477255
19.184888662071433	2.726989	1.6513598
19.202664175695123	2.6841805	1.6383469
19.220440155767623	2.6394112	1.6246265
19.238216602753447	2.5983996	1.6119552
19.2559935171172	2.5744708	1.6045158
19.27377089932361	2.5750234	1.6046879
19.291548749837514	2.573104	1.6040897
19.309327069123835	2.5707912	1.6033688
19.32710585764763	2.5704305	1.6032562
19.344885115874032	2.5480056	1.5962473
19.362664844268313	2.5442708	1.595077
19.380445043295822	2.5412953	1.5941441
19.39822571342203	2.5452	1.5953684
19.41600685511252	2.5386882	1.5933261
19.43378846883297	2.530694	1.5908155
19.451570555049173	2.5206795	1.5876648
19.469353114227037	2.5173905	1.5866287
19.48713614683254	2.5059867	1.5830308
19.50491965333182	2.4818652	1.5753937
19.52270363419109	2.494058	1.5792587
19.540488089876686	2.548121	1.5962834
19.55827302085503	2.567708	1.602407
19.576058427592674	2.500947	1.5814383
19.593844310556282	2.4506767	1.5654638
19.611630670212598	2.4311419	1.559212
19.629417507028506	2.4535706	1.5663878
19.64720482147098	2.512153	1.5849773
19.6649926140071	2.5230718	1.588418
19.682780885104084	2.5129967	1.5852435
19.70056963522921	2.4649348	1.5700111
19.718358864849908	2.4676795	1.570885
19.7361485744337	2.5270448	1.5896682
19.753938764448215	2.5878181	1.6086696
19.771729435361202	2.5872626	1.608497
19.789520587640506	2.5921514	1.610016
19.807312221754092	2.5583827	1.5994946
19.825104338170043	2.560487	1.6001521
19.842896937356517	2.5688164	1.6027528
19.860690019781824	2.5477655	1.5961721
19.87848358591436	2.5505223	1.5970355
19.896277636222635	2.5627406	1.6008562
19.914072171175278	2.5994616	1.6122845
19.931867191241015	2.5670161	1.6021911
19.94966269688869	2.5421438	1.5944102
19.967458688587264	2.526964	1.5896428
19.985255166805807	2.5009625	1.5814432
20.00305213201348	2.4842393	1.576147
20.020849584679578	2.4625223	1.5692426
20.038647525273507	2.4719813	1.5722536
20.05644595426477	2.4666555	1.570559
20.07424487212299	2.4532042	1.5662708
20.092044279317903	2.431838	1.5594351
20.109844176319353	2.43165	1.5593748
20.127644563597304	2.4306695	1.5590605
20.145445441621817	2.4645784	1.5698975
20.16324681086307	2.446011	1.5639728
20.181048671791373	2.4284189	1.5583385
20.198851024877122	2.4325702	1.5596699
20.216653870590836	2.440805	1.5623076
20.234457209403146	2.4448767	1.5636102
20.252261041784802	2.4232273	1.5566719
20.270065368206662	2.3985512	1.5487257
20.287870189139685	2.4080005	1.5517733
20.305675505054968	2.432263	1.5595714
20.323481316423702	2.4590936	1.5681497
20.341287623717207	2.438689	1.5616302
20.359094427406884	2.3876166	1.5451914
20.376901727964288	2.3747835	1.5410333
20.39470952586107	2.3897989	1.5458975
20.41251782156899	2.416828	1.554615
20.430326615559935	2.4048858	1.5507694
20.448135908305886	2.371545	1.5399822
20.465945700278965	2.3696446	1.539365
20.483755991951384	2.3913245	1.5463908
20.50156678379548	2.3818376	1.5433203
20.519378076283708	2.344248	1.5310937
20.537189869888635	2.34186	1.5303137
20.55500216508294	2.345722	1.531575
20.572814962339415	2.32628	1.5252148
20.59062826213098	2.335917	1.5283707
20.60844206493066	2.352572	1.5338097
20.626256371211593	2.3511474	1.5333452
20.644071181447032	2.355053	1.5346181
20.66188649611036	2.3744445	1.5409232
20.67970231567506	2.3559241	1.534902
20.697518640614742	2.3741121	1.5408154
20.715335471403122	2.3606985	1.5364565
20.73315280851404	2.35716	1.5353045
20.750970652421447	2.3162107	1.5219102
20.768789003599412	2.2778885	1.5092676
20.786607862522136	2.270281	1.5067452
20.8044272296639	2.293006	1.5142674
20.82224710549913	2.3246026	1.5246648
20.84006749050237	2.326374	1.5252455
20.857888385148268	3.8801165	1.9698011
20.8757097899116	45.96903	6.7800465
20.893531705267254	64.84936	8.05291
20.911354131690224	83.87696	9.158437
20.92917706965566	69.11517	8.313554
20.94700051963877	50.13144	7.0803556
20.96482448211493	29.375896	5.4199533
20.982648957559622	4.1354733	2.0335863
21.00047394644843	2.287307	1.5123845
21.01829944925707	2.3029392	1.5175438
21.036125466461375	2.279104	1.5096701
21.053951998537297	2.2855663	1.511809
21.071779045960906	2.295052	1.5149429
21.089606609208378	2.3005965	1.5167717
21.10743468875603	2.29603	1.5152657
21.12526328508028	2.2997532	1.5164937
21.143092398657675	2.2864568	1.5121034
21.16092202996488	2.230733	1.4935639
21.17875217947867	2.199164	1.4829578
21.19658284767596	2.1772254	1.4755424
21.21441403503377	2.1961684	1.4819475
21.232245742029225	2.2443879	1.4981282
21.2500779691396	2.2455173	1.498505
21.26791071684227	2.236156	1.4953783
21.28574398561475	2.2278917	1.4926124
21.30357777593465	2.2365284	1.4955027
21.321412088279704	2.2193696	1.4897549
21.339246923127792	2.1734588	1.4742656
21.357082280956888	2.1832573	1.477585
21.3749181622451	2.2229853	1.4909679
21.392754567470647	2.1828783	1.4774567
21.41059149711187	2.1458063	1.4648571
21.42842895164726	2.1224134	1.4568505
21.446266931555378	2.116721	1.4548955
21.464105437314945	2.102378	1.4499578
21.481944469404798	2.124698	1.4576343
21.49978402830388	2.1369207	1.461821
21.51762411449127	2.1295724	1.4593054
21.53546472844617	2.1410592	1.4632359
21.553305870647876	2.1329408	1.4604591
21.571147541575865	2.1322162	1.460211
21.58898974170967	2.1278832	1.4587265
21.60683247152899	2.1303787	1.4595817
21.62467573151363	2.1174543	1.4551475
21.642519522143523	2.1118755	1.4532293
21.660363843898722	2.0775704	1.441378
21.6782086972594	2.0680645	1.4380766
21.696054082705864	2.0567114	1.4341239
21.713900000718535	2.050889	1.4320925
21.73174645177795	2.0525832	1.432684
21.749593436364794	2.0475948	1.4309419
21.767440954959845	2.0150917	1.4195392
21.785289008044032	2.0043309	1.415744
21.803137596098388	2.0112083	1.4181708
21.820986719604086	2.0176837	1.420452
21.838836379042412	2.0292904	1.4245317
21.85668657489478	2.0531795	1.432892
21.87453730764273	2.0806077	1.4424312
21.892388577767914	2.060023	1.435278
21.91024038575213	2.035027	1.4265437
21.928092732077285	1.9994677	1.4140253
21.945945617225426	2.0251112	1.423064
21.963799041678694	2.0496988	1.431677
21.981653005919398	31.392727	5.6029215
21.999507510429943	78.15657	8.84062
22.01736255569286	73.085976	8.549033
22.035218142190818	4.201532	2.049764
22.05307427040661	2.0165412	1.4200498
22.07093094082315	1.9961808	1.4128627
22.088788153923474	1.9815421	1.4076726
22.106645910190746	2.002319	1.4150332
22.12450421010827	2.005887	1.4162934
22.142363054159464	2.0340974	1.4262179
22.16022244282787	2.022868	1.4222757
22.178082376597164	1.9791826	1.4068342
22.195942855951145	1.972286	1.404381
22.213803881373742	1.9660826	1.4021707
22.231665453349002	1.9930968	1.4117708
22.24952757236111	2.0405333	1.4284724
22.26739023889438	2.0561976	1.4339448
22.28525345343323	2.025917	1.4233471
22.30311721646225	1.9809191	1.4074513
22.320981528466113	1.9477092	1.3956035
22.33884638992964	1.9248134	1.3873764
22.356711801337788	1.909581	1.3818759
22.37457776317561	1.9556963	1.3984622
22.392444275928337	2.002681	1.4151611
22.410311340081282	2.0079608	1.4170253
22.428178956119904	2.0051937	1.4160486
22.446047124529805	1.9980689	1.4135307
22.46391584579669	1.9768406	1.4060017
22.481785120406414	1.9560032	1.3985718
22.49965494884496	1.9237672	1.3869994
22.51752533159841	1.9278512	1.3884708
22.53539626915302	1.9568192	1.3988636
22.553267761995137	1.9657264	1.4020437
22.571139810611264	1.9826288	1.4080585
22.589012415488025	1.9536363	1.3977253
22.60688557711216	1.9767797	1.40598
22.624759295970566	2.0083516	1.4171633
22.642633572550263	2.020101	1.4213026
22.660508407338362	2.0360665	1.426908
22.67838380082217	2.0116563	1.4183286
22.696259753489077	1.9953932	1.4125838
22.714136265826614	1.9747293	1.4052507
22.73201333832246	1.992543	1.4115746
22.74989097146439	1.9927574	1.4116507
22.76776916574035	1.9901726	1.4107348
22.785647921638393	1.9410415	1.3932127
22.803527239646712	1.9848316	1.4088405
22.82140712025363	1.9584715	1.399454
22.839287563947593	1.939893	1.3928005
22.85716857121719	1.8664119	1.3661668
22.875050142551135	1.8456513	1.3585474
22.892932278438277	1.8716718	1.3680905
22.910814979367604	1.9067984	1.3808687
22.928698245828222	1.9412851	1.3933
22.946582078309387	1.9683473	1.4029781
22.96446647730047	1.9989734	1.4138505
22.98235144329098	1.9843442	1.4086676
23.000236976770562	1.9182044	1.3849926
23.018123078229	1.8965358	1.3771477
23.03600974815619	1.8916241	1.3753632
23.053896987042194	1.9437546	1.394186
23.071784795377173	1.9362015	1.3914746
23.08967317365145	1.9603779	1.4001349
23.10756212235546	1.952355	1.397267
23.125451641979787	1.9317114	1.3898603
23.143341733015134	1.9026706	1.3793733
23.161232395952357	1.899254	1.3781343
23.179123631282426	1.9435774	1.3941225
23.197015439496468	1.9711667	1.4039824
23.214907821085717	1.974357	1.4051181
23.23280077654157	1.9287149	1.3887818
23.250694306355538	1.9102955	1.3821344
23.268588411019277	1.9271903	1.3882328
23.28648309102458	1.9861903	1.4093226
23.304378346863356	2.005468	1.4161454
23.322274179027676	1.9773337	1.4061769
23.340170588009723	1.9653474	1.4019085
23.358067574301852	1.9572529	1.3990185
23.37596513839651	1.94944	1.3962234
23.39386328078629	1.9512821	1.396883
23.411762001963947	1.9627163	1.4009697
23.429661302422353	1.9955199	1.4126288
23.4475611826545	1.9911199	1.4110705
23.46546164315356	1.9689224	1.403183
23.48336268441279	1.9530916	1.3975306
23.501264306925638	1.9439099	1.3942417
23.51916651118564	1.980401	1.4072672
23.537069297686497	1.9793378	1.4068894
23.554972666922037	2.0088756	1.4173481
23.57287661938623	2.0306914	1.4250233
23.59078115557318	2.0046835	1.4158684
23.608686275977128	1.9937899	1.4120163
23.62659198109246	1.9618353	1.4006553
23.6444982714137	1.9651582	1.401841
23.66240514743549	1.9152275	1.3839175
23.68031260965263	1.9412153	1.393275
23.698220658560068	1.9462227	1.3950708
23.716129294652845	1.9417808	1.3934779
23.7340385184262	1.9323967	1.3901067
23.75194833037546	1.8920094	1.3755033
23.769858730996123	1.8808335	1.3714348
23.78776972078382	1.8968135	1.3772485
23.80568130023431	1.93454	1.3908775
23.823593469843495	1.914518	1.383661
23.841506230107424	1.9098481	1.3819726
23.859419581522275	1.8822743	1.37196
23.87733352458438	1.900073	1.3784313
23.89524805979019	1.8870114	1.3736854
23.913163187636318	1.8878586	1.3739936
23.931078908619508	1.9139841	1.3834682
23.948995223236633	1.9582026	1.3993579
23.966912131984735	1.9424784	1.3937283
23.98482963536096	1.9864044	1.4093986
24.002747733862616	2.0348957	1.4264977
24.020666427987155	2.0954883	1.4475801
24.038585718232156	2.123119	1.4570926
24.056505605095353	2.089844	1.4456292
24.074426089074617	2.0639462	1.4366441
24.092347170667946	2.0546157	1.4333931
24.110268850373515	2.06246	1.4361267
24.128191128689586	2.095724	1.4476616
24.146114006114626	2.1083047	1.4520003
24.164037483147187	2.0801365	1.4422679
24.181961560286005	2.0316	1.4253421
24.199886238029926	2.0253863	1.4231607
24.21781151687797	2.1051996	1.4509306
24.235737397329274	2.1166556	1.4548731
24.253663879883135	2.0705342	1.4389352
24.271590965038975	2.0198903	1.4212284
24.289518653296376	2.0397794	1.4282085
24.30744694515505	2.0497618	1.4316989
24.32537584111486	2.0841255	1.4436501
24.34330534167581	2.0776427	1.441403
24.361235447338046	2.132479	1.4603009
24.379166158601876	2.0895982	1.4455442
24.39709747596772	2.0608668	1.4355719
24.41502939993615	2.0329716	1.4258231
24.432961931007917	1.9975805	1.4133579
24.450895069683856	1.9880363	1.4099774
24.468828816465	1.9859477	1.4092366
24.4867631718525	1.9980143	1.4135114
24.504698136347656	2.0169508	1.4201939
24.52263371045192	2.0388677	1.4278892
24.540569894666874	2.0034885	1.4154464
24.558506689494266	1.9687535	1.4031228
24.57644409543597	1.964355	1.4015545
24.594382112994012	1.9765226	1.4058886
24.61232074267057	1.9725647	1.4044802
24.630259984967953	1.9809514	1.4074627
24.64819984038863	1.9242954	1.3871897
24.66614030943522	1.9331807	1.3903887
24.684081392610462	1.9298409	1.3891871
24.702023090417274	1.9244871	1.3872589
24.7199654033587	1.9519131	1.3971088
24.737908331937927	1.9878929	1.4099265
24.755851876658305	2.0265477	1.4235686
24.773796038023324	2.052972	1.4328196
24.79174081653661	2.1048572	1.4508126
24.809686212701962	2.107006	1.451553
24.827632227023294	2.0861228	1.4443417
24.8455788600047	2.0925965	1.446581
24.8635261121504	2.1076694	1.4517814
24.88147398396475	2.128724	1.4590148
24.899422475952303	2.1326122	1.4603466
24.917371588617698	2.1248376	1.4576823
24.935321322465768	2.1382787	1.4622854
24.953271678001478	2.2338343	1.4946017
24.97122265572994	2.4488828	1.5648906
24.989174256156414	2.8087313	1.675927
25.00712647978632	3.2976637	1.815947
25.02507932712521	3.812027	1.9524413
25.043032798678798	4.3175244	2.0778654
25.060986894952933	4.9950123	2.2349524
25.078941616453637	5.754788	2.3989139
25.096896963687055	6.7450194	2.5971174
25.114852937159508	7.884827	2.8079934
25.132809537377444	8.346245	2.8889868
25.150766764847468	8.333925	2.886854
25.168724620076347	7.8218236	2.7967522
25.186683103570985	6.7799525	2.6038342
25.204642215838426	5.565892	2.3592143
25.222601957385894	4.186044	2.0459824
25.24056232872074	3.2427056	1.8007514
25.25852333035048	2.6679218	1.6333774
25.276484962782778	2.3063514	1.5186677
25.294447226525435	2.0929394	1.4466995
25.312410122086423	2.063041	1.436329
25.330373649973843	2.0197315	1.4211726
25.348337810695988	1.9888163	1.410254
25.366302604761245	1.9668875	1.4024577
25.384268032678207	1.9838308	1.4084853
25.40223409495558	1.9511241	1.3968264
25.420200792102257	1.9471159	1.395391
25.438168124627246	1.9253681	1.3875763
25.45613609303974	1.8925056	1.3756837
25.474104697849057	1.8634931	1.3650982
25.492073939564698	1.8529081	1.3612157
25.510043818696285	1.8806353	1.3713626
25.528014335753614	1.8801316	1.3711789
25.54598549124664	1.8615844	1.364399
25.56395728568544	1.8593577	1.3635827
25.58192971958028	1.9099616	1.3820136
25.59990279344156	1.9267865	1.3880874
25.617876507779833	1.8680136	1.366753
25.635850863105826	1.778138	1.3334684
25.653825859930386	1.7119645	1.3084207
25.671801498764548	1.7476013	1.3219687
25.68977778011949	1.8150425	1.3472351
25.707754704506524	1.869255	1.3672069
25.725732272437153	1.8500987	1.3601834
25.743710484423012	1.8137478	1.3467546
25.761689340975888	1.8548878	1.3619426
25.77966884260774	1.904588	1.3800681
25.797648989830662	1.9373271	1.391879
25.815629783156922	1.9251736	1.3875062
25.83361122309895	1.9298835	1.3892025
25.85159331016929	1.9439683	1.3942627
25.869576044880695	1.9014207	1.3789201
25.887559427746034	1.9084471	1.3814656
25.90554345927836	1.9101989	1.3820995
25.92352813999086	1.9275532	1.3883635
25.94151347039689	1.9085602	1.3815064
25.959499451009965	1.8516061	1.3607373
25.97748608234374	1.8225368	1.3500136
25.995473364912062	1.8251563	1.3509835
26.013461299228904	1.8641726	1.365347
26.03144988580839	1.8637861	1.3652055
26.04943912516483	1.8716747	1.3680916
26.067429017812675	1.8532978	1.3613588
26.085419564266537	1.8807698	1.3714117
26.103410765041186	1.8843914	1.3727313
26.12140262065155	1.8838348	1.3725287
26.139395131612723	1.8271866	1.3517346
26.157388298439948	1.7739581	1.3319001
26.17538212164861	1.774968	1.3322792
26.193376601754295	1.794483	1.3395832
26.211371739272714	1.8204523	1.3492414
26.229367534719746	1.8481766	1.3594766
26.247363988611433	1.868198	1.3668205
26.26536110146397	1.8639957	1.3652823
26.283358873793727	1.8496794	1.3600292
26.301357306117204	1.8366559	1.3552327
26.319356398951104	1.842164	1.3572634
26.33735615281224	1.8484336	1.3595711
26.35535656821762	1.8924567	1.3756659
26.373357645684404	1.8531362	1.3612994
26.39135938572991	1.8345512	1.3544561
26.409361788871614	1.8290774	1.3524339
26.427364855627165	1.8459044	1.3586407
26.445368586514352	1.8671952	1.3664535
26.46337298205115	1.8695941	1.367331
26.48137804275568	1.879104	1.3708042
26.499383769146217	1.9014611	1.3789347
26.517390161741215	1.8971251	1.3773617
26.53539722105928	1.8767917	1.3699604
26.553404947619182	1.8775063	1.3702213
26.571413341939856	1.8644286	1.3654408
26.589422404540397	1.8532333	1.3613352
26.60743213594006	1.8663732	1.3661526
26.62544253665827	1.8538803	1.3615727
26.64345360721459	1.8330777	1.353912
26.66146534812879	1.8420309	1.3572143
26.679477759920758	1.8580018	1.3630854
26.69749084311057	1.8530468	1.3612666
26.71550459821847	1.8480982	1.3594477
26.733519025764842	1.8317516	1.3534222
26.751534126270258	1.8505399	1.3603455
26.769549900255434	1.8273449	1.3517932
26.787566348241267	1.7857926	1.3363355
26.80558347074881	1.7902439	1.3379999
26.823601268299267	1.8162109	1.3476686
26.841619741414036	1.8511667	1.3605759
26.85963889061465	1.8395487	1.3562996
26.877658716422832	1.8300109	1.3527789
26.89567921936045	1.8632276	1.365001
26.913700399949544	1.8596689	1.3636968
26.93172225871233	1.8441331	1.3579886
26.949744796171174	1.8984312	1.3778356
26.967768012848605	1.9359673	1.3913904
26.98579190926733	1.9198815	1.3855978
27.003816485950225	1.8696326	1.3673451
27.021841743420318	1.8423219	1.3573216
27.039867682200814	1.8543794	1.361756
27.057894302815072	1.8701649	1.3675398
27.07592160578664	1.8549844	1.3619782
27.0939495916392	1.8628873	1.3648763
27.111978260896635	1.8778021	1.3703293
27.13000761408296	1.8672211	1.366463
27.148037651722397	1.840739	1.3567383
27.166068374339304	1.8297298	1.3526751
27.184099782458215	1.8185165	1.3485239
27.20213187660384	1.8434983	1.357755
27.22016465730105	1.8502947	1.3602554
27.23819812507487	1.8305339	1.3529723
27.256232280450533	1.8004268	1.3417999
27.274267123953383	1.817859	1.3482801
27.292302656108987	1.8591933	1.3635224
27.31033887744306	1.8741107	1.3689816
27.32837578848146	1.8159854	1.3475851
27.34641338975026	1.8178061	1.3482604
27.364451681775673	1.8227818	1.3501043
27.382490665084074	1.8294761	1.3525813
27.400530340202046	1.8368676	1.3553109
27.41857070765629	1.7930104	1.3390334
27.436611767973726	1.8012047	1.3420897
27.454653521681404	1.8696467	1.3673502
27.472695969306564	1.8881671	1.3741059
27.490739111376627	1.8972149	1.3773942
27.508782948419153	1.8768845	1.3699943
27.526827480961902	1.8420602	1.3572252
27.54487270953279	1.8303504	1.3529044
27.562918634659898	1.798288	1.3410026
27.580965256871508	1.8076277	1.3444804
27.599012576696026	1.8484255	1.3595681
27.617060594662068	1.8523315	1.3610039
27.63510931129842	1.8359616	1.3549767
27.65315872713401	1.859052	1.3634706
27.67120884269797	1.8691101	1.367154
27.68925965851958	1.9239496	1.387065
27.707311175128307	1.948437	1.3958642
27.725363393053787	1.9251682	1.3875043
27.74341631282583	1.8969239	1.3772886
27.7614699349744	1.8869599	1.3736666
27.77952426002968	2.0871906	1.4447112
27.797579288521973	2.1532202	1.4673855
27.815635020981784	2.5582435	1.599451
27.83369145793979	2.5819547	1.6068462
27.85174859992682	2.4281495	1.5582521
27.869806447473923	2.322454	1.52396
27.887865001112267	2.0343196	1.4262958
27.905924261373233	1.9446268	1.3944988
27.92398422878836	1.8970058	1.3773184
27.94204490388936	1.877465	1.3702062
27.96010628720813	1.8600142	1.3638234
27.978168379276728	1.8402036	1.356541
27.9962311806274	1.8481723	1.359475
28.014294691792568	1.8985639	1.3778838
28.0323589133048	1.9495243	1.3962537
28.050423845696887	1.992047	1.4113989
28.068489489501758	1.9785703	1.4066167
28.086555845252523	1.9693285	1.4033277
28.104622913482487	1.9354534	1.3912058
28.122690694725115	1.9079499	1.3812855
28.14075918951405	1.8953116	1.3767031
28.15882839838312	1.888117	1.3740877
28.176898321866304	1.883344	1.3723499
28.1949689604978	1.9205539	1.3858405
28.213040314811945	1.9281489	1.388578
28.23111238534327	1.9200509	1.385659
28.249185172626493	1.9117285	1.3826528
28.267258677196473	1.885498	1.3731344
28.285332899588294	1.9140561	1.3834941
28.303407840337172	1.9204099	1.3857886
28.321483499978545	1.8940017	1.3762274
28.33955987904799	1.8692055	1.3671889
28.357636978081285	1.8907443	1.3750434
28.37571479761439	1.9071279	1.380988
28.393793338183425	1.9281752	1.3885875
28.41187260032469	1.9390255	1.392489
28.429952584574686	1.9631795	1.4011351
28.448033291470065	1.976157	1.4057585
28.46611472154769	1.939821	1.3927746
28.484196875344566	1.9805676	1.4073263
28.502279753397914	2.0253372	1.4231434
28.52036335624511	1.9844846	1.4087174
28.538447684423716	1.9714924	1.4040984
28.556532738471482	2.0122738	1.4185463
28.574618518926325	2.0582302	1.4346533
28.59270502632635	2.0624142	1.4361107
28.61079226120985	2.0735028	1.4399662
28.628880224115274	2.0615203	1.4357996
28.646968915581287	2.0848382	1.4438969
28.66505833614671	2.090994	1.4460269
28.68314848635055	2.0858207	1.4442371
28.701239366732004	2.0503876	1.4319174
28.71933097783044	2.0680208	1.4380615
28.737423320185403	2.045812	1.4303188
28.75551639433665	2.0589797	1.4349146
28.773610200824074	2.1278946	1.4587305
28.791704740187793	2.267044	1.5056707
28.80980001296809	2.3169334	1.5221477
28.827896019705413	2.2784522	1.5094543
28.845992760940433	2.2520387	1.5006794
28.86409023721397	2.235389	1.4951217
28.88218844906704	2.2344198	1.4947976
28.900287397040845	2.232253	1.4940727
28.918387081676755	2.2730625	1.5076679
28.936487503516343	2.3188224	1.522768
28.954588663101365	2.3321936	1.5271522
28.97269056097374	2.2984767	1.5160728
28.990793197675597	2.3430128	1.5306903
29.00889657374923	2.3823905	1.5434995
29.027000689737125	2.3949955	1.5475773
29.04510554618196	2.428872	1.558484
29.06321114362659	2.4790428	1.5744976
29.08131748261405	2.456235	1.567238
29.099424563687567	2.4643016	1.5698094
29.11753238739057	2.5646966	1.601467
29.13564095426663	2.6086707	1.6151379
29.15375026485954	2.6405559	1.6249788
29.171860319713275	2.626069	1.6205151
29.18997111937199	2.6570945	1.6300596
29.20808266438002	2.7506425	1.6585062
29.226194955281898	2.7801147	1.6673676
29.244307992622335	2.788767	1.6699603
29.26242177694624	2.8188682	1.6789485
29.2805363087987	2.8762472	1.6959503
29.29865158872498	2.917124	1.707959
29.316767617270557	2.9025507	1.7036874
29.334884394981064	2.8965032	1.7019117
29.353001922402367	2.9743667	1.7246352
29.37112020008047	3.1321478	1.7697875
29.389239228561596	3.3227966	1.8228539
29.407359008392152	3.481618	1.8659095
29.42547954011872	3.7881804	1.9463248
29.44360082428809	4.3053594	2.074936
29.46172286144722	5.3488336	2.3127546
29.479845652143283	6.831296	2.6136749
29.497969196923606	8.88495	2.9807632
29.516093496335728	11.53534	3.3963716
29.5342185509274	14.472438	3.8042657
29.55234436124651	16.633518	4.078421
29.570470927841175	17.744032	4.2123666
29.588598251259686	17.343435	4.164545
29.60672633205055	16.010283	4.001285
29.624855170762405	14.036738	3.7465634
29.642984767944146	11.50425	3.3917916
29.66111512414481	8.912069	2.985309
29.67924623991366	6.624748	2.5738587
29.697378115800138	5.019448	2.2404125
29.71551075235387	4.0964885	2.0239785
29.733644150124675	3.6605399	1.9132538
29.751778309662576	3.5229013	1.8769393
29.769913231517766	3.5066438	1.8726034
29.78804891624066	3.4077923	1.8460207
29.806185364381818	3.261571	1.805982
29.82432257649206	3.3002381	1.8166558
29.842460553122333	3.3393087	1.8273776
29.86059929482382	3.3351862	1.8262492
29.878738802147872	3.3133953	1.8202734
29.896879075646048	3.318455	1.8216627
29.915020115870114	3.2715113	1.8087319
29.933161923371976	3.24318	1.8008832
29.951304498703777	3.2832527	1.8119748
29.969447842417857	3.3047583	1.8178995
29.987591955066733	3.241203	1.8003341
30.005736837203123	3.1522849	1.7754675
30.023882489379943	3.1484284	1.7743812
30.04202891215028	3.1977594	1.788228
30.060176106067455	3.244948	1.8013738
30.078324071684946	3.209093	1.7913942
30.09647280955646	3.1530955	1.7756958
30.114622320235863	3.1324835	1.7698823
30.132772604277257	3.1691375	1.7802072
30.1509236622349	3.164772	1.7789806
30.16907549466328	3.1612015	1.7779768
30.18722810211705	3.1759124	1.782109
30.205381485151097	3.1084256	1.7630727
30.22353564432045	3.10962	1.7634115
30.241690580180403	3.13889	1.7716913
30.25984629328638	3.144415	1.7732499
30.278002784194037	3.1309564	1.7694509
30.296160053459246	3.0793295	1.7548019
30.314318101638033	3.0144718	1.7362235
30.332476929286646	2.9263647	1.710662
30.35063653696153	2.8717356	1.6946195
30.368796925219307	2.8874242	1.6992422
30.386958094616844	2.9516127	1.7180258
30.40512004571115	2.9659574	1.7221955
30.423282779059463	2.9451642	1.716148
30.441446295219233	2.9608636	1.720716
30.459610594748067	2.881804	1.6975877
30.47777567820382	2.8458738	1.6869718
30.495941546144504	2.8591104	1.6908904
30.51410819912835	2.8585067	1.6907119
30.532275637713795	2.8724713	1.6948366
30.55044386245946	2.854062	1.689397
30.56861287392416	2.7741904	1.6655902
30.586782672666956	2.7792218	1.6670998
30.604953259247047	2.8865733	1.6989919
30.623124634223885	2.8211997	1.6796427
30.641296798157075	2.754724	1.6597362
30.659469751606462	2.7919874	1.6709241
30.677643495132074	2.8036215	1.6744019
30.695818029294152	2.7789807	1.6670275
30.713993354653116	2.7454774	1.6569482
30.73216947176962	2.73268	1.653082
30.75034638120448	2.7627566	1.6621542
30.768524083518756	2.8127866	1.6771364
30.786702579273673	2.7793875	1.6671495
30.80488186903069	2.7723277	1.6650308
30.82306195335144	2.9160554	1.7076461
30.841242832797782	3.1329644	1.7700182
30.85942450793176	3.3666687	1.8348484
30.877606979315637	3.7246773	1.9299424
30.895790247511883	4.0907345	2.0225563
30.913974313083134	4.5216336	2.1264133
30.932159176592283	4.806464	2.192365
30.95034483860237	4.870554	2.2069333
30.968531299676698	4.7512245	2.1797304
30.98671856037873	4.4776735	2.1160514
31.00490662127215	4.016113	2.0040243
31.023095482920848	3.541973	1.8820131
31.04128514588892	3.115989	1.7652164
31.059475610740662	2.777139	1.666475
31.07766687804056	2.5603662	1.6001145
31.09585894835335	2.470136	1.5716666
31.11405182224393	2.4515278	1.5657356
31.132245500277417	2.453451	1.5663495
31.15043998301914	2.4723563	1.5723728
31.168635271034628	2.5132098	1.5853107
31.18683136488964	2.5245373	1.5888792
31.20502826515008	2.4696953	1.5715264
31.223225972382135	2.43008	1.5588714
31.241424487152155	2.4015348	1.5496886
31.259623810026692	2.391956	1.546595
31.27782394157253	2.4306233	1.5590457
31.296024882356644	2.5128603	1.5852004
31.314226632946237	2.5255768	1.5892063
31.332429193908684	2.4971383	1.5802336
31.350632565811598	2.503347	1.5821968
31.368836749222787	2.5499828	1.5968666
31.387041744710295	2.5658996	1.6018425
31.40524755284232	2.5685065	1.6026561
31.423454174187317	2.577646	1.6055049
31.441661609313922	2.5258825	1.5893025
31.459869858791002	2.5187051	1.5870429
31.478078923187628	2.4916768	1.5785046
31.496288803073064	2.419986	1.5556304
31.514499499016807	2.4165983	1.5545412
31.532711011588546	2.3866143	1.544867
31.550923341358178	2.3531034	1.5339829
31.56913648889584	2.3558462	1.5348766
31.587350454771844	2.3846042	1.5442164
31.605565239556732	2.362024	1.5368878
31.62378084382127	2.318504	1.5226635
31.641997268136382	2.251885	1.5006282
31.660214513073274	2.2460692	1.4986892
31.67843257920331	2.3015952	1.5171009
31.6966514670981	2.3515913	1.53349
31.71487117732944	2.3601117	1.5362655
31.733091710469346	2.45023	1.565321
31.751313067090052	2.4521494	1.5659341
31.769535247764008	2.3758528	1.5413802
31.787758253063878	2.312176	1.5205841
31.805982083562526	2.2837982	1.511224
31.824206739833024	2.2592976	1.503096
31.84243222244869	2.2074032	1.4857333
31.860658531983013	2.200763	1.4834969
31.878885669009737	2.2626107	1.5041977
31.897113634102784	2.2618194	1.5039346
31.91534242783632	2.3024774	1.5173917
31.933572050784694	2.3367755	1.5286516
31.951802503522508	2.2946324	1.5148044
31.970033786624548	2.290981	1.5135987
31.988265900665834	2.2565367	1.5021774
32.006498846221575	2.2027621	1.4841706
32.02473262386724	2.1531856	1.4673737
32.04296723417845	2.1507132	1.466531
32.0612026777311	2.131737	1.4600469
32.07943895510129	2.2051508	1.484975
32.097676066865304	2.2695203	1.5064927
32.115914013599685	2.2627451	1.5042424
32.13415279588115	2.2467072	1.498902
32.152392414286666	2.1705415	1.4732758
32.1706328693934	2.1581006	1.4690475
32.18887416177875	2.0984914	1.4486171
32.20711629202032	2.159824	1.4696339
32.225359260695924	2.1584888	1.4691796
32.243603068383614	2.1064603	1.451365
32.26184771566166	2.090373	1.4458122
32.28009320310852	2.0733523	1.439914
32.2983395313029	2.119337	1.4557943
32.31658670082372	2.184476	1.4779973
32.33483471225012	2.2153637	1.4884098
32.35308356616143	2.1533961	1.4674455
32.371333263137245	2.148658	1.4658302
32.38958380375734	2.1098526	1.4525331
32.407835188601744	2.1053371	1.450978
32.42608741825067	2.1336713	1.4607092
32.444340493284585	2.144302	1.4643435
32.46259441428416	2.078376	1.4416574
32.48084918183028	2.0952961	1.4475138
32.49910479650405	2.0417202	1.4288877
32.51736125888683	1.9735315	1.4048244
32.53561856956014	2.0692465	1.4384875
32.5538767291058	2.1371005	1.4618825
32.572135738105764	2.0943956	1.4472027
32.59039559714228	2.0352364	1.4266171
32.608656306797776	2.065078	1.437038
32.62691786765491	2.1449716	1.4645722
32.645180280296586	2.2162378	1.4887034
32.663443545305896	2.1885397	1.4793714
32.68170766326619	2.080348	1.4423412
32.69997263476099	2.0016396	1.4147931
32.7182384603741	1.9586269	1.3995095
32.7365051406895	2.006839	1.4166294
32.75477267629144	2.0361333	1.4269314
32.77304106776434	2.0524006	1.4326202
32.79131031569289	2.0819626	1.4429008
32.809580420661966	2.035616	1.4267502
32.827851383256714	1.9750372	1.4053602
32.84612320406245	1.9853737	1.409033
32.86439588366476	2.040134	1.4283326
32.88266942264945	2.0840816	1.4436349
32.9009438216025	1.9366049	1.3916196
32.9192190811102	1.9030154	1.3794982
32.937495201758985	1.8860745	1.3733443
32.95577218413556	1.9158095	1.3841277
32.974050028826866	1.9173685	1.3846908
32.992328736420035	1.9687881	1.4031351
33.010608307502444	1.9959332	1.412775
33.02888874266169	1.9933863	1.4118733
33.047170042485604	1.9969486	1.4131343
33.06545220756225	2.0068457	1.4166318
33.083735238479896	2.0475843	1.4309382
33.10201913582707	2.0431504	1.4293882
33.12030390019248	1.9856203	1.4091204
33.138589532165135	1.9734644	1.4048004
33.15687603233419	1.9893687	1.4104499
33.17516340128909	2.014777	1.4194283
33.19345163961947	2.0115893	1.418305
33.211740747915215	1.9374635	1.391928
33.23003072676643	1.9169072	1.3845242
33.248321576763466	1.9269544	1.3881478
33.266613298496885	1.9226462	1.3865951
33.28490589255747	1.9415274	1.393387
33.30319935953626	1.9289293	1.388859
33.32149370002451	1.9619222	1.4006863
33.339788914613706	2.0450568	1.4300548
33.358085003895575	2.0913446	1.4461482
33.376381968462034	2.014679	1.4193939
33.39467980890529	1.9843137	1.4086567
33.41297852581774	1.9345464	1.3908798
33.43127811979204	2.0129468	1.4187835
33.44957859142105	2.0651846	1.437075
33.467879941297866	1.916572	1.3844031
33.486182170015844	1.7966512	1.3403922
33.50448527816853	1.7927086	1.3389207
33.522789266349754	1.8920895	1.3755324
33.541094135153514	1.9323112	1.3900759
33.55939988517411	1.9726046	1.4044944
33.57770651700602	1.9594405	1.3998002
33.59601403124398	1.9562951	1.3986762
33.61432242848296	1.9585966	1.3994987
33.632631709318154	1.9721576	1.4043353
33.650941874344994	1.900546	1.3786029
33.66925292415916	1.9623272	1.4008309
33.68756485935654	2.0134003	1.4189434
33.70587768053328	1.9659419	1.4021205
33.724191388285746	1.844414	1.3580921
33.74250598321054	1.882795	1.3721497
33.760821465904506	1.959234	1.3997264
33.77913783696474	2.0540683	1.4332021
33.79745509698852	2.087143	1.4446948
33.815773246573414	2.0731945	1.4398592
33.8340922863172	2.0064974	1.4165089
33.852412216817896	1.9627519	1.4009825
33.87073303867377	1.9997032	1.4141086
33.889054752483304	1.9820957	1.4078692
33.907377358845245	1.9260478	1.3878212
33.92570085835853	2.016715	1.420111
33.94402525162239	1.9751323	1.4053941
33.96235053923627	1.891137	1.3751862
33.980676721799824	1.9745432	1.4051844
33.999003799912984	1.9543927	1.397996
34.01733177417592	1.8870848	1.3737121
34.03566064518901	1.9321121	1.3900044
34.0539904135529	2.0135918	1.4190109
34.07232107986846	1.9995961	1.4140707
34.090652644736785	1.9414831	1.3933711
34.108985108759235	1.9362334	1.391486
34.12731847253742	1.9010391	1.3787818
34.14565273667313	1.8802361	1.371217
34.16398790176847	1.842837	1.3575113
34.18232396842574	1.927292	1.3882694
34.20066093724749	1.9766879	1.4059473
34.21899880883651	1.9299575	1.389229
34.23733758379583	1.897968	1.3776677
34.25567726272874	1.9061521	1.3806347
34.27401784623872	1.9012861	1.3788713
34.29235933492957	1.9564699	1.3987386
34.31070172940526	1.9659553	1.4021252
34.32904503027003	1.9778088	1.406346
34.347389238128386	1.8979495	1.3776609
34.36573435358502	1.919527	1.38547
34.38408037724492	1.9158859	1.3841553
34.402427309713296	1.853772	1.3615329
34.42077515159559	1.8651304	1.3656977
34.43912390349752	1.9082726	1.3814024
34.45747356602499	1.8806005	1.3713498
34.47582413978423	1.9483188	1.3958219
34.49417562538163	2.0006306	1.4144365
34.51252802342388	2.0057983	1.4162621
34.53088133451789	1.9046255	1.3800817
34.54923555927084	1.9649149	1.4017543
34.567590698290104	1.9838148	1.4084796
34.58594675218336	1.8428172	1.357504
34.6043037215585	1.9140124	1.3834784
34.62266160702365	1.9066352	1.3808095
34.641020409187234	1.9152255	1.3839167
34.65938012865785	1.8716693	1.3680897
34.677740766044394	1.9835367	1.4083809
34.69610232195598	2.0168421	1.4201556
34.714464797002016	1.9334689	1.3904923
34.73282819179208	1.9330213	1.3903314
34.751192506936064	2.153471	1.467471
34.76955774304408	2.2358477	1.4952751
34.7879239007265	2.0907974	1.445959
34.80629098059391	1.9017131	1.3790262
34.824658983257194	1.7747672	1.3322039
34.843027909327446	1.7860539	1.3364333
34.86139775941603	1.7544159	1.3245436
34.879768534134534	1.7854081	1.3361917
34.89814023409483	1.8350564	1.3546425
34.91651285990901	1.9106315	1.3822559
34.93488641218944	1.8771442	1.3700892
34.95326089154871	1.8080248	1.3446281
34.97163629859967	1.9472885	1.3954529
34.99001263395542	2.1756065	1.4749937
35.00838989822934	2.08251	1.4430904
35.02676809203499	2.054726	1.4334315
35.04514721598624	2.182816	1.4774356
35.063527270697215	2.1241965	1.4574623
35.081908256782256	1.9854872	1.4090732
35.10029017485597	1.9182279	1.3850011
35.11867302553321	1.8641157	1.3653263
35.137056809429104	2.0788438	1.4418197
35.155441527159006	2.3489466	1.5326273
35.173827179338524	2.303319	1.517669
35.19221376658354	2.0825655	1.4431096
35.21060128951017	2.1235287	1.4572332
35.2289897487348	1.9699625	1.4035535
35.24737914487405	2.0059986	1.4163328
35.26576947854479	2.260926	1.5036376
35.28416075036418	2.1550155	1.4679971
35.30255296094958	1.7254379	1.3135593
35.32094611091867	1.359187	1.1658418
35.33934020088932	1.7240618	1.3130354
35.35773523147969	2.2863913	1.5120817
35.3761312033082	2.3288774	1.526066
35.394528116993506	2.067722	1.4379576
35.41292597315452	2.068191	1.4381207
35.431324772410434	2.169341	1.4728683
35.449724515380666	2.3193927	1.5229553
35.46812520268491	2.3716605	1.5400196
35.486526834943106	2.1162896	1.4547473
35.504929412775454	1.9582005	1.3993572
35.52333293680242	1.78956	1.3377444
35.54173740764471	1.6241868	1.2744359
35.560142825923286	1.6831198	1.297351
35.5785491922594	1.5115888	1.2294669
35.59695650727454	1.3781972	1.1739664
35.61536477159042	1.1671087	1.080328
