0.008763373481513119	0.0	0.0
0.026290120649546365	0.17179282	0.414479
0.043816868432600686	0.12005361	0.34648752
0.06134361724069026	0.12761769	0.35723618
0.07887036748382949	0.16550095	0.4068181
0.0963971195720331	0.2489035	0.4989023
0.11392387391531617	0.22544022	0.47480544
0.1314506309236943	0.14672892	0.3830521
0.1489773910071836	0.1260637	0.3550545
0.16650415457580078	0.110906765	0.33302668
0.18403092203956356	0.12216767	0.34952492
0.20155769380849	0.100480996	0.31698737
0.2190844702925996	0.13357484	0.36547893
0.2366112519019124	0.11901778	0.34498954
0.2541380390464497	0.13193588	0.36322978
0.27166483213623416	0.13017581	0.36079887
0.28919163158128947	0.16268918	0.40334746
0.3067184377916406	0.15087901	0.3884315
0.324245251177314	0.15027769	0.38765666
0.34177207214833777	0.17097473	0.41349092
0.3592989011147415	0.16029954	0.40037426
0.37682573848655654	0.15766066	0.39706507
0.39435258467381573	0.1346022	0.36688173
0.41187944008655414	0.14134955	0.37596482
0.42940630513480854	0.14738038	0.38390154
0.446933180228618	0.1550657	0.39378384
0.4644600657780234	0.12554461	0.35432273
0.48198696219306775	0.12022803	0.34673914
0.49951386988379676	0.11497788	0.33908388
0.5170407892602581	0.146147	0.38229176
0.5345677207325025	0.16082837	0.40103412
0.5520946647105822	0.15961397	0.39951718
0.5696216216045534	0.14174554	0.3764911
0.5871485918244737	0.1508568	0.38840288
0.6046755757804043	0.1538946	0.39229402
0.6222025738824094	0.1625131	0.40312913
0.6397295865405557	0.18257669	0.42728993
0.6572566141649129	0.16726716	0.40898308
0.6747836571655547	0.1656204	0.40696487
0.6923107159525568	0.17738695	0.4211733
0.7098377909359992	0.19508697	0.4416865
0.7273648825259653	0.21783234	0.4667251
0.7448919911325411	0.20493785	0.45270061
0.762419117165817	0.23116812	0.48079947
0.7799462610358868	0.21389858	0.46249172
0.7974734231528482	0.21403047	0.46263427
0.8150006039268024	0.22368702	0.4729556
0.8325278037678551	0.22438216	0.47368994
0.8500550230861152	0.23438834	0.4841367
0.8675822622916969	0.26252994	0.5123767
0.8851095217947171	0.2565994	0.5065564
0.9026368020052984	0.2582663	0.5081991
0.9201641033335665	0.21867459	0.46762654
0.9376914261896523	0.21577834	0.46451947
0.9552187709836915	0.2651559	0.51493293
0.9727461381258234	0.28046983	0.529594
0.990273528026193	0.29595476	0.54401726
1.0078009410949496	0.2885178	0.5371385
1.0253283777422473	0.30524713	0.5524917
1.0428558383782454	0.2970336	0.5450079
1.0603833234131086	0.29901516	0.5468228
1.0779108332570058	0.33069104	0.57505745
1.0954383683201119	0.29858965	0.54643357
1.112965929012607	0.36121482	0.6010115
1.1304935157446763	0.47808355	0.6914359
1.1480211289265108	0.54623646	0.7390781
1.1655487689683062	1.3763076	1.1731614
1.1830764362802655	1.5845656	1.2587953
1.200604131272596	1.991655	1.4112601
1.2181318543555117	2.3680615	1.5388507
1.235659605939232	2.3950107	1.5475823
1.253187386433982	3.8908238	1.9725171
1.270715196249994	6.245247	2.4990492
1.2882430357975057	11.663585	3.415199
1.3057709054867608	16.59238	4.0733747
1.3232988057280106	22.359531	4.7285867
1.3408267369315112	27.35449	5.230152
1.358354699507526	31.332159	5.5975137
1.3758826938663256	35.871613	5.9892917
1.3934107204181858	37.90485	6.1566916
1.410938779573391	38.159985	6.1773767
1.4284668717422309	38.346012	6.1924157
1.4459949973350033	38.24477	6.1842356
1.4635231567620117	38.546185	6.208557
1.4810513504335687	37.866932	6.153611
1.4985795787599925	36.83525	6.0692053
1.5161078421516088	35.635845	5.969577
1.5336361410187505	34.35122	5.8609915
1.5511644757717598	34.506466	5.8742204
1.5686928468209842	35.37574	5.947751
1.58622125457678	36.30315	6.0252094
1.6037496994495108	37.797134	6.1479373
1.621278181849548	37.711113	6.1409373
1.6388067021872719	38.206078	6.1811066
1.6563352608730693	37.428703	6.1179004
1.673863858317336	36.56842	6.047183
1.6913924949304753	36.230007	6.019137
1.7089211711228998	35.118347	5.9260736
1.7264498873050296	34.340782	5.8601007
1.7439786438872935	33.382256	5.777738
1.7615074412801288	32.544052	5.7047396
1.779036279893981	31.518206	5.6141076
1.796565160139305	30.293741	5.503975
1.814094082426564	29.31094	5.413958
1.8316230471662298	28.37127	5.326469
1.849152054768784	27.42838	5.237211
1.8666811056447168	27.637297	5.2571187
1.8842102002045273	27.085424	5.2043657
1.901739338858724	26.89759	5.186289
1.9192685220178245	26.039648	5.1029058
1.9367977500923557	25.161047	5.016079
1.9543270234928547	24.56387	4.956195
1.971856342629867	23.88	4.8867164
1.9893857079139496	23.44298	4.841795
2.006915119755667	22.957563	4.791405
2.0244445785655945	22.421658	4.7351513
2.0419740847543175	22.043951	4.6950984
2.0595036387324317	21.649055	4.6528544
2.0770332409105414	21.292465	4.614376
2.094562891699263	21.143917	4.5982513
2.1120925915092217	20.473677	4.5247846
2.129622340751053	20.09236	4.48245
2.1471521398354043	188.18802	13.7181635
2.1646819891729323	444.77344	21.089653
2.182211889174303	441.09094	21.002165
2.1997418402501974	453.27136	21.29017
2.2172718428113023	433.03232	20.80943
2.234801897268317	320.70618	17.908272
2.2523320040319548	17.229647	4.150861
2.269862163512935	16.915804	4.1128826
2.287392376121992	16.631392	4.0781603
2.304922642269869	16.27509	4.03424
2.322452962367322	15.904068	3.9879904
2.3399833368251164	15.474092	3.9337122
2.357513766054032	15.330924	3.9154725
2.3750442504648586	15.235934	3.9033234
2.3925747904683963	15.165047	3.8942325
2.410105386475459	15.18739	3.8971002
2.4276360388968707	14.764109	3.8424091
2.445166748143469	14.705467	3.834771
2.4626975146261025	14.291982	3.7804737
2.4802283387556323	13.991664	3.7405434
2.4977592209429305	13.517761	3.6766508
2.5152901615988825	13.091245	3.6181824
2.5328211611343865	12.948835	3.598449
2.5503522199603523	12.844207	3.5838816
2.5678833384877024	12.557935	3.5437176
2.5854145171273712	12.273121	3.5033014
2.6029457562903064	11.946065	3.456308
2.620477056387469	11.884073	3.4473283
2.6380084178298326	11.728723	3.4247222
2.655539841028383	11.528258	3.395329
2.673071326394119	11.430145	3.3808498
2.6906028743380523	11.164687	3.34136
2.708134485271211	11.104332	3.3323164
2.7256661596046325	10.898088	3.3012252
2.743197897749369	10.706291	3.272047
2.760729700116486	10.419295	3.2278934
2.778261567117063	10.143817	3.184936
2.795793499162193	10.145122	3.1851408
2.8133254966629817	10.070939	3.1734743
2.830857560030551	9.978094	3.158812
2.8483896896760337	9.891498	3.145075
2.865921886010578	9.690472	3.1129522
2.883454149445347	9.467256	3.0768905
2.9009864803915177	9.363193	3.0599334
2.91851887926028	9.171547	3.0284562
2.9360513464628384	9.230623	3.0381942
2.953583882410413	9.191838	3.0318046
2.9711164875142373	9.102424	3.0170224
2.9886491621855606	8.837624	2.972814
3.0061819068356455	8.560817	2.9258873
3.023714721875769	8.429492	2.9033587
3.041247607717225	8.342753	2.8883824
3.0587805647713213	8.275592	2.8767328
3.0763135934493806	8.221536	2.867322
3.0938466941627407	8.031052	2.833911
3.1113798673227544	8.050443	2.83733
3.1289131133407904	7.971273	2.8233442
3.1464464326282315	7.9187813	2.814033
3.1639798255964786	7.836457	2.7993672
3.1815132926569443	7.7423077	2.7825003
3.1990468342210603	7.7887154	2.790827
3.216580450700272	7.7918434	2.7913873
3.2341141425060416	7.71396	2.7774017
3.251647910049847	7.526897	2.743519
3.2691817537431813	7.275111	2.6972413
3.286715673997555	7.1069245	2.6658816
3.3042496712244938	6.996609	2.6451104
3.32178374583554	6.9633718	2.6388202
3.339317898242251	6.915943	2.6298182
3.3568521288562034	6.813651	2.6102972
3.3743864380889876	6.709082	2.5901897
3.3919208263522127	6.5833173	2.5657976
3.4094552940575023	6.5895743	2.5670166
3.4269898416164972	6.7031865	2.5890512
3.444524469440858	6.7502055	2.5981157
3.4620591779422587	6.80843	2.6092968
3.479593967532391	6.6930904	2.5871007
3.4971288386229658	6.589357	2.5669742
3.5146637916257086	6.465948	2.5428228
3.5321988269523628	6.4909325	2.547731
3.5497339450146903	6.453985	2.5404694
3.5672691462244708	6.4755645	2.544713
3.5848044309934988	6.4964504	2.5488136
3.60233979973359	6.382367	2.5263348
3.619875252856575	6.300879	2.5101552
3.6374107907743034	6.2348504	2.4969683
3.6549464138986427	6.3132324	2.5126147
3.6724821226414788	6.42074	2.533918
3.690017917414714	6.4231653	2.5343964
3.7075537986302702	6.3637867	2.5226548
3.7250897667000857	6.320923	2.5141447
3.7426258220361235	6.4950943	2.5485475
3.7601619650503553	6.8474445	2.6167622
3.777698196154779	7.3673887	2.7142935
3.7952345157614067	8.401161	2.8984756
3.8127709242822716	9.268379	3.0444014
3.830307422129425	11.579211	3.402824
3.847844009714936	30.422499	5.5156593
3.8653806874508954	97.92899	9.895908
3.882917455749409	97.152916	9.856618
3.900454315022606	96.79672	9.838532
3.917991265682631	41.34752	6.4302034
3.9355283081416506	10.976794	3.3131247
3.9530654428118495	8.811246	2.9683743
3.970602670105433	7.571063	2.7515564
3.9881399904346244	6.601369	2.5693128
4.005677404211669	6.4886	2.547273
4.023214911848827	6.4446235	2.5386262
4.0407525137583855	6.524992	2.5544064
4.058290210352644	6.6206555	2.5730634
4.075828002043927	6.4657884	2.5427914
4.0933658892445814	6.2204676	2.4940865
4.110903872366966	6.076666	2.4650893
4.128441951823468	6.0038157	2.4502685
4.145980128026488	6.121475	2.4741616
4.163518401388452	6.0965643	2.4691222
4.181056772321807	6.1264925	2.4751751
4.1985952412390155	6.1676354	2.4834723
4.216133808552567	6.182972	2.4865582
4.233672474674966	6.2895164	2.507891
4.251211240018741	6.4934177	2.5482185
4.268750104996445	6.717864	2.5918844
4.286289070020643	7.6028	2.7573175
4.303828135503928	9.204283	3.0338562
4.3213673018589125	29.5287	5.4340315
4.3389065694982305	90.620346	9.519472
4.356445938834537	165.98018	12.883329
4.3739854102805085	171.53186	13.097017
4.391524984248844	172.42647	13.131125
4.409064661152262	136.44121	11.680805
4.426604441403504	96.81559	9.839491
4.444144325415337	75.748276	8.703348
4.461684313600543	21.772188	4.6660676
4.47922440637193	22.008457	4.691317
4.496764604142329	20.237366	4.498596
4.5143049073245916	18.469446	4.2976093
4.531845316331589	16.40075	4.0497837
4.5493858315762195	13.71307	3.7031162
4.566926453471405	11.436947	3.3818555
4.584467182430081	9.541513	3.088934
4.602008018865218	8.250066	2.8722928
4.619548963189798	7.557472	2.7490857
4.637090015816834	7.144425	2.6729057
4.654631177159353	6.8783507	2.622661
4.672172447630417	6.5596156	2.5611746
4.689713827643102	6.3746142	2.5247998
4.7072553176105085	6.1158166	2.4730177
4.724796917945764	5.94894	2.439045
4.742338629062015	5.7847795	2.4051569
4.759880451372434	5.656925	2.3784292
4.777422385290215	5.678083	2.3828728
4.794964431228581	5.680003	2.3832757
4.812506589600768	5.7940693	2.4070873
4.830048860820047	5.7266345	2.3930387
4.847591245299709	5.7095942	2.3894758
4.8651337434530655	5.625338	2.3717794
4.882676355693457	5.5980015	2.3660097
4.900219082434242	5.5526657	2.3564095
4.917761924088813	5.5523057	2.356333
4.935304881070575	5.58104	2.3624225
4.952847953792969	5.581458	2.362511
4.970391142669449	5.580764	2.362364
4.9879344481135055	5.5322704	2.352078
5.005477870538642	5.46638	2.3380291
5.023021410358394	5.4659877	2.3379452
5.040565067986324	5.4994826	2.3450975
5.05810884383601	5.511385	2.3476338
5.075652738321066	5.595728	2.365529
5.09319675185512	5.5836515	2.3629751
5.110740884851836	5.543037	2.3543656
5.128285137724894	5.4655237	2.337846
5.145829510888007	5.3949566	2.3227046
5.163374004754908	5.3684096	2.316983
5.1809186197393595	5.4544544	2.3354774
5.198463356255145	5.464032	2.337527
5.216008214716077	5.4685893	2.3385015
5.233553195535998	5.402086	2.3242388
5.251098299128764	5.3821316	2.3199422
5.268643525908272	5.3031154	2.3028493
5.286188876288432	5.277883	2.2973645
5.3037343506831895	5.2310557	2.2871501
5.32127994950651	5.211563	2.2828848
5.3388256731723915	5.2128935	2.2831762
5.356371522094851	5.19909	2.2801514
5.373917496687938	5.218589	2.284423
5.391463597365729	5.232389	2.2874415
5.40900982454232	5.2368646	2.2884197
5.426556178631843	5.236609	2.288364
5.444102660048449	5.2269034	2.2862422
5.4616492692063225	5.1950717	2.27927
5.479196006519669	5.1980376	2.2799206
5.496742872402727	5.161973	2.2719977
5.514289867269756	5.135701	2.2662086
5.531836991535049	5.1566787	2.270832
5.549384245612924	5.2376575	2.2885928
5.566931629917724	5.2529564	2.2919328
5.584479144863822	5.24307	2.2897751
5.6020267908656205	5.2262416	2.2860975
5.619574568337545	5.214385	2.2835028
5.637122477694054	5.2679143	2.2951937
5.654670519349629	5.2843475	2.298771
5.672218693718784	5.316868	2.3058333
5.689767001216059	5.3059053	2.303455
5.707315442256021	5.246333	2.2904875
5.724864017253266	5.220017	2.2847357
5.7424127266224225	5.2328353	2.2875392
5.75996157077814	5.2608414	2.2936523
5.777510550135105	5.2546597	2.2923045
5.795059665108022	5.273676	2.2964485
5.812608916111639	5.278014	2.2973928
5.830158303560715	5.3950386	2.3227222
5.847707827870055	5.3546553	2.3140128
5.86525748945448	5.4114733	2.3262575
5.8828072887288485	5.476557	2.3402045
5.900357226108044	5.541327	2.3540022
5.917907302006979	5.685435	2.384415
5.9354575168406	6.2999973	2.5099795
5.9530078710238765	6.9269056	2.6319015
5.970558364971812	7.4964666	2.7379677
5.988108999099438	7.856659	2.8029733
6.005659773821818	8.278741	2.8772802
6.023210689554039	8.072363	2.8411903
6.040761746711227	8.528119	2.9202943
6.058312945708531	7.9357777	2.8170512
6.075864286961132	7.4453964	2.7286253
6.093415770884244	6.6991615	2.5882738
6.1109673978931065	6.14401	2.4787114
6.128519168402993	5.5958447	2.3655539
6.146071082829204	5.454837	2.3355591
6.163623141587075	5.3332033	2.309373
6.181175345091969	5.2873397	2.2994215
6.198727693759281	5.2036595	2.2811532
6.216280188004435	5.158303	2.2711897
6.233832828242885	5.0893006	2.2559478
6.251385614890126	5.111334	2.2608259
6.268938548361669	5.093107	2.2567914
6.286491629073067	5.140072	2.2671726
6.304044857439898	5.128319	2.264579
6.321598233877777	5.127623	2.2644255
6.339151758802344	5.0545235	2.2482266
6.356705432629277	5.078709	2.2535992
6.37425925577428	5.0286126	2.242457
6.391813228653095	4.999617	2.2359824
6.409367351681486	4.9989357	2.23583
6.426921625275259	5.0404143	2.2450867
6.44447604985025	5.0967054	2.2575884
6.46203062582232	5.0988345	2.25806
6.47958535360737	5.0528474	2.247854
6.497140233621328	4.976091	2.2307153
6.514695266280161	4.9062433	2.2150042
6.532250451999859	4.9778237	2.2311037
6.549805791196454	4.982112	2.2320645
6.567361284286002	5.046605	2.246465
6.584916931684597	5.052306	2.2477336
6.602472733808367	5.028347	2.2423975
6.6200286910734665	5.012258	2.2388072
6.637584803896092	5.0234365	2.2413025
6.655141072692462	4.988349	2.2334611
6.672697497878842	4.9878244	2.2333438
6.690254079871514	4.9597178	2.2270424
6.707810819086808	4.9704156	2.2294428
6.725367715941078	5.0129614	2.2389643
6.742924770850719	5.0366225	2.2442422
6.760481984232151	5.030307	2.2428346
6.778039356501836	5.0184264	2.2401845
6.795596888076266	5.0334916	2.2435443
6.813154579371963	5.021395	2.2408469
6.830712430805492	5.0491166	2.247024
6.84827044279344	5.0331225	2.243462
6.865828615752445	5.079262	2.2537217
6.883386950099159	5.093533	2.2568858
6.900945446250287	5.0996013	2.2582297
6.918504104622553	5.1222043	2.2632287
6.936062925632727	5.140397	2.2672443
6.953621909697607	5.151663	2.2697275
6.971181057234028	5.145959	2.2684705
6.988740368658859	5.203081	2.2810264
7.006299844389007	5.2192726	2.2845728
7.023859484841407	5.280913	2.2980237
7.041419290433036	5.3052263	2.3033078
7.058979261580902	5.445326	2.333522
7.0765393987020495	5.6580806	2.3786721
7.094099702213559	6.0260606	2.4548035
7.111660172532549	6.335672	2.517076
7.129220810076164	6.751425	2.5983503
7.146781615261595	7.379299	2.7164865
7.16434258850606	7.6903257	2.7731438
7.181903730226821	8.094302	2.8450487
7.1994650408411704	8.133542	2.8519366
7.217026520766437	8.172507	2.8587596
7.234588170419983	8.414254	2.9007335
7.252149990219215	8.442466	2.9055922
7.269711980581568	8.3737545	2.893744
7.2872741419245175	8.155775	2.8558319
7.304836474665574	7.6696296	2.7694097
7.322398979222286	7.3752627	2.7157435
7.339961656012233	7.1049914	2.665519
7.357524505453039	6.778827	2.6036181
7.375087527962357	6.5088377	2.5512424
7.392650723957886	6.2656446	2.5031269
7.410214093857353	5.9554644	2.440382
7.427777638078528	5.757762	2.3995337
7.445341357039213	5.6050076	2.3674898
7.4629052511572525	5.518886	2.349231
7.480469320850524	5.4563894	2.3358915
7.498033566536948	5.342654	2.3114183
7.5155979886344735	5.2269917	2.2862616
7.5331625875610975	5.149343	2.2692163
7.550727363734844	5.175499	2.2749722
7.568292317573788	5.201534	2.280687
7.585857449496025	5.2597246	2.2934089
7.603422759919705	5.2417135	2.2894788
7.620988249263007	5.2760067	2.296956
7.638553917944147	5.2809005	2.298021
7.656119766381391	5.2626514	2.2940469
7.673685794993023	5.22109	2.2849705
7.691252004197388	5.186136	2.277309
7.70881839441285	5.248885	2.2910445
7.726384966057826	5.3160467	2.3056555
7.743951719550762	5.3014336	2.3024843
7.761518655310149	5.2634563	2.2942224
7.779085773754511	5.218188	2.2843354
7.796653075302419	5.2080154	2.2821076
7.814220560372475	5.2773232	2.2972426
7.831788229383323	5.2973485	2.3015969
7.8493560827536495	5.3579016	2.3147142
7.866924120902174	5.338814	2.3105874
7.884492344247663	5.415968	2.3272233
7.9020607532089135	5.4101715	2.3259776
7.919629348204771	5.404556	2.32477
7.937198129654115	5.4315987	2.330579
7.954767097975865	5.426491	2.329483
7.972336253588986	5.3795457	2.3193848
7.989905596912472	5.372534	2.3178728
8.007475128365371	5.3785	2.3191593
8.025044848366756	5.4684057	2.3384624
8.042614757335754	5.6255684	2.371828
8.060184855691523	5.7412963	2.3961003
8.07775514385327	5.880799	2.425036
8.095325622240228	5.8975377	2.4284847
8.112896291271687	5.843114	2.4172535
8.130467151366968	5.85674	2.4200702
8.148038202945436	5.906719	2.4303744
8.165609446426497	5.933923	2.4359643
8.183180882229594	5.9965515	2.4487858
8.200752510774217	5.966581	2.4426587
8.218324332479893	5.9669166	2.4427273
8.235896347766193	5.995444	2.4485595
8.253468557052724	5.9574065	2.44078
8.27104096075914	5.967493	2.4428453
8.288613559305137	5.9793563	2.4452722
8.306186353110448	6.0855656	2.466894
8.32375934259485	6.16434	2.4828088
8.341332528178162	6.2015233	2.4902859
8.358905910280246	6.225271	2.4950492
8.376479489321003	6.1917157	2.4883158
8.394053265720377	6.271135	2.5042233
8.411627239898356	6.2222605	2.494446
8.42920141227497	6.2467976	2.4993594
8.44677578327029	6.273088	2.5046134
8.464350353304427	6.220013	2.4939954
8.48192512279754	6.1977286	2.489524
8.499500092169827	6.1770706	2.4853714
8.51707526184153	6.159409	2.4818156
8.534650632232934	6.252097	2.5004194
8.552226203764365	6.232393	2.4964762
8.569801976856192	6.2841973	2.5068302
8.587377951928834	6.286214	2.5072324
8.60495412940274	6.2954507	2.5090737
8.622530509698416	6.2782173	2.5056372
8.6401070932364	6.3237996	2.5147166
8.657683880437283	6.4533157	2.5403378
8.675260871721695	6.6003027	2.5691054
8.692838067510303	6.7596397	2.5999308
8.710415468223834	6.9993763	2.6456335
8.727993074283043	7.203888	2.684006
8.745570886108737	7.2903256	2.7000604
8.763148904121765	7.269375	2.6961777
8.78072712874302	7.305228	2.7028186
8.798305560393441	7.4973865	2.7381356
8.815884199494006	7.6406693	2.7641761
8.833463046465745	7.7382665	2.781774
8.851042101729728	7.9535217	2.8201988
8.86862136570707	8.295089	2.8801196
8.886200838818924	8.444677	2.9059727
8.903780521486505	8.494787	2.9145818
8.921360414131055	8.621173	2.9361835
8.938940517173874	8.801357	2.9667082
8.956520831036297	8.989007	2.9981673
8.97410135613971	9.231456	3.038331
8.99168209290554	9.39346	3.0648754
9.009263041755265	9.549401	3.0902104
9.026844203110405	9.782215	3.1276534
9.044425577392525	9.933658	3.1517706
9.062007165023239	10.02099	3.1655948
9.079588966424197	10.317995	3.2121637
9.097170982017108	10.40814	3.2261648
9.11475321222372	11.39174	3.3751652
9.132335657465825	12.255303	3.5007575
9.149918318165264	12.34929	3.5141556
9.167501194743924	12.894661	3.5909138
9.18508428762374	12.589797	3.5482104
9.202667597226693	12.581653	3.5470626
9.220251123974803	12.368695	3.5169156
9.237834868290143	12.060784	3.472864
9.255418830594836	11.817925	3.437721
9.273003011311046	11.238055	3.352321
9.290587410860985	11.009757	3.3180954
9.308172029666911	10.373779	3.2208352
9.32575686815113	10.137471	3.1839395
9.343341926735997	8.890458	2.981687
9.360927205843916	8.623944	2.9366553
9.378512705897327	8.392143	2.8969197
9.396098427318728	8.085306	2.8434672
9.413684370530664	7.987899	2.826287
9.431270535955722	7.976614	2.82429
9.448856924016539	7.9320188	2.816384
9.466443535135806	7.823557	2.7970622
9.484030369736251	7.7740936	2.788206
9.501617428240658	7.7075357	2.7762449
9.519204711071852	7.7654543	2.7866564
9.536792218652714	7.8797183	2.8070836
9.55437995140617	7.9386835	2.8175669
9.571967909755191	7.9147997	2.8133254
9.589556094122802	7.88536	2.8080883
9.60714450493207	7.924769	2.8150966
9.624733142606116	7.993919	2.8273518
9.642322007568108	7.9270473	2.8155012
9.659911100241267	7.9086356	2.8122296
9.677500421048851	7.932669	2.8164995
9.695089970414175	8.090458	2.844373
9.712679748760609	8.1511135	2.8550155
9.730269756511557	8.176063	2.8593814
9.747859994090492	8.220953	2.8672204
9.765450461920915	8.29314	2.8797812
9.78304116042639	8.352768	2.8901155
9.800632090030527	8.301365	2.881209
9.81822325115699	8.313928	2.8833883
9.835814644229481	8.336522	2.8873036
9.853406269671762	8.362013	2.8917146
9.870998127907646	8.357805	2.890987
9.888590219360985	8.296163	2.880306
9.906182544455698	8.3108225	2.8828497
9.923775103615734	8.341306	2.8881319
9.941367897265108	8.309566	2.8826318
9.958960925827878	8.305897	2.8819952
9.97655418972816	8.318664	2.8842094
9.994147689390106	8.397025	2.897762
10.011741425237934	8.449761	2.9068472
10.029335397695904	8.358888	2.891174
10.04692960718833	8.260748	2.8741517
10.06452405413958	8.229537	2.868717
10.082118738974064	8.22542	2.8679993
10.099713662116246	8.275489	2.876715
10.117308823990651	8.260493	2.8741074
10.134904225021844	8.239	2.8703659
10.152499865634445	8.244083	2.871251
10.170095746253125	8.229158	2.868651
10.18769186730261	8.205898	2.864594
10.205288229207675	8.179686	2.860015
10.222884832393145	8.176296	2.8594224
10.2404816772839	8.1774645	2.8596265
10.258078764304868	8.18984	2.8617897
10.275676093881035	8.195205	2.8627267
10.293273666437438	8.133805	2.8519826
10.310871482399158	8.114298	2.8485606
10.32846954219134	8.096143	2.8453722
10.346067846239173	8.109292	2.8476818
10.363666394967908	8.136801	2.8525078
10.38126518880283	8.132595	2.8517704
10.398864228169298	8.217697	2.8666525
10.416463513492713	8.286259	2.8785863
10.434063045198531	8.276573	2.8769033
10.451662823712262	8.234002	2.8694952
10.469262849459467	8.250133	2.8723044
10.486863122865758	8.186733	2.8612468
10.504463644356806	8.222767	2.8675368
10.522064414358338	8.142213	2.8534563
10.539665433296118	8.160792	2.85671
10.557266701595987	8.082591	2.84299
10.574868219683818	7.9175057	2.8138063
10.592469987985552	7.812169	2.7950258
10.610072006927185	7.685916	2.7723484
10.627674276934751	7.6622796	2.7680824
10.64527679843435	7.50844	2.7401533
10.662879571852143	7.355775	2.7121532
10.680482597614331	7.2896304	2.6999316
10.698085876147173	7.2206407	2.687125
10.715689407876988	7.196348	2.682601
10.733293193230146	7.0863814	2.662026
10.750897232633072	6.89461	2.625759
10.76850152651225	6.6925282	2.586992
10.786106075294207	6.565861	2.5623937
10.803710879405534	6.5095377	2.5513797
10.821315939272877	6.4406238	2.5378385
10.83892125532294	6.451345	2.53995
10.856526827982472	6.403686	2.5305505
10.874132657678285	6.403517	2.530517
10.891738744837243	6.2995195	2.5098844
10.909345089886271	6.198648	2.4897084
10.926951693252343	6.108034	2.4714437
10.944558555362494	6.075254	2.464803
10.96216567664381	5.9821177	2.4458368
10.979773057523436	5.9443774	2.4381094
10.997380698428573	5.89965	2.4289196
11.014988599786477	5.829404	2.4144158
11.032596762024461	5.7506537	2.398052
11.050205185569892	5.666824	2.3805091
11.067813870850198	5.6034026	2.3671508
11.085422818292859	5.49162	2.3434205
11.10303202832541	5.436363	2.331601
11.120641501375454	5.374629	2.3183246
11.138251237870636	5.383431	2.3202221
11.155861238238671	5.3854184	2.3206503
11.173471502907317	5.345958	2.3121328
11.191082032304402	5.255781	2.2925491
11.208692826857805	5.136522	2.2663896
11.226303886995465	5.0319443	2.2431996
11.243915213145371	4.984269	2.2325478
11.261526805735578	4.963876	2.2279756
11.279138665194196	4.8973117	2.212987
11.296750791949393	4.795838	2.1899402
11.314363186429393	4.7544837	2.1804779
11.331975849062479	4.7222204	2.173067
11.34958878027699	4.7217374	2.172956
11.36720198050133	4.67476	2.1621194
11.384815450163948	4.6453886	2.1553164
11.402429189693366	4.6206956	2.1495802
11.420043199518153	4.532086	2.1288695
11.437657480066942	63.412075	7.96317
11.455272031768422	85.09658	9.224781
11.472886855051353	107.52828	10.369584
11.490501950344528	99.16735	9.958281
11.508117318076819	84.51828	9.193382
11.52573295867715	45.880165	6.77349
11.543348872574514	4.151189	2.0374467
11.560965060197946	4.0786953	2.019578
11.57858152197655	4.0227857	2.0056884
11.59619825833949	3.9997587	1.9999397
11.613815269715985	3.9859605	1.996487
11.631432556535323	38.530605	6.2073026
11.649050119226837	83.03677	9.112452
11.666667958219929	93.4117	9.664972
11.68428607394406	107.668304	10.376334
11.701904466828756	82.50972	9.083487
11.719523137303586	65.39075	8.086454
11.737142085798196	4.640048	2.154077
11.754761312742286	3.783286	1.9450672
11.772380818565619	3.7386525	1.9335595
11.790000603698015	3.6831784	1.9191608
11.80762066856935	3.6676545	1.9151121
11.825241013609572	3.6553764	1.9119039
11.842861639248683	3.6426122	1.9085629
11.860482545916748	3.5837765	1.8930866
11.878103734043883	3.521743	1.8766308
11.895725204060282	3.4580753	1.85959
11.91334695639619	3.4296029	1.8519187
11.930968991481919	3.4279573	1.8514744
11.948591309747824	3.4112828	1.8469658
11.966213911624347	3.3737862	1.836787
11.98383679754198	3.3019109	1.8171161
12.001459967931268	3.3168647	1.8212261
12.019083423222835	3.339146	1.827333
12.036707163847352	3.343804	1.8286071
12.05433119023556	3.3057077	1.8181605
12.071955502818259	3.24635	1.801763
12.089580102026313	3.2525916	1.8034943
12.107204988290643	3.2225978	1.7951596
12.12483016204224	3.2043366	1.7900661
12.142455623712152	3.2157934	1.7932633
12.16008137373149	3.1662505	1.779396
12.177707412531431	3.1394687	1.7718546
12.19533374054321	3.1128907	1.7643386
12.212960358198126	3.10892	1.763213
12.230587265927545	3.1093042	1.7633219
12.248214464162889	3.0629797	1.7501371
12.265841953335649	3.0585315	1.7488657
12.283469733877375	3.0274692	1.7399625
12.301097806219685	2.9602659	1.7205423
12.31872617079425	2.8901408	1.7000414
12.336354828032825	2.9271905	1.7109034
12.353983778367205	2.9742162	1.7245916
12.371613022229262	2.998171	1.7315228
12.389242560050928	3.0028272	1.7328668
12.406872392264201	3.0054982	1.7336372
12.424502519301143	2.9663212	1.7223011
12.442132941593874	2.9394755	1.7144898
12.459763659574586	2.9047136	1.7043221
12.477394673675532	2.8869557	1.6991044
12.49502598432903	2.8997219	1.702857
12.51265759196746	2.9136117	1.7069305
12.530289497023267	2.9506135	1.7177349
12.547921699928967	2.9358702	1.7134382
12.565554201117134	2.8887205	1.6996236
12.583187001020404	2.8135476	1.6773633
12.600820100071486	2.767154	1.6634765
12.618453498703152	2.7888727	1.6699919
12.636087197348235	2.8286107	1.6818475
12.65372119643964	2.8487897	1.6878358
12.671355496410326	2.8602016	1.691213
12.68899009769333	2.8755374	1.6957409
12.706625000721749	2.901018	1.7032375
12.724260205928752	2.9409614	1.7149231
12.741895713747551	2.9642181	1.7216905
12.759531524611454	3.0044246	1.7333276
12.777167638953818	2.985621	1.7278949
12.794804057208072	3.021567	1.7382655
12.812440779807702	3.0563726	1.7482485
12.830077807186271	3.2070558	1.7908255
12.847715139777405	3.2264001	1.7962183
12.865352778014795	3.4847934	1.8667601
12.882990722332197	3.6487904	1.9101807
12.90062897316344	3.7365217	1.9330084
12.918267530942412	3.8204365	1.9545937
12.935906396103071	3.6974266	1.9228693
12.953545569079449	3.9022617	1.9754143
12.971185050305628	3.6993754	1.9233761
12.988824840215775	3.69066	1.9211091
13.006464939244115	3.6575751	1.9124788
13.024105347824943	3.5083473	1.8730583
13.041746066392617	3.6097775	1.8999414
13.05938709538157	3.4486082	1.8570429
13.077028435226296	3.4307785	1.852236
13.094670086361363	3.3352005	1.8262532
13.112312049221401	3.2327583	1.7979873
13.129954324241112	3.1467385	1.7739049
13.147596911855258	2.932476	1.7124474
13.165239812498685	2.886376	1.6989337
13.182883026606293	2.8040085	1.6745174
13.200526554613058	2.76002	1.6613308
13.218170396954017	2.7298772	1.652234
13.235814554064284	2.7548954	1.6597878
13.253459026379034	2.7833755	1.6683451
13.271103814333523	2.73234	1.6529791
13.288748918363058	2.6855645	1.6387691
13.306394338903031	2.6732438	1.6350057
13.32404007638889	2.6852777	1.6386817
13.341686131256164	2.7188194	1.6488843
13.359332503940449	2.6962352	1.6420217
13.376979194877402	2.724012	1.6504581
13.394626204502751	2.7593055	1.6611158
13.412273533252307	2.7582831	1.660808
13.429921181561937	2.7367094	1.6543002
13.447569149867581	2.7290366	1.6519796
13.465217438605247	2.7554653	1.6599594
13.482866048211022	2.7514088	1.6587371
13.500514979121052	2.7491448	1.6580545
13.518164231771568	2.7437727	1.6564337
13.535813806598844	2.7533915	1.6593347
13.553463704039254	2.7152588	1.6478043
13.571113924529229	2.7001836	1.6432235
13.588764468505275	2.709648	1.6461008
13.606415336403956	2.723948	1.6504388
13.624066528661917	2.73245	1.6530124
13.641718045715882	2.764479	1.6626723
13.659369888002635	2.8316238	1.682743
13.67702205595903	2.89685	1.7020135
13.694674550021993	2.990378	1.7292709
13.712327370628532	3.0413795	1.7439551
13.729980518215713	3.12926	1.7689714
13.747633993220681	3.188178	1.785547
13.765287796080647	3.252451	1.8034552
13.7829419272329	3.277168	1.810295
13.800596387114801	3.310485	1.8194737
13.818251176163775	3.3332808	1.8257275
13.835906294817324	3.4011674	1.8442254
13.853561743513023	3.4562654	1.8591034
13.871217522688525	3.504163	1.871941
13.888873632781538	3.5413651	1.8818516
13.906530074229858	3.597496	1.8967066
13.92418684747135	3.5778344	1.8915164
13.941843952943948	3.5579484	1.8862524
13.959501391085665	3.5340939	1.8799186
13.977159162334578	3.4870956	1.8673767
13.994817267128846	3.4297745	1.8519651
14.012475705906693	3.3223677	1.8227363
14.030134479106424	3.2568514	1.8046749
14.047793587166414	3.2132983	1.7925675
14.065453030525108	3.1434941	1.7729901
14.083112809621026	3.0485053	1.745997
14.100772924892766	2.9585125	1.7200327
14.118433376778997	2.9037693	1.7040449
14.136094165718458	2.875183	1.6956365
14.153755292149969	2.8098245	1.6762531
14.171416756512416	2.7502139	1.6583769
14.189078559244768	2.650644	1.6280799
14.20674070078606	2.5960996	1.6112416
14.224403181575408	2.5251453	1.5890706
14.242066002051999	2.508088	1.5836945
14.259729162655093	2.4883394	1.5774472
14.277392663824022	2.4676962	1.5708903
14.295056505998208	2.467213	1.5707364
14.312720689617128	2.468969	1.5712954
14.330385215120348	2.465045	1.5700462
14.348050082947497	2.4401186	1.5620879
14.3657152935383	2.4218771	1.5562382
14.383380847332528	2.4213064	1.5560547
14.401046744770051	2.4024804	1.5499936
14.418712986290798	2.405703	1.5510329
14.436379572334793	2.4078484	1.5517243
14.454046503342123	2.4173892	1.5547955
14.471713779752946	2.4428823	1.5629723
14.489381402007504	2.4548597	1.5667992
14.507049370546113	2.454175	1.5665807
14.524717685809168	2.4361537	1.5608183
14.542386348237134	2.4572296	1.5675553
14.560055358270553	2.4787889	1.574417
14.577724716350051	2.506662	1.5832441
14.595394422916325	2.484296	1.576165
14.61306447841015	2.4982793	1.5805947
14.63073488327237	2.4729466	1.5725605
14.648405637943917	2.4495106	1.5650913
14.6660767428658	2.5014906	1.5816101
14.683748198479094	2.5652363	1.6016356
14.701420005224954	2.6344361	1.6230946
14.719092163544628	2.667973	1.633393
14.73676467387942	2.699563	1.6430347
14.754437536670727	2.7027228	1.643996
14.772110752360014	2.6985984	1.6427411
14.78978432138882	2.687021	1.6392136
14.807458244198777	2.680106	1.637103
14.82513252123159	2.6663709	1.6329026
14.842807152929028	2.7157662	1.6479582
14.860482139732962	2.7592733	1.661106
14.87815748208531	2.7665775	1.6633031
14.8958331804281	2.7210026	1.6495461
14.91350923520342	2.6670325	1.6331052
14.931185646853438	2.6393137	1.6245965
14.948862415820408	2.633888	1.6229258
14.966539542546656	2.6937053	1.6412511
14.98421702747459	2.6983273	1.6426586
15.001894871046696	2.70113	1.6435114
15.019573073705542	2.6797643	1.6369985
15.037251635893766	2.6829233	1.6379632
15.054930558054092	2.7289073	1.6519405
15.072609840629323	2.7931616	1.6712755
15.090289484062351	2.9329073	1.7125733
15.107969488796124	3.2005978	1.7890215
15.125649855273691	3.6073518	1.899303
15.14333058393817	4.087058	2.0216475
15.161011675232768	5.037647	2.2444704
15.17869312960076	6.36249	2.5223978
15.196374947485506	8.210619	2.8654177
15.214057129330447	11.289543	3.3599916
15.231739675579114	15.986169	3.9982708
15.249422586675102	21.065498	4.5897164
15.267105863062092	24.291855	4.9286766
15.284789505183847	24.643173	4.964189
15.302473513484218	22.602402	4.7541986
15.320157888407127	19.026802	4.3619723
15.337842630396578	14.752524	3.8409016
15.355527739896656	11.442792	3.3827195
15.37321321735153	8.865747	2.9775405
15.39089906320545	6.501174	2.54974
15.408585277902748	4.935627	2.221627
15.42627186188783	3.8448615	1.9608319
15.443958815605198	3.273719	1.8093421
15.461646139499424	2.9672804	1.7225796
15.479333834015168	2.8149707	1.6777874
15.497021899597165	2.7460032	1.6571069
15.514710336690234	2.6796014	1.6369488
15.53239914573928	2.6242595	1.6199566
15.550088327189297	2.5766	1.6051792
15.567777881485336	2.5054848	1.5828724
15.58546780907256	2.4725044	1.5724199
15.6031581103962	2.485438	1.5765272
15.620848785901568	2.5089653	1.5839714
15.638539836034063	2.5250149	1.5890296
15.656231261239173	2.4870963	1.5770531
15.673923061962451	2.4509935	1.5655649
15.691615238649552	2.3980227	1.548555
15.709307791746202	2.3624346	1.5370214
15.727000721698221	2.374208	1.5408465
15.744694028951498	2.3525944	1.5338169
15.76238771395202	2.363371	1.5373259
15.780081777145844	2.3464644	1.5318173
15.797776218979125	2.345689	1.5315642
15.815471039898094	2.369236	1.5392323
15.833166240349064	2.3445516	1.5311929
15.850861820778437	2.3561745	1.5349835
15.868557781632699	2.3570485	1.5352682
15.886254123358412	2.3780859	1.5421044
15.903950846402232	2.3991444	1.5489172
15.921647951210897	2.3952684	1.5476655
15.939345438231225	2.401022	1.5495231
15.957043307910133	2.3880877	1.5453439
15.974741560694602	2.3769126	1.5417238
15.992440197031714	2.3867066	1.544897
16.01013921736862	2.428724	1.5584364
16.02783862215259	2.4453013	1.563746
16.045538411830933	2.4483562	1.5647224
16.06323858685107	2.4256926	1.5574635
16.080939147660512	2.4099023	1.552386
16.09864009470684	2.3840735	1.5440445
16.11634142843774	2.3900704	1.5459852
16.134043149300954	2.4407072	1.5622762
16.15174525774433	2.4533026	1.5663022
16.169447754215817	2.4186103	1.5551882
16.18715063916342	2.3772979	1.5418489
16.204853913035244	2.4322865	1.5595789
16.222557576279478	2.467931	1.570965
16.240261629344403	22.451515	4.738303
16.257966072678386	42.960293	6.55441
16.275670906729868	38.092304	6.1718965
16.293376131947387	2.5201602	1.5875013
16.31108174877957	2.589282	1.6091247
16.328787757675133	2.6210883	1.6189775
16.34649415908287	2.6280122	1.6211145
16.364200953451657	2.6382227	1.6242607
16.38190814123048	2.7123826	1.6469313
16.39961572286839	2.7317555	1.6528023
16.41732369881455	2.7212195	1.649612
16.43503206951817	2.7173586	1.6484413
16.45274083542859	2.7512949	1.6587027
16.47044999699522	2.7972174	1.6724883
16.488159554667558	2.8371565	1.6843861
16.505869508895184	2.9001796	1.7029914
16.523579860127786	2.9830322	1.7271457
16.541290608815117	3.0169656	1.7369415
16.559001755407035	3.019514	1.737675
16.57671330035348	3.0211847	1.7381555
16.59442524410448	3.0763907	1.7539643
16.61213758711015	3.1917934	1.7865591
16.629850329820705	3.2677116	1.8076813
16.647563472686436	3.3278747	1.8242463
16.665277016157724	3.4141467	1.847741
16.682990960685053	3.4534419	1.8583438
16.70070530671898	3.504309	1.87198
16.718420054710155	3.5723596	1.8900687
16.736135205109335	3.6168365	1.9017982
16.753850758367335	3.6748867	1.9169995
16.771566714935087	3.6666727	1.9148558
16.789283075263597	3.7407055	1.9340904
16.80699983980398	3.7884338	1.9463899
16.82471700900741	3.8539174	1.9631397
16.84243458332518	3.9086258	1.9770244
16.860152563208665	3.981599	1.9953945
16.87787094910932	4.0440598	2.0109847
16.89558974147871	4.141586	2.0350885
16.913308940768466	4.1981506	2.048939
16.931028547430333	4.2556543	2.0629237
16.94874856191613	4.292633	2.071867
16.966468984677785	4.327043	2.0801547
16.98418981616729	4.403719	2.098504
17.00191105683676	4.4597793	2.111819
17.019632707138374	4.501887	2.1217651
17.03735476752442	4.5122905	2.1242154
17.05507723844728	4.600851	2.1449594
17.072800120359403	4.698411	2.1675818
17.090523413713353	4.767151	2.1833806
17.108247118961785	4.758448	2.1813867
17.125971236557437	4.7262087	2.1739845
17.143695766953133	4.680828	2.1635222
17.161420710601806	4.627731	2.151216
17.179146067956477	4.631693	2.1521368
17.19687183947025	4.633279	2.1525052
17.21459802559634	4.6465354	2.1555824
17.232324626788028	4.650809	2.1565733
17.25005164349871	4.640934	2.1542828
17.267779076181863	4.6195326	2.1493099
17.285506925291074	4.61266	2.1477103
17.30323519127999	4.6326785	2.1523657
17.320963874602384	4.637373	2.153456
17.33869297571211	4.558528	2.135071
17.356422495063114	4.524231	2.127024
17.37415243310944	4.474515	2.115305
17.391882790305218	4.4534163	2.110312
17.40961356710468	4.434051	2.1057186
17.42734476396215	4.4847097	2.1177132
17.445076381332044	4.531705	2.1287801
17.462808419668868	4.5586557	2.1351008
17.48054087942723	4.6680784	2.1605737
17.498273761061835	4.9815574	2.2319403
17.51600706502747	5.532354	2.3520956
17.533740791779024	6.246286	2.499257
17.551474941771485	7.6584783	2.7673955
17.56920951545993	8.707066	2.9507737
17.586944513299528	10.905507	3.3023486
17.60467993574556	12.595894	3.5490694
17.622415783253373	14.307023	3.7824626
17.64015205627843	15.693106	3.9614525
17.657888755276293	16.688423	4.0851464
17.675625880702604	17.21104	4.148619
17.69336343301311	17.039507	4.127894
17.71110141266366	16.37526	4.0466356
17.728839820110178	15.352441	3.918219
17.746578655808705	14.332877	3.7858787
17.764317920215372	12.85738	3.5857189
17.7820576137864	11.387887	3.3745944
17.79979773697811	9.388054	3.0639932
17.81753829024692	7.5085425	2.740172
17.835279274049356	5.896544	2.42828
17.85302068884201	4.9324293	2.2209072
17.870762535081607	4.2827277	2.0694752
17.888504813224934	3.9920168	1.9980032
17.90624752372891	3.7676086	1.9410329
17.923990667050536	3.6602993	1.9131908
17.941734243646895	3.5483806	1.8837146
17.959478253975185	3.4761388	1.8644407
17.9772226984927	3.4750798	1.8641566
17.994967577656833	3.4256322	1.8508464
18.01271289192506	3.3956723	1.842735
18.030458641754965	3.351975	1.83084
18.04820482760425	3.3393228	1.8273814
18.06595144993067	3.33689	1.8267156
18.083698509192125	3.2962546	1.815559
18.101446005846576	3.2816362	1.8115287
18.119193940352105	3.2833261	1.811995
18.136942313166887	3.2661536	1.8072503
18.1546911247492	3.2408993	1.8002498
18.1724403755574	3.1939342	1.7871581
18.19019006604997	3.1792548	1.7830465
18.207940196685467	3.1920323	1.786626
18.225690767922575	3.1386125	1.771613
18.243441780220046	3.0914023	1.7582384
18.261193234036764	3.0574615	1.7485598
18.278945129831676	3.0989764	1.760391
18.29669746806386	3.1165671	1.7653801
18.314450249192483	3.091346	1.7582225
18.3322034736768	3.0793085	1.7547959
18.349957141976184	3.0867188	1.756906
18.3677112545501	3.082973	1.7558397
18.385465811858108	3.048089	1.7458777
18.403220814359884	3.0046492	1.7333924
18.420976262515172	3.049241	1.7462076
18.43873215678387	3.1132793	1.7644488
18.456488497625923	3.1324503	1.769873
18.474245285501407	3.198832	1.7885278
18.492002520870486	3.2482414	1.8022878
18.50976020419343	3.3544729	1.831522
18.527518335930615	3.6516576	1.9109311
18.545276916542516	4.2704487	2.0665064
18.563035946489688	4.462834	2.1125422
18.580795426232832	4.931351	2.2206645
18.598555356232698	4.7980075	2.1904354
18.616315736950185	5.094455	2.2570899
18.63407656884626	4.711131	2.170514
18.65183785238201	4.962469	2.22766
18.669599588018617	4.777922	2.1858459
18.68736177621737	4.7763395	2.185484
18.705124417439652	4.7106466	2.1704025
18.72288751214696	4.453726	2.1103852
18.740651060800886	4.6006937	2.1449227
18.758415063863115	4.324225	2.079477
18.77617952179546	4.513681	2.1245425
18.793944435059814	4.26594	2.0654151
18.811709804118184	4.263417	2.0648043
18.829475629432675	4.2240515	2.0552497
18.8472419114655	4.0294337	2.007345
18.86500865067897	4.1294007	2.0320928
18.88277584753551	3.8183339	1.9540558
18.90054350249763	3.8545809	1.9633087
18.918311616027957	3.5354748	1.8802859
18.936080188589226	3.395491	1.8426858
18.953849220644265	3.0443838	1.7448163
18.971618712656007	2.84563	1.6868995
18.9893886650875	2.7799008	1.6673034
19.007159078401887	7.967673	2.8227067
19.024929953062408	32.81555	5.728486
19.042701289532435	32.776756	5.7250986
19.060473088275405	25.342348	5.034118
19.07824534975489	2.6225579	1.6194314
19.096018074434568	2.6028695	1.6133411
19.113791262778197	2.6078124	1.6148722
19.13156491524966	2.6155007	1.6172509
19.149339032312945	2.6185863	1.6182047
19.167113614432136	2.5952094	1.6109654
19.184888662071433	2.558915	1.5996609
19.202664175695123	2.5348394	1.5921179
19.220440155767623	2.5505323	1.5970386
19.238216602753447	2.5396216	1.593619
19.2559935171172	2.5197675	1.5873775
19.27377089932361	2.503311	1.5821855
19.291548749837514	2.5191174	1.5871727
19.309327069123835	2.512229	1.5850012
19.32710585764763	2.5299408	1.5905788
19.344885115874032	2.5279286	1.5899462
19.362664844268313	2.4967256	1.580103
19.380445043295822	2.478761	1.5744082
19.39822571342203	2.4853888	1.5765116
19.41600685511252	2.4779055	1.5741364
19.43378846883297	2.4602163	1.5685077
19.451570555049173	2.4430375	1.5630219
19.469353114227037	2.4704158	1.5717556
19.48713614683254	2.4652705	1.570118
19.50491965333182	2.4696033	1.5714972
19.52270363419109	2.4733272	1.5726815
19.540488089876686	2.5267794	1.5895847
19.55827302085503	2.548729	1.5964739
19.576058427592674	2.5334857	1.5916927
19.593844310556282	2.496452	1.5800165
19.611630670212598	2.501545	1.5816274
19.629417507028506	2.5289767	1.5902756
19.64720482147098	2.5067985	1.5832872
19.6649926140071	2.4905832	1.5781581
19.682780885104084	2.4661055	1.5703839
19.70056963522921	2.481907	1.5754069
19.718358864849908	2.502949	1.5820711
19.7361485744337	2.5336041	1.5917299
19.753938764448215	2.5470393	1.5959446
19.771729435361202	2.5146282	1.585758
19.789520587640506	2.4920475	1.578622
19.807312221754092	2.4623642	1.5691922
19.825104338170043	2.4676468	1.5708746
19.842896937356517	2.469541	1.5714774
19.860690019781824	2.472535	1.5724297
19.87848358591436	2.4413967	1.5624969
19.896277636222635	2.4492412	1.5650052
19.914072171175278	2.472215	1.5723279
19.931867191241015	2.4846773	1.576286
19.94966269688869	2.4951117	1.5795922
19.967458688587264	2.503226	1.5821587
19.985255166805807	2.5056581	1.5829271
20.00305213201348	2.5139804	1.5855536
20.020849584679578	2.5057492	1.5829558
20.038647525273507	2.5076892	1.5835686
20.05644595426477	2.4648302	1.5699778
20.07424487212299	2.4230459	1.5566136
20.092044279317903	2.4144905	1.553863
20.109844176319353	2.4596798	1.5683366
20.127644563597304	2.4583037	1.5678979
20.145445441621817	2.4430795	1.5630354
20.16324681086307	2.4310822	1.5591928
20.181048671791373	2.4100513	1.552434
20.198851024877122	2.3965642	1.548084
20.216653870590836	2.3885617	1.5454973
20.234457209403146	2.3827438	1.5436139
20.252261041784802	2.385008	1.5443472
20.270065368206662	2.3882399	1.5453931
20.287870189139685	2.4070864	1.5514787
20.305675505054968	2.3971183	1.548263
20.323481316423702	2.363807	1.5374677
20.341287623717207	2.35942	1.5360404
20.359094427406884	2.319706	1.523058
20.376901727964288	2.3628829	1.5371672
20.39470952586107	2.391631	1.5464898
20.41251782156899	2.390733	1.5461996
20.430326615559935	2.353208	1.534017
20.448135908305886	2.3246	1.5246639
20.465945700278965	2.3561625	1.5349797
20.483755991951384	2.3852043	1.5444107
20.50156678379548	2.394122	1.547295
20.519378076283708	2.3396518	1.529592
20.537189869888635	2.3312845	1.5268544
20.55500216508294	2.3301632	1.5264872
20.572814962339415	2.3525214	1.5337931
20.59062826213098	2.3655565	1.5380366
20.60844206493066	2.3591647	1.5359572
20.626256371211593	2.3352726	1.5281599
20.644071181447032	2.3168435	1.5221181
20.66188649611036	2.2997756	1.5165011
20.67970231567506	2.2989526	1.5162297
20.697518640614742	2.3284137	1.5259141
20.715335471403122	2.3306782	1.5266559
20.73315280851404	2.3358452	1.5283473
20.750970652421447	2.3151052	1.521547
20.768789003599412	2.28914	1.5129904
20.786607862522136	2.2947795	1.514853
20.8044272296639	2.278417	1.5094427
20.82224710549913	2.2977064	1.5158187
20.84006749050237	2.2832468	1.5110416
20.857888385148268	3.8129902	1.952688
20.8757097899116	45.91195	6.7758355
20.893531705267254	64.80028	8.049862
20.911354131690224	83.791275	9.153757
20.92917706965566	69.02971	8.308412
20.94700051963877	50.056133	7.075036
20.96482448211493	29.35574	5.4180937
20.982648957559622	4.136082	2.033736
21.00047394644843	2.27499	1.508307
21.01829944925707	2.2595727	1.5031875
21.036125466461375	2.2393758	1.4964545
21.053951998537297	2.2784033	1.509438
21.071779045960906	2.2552361	1.5017444
21.089606609208378	2.2205093	1.4901373
21.10743468875603	2.1724174	1.4739122
21.12526328508028	2.151569	1.4668227
21.143092398657675	2.1750393	1.4748014
21.16092202996488	2.2075357	1.4857779
21.17875217947867	2.1981099	1.4826024
21.19658284767596	2.192627	1.4807521
21.21441403503377	2.21957	1.4898221
21.232245742029225	2.2261238	1.49202
21.2500779691396	2.2018397	1.4838598
21.26791071684227	2.1583974	1.4691485
21.28574398561475	2.1731951	1.474176
21.30357777593465	2.1800134	1.4764868
21.321412088279704	2.1739478	1.4744314
21.339246923127792	2.1568453	1.4686202
21.357082280956888	2.156344	1.4684495
21.3749181622451	2.1382048	1.4622601
21.392754567470647	2.1227458	1.4569646
21.41059149711187	2.127227	1.4585017
21.42842895164726	2.1093864	1.4523727
21.446266931555378	2.1028233	1.4501115
21.464105437314945	2.1021461	1.449878
21.481944469404798	2.1073892	1.451685
21.49978402830388	2.0870483	1.444662
21.51762411449127	2.057099	1.434259
21.53546472844617	2.0741777	1.4402006
21.553305870647876	2.1016452	1.4497052
21.571147541575865	2.1278987	1.4587319
21.58898974170967	2.154451	1.4678048
21.60683247152899	2.1272523	1.4585103
21.62467573151363	2.1002233	1.4492147
21.642519522143523	2.0809388	1.4425459
21.660363843898722	2.1036513	1.4503969
21.6782086972594	2.0830154	1.4432656
21.696054082705864	2.0900326	1.4456944
21.713900000718535	2.068285	1.4381533
21.73174645177795	2.0752046	1.440557
21.749593436364794	2.048521	1.4312656
21.767440954959845	2.0579455	1.4345541
21.785289008044032	2.0777223	1.4414307
21.803137596098388	2.0659657	1.4373467
21.820986719604086	2.034882	1.4264929
21.838836379042412	2.002894	1.4152364
21.85668657489478	1.9888464	1.4102646
21.87453730764273	1.9729327	1.4046112
21.892388577767914	1.9738101	1.4049236
21.91024038575213	2.0136602	1.419035
21.928092732077285	2.0313282	1.4252467
21.945945617225426	2.030525	1.4249649
21.963799041678694	2.0049658	1.4159682
21.981653005919398	31.29107	5.593842
21.999507510429943	78.08675	8.836671
22.01736255569286	73.07285	8.548266
22.035218142190818	4.1864395	2.0460792
22.05307427040661	2.0540328	1.4331897
22.07093094082315	2.0914004	1.4461675
22.088788153923474	2.117121	1.455033
22.106645910190746	2.0667424	1.437617
22.12450421010827	1.9930049	1.4117383
22.142363054159464	1.98678	1.4095318
22.16022244282787	1.9851646	1.4089587
22.178082376597164	1.9809365	1.4074575
22.195942855951145	1.9396954	1.3927295
22.213803881373742	1.987521	1.4097947
22.231665453349002	2.0255504	1.4232184
22.24952757236111	2.017312	1.4203211
22.26739023889438	1.9627539	1.4009832
22.28525345343323	1.98509	1.4089322
22.30311721646225	2.0109031	1.4180632
22.320981528466113	2.0232286	1.4224024
22.33884638992964	2.0182488	1.4206508
22.356711801337788	2.0077412	1.4169478
22.37457776317561	1.9536171	1.3977185
22.392444275928337	1.9370923	1.3917947
22.410311340081282	1.9487878	1.3959899
22.428178956119904	1.9804492	1.4072844
22.446047124529805	1.9809352	1.407457
22.46391584579669	1.9577713	1.3992038
22.481785120406414	1.9517697	1.3970575
22.49965494884496	1.9420944	1.3935905
22.51752533159841	1.9447277	1.394535
22.53539626915302	1.9428294	1.3938541
22.553267761995137	1.9599142	1.3999693
22.571139810611264	1.9412209	1.393277
22.589012415488025	1.9559718	1.3985606
22.60688557711216	1.96653	1.4023302
22.624759295970566	2.0153759	1.4196393
22.642633572550263	2.0016909	1.4148113
22.660508407338362	1.972133	1.4043266
22.67838380082217	1.9281251	1.3885695
22.696259753489077	1.9120141	1.382756
22.714136265826614	1.9111825	1.3824552
22.73201333832246	1.9127773	1.383032
22.74989097146439	1.9009242	1.3787401
22.76776916574035	1.8795102	1.3709522
22.785647921638393	1.8938866	1.3761855
22.803527239646712	1.9249796	1.3874363
22.82140712025363	1.9390464	1.3924965
22.839287563947593	1.9196452	1.3855126
22.85716857121719	1.9152192	1.3839145
22.875050142551135	1.9143564	1.3836026
22.892932278438277	1.9271334	1.3882123
22.910814979367604	1.9204803	1.385814
22.928698245828222	1.9222571	1.3864548
22.946582078309387	1.9587817	1.3995649
22.96446647730047	1.9592118	1.3997185
22.98235144329098	1.920856	1.3859495
23.000236976770562	1.9056317	1.3804462
23.018123078229	1.9481642	1.3957665
23.03600974815619	1.9624963	1.4008913
23.053896987042194	1.9387071	1.3923746
23.071784795377173	1.9005735	1.3786129
23.08967317365145	1.9002191	1.3784844
23.10756212235546	1.9292018	1.3889571
23.125451641979787	1.9219146	1.3863313
23.143341733015134	1.9585477	1.3994812
23.161232395952357	1.9369884	1.3917572
23.179123631282426	1.9459916	1.3949881
23.197015439496468	1.9464252	1.3951434
23.214907821085717	1.9562734	1.3986684
23.23280077654157	1.9059678	1.3805679
23.250694306355538	1.9616891	1.4006032
23.268588411019277	2.0210078	1.4216216
23.28648309102458	2.0452724	1.4301302
23.304378346863356	2.0176082	1.4204253
23.322274179027676	2.0176187	1.420429
23.340170588009723	1.9967277	1.4130561
23.358067574301852	1.932541	1.3901587
23.37596513839651	1.9019749	1.3791211
23.39386328078629	1.8935322	1.3760568
23.411762001963947	1.9444544	1.394437
23.429661302422353	1.9586887	1.3995316
23.4475611826545	1.9879512	1.4099473
23.46546164315356	1.947227	1.3954308
23.48336268441279	1.9379472	1.3921016
23.501264306925638	1.9001039	1.3784425
23.51916651118564	1.9042122	1.3799319
23.537069297686497	1.8936112	1.3760854
23.554972666922037	1.9369024	1.3917264
23.57287661938623	1.9571263	1.3989733
23.59078115557318	1.9524149	1.3972884
23.608686275977128	1.9396707	1.3927206
23.62659198109246	1.9149722	1.3838252
23.6444982714137	1.9041461	1.379908
23.66240514743549	1.9191204	1.3853232
23.68031260965263	1.9019922	1.3791274
23.698220658560068	1.8533676	1.3613844
23.716129294652845	1.8420479	1.3572206
23.7340385184262	1.886879	1.3736371
23.75194833037546	1.9265383	1.387998
23.769858730996123	1.8793174	1.370882
23.78776972078382	1.8576236	1.3629466
23.80568130023431	1.8616817	1.3644346
23.823593469843495	1.8885074	1.3742298
23.841506230107424	1.9003537	1.3785331
23.859419581522275	1.8807181	1.3713927
23.87733352458438	1.8915726	1.3753445
23.89524805979019	1.8941097	1.3762666
23.913163187636318	1.913332	1.3832325
23.931078908619508	1.94713	1.395396
23.948995223236633	1.9381001	1.3921566
23.966912131984735	1.9706532	1.4037995
23.98482963536096	1.9975126	1.4133339
24.002747733862616	1.9628218	1.4010074
24.020666427987155	1.947935	1.3956844
24.038585718232156	1.9945792	1.4122957
24.056505605095353	2.0561097	1.4339141
24.074426089074617	2.111976	1.4532639
24.092347170667946	2.103843	1.450463
24.110268850373515	2.077905	1.441494
24.128191128689586	2.1084385	1.4520463
24.146114006114626	2.0773642	1.4413065
24.164037483147187	2.0904155	1.4458269
24.181961560286005	2.069406	1.4385431
24.199886238029926	2.0467896	1.4306606
24.21781151687797	2.035125	1.426578
24.235737397329274	2.0410209	1.428643
24.253663879883135	2.0423682	1.4291145
24.271590965038975	2.0636885	1.4365544
24.289518653296376	2.0763776	1.4409641
24.30744694515505	2.0993676	1.4489194
24.32537584111486	2.0960517	1.4477748
24.34330534167581	2.1064074	1.4513468
24.361235447338046	2.050737	1.4320394
24.379166158601876	2.0364485	1.4270419
24.39709747596772	2.0551646	1.4335846
24.41502939993615	2.0465922	1.4305916
24.432961931007917	1.9820889	1.4078668
24.450895069683856	1.9729846	1.4046297
24.468828816465	1.9695274	1.4033985
24.4867631718525	1.9553494	1.3983381
24.504698136347656	1.9581267	1.3993307
24.52263371045192	1.9591404	1.399693
24.540569894666874	1.9237133	1.3869799
24.558506689494266	1.8974229	1.3774698
24.57644409543597	1.891363	1.3752683
24.594382112994012	1.9004873	1.3785816
24.61232074267057	1.9463887	1.3951304
24.630259984967953	1.9933499	1.4118605
24.64819984038863	2.0120485	1.4184669
24.66614030943522	2.0039737	1.4156178
24.684081392610462	1.9682834	1.4029553
24.702023090417274	1.9557352	1.398476
24.7199654033587	1.9783294	1.406531
24.737908331937927	1.9920442	1.4113979
24.755851876658305	2.0092206	1.4174697
24.773796038023324	2.039446	1.4280918
24.79174081653661	2.0812016	1.442637
24.809686212701962	2.1214275	1.4565121
24.827632227023294	2.1240208	1.4574021
24.8455788600047	2.164799	1.4713256
24.8635261121504	2.1534219	1.4674542
24.88147398396475	2.1344564	1.4609779
24.899422475952303	2.1002724	1.4492316
24.917371588617698	2.1255	1.4579095
24.935321322465768	2.1378152	1.462127
24.953271678001478	2.2512276	1.5004091
24.97122265572994	2.4404202	1.5621845
24.989174256156414	2.7994092	1.6731435
25.00712647978632	3.2761078	1.8100022
25.02507932712521	3.8515449	1.9625353
25.043032798678798	4.381964	2.0933142
25.060986894952933	4.9775867	2.2310505
25.078941616453637	5.6274285	2.3722203
25.096896963687055	6.511853	2.5518334
25.114852937159508	7.6763744	2.770627
25.132809537377444	8.167702	2.8579192
25.150766764847468	8.276274	2.8768513
25.168724620076347	7.675889	2.7705395
25.186683103570985	6.6791506	2.5844052
25.204642215838426	5.551839	2.356234
25.222601957385894	4.293025	2.0719616
25.24056232872074	3.2973719	1.8158667
25.25852333035048	2.6827943	1.6379238
25.276484962782778	2.301279	1.5169967
25.294447226525435	2.1279771	1.4587587
25.312410122086423	2.0462496	1.4304718
25.330373649973843	1.9676867	1.4027425
25.348337810695988	1.9158667	1.3841484
25.366302604761245	1.9431033	1.3939524
25.384268032678207	1.9607825	1.4002794
25.40223409495558	1.9957767	1.4127196
25.420200792102257	1.9432884	1.3940188
25.438168124627246	1.8979232	1.3776513
25.45613609303974	1.906408	1.3807273
25.474104697849057	1.9304249	1.3893974
25.492073939564698	1.885161	1.3730117
25.510043818696285	1.853918	1.3615866
25.528014335753614	1.8697758	1.3673974
25.54598549124664	1.8445224	1.3581319
25.56395728568544	1.8429741	1.3575618
25.58192971958028	1.8967266	1.3772169
25.59990279344156	1.9551934	1.3982823
25.617876507779833	1.925887	1.3877633
25.635850863105826	1.8907729	1.3750538
25.653825859930386	1.8873887	1.3738227
25.671801498764548	1.8653867	1.3657916
25.68977778011949	1.8178256	1.3482676
25.707754704506524	1.791032	1.3382944
25.725732272437153	1.8169568	1.3479453
25.743710484423012	1.8234161	1.3503393
25.761689340975888	1.8296438	1.3526433
25.77966884260774	1.8543522	1.3617461
25.797648989830662	1.8519546	1.3608654
25.815629783156922	1.8737408	1.3688465
25.83361122309895	1.8812659	1.3715924
25.85159331016929	1.8139402	1.346826
25.869576044880695	1.7678007	1.3295866
25.887559427746034	1.7651303	1.328582
25.90554345927836	1.7666384	1.3291495
25.92352813999086	1.807512	1.3444375
25.94151347039689	1.8120453	1.3461224
25.959499451009965	1.8560568	1.3623718
25.97748608234374	1.8591397	1.3635027
25.995473364912062	1.8582375	1.3631718
26.013461299228904	1.8087881	1.3449119
26.03144988580839	1.8069453	1.3442267
26.04943912516483	1.8477755	1.3593291
26.067429017812675	1.8550094	1.3619874
26.085419564266537	1.8496958	1.3600352
26.103410765041186	1.865748	1.3659239
26.12140262065155	1.9002011	1.3784778
26.139395131612723	1.875504	1.3694904
26.157388298439948	1.8262218	1.3513777
26.17538212164861	1.8169923	1.3479586
26.193376601754295	1.7925605	1.3388654
26.211371739272714	1.8093103	1.345106
26.229367534719746	1.8015879	1.3422325
26.247363988611433	1.7853789	1.3361807
26.26536110146397	1.7196898	1.3113694
26.283358873793727	1.660635	1.2886562
26.301357306117204	1.6626446	1.2894357
26.319356398951104	1.7330676	1.3164603
26.33735615281224	1.8609935	1.3641824
26.35535656821762	1.8882478	1.3741353
26.373357645684404	1.8394377	1.3562587
26.39135938572991	1.8073226	1.344367
26.409361788871614	1.7998502	1.3415849
26.427364855627165	1.7807242	1.3344377
26.445368586514352	1.7641665	1.3282193
26.46337298205115	1.7951969	1.3398496
26.48137804275568	1.8265725	1.3515075
26.499383769146217	1.8020719	1.3424127
26.517390161741215	1.786995	1.3367853
26.53539722105928	1.813157	1.3465352
26.553404947619182	1.7953597	1.3399104
26.571413341939856	1.8266039	1.3515191
26.589422404540397	1.916278	1.3842969
26.60743213594006	1.9053102	1.3803297
26.62544253665827	1.8252351	1.3510126
26.64345360721459	1.7624626	1.3275777
26.66146534812879	1.7209325	1.3118432
26.679477759920758	1.7190616	1.3111299
26.69749084311057	1.7468846	1.3216976
26.71550459821847	1.7565359	1.3253437
26.733519025764842	1.8282803	1.3521391
26.751534126270258	1.83737	1.3554963
26.769549900255434	1.8516983	1.3607712
26.787566348241267	1.8302416	1.3528643
26.80558347074881	1.804753	1.343411
26.823601268299267	1.7699485	1.3303941
26.841619741414036	1.7687967	1.3299612
26.85963889061465	1.8045102	1.3433206
26.877658716422832	1.8313192	1.3532624
26.89567921936045	1.7973701	1.3406603
26.913700399949544	1.7635573	1.3279899
26.93172225871233	1.7544965	1.3245741
26.949744796171174	1.815303	1.3473318
26.967768012848605	1.8436105	1.3577962
26.98579190926733	1.8538083	1.3615463
27.003816485950225	1.852325	1.3610015
27.021841743420318	1.777923	1.3333877
27.039867682200814	1.7652152	1.328614
27.057894302815072	1.7939268	1.3393755
27.07592160578664	1.815962	1.3475764
27.0939495916392	1.800317	1.341759
27.111978260896635	1.8048592	1.3434504
27.13000761408296	1.7906737	1.3381606
27.148037651722397	1.7783412	1.3335446
27.166068374339304	1.8040525	1.3431503
27.184099782458215	1.8434952	1.3577538
27.20213187660384	1.8890935	1.3744429
27.22016465730105	1.8728364	1.3685161
27.23819812507487	1.8599511	1.3638003
27.256232280450533	1.8373638	1.3554939
27.274267123953383	1.8296882	1.3526597
27.292302656108987	1.8481603	1.3594706
27.31033887744306	1.8294498	1.3525715
27.32837578848146	1.834992	1.3546188
27.34641338975026	1.8485774	1.359624
27.364451681775673	1.8770639	1.3700598
27.382490665084074	1.85278	1.3611686
27.400530340202046	1.8262645	1.3513936
27.41857070765629	1.8030332	1.3427707
27.436611767973726	1.7999202	1.341611
27.454653521681404	1.8193235	1.3488231
27.472695969306564	1.835492	1.3548033
27.490739111376627	1.8435026	1.3577565
27.508782948419153	1.8744546	1.3691072
27.526827480961902	1.8636202	1.3651447
27.54487270953279	1.8506159	1.3603734
27.562918634659898	1.8325651	1.3537227
27.580965256871508	1.7868125	1.3367171
27.599012576696026	1.7480773	1.3221487
27.617060594662068	1.8013582	1.3421469
27.63510931129842	1.8305429	1.3529756
27.65315872713401	1.8454833	1.3584857
27.67120884269797	1.85373	1.3615175
27.68925965851958	1.8411461	1.3568884
27.707311175128307	1.8552564	1.362078
27.725363393053787	1.8792481	1.3708568
27.74341631282583	1.8809569	1.3714799
27.7614699349744	1.8849227	1.3729249
27.77952426002968	2.042466	1.4291487
27.797579288521973	2.0671895	1.4377724
27.815635020981784	2.442441	1.562831
27.83369145793979	2.5191958	1.5871974
27.85174859992682	2.5079257	1.5836432
27.869806447473923	2.4404135	1.5621823
27.887865001112267	2.069839	1.4386935
27.905924261373233	1.958798	1.3995707
27.92398422878836	1.9648862	1.401744
27.94204490388936	1.9445243	1.394462
27.96010628720813	1.9314864	1.3897792
27.978168379276728	1.9501143	1.396465
27.9962311806274	1.8936465	1.3760983
28.014294691792568	1.8341585	1.3543111
28.0323589133048	1.8134377	1.3466394
28.050423845696887	1.8140413	1.3468635
28.068489489501758	1.8413916	1.3569789
28.086555845252523	1.9093262	1.3817837
28.104622913482487	1.9380332	1.3921326
28.122690694725115	1.972623	1.404501
28.14075918951405	1.9814225	1.4076301
28.15882839838312	1.9539108	1.3978236
28.176898321866304	1.9172225	1.3846381
28.1949689604978	1.8849512	1.3729353
28.213040314811945	1.8623003	1.3646612
28.23111238534327	1.8324604	1.3536841
28.249185172626493	1.8592877	1.363557
28.267258677196473	1.8792528	1.3708584
28.285332899588294	1.9255569	1.3876444
28.303407840337172	1.9294153	1.3890339
28.321483499978545	1.9074823	1.3811163
28.33955987904799	1.8962401	1.3770404
28.357636978081285	1.89513	1.3766372
28.37571479761439	1.8848464	1.3728971
28.393793338183425	1.9239625	1.3870697
28.41187260032469	1.932605	1.3901817
28.429952584574686	1.9381294	1.3921672
28.448033291470065	1.9159724	1.3841865
28.46611472154769	1.930564	1.3894473
28.484196875344566	1.9301585	1.3893014
28.502279753397914	1.9333277	1.3904415
28.52036335624511	1.9650503	1.4018025
28.538447684423716	1.9904813	1.4108442
28.556532738471482	1.9824831	1.4080068
28.574618518926325	1.9814693	1.4076467
28.59270502632635	1.9980541	1.4135255
28.61079226120985	2.024449	1.4228314
28.628880224115274	2.023115	1.4223624
28.646968915581287	2.048	1.4310836
28.66505833614671	2.092026	1.4463837
28.68314848635055	2.0838435	1.4435524
28.701239366732004	2.047339	1.4308525
28.71933097783044	2.074138	1.4401867
28.737423320185403	2.154723	1.4678974
28.75551639433665	2.1712556	1.4735181
28.773610200824074	2.107947	1.4518771
28.791704740187793	2.1420112	1.4635612
28.80980001296809	2.1645138	1.4712287
28.827896019705413	2.1828456	1.4774456
28.845992760940433	2.1992974	1.4830029
28.86409023721397	2.1759026	1.4750941
28.88218844906704	2.1699963	1.4730908
28.900287397040845	2.200211	1.4833108
28.918387081676755	2.215106	1.4883232
28.936487503516343	2.2235117	1.4911444
28.954588663101365	2.215877	1.4885823
28.97269056097374	2.2819543	1.5106139
28.990793197675597	2.3480976	1.5323503
29.00889657374923	2.3897429	1.5458794
29.027000689737125	2.3318748	1.5270478
29.04510554618196	2.3993618	1.5489874
29.06321114362659	2.4015996	1.5497096
29.08131748261405	2.4250762	1.5572656
29.099424563687567	2.4390216	1.5617367
29.11753238739057	2.445155	1.5636991
29.13564095426663	2.4933255	1.5790267
29.15375026485954	2.5647974	1.6014985
29.171860319713275	2.6367915	1.6238201
29.18997111937199	2.646978	1.6269536
29.20808266438002	2.660941	1.631239
29.226194955281898	2.7513971	1.6587336
29.244307992622335	2.8145256	1.6776547
29.26242177694624	2.8204095	1.6794075
29.2805363087987	2.8491147	1.687932
29.29865158872498	2.9202578	1.7088761
29.316767617270557	3.0189245	1.7375052
29.334884394981064	3.0432737	1.7444981
29.353001922402367	3.0719836	1.7527075
29.37112020008047	3.1460178	1.7737017
29.389239228561596	3.2282147	1.7967234
29.407359008392152	3.4083915	1.846183
29.42547954011872	3.738357	1.9334831
29.44360082428809	4.3608303	2.0882602
29.46172286144722	5.414332	2.3268716
29.479845652143283	6.957968	2.6377962
29.497969196923606	8.961351	2.9935517
29.516093496335728	11.421767	3.3796105
29.5342185509274	14.183355	3.7660797
29.55234436124651	16.42917	4.0532913
29.570470927841175	17.842615	4.224052
29.588598251259686	17.639626	4.1999555
29.60672633205055	16.381548	4.0474124
29.624855170762405	14.226449	3.7717965
29.642984767944146	11.561327	3.4001951
29.66111512414481	8.9697	2.9949458
29.67924623991366	6.7503257	2.5981388
29.697378115800138	5.1406627	2.267303
29.71551075235387	4.143911	2.0356598
29.733644150124675	3.6266625	1.9043798
29.751778309662576	3.4183557	1.8488796
29.769913231517766	3.3413818	1.8279446
29.78804891624066	3.3386815	1.8272059
29.806185364381818	3.2985063	1.816179
29.82432257649206	3.2809927	1.8113511
29.842460553122333	3.396818	1.8430458
29.86059929482382	3.3678539	1.8351713
29.878738802147872	3.2785769	1.8106841
29.896879075646048	3.2210443	1.7947268
29.915020115870114	3.1858864	1.7849052
29.933161923371976	3.2106166	1.7918193
29.951304498703777	3.2224095	1.7951071
29.969447842417857	3.2249923	1.7958263
29.987591955066733	3.1846056	1.7845464
30.005736837203123	3.2022936	1.7894953
30.023882489379943	3.2046978	1.790167
30.04202891215028	3.1484473	1.7743864
30.060176106067455	3.109401	1.7633494
30.078324071684946	3.151411	1.7752215
30.09647280955646	3.1653545	1.7791443
30.114622320235863	3.228733	1.7968676
30.132772604277257	3.2151232	1.7930765
30.1509236622349	3.097673	1.7600207
30.16907549466328	3.0222716	1.7384682
30.18722810211705	3.062021	1.7498631
30.205381485151097	3.0654454	1.7508414
30.22353564432045	3.0762014	1.7539103
30.241690580180403	3.1199477	1.7663374
30.25984629328638	3.0925002	1.7585506
30.278002784194037	3.088099	1.7572988
30.296160053459246	3.0147514	1.7363039
30.314318101638033	2.9562864	1.7193855
30.332476929286646	2.9121382	1.7064989
30.35063653696153	2.8859012	1.698794
30.368796925219307	2.8322318	1.6829236
30.386958094616844	2.8556716	1.6898732
30.40512004571115	2.883276	1.6980212
30.423282779059463	2.896198	1.7018219
30.441446295219233	2.810914	1.676578
30.459610594748067	2.7633348	1.6623281
30.47777567820382	2.7900732	1.6703513
30.495941546144504	2.7659342	1.6631098
30.51410819912835	2.7517328	1.6588348
30.532275637713795	2.8405569	1.6853951
30.55044386245946	2.8731453	1.6950355
30.56861287392416	2.8833542	1.6980442
30.586782672666956	2.8473074	1.6873966
30.604953259247047	2.8190231	1.6789947
30.623124634223885	2.8057964	1.6750512
30.641296798157075	2.7843983	1.6686517
30.659469751606462	2.7723975	1.6650518
30.677643495132074	2.7876766	1.6696336
30.695818029294152	2.7724807	1.6650769
30.713993354653116	2.7016032	1.6436554
30.73216947176962	2.6681674	1.6334525
30.75034638120448	2.723178	1.6502054
30.768524083518756	2.754222	1.6595849
30.786702579273673	2.7845306	1.6686913
30.80488186903069	2.851156	1.6885366
30.82306195335144	2.910455	1.7060056
30.841242832797782	3.0793145	1.7547976
30.85942450793176	3.405538	1.84541
30.877606979315637	3.7712197	1.9419628
30.895790247511883	4.070953	2.0176601
30.913974313083134	4.516155	2.1251247
30.932159176592283	4.839297	2.19984
30.95034483860237	4.8459826	2.2013593
30.968531299676698	4.6005917	2.144899
30.98671856037873	4.3648934	2.0892327
31.00490662127215	4.0270147	2.0067422
31.023095482920848	3.5446906	1.8827349
31.04128514588892	3.0652986	1.7507994
31.059475610740662	2.770674	1.6645342
31.07766687804056	2.6011078	1.612795
31.09585894835335	2.4965584	1.5800501
31.11405182224393	2.4297428	1.5587633
31.132245500277417	2.5104764	1.5844483
31.15043998301914	2.5869806	1.6084093
31.168635271034628	2.558797	1.599624
31.18683136488964	2.451217	1.5656363
31.20502826515008	2.40157	1.5497
31.223225972382135	2.3813975	1.5431777
31.241424487152155	2.3732827	1.5405462
31.259623810026692	2.3509393	1.5332773
31.27782394157253	2.3844333	1.5441611
31.296024882356644	2.4299064	1.5588157
31.314226632946237	2.4536114	1.5664008
31.332429193908684	2.4503808	1.5653692
31.350632565811598	2.4810164	1.5751243
31.368836749222787	2.4752545	1.5732942
31.387041744710295	2.5113118	1.5847119
31.40524755284232	2.558643	1.5995759
31.423454174187317	2.5294032	1.5904098
31.441661609313922	2.5501177	1.5969088
31.459869858791002	2.4953165	1.5796571
31.478078923187628	2.4619594	1.5690632
31.496288803073064	2.4176002	1.5548633
31.514499499016807	2.4406579	1.5622605
31.532711011588546	2.4641464	1.56976
31.550923341358178	2.4336526	1.5600169
31.56913648889584	2.3699534	1.5394653
31.587350454771844	2.3106818	1.5200927
31.605565239556732	2.2938309	1.5145398
31.62378084382127	2.3309553	1.5267466
31.641997268136382	2.3039148	1.5178652
31.660214513073274	2.2641716	1.5047164
31.67843257920331	2.3054657	1.518376
31.6966514670981	2.2925878	1.5141294
31.71487117732944	2.2843792	1.5114163
31.733091710469346	2.348296	1.532415
31.751313067090052	2.4197867	1.5555663
31.769535247764008	2.3709195	1.5397791
31.787758253063878	2.3685124	1.5389972
31.805982083562526	2.3427954	1.5306193
31.824206739833024	2.329939	1.5264137
31.84243222244869	2.2481759	1.4993918
31.860658531983013	2.2755196	1.5084826
31.878885669009737	2.3244483	1.5246142
31.897113634102784	2.2574832	1.5024923
31.91534242783632	2.2394404	1.496476
31.933572050784694	2.2609794	1.5036553
31.951802503522508	2.281152	1.5103483
31.970033786624548	2.197113	1.4822662
31.988265900665834	2.208033	1.4859452
32.006498846221575	2.173369	1.474235
32.02473262386724	2.1301491	1.459503
32.04296723417845	2.1938753	1.4811736
32.0612026777311	2.1824563	1.4773139
32.07943895510129	2.2117984	1.4872116
32.097676066865304	2.2079504	1.4859173
32.115914013599685	2.2073064	1.4857006
32.13415279588115	2.1959248	1.4818653
32.152392414286666	2.2164152	1.488763
32.1706328693934	2.2239828	1.4913024
32.18887416177875	2.2306347	1.493531
32.20711629202032	2.1424847	1.4637228
32.225359260695924	2.0815167	1.4427463
32.243603068383614	2.1616564	1.4702573
32.26184771566166	2.299483	1.5164046
32.28009320310852	2.2740836	1.5080065
32.2983395313029	2.2355545	1.495177
32.31658670082372	2.248746	1.4995819
32.33483471225012	2.1705	1.4732617
32.35308356616143	2.0426836	1.4292248
32.371333263137245	2.0055578	1.4161772
32.38958380375734	2.103096	1.4502056
32.407835188601744	2.1213574	1.456488
32.42608741825067	2.0870497	1.4446625
32.444340493284585	2.0567753	1.4341462
32.46259441428416	2.0200753	1.4212935
32.48084918183028	2.0301752	1.4248421
32.49910479650405	2.0156815	1.419747
32.51736125888683	2.0095272	1.417578
32.53561856956014	2.0978172	1.4483843
32.5538767291058	2.1217184	1.456612
32.572135738105764	2.043849	1.4296324
32.59039559714228	2.0719912	1.4394413
32.608656306797776	2.0868843	1.4446052
32.62691786765491	2.044173	1.4297458
32.645180280296586	2.009577	1.4175955
32.663443545305896	2.0397928	1.4282131
32.68170766326619	1.9795777	1.4069747
32.69997263476099	1.9880576	1.409985
32.7182384603741	2.0385144	1.4277655
32.7365051406895	2.0049832	1.4159743
32.75477267629144	1.9439799	1.3942667
32.77304106776434	1.9059414	1.3805584
32.79131031569289	1.891477	1.3753098
32.809580420661966	1.8693151	1.367229
32.827851383256714	1.8692569	1.3672076
32.84612320406245	1.9009709	1.378757
32.86439588366476	1.9571595	1.3989851
32.88266942264945	1.9173832	1.384696
32.9009438216025	1.9216821	1.3862475
32.9192190811102	1.9494323	1.3962207
32.937495201758985	2.0702906	1.4388504
32.95577218413556	2.063601	1.4365239
32.974050028826866	1.9407758	1.3931173
32.992328736420035	1.9215432	1.3861974
33.010608307502444	1.9274381	1.3883221
33.02888874266169	1.93831	1.3922321
33.047170042485604	1.985568	1.4091018
33.06545220756225	1.9619341	1.4006906
33.083735238479896	1.9667137	1.4023957
33.10201913582707	2.0184734	1.4207299
33.12030390019248	2.0126963	1.4186952
33.138589532165135	2.037711	1.4274842
33.15687603233419	2.0616522	1.4358455
33.17516340128909	1.9790186	1.406776
33.19345163961947	1.9081879	1.3813717
33.211740747915215	1.9903425	1.410795
33.23003072676643	2.0210125	1.4216232
33.248321576763466	2.0412915	1.4287378
33.266613298496885	2.0467806	1.4306574
33.28490589255747	2.0700338	1.4387612
33.30319935953626	1.9612724	1.4004543
33.32149370002451	1.9498578	1.3963732
33.339788914613706	1.9241819	1.3871489
33.358085003895575	1.8960204	1.3769605
33.376381968462034	1.9010916	1.3788007
33.39467980890529	1.8762497	1.3697627
33.41297852581774	1.8522487	1.3609735
33.43127811979204	1.9375877	1.3919727
33.44957859142105	1.9825915	1.4080453
33.467879941297866	1.9563721	1.3987037
33.486182170015844	2.0512776	1.4322282
33.50448527816853	2.0153837	1.4196421
33.522789266349754	1.9744622	1.4051555
33.541094135153514	1.86329	1.3650239
33.55939988517411	1.8555038	1.3621688
33.57770651700602	1.9313104	1.3897159
33.59601403124398	1.9799954	1.4071231
33.61432242848296	1.9134969	1.3832921
33.632631709318154	1.944562	1.3944755
33.650941874344994	1.9877487	1.4098754
33.66925292415916	2.0798342	1.442163
33.68756485935654	2.0952044	1.4474821
33.70587768053328	1.9936819	1.411978
33.724191388285746	1.91399	1.3834703
33.74250598321054	1.9642698	1.4015241
33.760821465904506	2.0479786	1.431076
33.77913783696474	2.0536318	1.4330498
33.79745509698852	1.9561989	1.3986418
33.815773246573414	1.8903761	1.3749095
33.8340922863172	1.9174892	1.3847343
33.852412216817896	1.9014575	1.3789334
33.87073303867377	1.9604867	1.4001738
33.889054752483304	1.960383	1.4001368
33.907377358845245	1.9398752	1.392794
33.92570085835853	2.0008883	1.4145277
33.94402525162239	2.0083904	1.417177
33.96235053923627	1.929142	1.3889356
33.980676721799824	1.8955439	1.3767875
33.999003799912984	1.9104129	1.3821769
34.01733177417592	1.9971871	1.4132187
34.03566064518901	2.0091357	1.4174398
34.0539904135529	1.8226206	1.3500447
34.07232107986846	1.7904443	1.3380748
34.090652644736785	1.8992071	1.3781172
34.108985108759235	1.9099427	1.3820068
34.12731847253742	2.0446653	1.4299179
34.14565273667313	2.005497	1.4161557
34.16398790176847	1.8512161	1.360594
34.18232396842574	1.8993019	1.3781517
34.20066093724749	1.9988137	1.413794
34.21899880883651	2.132775	1.4604024
34.23733758379583	2.084052	1.4436246
34.25567726272874	1.9925336	1.4115713
34.27401784623872	1.9295678	1.3890889
34.29235933492957	1.946972	1.3953394
34.31070172940526	1.880531	1.3713245
34.32904503027003	1.8271797	1.3517321
34.347389238128386	1.8981572	1.3777363
34.36573435358502	1.9265321	1.3879957
34.38408037724492	1.9710016	1.4039236
34.402427309713296	2.0334885	1.4260044
34.42077515159559	1.936352	1.3915286
34.43912390349752	2.0115044	1.4182751
34.45747356602499	2.1424785	1.4637208
34.47582413978423	1.9781028	1.4064504
34.49417562538163	1.7223256	1.312374
34.51252802342388	1.7367264	1.3178492
34.53088133451789	1.9870801	1.4096383
34.54923555927084	2.1026213	1.4500419
34.567590698290104	2.0270402	1.4237416
34.58594675218336	1.911978	1.3827429
34.6043037215585	1.8027768	1.3426752
34.62266160702365	1.7788635	1.3337405
34.641020409187234	1.7311391	1.3157276
34.65938012865785	1.8547531	1.3618932
34.677740766044394	2.0577686	1.4344925
34.69610232195598	2.0792243	1.4419516
34.714464797002016	1.9519953	1.3971382
34.73282819179208	1.84516	1.3583667
34.751192506936064	1.8420782	1.3572319
34.76955774304408	1.8826461	1.3720955
34.7879239007265	2.0136425	1.4190288
34.80629098059391	1.9746153	1.40521
34.824658983257194	1.9705715	1.4037704
34.843027909327446	2.2009058	1.4835451
34.86139775941603	2.0473514	1.4308568
34.879768534134534	1.8786753	1.3706478
34.89814023409483	1.7555096	1.3249564
34.91651285990901	1.9135576	1.383314
34.93488641218944	1.9452281	1.3947144
34.95326089154871	1.7655294	1.3287323
34.97163629859967	1.7781342	1.333467
34.99001263395542	1.9884152	1.4101118
35.00838989822934	2.1017811	1.4497521
35.02676809203499	2.0360105	1.4268883
35.04514721598624	2.0888782	1.4452952
35.063527270697215	2.12603	1.4580913
35.081908256782256	2.1195657	1.4558729
35.10029017485597	2.1888525	1.4794772
35.11867302553321	2.069767	1.4386685
35.137056809429104	1.8304778	1.3529515
35.155441527159006	1.8372185	1.3554404
35.173827179338524	1.8846103	1.3728111
35.19221376658354	2.0738268	1.4400787
35.21060128951017	2.17663	1.4753406
35.2289897487348	2.1128728	1.4535724
35.24737914487405	1.8453498	1.3584365
35.26576947854479	1.847114	1.3590857
35.28416075036418	2.0263083	1.4234846
35.30255296094958	1.937535	1.3919537
35.32094611091867	1.8349344	1.3545974
35.33934020088932	1.8081585	1.3446778
35.35773523147969	1.6913939	1.300536
35.3761312033082	1.8725586	1.3684146
35.394528116993506	2.1892545	1.479613
35.41292597315452	2.3318796	1.5270493
35.431324772410434	2.242149	1.4973807
35.449724515380666	2.334478	1.5278999
35.46812520268491	2.6611233	1.631295
35.486526834943106	2.8846266	1.6984189
35.504929412775454	2.54367	1.5948887
35.52333293680242	2.2893257	1.5130517
35.54173740764471	1.9641898	1.4014956
35.560142825923286	1.6296287	1.2765691
35.5785491922594	1.4110099	1.1878594
35.59695650727454	1.204146	1.0973359
35.61536477159042	1.5075935	1.227841
