0.008763373481513119	0.0	0.0
0.026290120649546365	0.0	0.0
0.043816868432600686	0.0	0.0
0.06134361724069026	0.04474922	0.21154012
0.07887036748382949	0.102808505	0.32063764
0.0963971195720331	0.19985119	0.44704717
0.11392387391531617	0.19684356	0.44367057
0.1314506309236943	0.20730059	0.45530275
0.1489773910071836	0.21716905	0.466014
0.16650415457580078	0.16414873	0.40515274
0.18403092203956356	0.15688209	0.39608344
0.20155769380849	0.09138368	0.30229732
0.2190844702925996	0.090861924	0.30143312
0.2366112519019124	0.11697816	0.3420207
0.2541380390464497	0.12812017	0.35793877
0.27166483213623416	0.1284936	0.35846004
0.28919163158128947	0.13765389	0.37101737
0.3067184377916406	0.13772398	0.3711118
0.324245251177314	0.10969398	0.3312008
0.34177207214833777	0.106431134	0.32623786
0.3592989011147415	0.121834345	0.34904778
0.37682573848655654	0.15447211	0.3930294
0.39435258467381573	0.14468075	0.38036925
0.41187944008655414	0.12732178	0.35682178
0.42940630513480854	0.11816234	0.3437475
0.446933180228618	0.12623726	0.35529882
0.4644600657780234	0.1284976	0.3584656
0.48198696219306775	0.09246857	0.30408645
0.49951386988379676	0.09743389	0.312144
0.5170407892602581	0.13591145	0.3686617
0.5345677207325025	0.1855317	0.43073392
0.5520946647105822	0.19993712	0.4471433
0.5696216216045534	0.17023395	0.41259417
0.5871485918244737	0.17511024	0.41846174
0.6046755757804043	0.17255543	0.4153979
0.6222025738824094	0.1804164	0.42475453
0.6397295865405557	0.17327532	0.41626352
0.6572566141649129	0.17418143	0.4173505
0.6747836571655547	0.17754523	0.42136118
0.6923107159525568	0.16913126	0.41125572
0.7098377909359992	0.17102426	0.4135508
0.7273648825259653	0.18378066	0.42869645
0.7448919911325411	0.1886063	0.43428826
0.762419117165817	0.1810563	0.42550713
0.7799462610358868	0.20070413	0.44800013
0.7974734231528482	0.20873775	0.45687827
0.8150006039268024	0.21880296	0.46776378
0.8325278037678551	0.16701356	0.40867293
0.8500550230861152	0.14220646	0.37710273
0.8675822622916969	0.12593739	0.35487658
0.8851095217947171	0.1911873	0.43724972
0.9026368020052984	0.22042811	0.4694977
0.9201641033335665	0.22011723	0.46916652
0.9376914261896523	0.20490283	0.45266193
0.9552187709836915	0.16651148	0.40805817
0.9727461381258234	0.20732665	0.45533136
0.990273528026193	0.2214468	0.47058135
1.0078009410949496	0.24650279	0.49649048
1.0253283777422473	0.23301953	0.48272097
1.0428558383782454	0.2214388	0.47057283
1.0603833234131086	0.2100074	0.45826563
1.0779108332570058	0.26845968	0.51813096
1.0954383683201119	0.27902538	0.5282285
1.112965929012607	0.37756723	0.614465
1.1304935157446763	0.5369696	0.7327821
1.1480211289265108	0.5621393	0.7497595
1.1655487689683062	1.3447809	1.1596469
1.1830764362802655	1.5666085	1.2516423
1.200604131272596	2.0225976	1.4221805
1.2181318543555117	2.3632548	1.5372881
1.235659605939232	2.3777914	1.5420089
1.253187386433982	3.9748843	1.9937112
1.270715196249994	6.26842	2.5036814
1.2882430357975057	11.603969	3.4064598
1.3057709054867608	16.418888	4.052023
1.3232988057280106	22.432188	4.7362633
1.3408267369315112	27.390167	5.2335615
1.358354699507526	31.012432	5.5688806
1.3758826938663256	34.8957	5.907258
1.3934107204181858	36.891045	6.0738
1.410938779573391	37.298206	6.107226
1.4284668717422309	37.914013	6.1574354
1.4459949973350033	37.923477	6.158204
1.4635231567620117	37.962418	6.161365
1.4810513504335687	36.940098	6.0778365
1.4985795787599925	35.86558	5.988788
1.5161078421516088	35.354675	5.9459796
1.5336361410187505	34.66496	5.887696
1.5511644757717598	34.934116	5.910509
1.5686928468209842	35.771004	5.9808865
1.58622125457678	36.623486	6.051734
1.6037496994495108	37.84865	6.152126
1.621278181849548	37.620953	6.133592
1.6388067021872719	38.389725	6.1959443
1.6563352608730693	37.843685	6.151722
1.673863858317336	36.918583	6.0760665
1.6913924949304753	35.78763	5.982276
1.7089211711228998	34.45312	5.869678
1.7264498873050296	33.61532	5.797872
1.7439786438872935	32.648285	5.7138677
1.7615074412801288	31.620619	5.6232214
1.779036279893981	31.166586	5.582704
1.796565160139305	30.54006	5.526306
1.814094082426564	30.017004	5.4787774
1.8316230471662298	29.491295	5.4305887
1.849152054768784	28.719566	5.359064
1.8666811056447168	28.255424	5.315583
1.8842102002045273	27.141562	5.2097564
1.901739338858724	26.529493	5.150679
1.9192685220178245	25.641155	5.0637097
1.9367977500923557	24.861412	4.986122
1.9543270234928547	24.161112	4.9153953
1.971856342629867	23.592094	4.857169
1.9893857079139496	23.184202	4.8149977
2.006915119755667	22.836542	4.7787595
2.0244445785655945	22.431564	4.7361975
2.0419740847543175	22.164389	4.707907
2.0595036387324317	21.812193	4.6703525
2.0770332409105414	21.34932	4.6205325
2.094562891699263	21.141708	4.5980115
2.1120925915092217	20.419258	4.5187674
2.129622340751053	20.061785	4.4790382
2.1471521398354043	188.17462	13.717675
2.1646819891729323	444.51947	21.08363
2.182211889174303	441.22894	21.005451
2.1997418402501974	453.28207	21.290422
2.2172718428113023	433.08377	20.810665
2.234801897268317	320.8248	17.911583
2.2523320040319548	17.279495	4.1568613
2.269862163512935	17.105827	4.135919
2.287392376121992	17.027296	4.1264143
2.304922642269869	16.796282	4.0983267
2.322452962367322	16.247536	4.030823
2.3399833368251164	15.730306	3.966145
2.357513766054032	15.392035	3.9232683
2.3750442504648586	15.004576	3.873574
2.3925747904683963	14.649607	3.8274806
2.410105386475459	14.440209	3.8000276
2.4276360388968707	14.082079	3.7526097
2.445166748143469	14.040059	3.7470067
2.4626975146261025	13.848733	3.7213886
2.4802283387556323	13.733799	3.705914
2.4977592209429305	13.551817	3.6812792
2.5152901615988825	13.209354	3.6344676
2.5328211611343865	12.784545	3.5755482
2.5503522199603523	12.431038	3.5257678
2.5678833384877024	12.298456	3.5069156
2.5854145171273712	12.117927	3.4810812
2.6029457562903064	12.0324745	3.4687858
2.620477056387469	11.929616	3.4539275
2.6380084178298326	11.764787	3.4299834
2.655539841028383	11.660825	3.414795
2.673071326394119	11.61047	3.407414
2.6906028743380523	11.354233	3.3696043
2.708134485271211	11.010742	3.3182437
2.7256661596046325	10.769926	3.2817566
2.743197897749369	10.59277	3.2546535
2.760729700116486	10.528498	3.2447646
2.778261567117063	10.296956	3.208887
2.795793499162193	10.074646	3.1740582
2.8133254966629817	9.966773	3.1570196
2.830857560030551	9.808938	3.1319225
2.8483896896760337	9.808646	3.1318758
2.865921886010578	9.748381	3.1222396
2.883454149445347	9.623007	3.1020973
2.9009864803915177	9.501963	3.0825253
2.91851887926028	9.372111	3.0613904
2.9360513464628384	9.270887	3.0448132
2.953583882410413	9.015394	3.0025647
2.9711164875142373	8.80158	2.9667459
2.9886491621855606	8.671812	2.9447942
3.0061819068356455	8.704242	2.9502952
3.023714721875769	8.710212	2.9513068
3.041247607717225	8.548078	2.9237096
3.0587805647713213	8.298879	2.8807774
3.0763135934493806	8.161648	2.8568597
3.0938466941627407	8.010052	2.8302035
3.1113798673227544	7.900789	2.8108342
3.1289131133407904	7.6249795	2.7613366
3.1464464326282315	7.5653377	2.750516
3.1639798255964786	7.506333	2.7397687
3.1815132926569443	7.497352	2.7381294
3.1990468342210603	7.5350604	2.7450066
3.216580450700272	7.4714346	2.7333925
3.2341141425060416	7.3487735	2.7108622
3.251647910049847	7.200076	2.6832957
3.2691817537431813	7.1235595	2.6689997
3.286715673997555	7.2092123	2.6849976
3.3042496712244938	7.255356	2.6935768
3.32178374583554	7.1937203	2.6821113
3.339317898242251	7.1198163	2.6682985
3.3568521288562034	7.0458145	2.6543953
3.3743864380889876	6.9728646	2.6406183
3.3919208263522127	6.845362	2.6163642
3.4094552940575023	6.740958	2.5963356
3.4269898416164972	6.528272	2.5550485
3.444524469440858	6.4581184	2.541283
3.4620591779422587	6.4925323	2.5480447
3.479593967532391	6.5828886	2.5657141
3.4971288386229658	6.5686727	2.5629423
3.5146637916257086	6.4267783	2.535109
3.5321988269523628	6.4673934	2.543107
3.5497339450146903	6.3640785	2.5227125
3.5672691462244708	6.358006	2.5215087
3.5848044309934988	6.377558	2.5253828
3.60233979973359	6.442527	2.5382133
3.619875252856575	6.394229	2.5286813
3.6374107907743034	6.2882724	2.5076427
3.6549464138986427	6.294275	2.5088394
3.6724821226414788	6.2420893	2.4984174
3.690017917414714	6.183525	2.4866695
3.7075537986302702	6.1715183	2.4842541
3.7250897667000857	6.2436852	2.4987366
3.7426258220361235	6.5279927	2.5549936
3.7601619650503553	6.9021354	2.6271915
3.777698196154779	7.510558	2.7405398
3.7952345157614067	8.643919	2.9400542
3.8127709242822716	9.442581	3.0728784
3.830307422129425	11.815408	3.4373548
3.847844009714936	30.585289	5.530397
3.8653806874508954	97.94207	9.896568
3.882917455749409	97.08953	9.853402
3.900454315022606	96.8015	9.838776
3.917991265682631	41.406555	6.4347925
3.9355283081416506	11.015899	3.3190207
3.9530654428118495	8.745377	2.9572582
3.970602670105433	7.3962574	2.7196062
3.9881399904346244	6.418098	2.5333965
4.005677404211669	6.3699174	2.5238695
4.023214911848827	6.301585	2.5102959
4.0407525137583855	6.290049	2.507997
4.058290210352644	6.335784	2.5170984
4.075828002043927	6.236177	2.4972339
4.0933658892445814	6.2092834	2.4918435
4.110903872366966	6.1853285	2.4870322
4.128441951823468	6.112144	2.472275
4.145980128026488	6.1136875	2.472587
4.163518401388452	6.0639424	2.4625072
4.181056772321807	6.01839	2.4532406
4.1985952412390155	6.0414896	2.4579442
4.216133808552567	6.1633	2.4825995
4.233672474674966	6.356439	2.521198
4.251211240018741	6.5692554	2.5630558
4.268750104996445	6.739007	2.5959597
4.286289070020643	7.580125	2.7532027
4.303828135503928	9.143795	3.023871
4.3213673018589125	29.415892	5.4236417
4.3389065694982305	90.58627	9.517682
4.356445938834537	165.96733	12.882831
4.3739854102805085	171.4404	13.093525
4.391524984248844	172.40634	13.13036
4.409064661152262	136.28152	11.673967
4.426604441403504	96.48495	9.822675
4.444144325415337	75.65209	8.697821
4.461684313600543	21.662409	4.6542892
4.47922440637193	22.303255	4.7226324
4.496764604142329	20.726173	4.552601
4.5143049073245916	18.921686	4.3499064
4.531845316331589	16.739452	4.0913877
4.5493858315762195	13.763779	3.7099566
4.566926453471405	11.485131	3.388972
4.584467182430081	9.393091	3.064815
4.602008018865218	8.249337	2.872166
4.619548963189798	7.562912	2.7500749
4.637090015816834	7.097206	2.6640582
4.654631177159353	6.8388433	2.6151183
4.672172447630417	6.5157557	2.5525978
4.689713827643102	6.393387	2.5285149
4.7072553176105085	6.2109427	2.4921763
4.724796917945764	5.9428773	2.4378018
4.742338629062015	5.7910967	2.4064698
4.759880451372434	5.7261767	2.3929431
4.777422385290215	5.7328095	2.3943286
4.794964431228581	5.7474318	2.39738
4.812506589600768	5.799771	2.4082713
4.830048860820047	5.7656593	2.4011788
4.847591245299709	5.758405	2.3996677
4.8651337434530655	5.685954	2.3845239
4.882676355693457	5.6501555	2.3770056
4.900219082434242	5.6094847	2.3684351
4.917761924088813	5.559507	2.3578606
4.935304881070575	5.567387	2.3595312
4.952847953792969	5.5858326	2.3634367
4.970391142669449	5.5919595	2.3647325
4.9879344481135055	5.5056825	2.346419
5.005477870538642	5.474002	2.3396585
5.023021410358394	5.452328	2.3350222
5.040565067986324	5.426594	2.329505
5.05810884383601	5.35972	2.3151069
5.075652738321066	5.401049	2.3240156
5.09319675185512	5.3931375	2.322313
5.110740884851836	5.418407	2.327747
5.128285137724894	5.377896	2.319029
5.145829510888007	5.295375	2.3011682
5.163374004754908	5.364295	2.3160949
5.1809186197393595	5.3878016	2.321164
5.198463356255145	5.3871546	2.3210244
5.216008214716077	5.3352327	2.3098123
5.233553195535998	5.2206206	2.2848678
5.251098299128764	5.206299	2.2817316
5.268643525908272	5.169785	2.2737162
5.286188876288432	5.1970606	2.2797062
5.3037343506831895	5.2168007	2.2840316
5.32127994950651	5.2444353	2.2900732
5.3388256731723915	5.2158556	2.2838247
5.356371522094851	5.247531	2.290749
5.373917496687938	5.242728	2.2897005
5.391463597365729	5.2987857	2.3019092
5.40900982454232	5.3142486	2.3052654
5.426556178631843	5.245036	2.2902043
5.444102660048449	5.142624	2.2677355
5.4616492692063225	5.16252	2.2721179
5.479196006519669	5.17545	2.2749615
5.496742872402727	5.1624575	2.2721043
5.514289867269756	5.181262	2.2762387
5.531836991535049	5.1897306	2.278098
5.549384245612924	5.20959	2.2824526
5.566931629917724	5.2262406	2.2860973
5.584479144863822	5.236563	2.288354
5.6020267908656205	5.258823	2.2932124
5.619574568337545	5.1798506	2.2759285
5.637122477694054	5.1764	2.2751703
5.654670519349629	5.1886387	2.2778583
5.672218693718784	5.1863885	2.2773645
5.689767001216059	5.13035	2.2650275
5.707315442256021	5.080152	2.2539194
5.724864017253266	5.113583	2.2613232
5.7424127266224225	5.114522	2.2615309
5.75996157077814	5.1511374	2.2696118
5.777510550135105	5.152069	2.2698169
5.795059665108022	5.1682687	2.2733827
5.812608916111639	5.1813183	2.2762508
5.830158303560715	5.29484	2.3010519
5.847707827870055	5.202476	2.2808938
5.86525748945448	5.3170896	2.3058815
5.8828072887288485	5.4370975	2.3317585
5.900357226108044	5.557998	2.3575406
5.917907302006979	5.6389194	2.374641
5.9354575168406	6.26773	2.5035436
5.9530078710238765	6.9560494	2.6374323
5.970558364971812	7.5685925	2.7511075
5.988108999099438	7.89452	2.8097188
6.005659773821818	8.400537	2.898368
6.023210689554039	8.259305	2.8739007
6.040761746711227	8.723517	2.95356
6.058312945708531	8.141028	2.8532488
6.075864286961132	7.5216374	2.7425604
6.093415770884244	6.7587852	2.5997665
6.1109673978931065	6.1980534	2.489589
6.128519168402993	5.573833	2.3608966
6.146071082829204	5.491711	2.34344
6.163623141587075	5.3421726	2.311314
6.181175345091969	5.2955937	2.3012156
6.198727693759281	5.2726464	2.2962244
6.216280188004435	5.286503	2.2992396
6.233832828242885	5.2291636	2.2867365
6.251385614890126	5.188487	2.277825
6.268938548361669	5.126049	2.264078
6.286491629073067	5.1321836	2.2654324
6.304044857439898	5.2112575	2.2828178
6.321598233877777	5.1703305	2.2738361
6.339151758802344	5.0845585	2.2548966
6.356705432629277	5.056001	2.2485554
6.37425925577428	5.062815	2.25007
6.391813228653095	5.078525	2.2535584
6.409367351681486	5.0804853	2.2539933
6.426921625275259	5.021987	2.240979
6.44447604985025	5.0197444	2.2404785
6.46203062582232	4.9834323	2.2323604
6.47958535360737	4.958704	2.2268147
6.497140233621328	4.9824624	2.232143
6.514695266280161	5.0302176	2.2428148
6.532250451999859	5.0752487	2.2528312
6.549805791196454	5.0507593	2.2473896
6.567361284286002	5.000787	2.236244
6.584916931684597	4.9936724	2.2346525
6.602472733808367	5.0130386	2.2389817
6.6200286910734665	5.072846	2.2522979
6.637584803896092	5.0735035	2.2524438
6.655141072692462	5.0536222	2.2480264
6.672697497878842	5.0553637	2.2484136
6.690254079871514	4.9986367	2.235763
6.707810819086808	4.9912944	2.2341206
6.725367715941078	4.9903054	2.233899
6.742924770850719	5.041401	2.2453065
6.760481984232151	5.0857596	2.255163
6.778039356501836	5.0728025	2.2522883
6.795596888076266	5.086626	2.255355
6.813154579371963	5.055919	2.248537
6.830712430805492	5.027382	2.2421825
6.84827044279344	4.9851837	2.2327526
6.865828615752445	5.005214	2.2372336
6.883386950099159	5.012026	2.2387555
6.900945446250287	4.984709	2.2326462
6.918504104622553	4.9144278	2.2168508
6.936062925632727	4.929642	2.2202797
6.953621909697607	4.9789834	2.2313635
6.971181057234028	5.037846	2.2445147
6.988740368658859	5.085057	2.255007
7.006299844389007	5.100374	2.258401
7.023859484841407	5.2376223	2.2885852
7.041419290433036	5.3297706	2.3086295
7.058979261580902	5.4973273	2.344638
7.0765393987020495	5.720057	2.391664
7.094099702213559	6.0927086	2.4683414
7.111660172532549	6.4426355	2.5382347
7.129220810076164	6.7465854	2.597419
7.146781615261595	7.2935767	2.7006624
7.16434258850606	7.582389	2.7536137
7.181903730226821	7.9581494	2.8210192
7.1994650408411704	8.105208	2.8469648
7.217026520766437	8.201272	2.8637862
7.234588170419983	8.471652	2.9106102
7.252149990219215	8.512814	2.9176726
7.269711980581568	8.439306	2.9050484
7.2872741419245175	8.193685	2.8624613
7.304836474665574	7.8376703	2.799584
7.322398979222286	7.514322	2.7412264
7.339961656012233	7.257675	2.6940072
7.357524505453039	6.8916445	2.625194
7.375087527962357	6.58217	2.565574
7.392650723957886	6.246879	2.4993758
7.410214093857353	5.877915	2.424441
7.427777638078528	5.6361356	2.3740547
7.445341357039213	5.477068	2.3403137
7.4629052511572525	5.3429604	2.3114843
7.480469320850524	5.3207903	2.3066838
7.498033566536948	5.327659	2.3081722
7.5155979886344735	5.282537	2.298377
7.5331625875610975	5.2836103	2.2986104
7.550727363734844	5.2166624	2.2840014
7.568292317573788	5.2296276	2.2868378
7.585857449496025	5.201442	2.280667
7.603422759919705	5.2313814	2.2872214
7.620988249263007	5.2599444	2.2934568
7.638553917944147	5.309959	2.3043349
7.656119766381391	5.3131495	2.305027
7.673685794993023	5.353567	2.3137777
7.691252004197388	5.3969593	2.3231356
7.70881839441285	5.421798	2.3284755
7.726384966057826	5.344721	2.3118653
7.743951719550762	5.2684045	2.2953005
7.761518655310149	5.225613	2.28596
7.779085773754511	5.275695	2.296888
7.796653075302419	5.3216915	2.3068793
7.814220560372475	5.3015327	2.3025057
7.831788229383323	5.2872076	2.299393
7.8493560827536495	5.2654476	2.2946563
7.866924120902174	5.282597	2.2983902
7.884492344247663	5.3131213	2.3050208
7.9020607532089135	5.35232	2.3135083
7.919629348204771	5.399611	2.3237064
7.937198129654115	5.440836	2.33256
7.954767097975865	5.455523	2.335706
7.972336253588986	5.445359	2.3335292
7.989905596912472	5.4504585	2.3346217
8.007475128365371	5.445432	2.333545
8.025044848366756	5.4215937	2.3284316
8.042614757335754	5.509527	2.3472383
8.060184855691523	5.550016	2.3558471
8.07775514385327	5.7264595	2.3930023
8.095325622240228	5.782422	2.4046667
8.112896291271687	5.873925	2.4236183
8.130467151366968	5.8685493	2.422509
8.148038202945436	5.9565163	2.4405975
8.165609446426497	5.9387765	2.4369605
8.183180882229594	5.9718947	2.443746
8.200752510774217	5.9245644	2.4340427
8.218324332479893	5.860636	2.420875
8.235896347766193	5.843642	2.4173627
8.253468557052724	5.8465614	2.4179664
8.27104096075914	5.876602	2.4241705
8.288613559305137	5.937131	2.4366229
8.306186353110448	6.0413895	2.457924
8.32375934259485	6.191873	2.4883475
8.341332528178162	6.285645	2.507119
8.358905910280246	6.2922864	2.508443
8.376479489321003	6.2128806	2.4925652
8.394053265720377	6.252388	2.5004776
8.411627239898356	6.3174863	2.513461
8.42920141227497	6.351552	2.5202286
8.44677578327029	6.2944393	2.508872
8.464350353304427	6.2579336	2.5015862
8.48192512279754	6.2265677	2.495309
8.499500092169827	6.192761	2.4885259
8.51707526184153	6.1303396	2.4759521
8.534650632232934	6.1461954	2.4791522
8.552226203764365	6.177985	2.4855554
8.569801976856192	6.2308674	2.4961705
8.587377951928834	6.262492	2.5024972
8.60495412940274	6.2461286	2.4992256
8.622530509698416	6.27639	2.5052724
8.6401070932364	6.4135556	2.5324998
8.657683880437283	6.5799747	2.5651462
8.675260871721695	6.716761	2.5916715
8.692838067510303	6.878202	2.6226327
8.710415468223834	7.0196	2.6494527
8.727993074283043	7.1216736	2.6686463
8.745570886108737	7.0990205	2.6643987
8.763148904121765	7.1625795	2.6762996
8.78072712874302	7.2195287	2.686918
8.798305560393441	7.5238543	2.7429645
8.815884199494006	7.6317444	2.762561
8.833463046465745	7.8254128	2.797394
8.851042101729728	7.8953547	2.8098674
8.86862136570707	8.130022	2.8513193
8.886200838818924	8.232447	2.869224
8.903780521486505	8.329306	2.8860536
8.921360414131055	8.501219	2.915685
8.938940517173874	8.63366	2.9383092
8.956520831036297	8.7179165	2.952612
8.97410135613971	8.966541	2.9944184
8.99168209290554	9.150493	3.0249782
9.009263041755265	9.536853	3.0881796
9.026844203110405	9.764306	3.124789
9.044425577392525	10.000451	3.162349
9.062007165023239	10.017627	3.1650634
9.079588966424197	10.238727	3.199801
9.097170982017108	10.29099	3.2079573
9.11475321222372	11.39867	3.3761916
9.132335657465825	12.438687	3.5268524
9.149918318165264	12.47898	3.5325599
9.167501194743924	13.073495	3.6157289
9.18508428762374	12.701852	3.5639658
9.202667597226693	12.720678	3.566606
9.220251123974803	12.419075	3.5240707
9.237834868290143	12.105174	3.479249
9.255418830594836	12.033466	3.4689288
9.273003011311046	11.443645	3.3828456
9.290587410860985	11.189571	3.3450816
9.308172029666911	10.43445	3.2302399
9.32575686815113	10.144637	3.1850648
9.343341926735997	8.760628	2.9598358
9.360927205843916	8.482112	2.9124064
9.378512705897327	8.361298	2.8915908
9.396098427318728	8.17334	2.8589053
9.413684370530664	8.062792	2.8395057
9.431270535955722	7.992203	2.8270485
9.448856924016539	7.9026723	2.8111691
9.466443535135806	7.853175	2.8023517
9.484030369736251	7.7870846	2.7905347
9.501617428240658	7.7258787	2.7795465
9.519204711071852	7.7718267	2.7877996
9.536792218652714	7.8114862	2.7949035
9.55437995140617	7.86585	2.8046122
9.571967909755191	7.8615394	2.8038437
9.589556094122802	7.8457594	2.8010283
9.60714450493207	7.9626355	2.8218143
9.624733142606116	8.041621	2.8357751
9.642322007568108	8.126756	2.8507466
9.659911100241267	8.097434	2.8455992
9.677500421048851	7.9745173	2.8239188
9.695089970414175	7.980378	2.8249564
9.712679748760609	8.072422	2.8412008
9.730269756511557	8.192296	2.8622186
9.747859994090492	8.221602	2.8673337
9.765450461920915	8.188571	2.861568
9.78304116042639	8.17697	2.85954
9.800632090030527	8.241523	2.8708053
9.81822325115699	8.337352	2.8874474
9.835814644229481	8.327135	2.8856776
9.853406269671762	8.341731	2.8882055
9.870998127907646	8.336974	2.8873818
9.888590219360985	8.355867	2.8906517
9.906182544455698	8.307667	2.8823023
9.923775103615734	8.323978	2.8851306
9.941367897265108	8.331838	2.8864923
9.958960925827878	8.363058	2.8918953
9.97655418972816	8.382675	2.895285
9.994147689390106	8.355777	2.890636
10.011741425237934	8.280036	2.877505
10.029335397695904	8.215885	2.8663366
10.04692960718833	8.172682	2.8587902
10.06452405413958	8.222699	2.8675249
10.082118738974064	8.345932	2.8889327
10.099713662116246	8.367076	2.8925898
10.117308823990651	8.3594	2.8912628
10.134904225021844	8.309459	2.8826132
10.152499865634445	8.236172	2.869873
10.170095746253125	8.211775	2.8656194
10.18769186730261	8.117603	2.849141
10.205288229207675	8.137113	2.8525624
10.222884832393145	8.157989	2.8562193
10.2404816772839	8.191209	2.8620288
10.258078764304868	8.202458	2.8639934
10.275676093881035	8.207081	2.8648002
10.293273666437438	8.157935	2.85621
10.310871482399158	8.170557	2.8584187
10.32846954219134	8.166436	2.8576977
10.346067846239173	8.19574	2.8628201
10.363666394967908	8.137116	2.8525631
10.38126518880283	8.13924	2.8529353
10.398864228169298	8.220259	2.8670993
10.416463513492713	8.307607	2.882292
10.434063045198531	8.234907	2.8696527
10.451662823712262	8.192343	2.862227
10.469262849459467	8.158447	2.8562996
10.486863122865758	8.163803	2.8572369
10.504463644356806	8.121387	2.8498046
10.522064414358338	7.9542503	2.820328
10.539665433296118	7.8531337	2.8023443
10.557266701595987	7.7961817	2.7921643
10.574868219683818	7.810015	2.7946405
10.592469987985552	7.7643895	2.7864654
10.610072006927185	7.6271625	2.7617319
10.627674276934751	7.503371	2.7392282
10.64527679843435	7.3879056	2.7180703
10.662879571852143	7.315604	2.7047374
10.680482597614331	7.2849493	2.6990645
10.698085876147173	7.177319	2.6790519
10.715689407876988	7.0510383	2.655379
10.733293193230146	6.945163	2.6353676
10.750897232633072	6.816629	2.6108675
10.76850152651225	6.6916165	2.5868158
10.786106075294207	6.567169	2.5626488
10.803710879405534	6.5042744	2.5503478
10.821315939272877	6.4813366	2.545847
10.83892125532294	6.500487	2.5496051
10.856526827982472	6.454758	2.5406215
10.874132657678285	6.4106445	2.531925
10.891738744837243	6.343679	2.518666
10.909345089886271	6.229357	2.495868
10.926951693252343	6.1541014	2.480746
10.944558555362494	6.0281954	2.4552383
10.96216567664381	5.923328	2.4337888
10.979773057523436	5.9014826	2.4292967
10.997380698428573	5.8744817	2.423733
11.014988599786477	5.8350835	2.4155917
11.032596762024461	5.743028	2.3964615
11.050205185569892	5.6474366	2.3764336
11.067813870850198	5.5708294	2.3602605
11.085422818292859	5.507659	2.3468401
11.10303202832541	5.426408	2.3294652
11.120641501375454	5.3581743	2.314773
11.138251237870636	5.3124914	2.3048842
11.155861238238671	5.294755	2.3010335
11.173471502907317	5.231236	2.2871895
11.191082032304402	5.171241	2.2740362
11.208692826857805	5.091909	2.2565258
11.226303886995465	5.026303	2.2419417
11.243915213145371	4.9569006	2.22641
11.261526805735578	4.8777695	2.2085674
11.279138665194196	4.8636537	2.2053692
11.296750791949393	4.8407507	2.2001705
11.314363186429393	4.8159256	2.1945217
11.331975849062479	4.734612	2.1759164
11.34958878027699	4.6526656	2.1570039
11.36720198050133	4.6368136	2.1533263
11.384815450163948	4.586498	2.141611
11.402429189693366	4.5945783	2.1434968
11.420043199518153	4.5957613	2.1437726
11.437657480066942	63.5746	7.973368
11.455272031768422	85.257675	9.233508
11.472886855051353	107.59813	10.3729515
11.490501950344528	99.1372	9.956766
11.508117318076819	84.47381	9.190964
11.52573295867715	45.812687	6.768507
11.543348872574514	4.124049	2.0307755
11.560965060197946	4.071753	2.0178585
11.57858152197655	4.0607023	2.0151184
11.59619825833949	4.0025086	2.000627
11.613815269715985	3.992729	1.9981815
11.631432556535323	38.529686	6.2072287
11.649050119226837	83.00122	9.1105
11.666667958219929	93.367226	9.662672
11.68428607394406	107.64647	10.375281
11.701904466828756	82.56372	9.086458
11.719523137303586	65.44577	8.089856
11.737142085798196	4.656703	2.1579394
11.754761312742286	3.6937823	1.9219215
11.772380818565619	3.6354828	1.9066942
11.790000603698015	3.592915	1.8954986
11.80762066856935	3.646364	1.9095455
11.825241013609572	3.6494908	1.910364
11.842861639248683	3.626278	1.9042789
11.860482545916748	3.5610578	1.8870765
11.878103734043883	3.4847696	1.8667537
11.895725204060282	3.3946033	1.8424449
11.91334695639619	3.307848	1.8187491
11.930968991481919	3.3053043	1.8180496
11.948591309747824	3.3158538	1.8209486
11.966213911624347	3.3441603	1.8287046
11.98383679754198	3.339183	1.8273432
12.001459967931268	3.3248246	1.8234102
12.019083423222835	3.3262916	1.8238124
12.036707163847352	3.3065643	1.8183961
12.05433119023556	3.2294466	1.7970661
12.071955502818259	3.2197936	1.7943783
12.089580102026313	3.1803546	1.7833549
12.107204988290643	3.1512587	1.7751786
12.12483016204224	3.1368322	1.7711104
12.142455623712152	3.0830054	1.7558489
12.16008137373149	3.0687397	1.7517818
12.177707412531431	3.0896454	1.7577387
12.19533374054321	3.0919127	1.7583835
12.212960358198126	3.0708947	1.7523968
12.230587265927545	2.9956734	1.7308013
12.248214464162889	2.9572434	1.7196637
12.265841953335649	2.9611852	1.7208095
12.283469733877375	2.9948735	1.7305703
12.301097806219685	3.003942	1.7331884
12.31872617079425	2.999622	1.7319417
12.336354828032825	2.9629555	1.7213237
12.353983778367205	2.925873	1.7105184
12.371613022229262	2.9156072	1.7075149
12.389242560050928	2.9156985	1.7075417
12.406872392264201	2.9024706	1.7036638
12.424502519301143	2.8824122	1.6977668
12.442132941593874	2.8549209	1.6896511
12.459763659574586	2.861856	1.6917021
12.477394673675532	2.8614259	1.6915749
12.49502598432903	2.852382	1.6888996
12.51265759196746	2.816515	1.6782476
12.530289497023267	2.7723467	1.6650366
12.547921699928967	2.7842412	1.6686046
12.565554201117134	2.8017719	1.6738495
12.583187001020404	2.795486	1.6719707
12.600820100071486	2.7739644	1.6655222
12.618453498703152	2.740464	1.6554347
12.636087197348235	2.748573	1.6578821
12.65372119643964	2.7775228	1.6665902
12.671355496410326	2.773904	1.6655041
12.68899009769333	2.803942	1.6744975
12.706625000721749	2.8097408	1.6762282
12.724260205928752	2.8894446	1.6998366
12.741895713747551	2.9171371	1.7079629
12.759531524611454	2.9826095	1.7270234
12.777167638953818	2.9827774	1.7270719
12.794804057208072	2.9807196	1.7264761
12.812440779807702	3.039008	1.743275
12.830077807186271	3.2452714	1.8014637
12.847715139777405	3.3065736	1.8183986
12.865352778014795	3.556646	1.8859073
12.882990722332197	3.6394048	1.9077224
12.90062897316344	3.6767838	1.9174942
12.918267530942412	3.7112346	1.9264565
12.935906396103071	3.5953147	1.8961315
12.953545569079449	3.8193898	1.9543259
12.971185050305628	3.6440113	1.9089293
12.988824840215775	3.6776445	1.9177185
13.006464939244115	3.6774294	1.9176625
13.024105347824943	3.5095625	1.8733827
13.041746066392617	3.56908	1.8892009
13.05938709538157	3.378105	1.8379622
13.077028435226296	3.4490032	1.8571492
13.094670086361363	3.3626537	1.833754
13.112312049221401	3.2432075	1.8008907
13.129954324241112	3.090423	1.75796
13.147596911855258	2.8797555	1.6969843
13.165239812498685	2.8514385	1.6886203
13.182883026606293	2.791826	1.6708758
13.200526554613058	2.7772183	1.6664988
13.218170396954017	2.7456806	1.6570095
13.235814554064284	2.7249234	1.6507342
13.253459026379034	2.710285	1.6462944
13.271103814333523	2.7233276	1.6502508
13.288748918363058	2.6954584	1.6417851
13.306394338903031	2.6914117	1.6405523
13.32404007638889	2.6560788	1.6297481
13.341686131256164	2.6999815	1.643162
13.359332503940449	2.6888163	1.6397611
13.376979194877402	2.6938353	1.6412908
13.394626204502751	2.7134633	1.6472594
13.412273533252307	2.7093012	1.6459955
13.429921181561937	2.7313247	1.6526719
13.447569149867581	2.720021	1.6492486
13.465217438605247	2.7567625	1.6603501
13.482866048211022	2.689257	1.6398954
13.500514979121052	2.6834168	1.6381139
13.518164231771568	2.688383	1.639629
13.535813806598844	2.7182636	1.6487157
13.553463704039254	2.715644	1.6479211
13.571113924529229	2.6941707	1.641393
13.588764468505275	2.6878552	1.639468
13.606415336403956	2.7500584	1.65833
13.624066528661917	2.7887774	1.6699632
13.641718045715882	2.8524182	1.6889104
13.659369888002635	2.9045498	1.7042739
13.67702205595903	2.9704742	1.7235063
13.694674550021993	3.0672526	1.7513573
13.712327370628532	3.0895996	1.7577257
13.729980518215713	3.1574547	1.7769228
13.747633993220681	3.2063715	1.7906344
13.765287796080647	3.260563	1.8057029
13.7829419272329	3.312254	1.8199599
13.800596387114801	3.321783	1.8225759
13.818251176163775	3.338374	1.8271217
13.835906294817324	3.3756611	1.8372972
13.853561743513023	3.4004805	1.8440392
13.871217522688525	3.4707303	1.8629897
13.888873632781538	3.5503967	1.8842497
13.906530074229858	3.5969636	1.8965663
13.92418684747135	3.5884154	1.8943113
13.941843952943948	3.546879	1.8833159
13.959501391085665	3.4931126	1.8689871
13.977159162334578	3.4216874	1.8497803
13.994817267128846	3.3319428	1.825361
14.012475705906693	3.2742662	1.8094934
14.030134479106424	3.2309933	1.7974964
14.047793587166414	3.1725893	1.7811763
14.065453030525108	3.1285148	1.7687608
14.083112809621026	3.052169	1.7470459
14.100772924892766	2.974566	1.7246931
14.118433376778997	2.8882415	1.6994827
14.136094165718458	2.798335	1.6728225
14.153755292149969	2.758325	1.6608206
14.171416756512416	2.6735268	1.6350923
14.189078559244768	2.6097226	1.6154636
14.20674070078606	2.5522714	1.5975829
14.224403181575408	2.5246701	1.5889211
14.242066002051999	2.491518	1.5784543
14.259729162655093	2.423179	1.5566564
14.277392663824022	2.3920624	1.5466294
14.295056505998208	2.4088347	1.5520421
14.312720689617128	2.4231892	1.5566596
14.330385215120348	2.4380963	1.5614405
14.348050082947497	2.4215245	1.5561248
14.3657152935383	2.3885732	1.545501
14.383380847332528	2.3699229	1.5394554
14.401046744770051	2.3921561	1.5466597
14.418712986290798	2.3986216	1.5487484
14.436379572334793	2.3855228	1.5445138
14.454046503342123	2.3960235	1.5479094
14.471713779752946	2.4097388	1.5523334
14.489381402007504	2.4016273	1.5497185
14.507049370546113	2.3876443	1.5452003
14.524717685809168	2.4179165	1.5549651
14.542386348237134	2.4535742	1.5663888
14.560055358270553	2.504022	1.5824101
14.577724716350051	2.4833975	1.5758799
14.595394422916325	2.444655	1.5635393
14.61306447841015	2.458759	1.5680431
14.63073488327237	2.4438689	1.5632879
14.648405637943917	2.4847312	1.576303
14.6660767428658	2.477348	1.5739594
14.683748198479094	2.4928493	1.578876
14.701420005224954	2.5172093	1.5865716
14.719092163544628	2.607729	1.6148465
14.73676467387942	2.6738648	1.6351956
14.754437536670727	2.6986687	1.6427625
14.772110752360014	2.6931612	1.6410854
14.78978432138882	2.670712	1.6342313
14.807458244198777	2.6951547	1.6416926
14.82513252123159	2.6802247	1.6371392
14.842807152929028	2.6776485	1.6363522
14.860482139732962	2.6536214	1.628994
14.87815748208531	2.653711	1.6290215
14.8958331804281	2.6246426	1.6200749
14.91350923520342	2.5610886	1.6003401
14.931185646853438	2.6293404	1.6215241
14.948862415820408	2.6657495	1.6327124
14.966539542546656	2.7183282	1.6487354
14.98421702747459	2.6943028	1.6414331
15.001894871046696	2.6595416	1.6308101
15.019573073705542	2.6365685	1.6237514
15.037251635893766	2.615226	1.617166
15.054930558054092	2.6282125	1.6211762
15.072609840629323	2.669828	1.6339608
15.090289484062351	2.8356378	1.6839352
15.107969488796124	3.1367793	1.7710955
15.125649855273691	3.5619419	1.8873107
15.14333058393817	4.0765367	2.0190434
15.161011675232768	5.006727	2.2375717
15.17869312960076	6.395091	2.5288517
15.196374947485506	8.253102	2.8728213
15.214057129330447	11.315117	3.363795
15.231739675579114	15.942649	3.9928248
15.249422586675102	21.169449	4.601027
15.267105863062092	24.38287	4.9379015
15.284789505183847	24.94437	4.994434
15.302473513484218	22.796896	4.7746096
15.320157888407127	19.244219	4.386823
15.337842630396578	15.064221	3.8812654
15.355527739896656	11.746958	3.4273834
15.37321321735153	9.11929	3.0198162
15.39089906320545	6.607257	2.5704584
15.408585277902748	4.959699	2.2270381
15.42627186188783	3.8015654	1.9497603
15.443958815605198	3.2146494	1.7929443
15.461646139499424	2.9233942	1.7097936
15.479333834015168	2.7946267	1.6717137
15.497021899597165	2.7494316	1.658141
15.514710336690234	2.6889706	1.639808
15.53239914573928	2.6192706	1.6184161
15.550088327189297	2.5762372	1.6050661
15.567777881485336	2.5153844	1.5859964
15.58546780907256	2.4831781	1.5758103
15.6031581103962	2.441991	1.5626872
15.620848785901568	2.4523735	1.5660056
15.638539836034063	2.4688325	1.5712519
15.656231261239173	2.4900582	1.5779918
15.673923061962451	2.460632	1.5686402
15.691615238649552	2.4314106	1.559298
15.709307791746202	2.416291	1.5544423
15.727000721698221	2.4246712	1.5571356
15.744694028951498	2.4230406	1.5566119
15.76238771395202	2.3964837	1.548058
15.780081777145844	2.3771126	1.5417888
15.797776218979125	2.3707206	1.5397145
15.815471039898094	2.387854	1.5452683
15.833166240349064	2.3911378	1.5463305
15.850861820778437	2.400593	1.5493847
15.868557781632699	2.3918283	1.5465537
15.886254123358412	2.38869	1.5455388
15.903950846402232	2.371182	1.5398643
15.921647951210897	2.320266	1.523242
15.939345438231225	2.324642	1.5246776
15.957043307910133	2.3357303	1.5283096
15.974741560694602	2.3796375	1.5426073
15.992440197031714	2.4214678	1.5561066
16.01013921736862	2.4199936	1.5556328
16.02783862215259	2.436418	1.560903
16.045538411830933	2.392535	1.5467821
16.06323858685107	2.3826232	1.5435748
16.080939147660512	2.3662758	1.5382704
16.09864009470684	2.3747177	1.5410119
16.11634142843774	2.3789475	1.5423837
16.134043149300954	2.3845618	1.5442027
16.15174525774433	2.400509	1.5493577
16.169447754215817	2.4084826	1.5519286
16.18715063916342	2.4594865	1.568275
16.204853913035244	2.4648876	1.569996
16.222557576279478	2.4628851	1.5693582
16.240261629344403	22.417217	4.7346826
16.257966072678386	42.967194	6.5549364
16.275670906729868	38.070175	6.1701035
16.293376131947387	2.4979553	1.5804921
16.31108174877957	2.5238516	1.5886635
16.328787757675133	2.5605476	1.6001711
16.34649415908287	2.5988102	1.6120826
16.364200953451657	2.61006	1.615568
16.38190814123048	2.6226315	1.6194541
16.39961572286839	2.6305492	1.6218967
16.41732369881455	2.638601	1.6243771
16.43503206951817	2.6845677	1.638465
16.45274083542859	2.736192	1.6541439
16.47044999699522	2.7842805	1.6686164
16.488159554667558	2.8486245	1.6877868
16.505869508895184	2.8749108	1.6955562
16.523579860127786	2.917733	1.7081373
16.541290608815117	2.932257	1.7123834
16.559001755407035	2.9871478	1.7283367
16.57671330035348	3.0302582	1.7407637
16.59442524410448	3.0810962	1.7553052
16.61213758711015	3.135334	1.7706875
16.629850329820705	3.1920035	1.7866179
16.647563472686436	3.2793703	1.8109032
16.665277016157724	3.398256	1.8434359
16.682990960685053	3.4852824	1.8668911
16.70070530671898	3.5486023	1.8837734
16.718420054710155	3.5480423	1.8836248
16.736135205109335	3.5681129	1.8889449
16.753850758367335	3.6093938	1.8998405
16.771566714935087	3.6287487	1.9049275
16.789283075263597	3.6838582	1.919338
16.80699983980398	3.766418	1.9407262
16.82471700900741	3.844734	1.9607993
16.84243458332518	3.8921416	1.9728512
16.860152563208665	3.9646473	1.9911422
16.87787094910932	4.0116105	2.0029006
16.89558974147871	4.062628	2.0155962
16.913308940768466	4.1028647	2.025553
16.931028547430333	4.2075396	2.0512288
16.94874856191613	4.314634	2.0771697
16.966468984677785	4.353798	2.0865757
16.98418981616729	4.347101	2.0849702
17.00191105683676	4.3737874	2.09136
17.019632707138374	4.4124246	2.100577
17.03735476752442	4.504638	2.1224134
17.05507723844728	4.599969	2.1447537
17.072800120359403	4.656425	2.157875
17.090523413713353	4.698402	2.1675797
17.108247118961785	4.670412	2.1611135
17.125971236557437	4.669011	2.1607895
17.143695766953133	4.659315	2.1585448
17.161420710601806	4.6854463	2.1645892
17.179146067956477	4.6770196	2.1626418
17.19687183947025	4.6816626	2.163715
17.21459802559634	4.664856	2.1598277
17.232324626788028	4.6626396	2.1593146
17.25005164349871	4.638998	2.1538334
17.267779076181863	4.65565	2.1576955
17.285506925291074	4.6486735	2.1560783
17.30323519127999	4.620863	2.1496193
17.320963874602384	4.5881	2.141985
17.33869297571211	4.5876374	2.1418772
17.356422495063114	4.588146	2.141996
17.37415243310944	4.589308	2.142267
17.391882790305218	4.513801	2.1245708
17.40961356710468	4.5174966	2.1254404
17.42734476396215	4.521072	2.1262813
17.445076381332044	4.5305896	2.128518
17.462808419668868	4.5956454	2.1437457
17.48054087942723	4.712867	2.1709137
17.498273761061835	4.9915276	2.2341726
17.51600706502747	5.4402504	2.3324344
17.533740791779024	6.1933866	2.4886515
17.551474941771485	7.6656475	2.7686906
17.56920951545993	8.834744	2.9723299
17.586944513299528	11.105724	3.3325253
17.60467993574556	12.893872	3.5908039
17.622415783253373	14.700453	3.834117
17.64015205627843	16.163445	4.0203786
17.657888755276293	17.312618	4.1608434
17.675625880702604	17.761848	4.214481
17.69336343301311	17.559141	4.190363
17.71110141266366	16.682142	4.084378
17.728839820110178	15.68079	3.9598978
17.746578655808705	14.718789	3.8365073
17.764317920215372	13.117962	3.6218727
17.7820576137864	11.4847765	3.3889196
17.79979773697811	9.361893	3.059721
17.81753829024692	7.5319777	2.7444448
17.835279274049356	5.941422	2.4375033
17.85302068884201	4.931935	2.220796
17.870762535081607	4.2594686	2.063848
17.888504813224934	3.9334033	1.9832809
17.90624752372891	3.7702322	1.9417086
17.923990667050536	3.6636899	1.9140768
17.941734243646895	3.5868344	1.893894
17.959478253975185	3.5276587	1.8782063
17.9772226984927	3.4956753	1.8696725
17.994967577656833	3.4518936	1.8579272
18.01271289192506	3.3981135	1.8433973
18.030458641754965	3.3820102	1.8390243
18.04820482760425	3.3487604	1.8299619
18.06595144993067	3.348046	1.8297666
18.083698509192125	3.3394606	1.8274192
18.101446005846576	3.347865	1.8297173
18.119193940352105	3.3322446	1.8254436
18.136942313166887	3.2962024	1.8155446
18.1546911247492	3.2333822	1.7981608
18.1724403755574	3.1676848	1.7797991
18.19019006604997	3.1593888	1.777467
18.207940196685467	3.1560311	1.7765222
18.225690767922575	3.1743956	1.7816833
18.243441780220046	3.1250956	1.767794
18.261193234036764	3.1143656	1.7647566
18.278945129831676	3.0989401	1.7603806
18.29669746806386	3.072474	1.7528474
18.314450249192483	3.0500078	1.7464272
18.3322034736768	3.0326715	1.7414567
18.349957141976184	3.0555573	1.7480153
18.3677112545501	3.0202506	1.7378868
18.385465811858108	3.0197597	1.7377455
18.403220814359884	3.0526364	1.7471795
18.420976262515172	3.0674324	1.7514087
18.43873215678387	3.1100926	1.7635455
18.456488497625923	3.1193655	1.7661725
18.474245285501407	3.2020128	1.7894169
18.492002520870486	3.2585688	1.8051506
18.50976020419343	3.3488152	1.8299768
18.527518335930615	3.6702511	1.91579
18.545276916542516	4.2715287	2.0667677
18.563035946489688	4.441861	2.1075723
18.580795426232832	4.8636003	2.205357
18.598555356232698	4.7320786	2.1753342
18.616315736950185	5.000397	2.2361567
18.63407656884626	4.6525383	2.1569743
18.65183785238201	4.839462	2.1998777
18.669599588018617	4.6588173	2.1584294
18.68736177621737	4.6518645	2.1568182
18.705124417439652	4.5928144	2.1430852
18.72288751214696	4.4542975	2.1105206
18.740651060800886	4.615776	2.1484358
18.758415063863115	4.389367	2.0950816
18.77617952179546	4.5290604	2.1281588
18.793944435059814	4.2423615	2.0596993
18.811709804118184	4.2007394	2.0495706
18.829475629432675	4.140198	2.0347476
18.8472419114655	3.9729495	1.9932259
18.86500865067897	4.0842357	2.0209491
18.88277584753551	3.7867858	1.9459666
18.90054350249763	3.7532244	1.937324
18.918311616027957	3.397673	1.8432778
18.936080188589226	3.272845	1.8091006
18.953849220644265	2.9762905	1.7251929
18.971618712656007	2.81425	1.6775726
18.9893886650875	2.8187602	1.6789163
19.007159078401887	8.016535	2.8313487
19.024929953062408	32.922882	5.7378464
19.042701289532435	32.84535	5.7310863
19.060473088275405	25.40534	5.040371
19.07824534975489	2.7038705	1.644345
19.096018074434568	2.6924944	1.6408823
19.113791262778197	2.6673021	1.6331878
19.13156491524966	2.6424804	1.6255708
19.149339032312945	2.6547463	1.6293392
19.167113614432136	2.6584103	1.6304632
19.184888662071433	2.6090865	1.6152667
19.202664175695123	2.5728035	1.6039962
19.220440155767623	2.5307522	1.5908338
19.238216602753447	2.5334518	1.5916821
19.2559935171172	2.5110273	1.5846221
19.27377089932361	2.529766	1.5905238
19.291548749837514	2.5539205	1.598099
19.309327069123835	2.5509026	1.5971545
19.32710585764763	2.5491064	1.5965921
19.344885115874032	2.554836	1.5983855
19.362664844268313	2.5534394	1.5979484
19.380445043295822	2.500832	1.581402
19.39822571342203	2.4633672	1.5695118
19.41600685511252	2.4643214	1.5698158
19.43378846883297	2.4740334	1.572906
19.451570555049173	2.5159404	1.5861716
19.469353114227037	2.5108044	1.5845518
19.48713614683254	2.5139062	1.5855303
19.50491965333182	2.518511	1.5869818
19.52270363419109	2.4910824	1.5783163
19.540488089876686	2.4997337	1.5810546
19.55827302085503	2.5049932	1.5827171
19.576058427592674	2.486057	1.5767235
19.593844310556282	2.486526	1.5768722
19.611630670212598	2.5112362	1.5846881
19.629417507028506	2.5273933	1.5897777
19.64720482147098	2.5018232	1.5817152
19.6649926140071	2.4537163	1.5664343
19.682780885104084	2.4686866	1.5712055
19.70056963522921	2.4770715	1.5738715
19.718358864849908	2.5176225	1.5867018
19.7361485744337	2.501199	1.5815179
19.753938764448215	2.4600616	1.5684583
19.771729435361202	2.4796643	1.574695
19.789520587640506	2.5245068	1.5888697
19.807312221754092	2.5278347	1.5899166
19.825104338170043	2.487648	1.577228
19.842896937356517	2.477318	1.5739498
19.860690019781824	2.517234	1.5865793
19.87848358591436	2.5403097	1.5938349
19.896277636222635	2.5540235	1.5981313
19.914072171175278	2.5180862	1.5868479
19.931867191241015	2.4811404	1.5751636
19.94966269688869	2.4814994	1.5752776
19.967458688587264	2.4973154	1.5802896
19.985255166805807	2.5271716	1.589708
20.00305213201348	2.5045953	1.5825913
20.020849584679578	2.456661	1.5673739
20.038647525273507	2.4336355	1.5600114
20.05644595426477	2.4350882	1.5604769
20.07424487212299	2.4644382	1.569853
20.092044279317903	2.4809353	1.5750985
20.109844176319353	2.4706352	1.5718254
20.127644563597304	2.4526277	1.5660868
20.145445441621817	2.4192717	1.5554008
20.16324681086307	2.403753	1.5504042
20.181048671791373	2.4233305	1.556705
20.198851024877122	2.4670312	1.5706786
20.216653870590836	2.4467995	1.5642248
20.234457209403146	2.415609	1.554223
20.252261041784802	2.4073176	1.5515532
20.270065368206662	2.39349	1.5470909
20.287870189139685	2.3842118	1.5440893
20.305675505054968	2.3400989	1.5297382
20.323481316423702	2.332951	1.5274001
20.341287623717207	2.2970574	1.5156046
20.359094427406884	2.340028	1.5297151
20.376901727964288	2.396343	1.5480126
20.39470952586107	2.4139574	1.5536915
20.41251782156899	2.3955908	1.5477697
20.430326615559935	2.391302	1.5463835
20.448135908305886	2.428637	1.5584085
20.465945700278965	2.4514935	1.5657246
20.483755991951384	2.415181	1.5540853
20.50156678379548	2.338054	1.5290697
20.519378076283708	2.3025184	1.5174052
20.537189869888635	2.2840977	1.5113231
20.55500216508294	2.3405473	1.5298847
20.572814962339415	2.3724413	1.5402731
20.59062826213098	2.3653772	1.5379783
20.60844206493066	2.3255937	1.5249897
20.626256371211593	2.2986875	1.5161422
20.644071181447032	2.2875445	1.5124631
20.66188649611036	2.3230958	1.5241705
20.67970231567506	2.3414	1.5301634
20.697518640614742	2.3531287	1.5339911
20.715335471403122	2.3526492	1.5338348
20.73315280851404	2.344233	1.5310888
20.750970652421447	2.3337898	1.5276747
20.768789003599412	2.3438544	1.5309652
20.786607862522136	2.3488472	1.5325949
20.8044272296639	2.3204556	1.5233041
20.82224710549913	2.2843738	1.5114145
20.84006749050237	2.2783322	1.5094146
20.857888385148268	3.8559813	1.9636652
20.8757097899116	45.935787	6.7775946
20.893531705267254	64.76191	8.047479
20.911354131690224	83.778595	9.153065
20.92917706965566	69.03597	8.308789
20.94700051963877	50.139164	7.080901
20.96482448211493	29.437841	5.425665
20.982648957559622	4.2232394	2.0550523
21.00047394644843	2.3384144	1.5291876
21.01829944925707	2.3253703	1.5249165
21.036125466461375	2.2630343	1.5043385
21.053951998537297	2.2161567	1.4886762
21.071779045960906	2.2050557	1.484943
21.089606609208378	2.2092254	1.4863464
21.10743468875603	2.2075317	1.4857764
21.12526328508028	2.248826	1.4996086
21.143092398657675	2.268566	1.5061759
21.16092202996488	2.2467442	1.4989144
21.17875217947867	2.2087803	1.4861966
21.19658284767596	2.2011228	1.4836181
21.21441403503377	2.1942751	1.4813086
21.232245742029225	2.2077496	1.4858497
21.2500779691396	2.2093475	1.4863874
21.26791071684227	2.2190611	1.4896513
21.28574398561475	2.2074053	1.485734
21.30357777593465	2.2066748	1.485488
21.321412088279704	2.205691	1.4851569
21.339246923127792	2.1908166	1.4801408
21.357082280956888	2.1478403	1.4655511
21.3749181622451	2.1572742	1.4687662
21.392754567470647	2.1344187	1.460965
21.41059149711187	2.1405053	1.4630466
21.42842895164726	2.084952	1.4439363
21.446266931555378	2.0827644	1.4431785
21.464105437314945	2.0769248	1.441154
21.481944469404798	2.0999649	1.4491255
21.49978402830388	2.1045809	1.4507173
21.51762411449127	2.1252992	1.4578406
21.53546472844617	2.1408129	1.4631517
21.553305870647876	2.1339285	1.4607972
21.571147541575865	2.094854	1.4473611
21.58898974170967	2.088374	1.4451207
21.60683247152899	2.0962272	1.4478353
21.62467573151363	2.092044	1.44639
21.642519522143523	2.0795836	1.4420762
21.660363843898722	2.0800424	1.4422352
21.6782086972594	2.061848	1.4359136
21.696054082705864	2.0660083	1.4373616
21.713900000718535	2.060047	1.4352864
21.73174645177795	2.0601647	1.4353274
21.749593436364794	2.0407112	1.4285346
21.767440954959845	2.030281	1.4248793
21.785289008044032	2.028772	1.4243497
21.803137596098388	2.0529077	1.4327972
21.820986719604086	2.0455072	1.4302123
21.838836379042412	2.0266457	1.423603
21.85668657489478	2.0152853	1.4196074
21.87453730764273	2.0240014	1.4226741
21.892388577767914	2.021008	1.4216216
21.91024038575213	2.0096548	1.4176229
21.928092732077285	2.0064323	1.4164859
21.945945617225426	2.018929	1.4208902
21.963799041678694	2.0026686	1.4151567
21.981653005919398	31.310131	5.595546
21.999507510429943	78.10975	8.837972
22.01736255569286	73.08766	8.549132
22.035218142190818	4.1619186	2.0400782
22.05307427040661	1.959341	1.3997647
22.07093094082315	1.969825	1.4035046
22.088788153923474	1.9865118	1.4094367
22.106645910190746	2.021619	1.4218365
22.12450421010827	2.0244167	1.42282
22.142363054159464	2.0086446	1.4172666
22.16022244282787	2.0029619	1.4152603
22.178082376597164	2.0089068	1.4173591
22.195942855951145	2.01025	1.4178329
22.213803881373742	1.9985857	1.4137135
22.231665453349002	1.9841048	1.4085826
22.24952757236111	1.9554747	1.3983829
22.26739023889438	1.9720569	1.4042994
22.28525345343323	1.9760033	1.4057038
22.30311721646225	1.9808421	1.407424
22.320981528466113	1.989302	1.4104261
22.33884638992964	1.9870723	1.4096355
22.356711801337788	1.9655362	1.4019759
22.37457776317561	1.9411418	1.3932487
22.392444275928337	1.9521432	1.3971912
22.410311340081282	1.9554844	1.3983864
22.428178956119904	1.9812115	1.4075552
22.446047124529805	1.96923	1.4032925
22.46391584579669	1.9692844	1.403312
22.481785120406414	1.9933167	1.4118487
22.49965494884496	1.9751272	1.4053922
22.51752533159841	1.9246039	1.387301
22.53539626915302	1.8947308	1.3764923
22.553267761995137	1.9349651	1.3910302
22.571139810611264	1.966231	1.4022236
22.589012415488025	1.9743878	1.4051291
22.60688557711216	1.9966372	1.4130242
22.624759295970566	2.0040462	1.4156433
22.642633572550263	1.9969522	1.4131355
22.660508407338362	1.9606757	1.4002413
22.67838380082217	1.9721985	1.4043498
22.696259753489077	1.9645286	1.4016165
22.714136265826614	1.9787568	1.4066828
22.73201333832246	1.9304432	1.3894039
22.74989097146439	1.9135768	1.3833209
22.76776916574035	1.9046919	1.3801057
22.785647921638393	1.9035965	1.3797089
22.803527239646712	1.9118184	1.3826852
22.82140712025363	1.9071457	1.3809944
22.839287563947593	1.8831351	1.3722737
22.85716857121719	1.8752785	1.3694081
22.875050142551135	1.8830205	1.372232
22.892932278438277	1.9154549	1.3839996
22.910814979367604	1.9203873	1.3857803
22.928698245828222	1.8970492	1.3773341
22.946582078309387	1.8741308	1.368989
22.96446647730047	1.8782213	1.3704821
22.98235144329098	1.8980883	1.3777113
23.000236976770562	1.9089735	1.381656
23.018123078229	1.8863292	1.373437
23.03600974815619	1.8993176	1.3781574
23.053896987042194	1.9022423	1.379218
23.071784795377173	1.9172887	1.3846619
23.08967317365145	1.8827062	1.3721174
23.10756212235546	1.8722838	1.3683143
23.125451641979787	1.9086429	1.3815364
23.143341733015134	1.944011	1.3942779
23.161232395952357	1.9395171	1.3926655
23.179123631282426	1.9472858	1.3954518
23.197015439496468	1.9498826	1.396382
23.214907821085717	1.9258219	1.3877399
23.23280077654157	1.8977541	1.37759
23.250694306355538	1.9207426	1.3859086
23.268588411019277	1.9901371	1.4107221
23.28648309102458	2.014602	1.4193667
23.304378346863356	2.012733	1.4187082
23.322274179027676	1.972469	1.4044461
23.340170588009723	1.9514387	1.396939
23.358067574301852	1.9298708	1.389198
23.37596513839651	1.9167502	1.3844675
23.39386328078629	1.9350734	1.3910692
23.411762001963947	1.9152069	1.3839101
23.429661302422353	1.900839	1.3787092
23.4475611826545	1.9110783	1.3824176
23.46546164315356	1.9556147	1.398433
23.48336268441279	1.9227773	1.3866425
23.501264306925638	1.8758792	1.3696274
23.51916651118564	1.8485136	1.3596005
23.537069297686497	1.8247194	1.3508217
23.554972666922037	1.861575	1.3643955
23.57287661938623	1.9261248	1.387849
23.59078115557318	1.9498013	1.3963529
23.608686275977128	1.9576539	1.3991618
23.62659198109246	1.9249352	1.3874203
23.6444982714137	1.9032605	1.379587
23.66240514743549	1.9041182	1.3798978
23.68031260965263	1.9338557	1.3906314
23.698220658560068	1.9417375	1.3934624
23.716129294652845	1.9465369	1.3951834
23.7340385184262	1.9424443	1.393716
23.75194833037546	1.9554214	1.3983638
23.769858730996123	1.9655472	1.4019798
23.78776972078382	1.9173656	1.3846897
23.80568130023431	1.9060687	1.3806045
23.823593469843495	1.9322894	1.3900682
23.841506230107424	1.9477693	1.395625
23.859419581522275	1.9273795	1.3883009
23.87733352458438	1.8855401	1.3731498
23.89524805979019	1.8858024	1.3732452
23.913163187636318	1.8986704	1.3779225
23.931078908619508	1.9617229	1.4006152
23.948995223236633	1.9863142	1.4093666
23.966912131984735	2.0279822	1.4240724
23.98482963536096	1.9916517	1.4112589
24.002747733862616	1.9526441	1.3973705
24.020666427987155	1.999672	1.4140977
24.038585718232156	2.0621476	1.436018
24.056505605095353	2.027856	1.4240282
24.074426089074617	2.0127227	1.4187046
24.092347170667946	2.057149	1.4342765
24.110268850373515	2.1084235	1.4520411
24.128191128689586	2.1175392	1.4551767
24.146114006114626	2.0952325	1.4474918
24.164037483147187	2.057689	1.4344647
24.181961560286005	2.0633953	1.4364523
24.199886238029926	2.0514164	1.4322766
24.21781151687797	2.030003	1.4247818
24.235737397329274	2.0035644	1.4154732
24.253663879883135	2.0350904	1.426566
24.271590965038975	2.1041205	1.4505587
24.289518653296376	2.123469	1.4572128
24.30744694515505	2.0923595	1.4464991
24.32537584111486	2.0836627	1.4434898
24.34330534167581	2.0366025	1.4270958
24.361235447338046	2.0760357	1.4408455
24.379166158601876	2.0813544	1.44269
24.39709747596772	2.0357113	1.4267836
24.41502939993615	1.9485121	1.3958912
24.432961931007917	1.9469851	1.3953441
24.450895069683856	1.9748166	1.4052817
24.468828816465	2.0119796	1.4184426
24.4867631718525	2.0049543	1.4159641
24.504698136347656	2.000315	1.4143249
24.52263371045192	2.0082235	1.4171181
24.540569894666874	2.0116665	1.4183323
24.558506689494266	1.9814525	1.4076407
24.57644409543597	1.927003	1.3881654
24.594382112994012	1.8841825	1.3726553
24.61232074267057	1.8971449	1.3773688
24.630259984967953	1.9304998	1.3894243
24.64819984038863	1.9632787	1.4011705
24.66614030943522	1.987534	1.4097993
24.684081392610462	2.0053654	1.4161092
24.702023090417274	2.0230615	1.4223436
24.7199654033587	2.03561	1.426748
24.737908331937927	2.0376973	1.4274794
24.755851876658305	2.0604827	1.4354382
24.773796038023324	2.0439243	1.4296588
24.79174081653661	2.067264	1.4377984
24.809686212701962	2.0687451	1.4383132
24.827632227023294	2.1153688	1.4544308
24.8455788600047	2.1244307	1.4575427
24.8635261121504	2.154386	1.4677827
24.88147398396475	2.0989532	1.4487765
24.899422475952303	2.1304247	1.4595975
24.917371588617698	2.1682277	1.4724903
24.935321322465768	2.2250094	1.4916465
24.953271678001478	2.2855425	1.5118011
24.97122265572994	2.4770334	1.5738593
24.989174256156414	2.7752461	1.665907
25.00712647978632	3.3220272	1.8226429
25.02507932712521	3.8703797	1.9673281
25.043032798678798	4.381092	2.0931058
25.060986894952933	5.053782	2.248062
25.078941616453637	5.835269	2.41563
25.096896963687055	6.840835	2.615499
25.114852937159508	7.9909787	2.8268318
25.132809537377444	8.500305	2.9155283
25.150766764847468	8.508886	2.9169996
25.168724620076347	7.824397	2.7972124
25.186683103570985	6.706384	2.5896688
25.204642215838426	5.5124636	2.3478637
25.222601957385894	4.1879897	2.0464578
25.24056232872074	3.1611755	1.7779695
25.25852333035048	2.5561817	1.5988064
25.276484962782778	2.2749348	1.5082887
25.294447226525435	2.106651	1.4514307
25.312410122086423	2.0200803	1.4212953
25.330373649973843	1.9229668	1.3867108
25.348337810695988	1.9245911	1.3872963
25.366302604761245	2.0035892	1.4154819
25.384268032678207	1.9861633	1.4093131
25.40223409495558	1.952699	1.39739
25.420200792102257	1.9199834	1.3856347
25.438168124627246	1.9800702	1.4071497
25.45613609303974	1.9184608	1.3850851
25.474104697849057	1.8521287	1.3609294
25.492073939564698	1.8278574	1.3519827
25.510043818696285	1.8588033	1.3633794
25.528014335753614	1.8717467	1.3681179
25.54598549124664	1.8721831	1.3682774
25.56395728568544	1.9318805	1.3899211
25.58192971958028	1.9796045	1.4069842
25.59990279344156	1.9606018	1.4002149
25.617876507779833	1.8612169	1.3642642
25.635850863105826	1.8603469	1.3639454
25.653825859930386	1.8847181	1.3728503
25.671801498764548	1.8504995	1.3603307
25.68977778011949	1.8190545	1.3487233
25.707754704506524	1.8252362	1.3510131
25.725732272437153	1.8922666	1.3755969
25.743710484423012	1.9260547	1.3878237
25.761689340975888	1.9043952	1.3799983
25.77966884260774	1.9078707	1.3812569
25.797648989830662	1.8886243	1.3742722
25.815629783156922	1.8578695	1.3630369
25.83361122309895	1.8032281	1.3428433
25.85159331016929	1.8500209	1.3601547
25.869576044880695	1.85805	1.363103
25.887559427746034	1.8571007	1.3627548
25.90554345927836	1.8214116	1.3495969
25.92352813999086	1.8141314	1.3468969
25.94151347039689	1.841455	1.3570023
25.959499451009965	1.8445787	1.3581527
25.97748608234374	1.8668697	1.3663344
25.995473364912062	1.8612164	1.364264
26.013461299228904	1.846716	1.3589393
26.03144988580839	1.8549044	1.3619487
26.04943912516483	1.8819901	1.3718565
26.067429017812675	1.8719734	1.3682008
26.085419564266537	1.8789536	1.3707492
26.103410765041186	1.8185669	1.3485426
26.12140262065155	1.8275189	1.3518575
26.139395131612723	1.8177633	1.3482445
26.157388298439948	1.8392378	1.3561851
26.17538212164861	1.8257116	1.351189
26.193376601754295	1.8454283	1.3584654
26.211371739272714	1.8978293	1.3776172
26.229367534719746	1.8653694	1.3657852
26.247363988611433	1.7705817	1.3306321
26.26536110146397	1.7686951	1.3299229
26.283358873793727	1.7950678	1.3398014
26.301357306117204	1.8424056	1.3573524
26.319356398951104	1.8262271	1.3513796
26.33735615281224	1.8271458	1.3517196
26.35535656821762	1.8372818	1.3554637
26.373357645684404	1.867455	1.3665485
26.39135938572991	1.8621278	1.364598
26.409361788871614	1.8828067	1.372154
26.427364855627165	1.8616669	1.3644291
26.445368586514352	1.8518414	1.3608239
26.46337298205115	1.8790306	1.3707774
26.48137804275568	1.8652191	1.3657303
26.499383769146217	1.8623984	1.3646972
26.517390161741215	1.8540789	1.3616457
26.53539722105928	1.826932	1.3516405
26.553404947619182	1.803369	1.3428957
26.571413341939856	1.8005463	1.3418443
26.589422404540397	1.8150585	1.347241
26.60743213594006	1.8391858	1.3561659
26.62544253665827	1.8609831	1.3641785
26.64345360721459	1.8832144	1.3723025
26.66146534812879	1.8152705	1.3473197
26.679477759920758	1.7541796	1.3244544
26.69749084311057	1.7705806	1.3306316
26.71550459821847	1.7414612	1.3196443
26.733519025764842	1.752286	1.3237394
26.751534126270258	1.7832605	1.3353877
26.769549900255434	1.8048916	1.3434626
26.787566348241267	1.8068343	1.3441854
26.80558347074881	1.8187157	1.3485976
26.823601268299267	1.8073609	1.3443812
26.841619741414036	1.8022976	1.3424968
26.85963889061465	1.8484344	1.3595715
26.877658716422832	1.8260307	1.351307
26.89567921936045	1.8164268	1.3477488
26.913700399949544	1.804479	1.3433089
26.93172225871233	1.8196212	1.3489333
26.949744796171174	1.8296181	1.3526337
26.967768012848605	1.8427725	1.3574876
26.98579190926733	1.8574522	1.3628838
27.003816485950225	1.8342634	1.3543499
27.021841743420318	1.784383	1.335808
27.039867682200814	1.7817223	1.3348117
27.057894302815072	1.8038539	1.3430762
27.07592160578664	1.8110855	1.3457657
27.0939495916392	1.7929553	1.3390127
27.111978260896635	1.8297014	1.3526646
27.13000761408296	1.8559957	1.3623493
27.148037651722397	1.8153378	1.3473448
27.166068374339304	1.7817897	1.334837
27.184099782458215	1.7624549	1.3275748
27.20213187660384	1.7740806	1.3319461
27.22016465730105	1.7932878	1.339137
27.23819812507487	1.8099296	1.3453362
27.256232280450533	1.873565	1.3687823
27.274267123953383	1.8498774	1.3601019
27.292302656108987	1.8131479	1.3465317
27.31033887744306	1.7621799	1.3274713
27.32837578848146	1.7669832	1.3292792
27.34641338975026	1.7613884	1.3271731
27.364451681775673	1.7880725	1.3371882
27.382490665084074	1.8059009	1.3438381
27.400530340202046	1.7616835	1.3272842
27.41857070765629	1.7902614	1.3380065
27.436611767973726	1.8143752	1.3469875
27.454653521681404	1.9004868	1.3785814
27.472695969306564	1.8938655	1.3761778
27.490739111376627	1.8552358	1.3620704
27.508782948419153	1.8257911	1.3512183
27.526827480961902	1.8442212	1.358021
27.54487270953279	1.8192374	1.3487911
27.562918634659898	1.867656	1.3666221
27.580965256871508	1.890404	1.3749197
27.599012576696026	1.8525568	1.3610866
27.617060594662068	1.8249247	1.3508978
27.63510931129842	1.7933071	1.3391441
27.65315872713401	1.8217503	1.3497223
27.67120884269797	1.7995746	1.3414823
27.68925965851958	1.8412296	1.3569192
27.707311175128307	1.8841501	1.3726435
27.725363393053787	1.9058646	1.3805306
27.74341631282583	1.8530034	1.3612506
27.7614699349744	1.8269093	1.3516321
27.77952426002968	1.9919205	1.4113542
27.797579288521973	2.0733035	1.4398971
27.815635020981784	2.5271933	1.5897149
27.83369145793979	2.5770473	1.6053184
27.85174859992682	2.4061255	1.551169
27.869806447473923	2.27184	1.5072625
27.887865001112267	1.9943906	1.412229
27.905924261373233	1.8991954	1.378113
27.92398422878836	1.8730251	1.3685851
27.94204490388936	1.8619524	1.3645338
27.96010628720813	1.8628277	1.3648545
27.978168379276728	1.8564923	1.3625315
27.9962311806274	1.864027	1.3652937
28.014294691792568	1.8709174	1.3678149
28.0323589133048	1.8670245	1.3663911
28.050423845696887	1.8765392	1.3698683
28.068489489501758	1.8572881	1.3628236
28.086555845252523	1.8377389	1.3556323
28.104622913482487	1.8730152	1.3685814
28.122690694725115	1.8995144	1.3782288
28.14075918951405	1.8901902	1.3748419
28.15882839838312	1.9499394	1.3964022
28.176898321866304	1.9054362	1.3803754
28.1949689604978	1.8541968	1.361689
28.213040314811945	1.8905591	1.374976
28.23111238534327	1.9032801	1.3795942
28.249185172626493	1.9502461	1.3965122
28.267258677196473	1.9375249	1.39195
28.285332899588294	1.9053142	1.3803312
28.303407840337172	1.9142877	1.3835778
28.321483499978545	1.930449	1.389406
28.33955987904799	1.936673	1.391644
28.357636978081285	1.9333756	1.3904588
28.37571479761439	1.9042546	1.3799473
28.393793338183425	1.9393697	1.3926126
28.41187260032469	1.9798837	1.4070834
28.429952584574686	1.9825041	1.4080143
28.448033291470065	1.9525613	1.3973408
28.46611472154769	1.9903013	1.4107803
28.484196875344566	2.0283346	1.4241961
28.502279753397914	1.9721503	1.4043328
28.52036335624511	1.9634876	1.401245
28.538447684423716	1.977277	1.4061568
28.556532738471482	2.030549	1.4249734
28.574618518926325	2.0348253	1.426473
28.59270502632635	1.961749	1.4006245
28.61079226120985	1.901064	1.3787907
28.628880224115274	1.9414617	1.3933635
28.646968915581287	2.0434687	1.4294995
28.66505833614671	2.0986066	1.4486568
28.68314848635055	2.1149848	1.4542987
28.701239366732004	2.1173403	1.4551084
28.71933097783044	2.1007338	1.4493908
28.737423320185403	2.0767179	1.4410822
28.75551639433665	2.0419178	1.4289569
28.773610200824074	2.0641448	1.4367132
28.791704740187793	2.1252823	1.4578348
28.80980001296809	2.1686256	1.4726254
28.827896019705413	2.1721768	1.4738307
28.845992760940433	2.1526954	1.4672067
28.86409023721397	2.1036172	1.4503852
28.88218844906704	2.1225991	1.4569143
28.900287397040845	2.16059	1.4698945
28.918387081676755	2.198766	1.4828236
28.936487503516343	2.1968699	1.4821842
28.954588663101365	2.2095585	1.4864584
28.97269056097374	2.2569592	1.5023179
28.990793197675597	2.3008766	1.5168641
29.00889657374923	2.3804677	1.5428764
29.027000689737125	2.4240968	1.5569512
29.04510554618196	2.402212	1.5499071
29.06321114362659	2.342551	1.5305394
29.08131748261405	2.3435447	1.530864
29.099424563687567	2.4221263	1.5563182
29.11753238739057	2.4985473	1.5806794
29.13564095426663	2.5544522	1.5982654
29.15375026485954	2.608222	1.614999
29.171860319713275	2.6486797	1.6274765
29.18997111937199	2.6424239	1.6255534
29.20808266438002	2.6826363	1.6378756
29.226194955281898	2.7647226	1.6627455
29.244307992622335	2.844255	1.686492
29.26242177694624	2.8585374	1.690721
29.2805363087987	2.9434414	1.715646
29.29865158872498	3.0237818	1.7389024
29.316767617270557	3.0209482	1.7380875
29.334884394981064	2.976427	1.7252325
29.353001922402367	2.9805906	1.7264386
29.37112020008047	3.0806952	1.755191
29.389239228561596	3.2322507	1.7978461
29.407359008392152	3.3877993	1.8405975
29.42547954011872	3.7039547	1.9245661
29.44360082428809	4.3814855	2.0931997
29.46172286144722	5.507718	2.3468528
29.479845652143283	6.9368854	2.6337967
29.497969196923606	8.921011	2.9868062
29.516093496335728	11.523004	3.394555
29.5342185509274	14.450977	3.801444
29.55234436124651	16.980654	4.120759
29.570470927841175	18.592196	4.3118668
29.588598251259686	18.378769	4.2870464
29.60672633205055	17.019388	4.1254563
29.624855170762405	14.688073	3.8325021
29.642984767944146	11.855455	3.443175
29.66111512414481	9.0283985	3.0047293
29.67924623991366	6.6602216	2.5807405
29.697378115800138	5.087505	2.25555
29.71551075235387	4.194556	2.0480616
29.733644150124675	3.775224	1.9429935
29.751778309662576	3.5700467	1.8894567
29.769913231517766	3.449679	1.8573312
29.78804891624066	3.3600883	1.8330544
29.806185364381818	3.4111557	1.8469315
29.82432257649206	3.3768268	1.8376144
29.842460553122333	3.3540006	1.8313931
29.86059929482382	3.3692074	1.83554
29.878738802147872	3.3163438	1.8210832
29.896879075646048	3.26625	1.807277
29.915020115870114	3.235552	1.798764
29.933161923371976	3.2211826	1.7947654
29.951304498703777	3.2371638	1.799212
29.969447842417857	3.2321503	1.7978182
29.987591955066733	3.1999178	1.7888314
30.005736837203123	3.1951482	1.7874978
30.023882489379943	3.1469462	1.7739635
30.04202891215028	3.0766385	1.7540349
30.060176106067455	3.1234853	1.7673385
30.078324071684946	3.180443	1.7833797
30.09647280955646	3.1683002	1.779972
30.114622320235863	3.181645	1.7837166
30.132772604277257	3.2407677	1.8002132
30.1509236622349	3.2469244	1.8019224
30.16907549466328	3.1990285	1.7885828
30.18722810211705	3.175796	1.7820764
30.205381485151097	3.131526	1.7696118
30.22353564432045	3.0541756	1.74762
30.241690580180403	2.9991622	1.7318089
30.25984629328638	2.948295	1.71706
30.278002784194037	2.9321911	1.7123642
30.296160053459246	2.9420767	1.7152482
30.314318101638033	2.9751577	1.7248646
30.332476929286646	3.008835	1.7345994
30.35063653696153	2.9660873	1.7222333
30.368796925219307	2.9541457	1.7187629
30.386958094616844	2.9084167	1.7054081
30.40512004571115	2.8211424	1.6796256
30.423282779059463	2.8241262	1.6805137
30.441446295219233	2.879908	1.6970292
30.459610594748067	2.9078248	1.7052345
30.47777567820382	2.9064379	1.7048278
30.495941546144504	2.8944094	1.7012964
30.51410819912835	2.8935928	1.7010564
30.532275637713795	2.8384264	1.684763
30.55044386245946	2.8077931	1.6756471
30.56861287392416	2.810243	1.6763779
30.586782672666956	2.8183124	1.678783
30.604953259247047	2.8691483	1.693856
30.623124634223885	2.8464584	1.6871451
30.641296798157075	2.772273	1.6650144
30.659469751606462	2.7909486	1.6706133
30.677643495132074	2.8270895	1.6813952
30.695818029294152	2.8149264	1.6777742
30.713993354653116	2.786404	1.6692525
30.73216947176962	2.7822146	1.6679972
30.75034638120448	2.763839	1.6624798
30.768524083518756	2.7888558	1.6699867
30.786702579273673	2.8179593	1.6786778
30.80488186903069	2.7924674	1.6710677
30.82306195335144	2.8351889	1.6838019
30.841242832797782	3.1481497	1.7743026
30.85942450793176	3.5050886	1.8721882
30.877606979315637	3.8196516	1.9543929
30.895790247511883	4.139528	2.0345829
30.913974313083134	4.527848	2.127874
30.932159176592283	4.880587	2.2092052
30.95034483860237	5.0679445	2.2512095
30.968531299676698	4.860848	2.2047331
30.98671856037873	4.428236	2.1043375
31.00490662127215	3.9384105	1.9845428
31.023095482920848	3.3882577	1.8407221
31.04128514588892	2.9449198	1.7160769
31.059475610740662	2.725747	1.6509837
31.07766687804056	2.6443624	1.6261495
31.09585894835335	2.554664	1.5983316
31.11405182224393	2.5304601	1.590742
31.132245500277417	2.5031443	1.5821328
31.15043998301914	2.4741504	1.5729432
31.168635271034628	2.381326	1.5431546
31.18683136488964	2.433172	1.5598629
31.20502826515008	2.504015	1.582408
31.223225972382135	2.5431955	1.5947399
31.241424487152155	2.4588153	1.568061
31.259623810026692	2.3598773	1.5361892
31.27782394157253	2.3870592	1.545011
31.296024882356644	2.447921	1.5645833
31.314226632946237	2.510256	1.5843787
31.332429193908684	2.518244	1.5868976
31.350632565811598	2.466358	1.5704643
31.368836749222787	2.480702	1.5750244
31.387041744710295	2.5675156	1.6023469
31.40524755284232	2.5945554	1.6107624
31.423454174187317	2.5641334	1.6012912
31.441661609313922	2.5251262	1.5890646
31.459869858791002	2.5338533	1.5918082
31.478078923187628	2.4602933	1.5685322
31.496288803073064	2.4361222	1.5608082
31.514499499016807	2.4123425	1.5531718
31.532711011588546	2.4185753	1.555177
31.550923341358178	2.4405825	1.5622364
31.56913648889584	2.4112515	1.5528206
31.587350454771844	2.3500884	1.5329998
31.605565239556732	2.3346887	1.5279688
31.62378084382127	2.2915425	1.5137842
31.641997268136382	2.2852352	1.5116994
31.660214513073274	2.245114	1.4983705
31.67843257920331	2.256921	1.5023053
31.6966514670981	2.3261154	1.5251608
31.71487117732944	2.3804753	1.5428789
31.733091710469346	2.342188	1.5304208
31.751313067090052	2.27989	1.5099305
31.769535247764008	2.2732992	1.5077465
31.787758253063878	2.2616928	1.5038925
31.805982083562526	2.324667	1.5246859
31.824206739833024	2.3070424	1.5188951
31.84243222244869	2.3202357	1.523232
31.860658531983013	2.342407	1.5304924
31.878885669009737	2.275127	1.5083524
31.897113634102784	2.2392602	1.4964157
31.91534242783632	2.2929163	1.5142379
31.933572050784694	2.3154552	1.521662
31.951802503522508	2.2568336	1.5022762
31.970033786624548	2.233754	1.4945748
31.988265900665834	2.2249937	1.4916413
32.006498846221575	2.2190757	1.4896562
32.02473262386724	2.1970854	1.4822569
32.04296723417845	2.1450934	1.4646138
32.0612026777311	2.1386664	1.462418
32.07943895510129	2.1705718	1.473286
32.097676066865304	2.1832347	1.4775773
32.115914013599685	2.1181655	1.4553919
32.13415279588115	2.149292	1.4660463
32.152392414286666	2.166415	1.4718746
32.1706328693934	2.205816	1.485199
32.18887416177875	2.2529144	1.5009712
32.20711629202032	2.2734208	1.5077868
32.225359260695924	2.1594844	1.4695184
32.243603068383614	2.0952516	1.4474983
32.26184771566166	2.137152	1.4619001
32.28009320310852	2.1693966	1.4728872
32.2983395313029	2.1448421	1.464528
32.31658670082372	2.1391177	1.4625723
32.33483471225012	2.1404579	1.4630303
32.35308356616143	2.13193	1.460113
32.371333263137245	2.0957747	1.447679
32.38958380375734	1.9882028	1.4100364
32.407835188601744	2.036165	1.4269426
32.42608741825067	2.0444129	1.4298297
32.444340493284585	2.0257497	1.4232883
32.46259441428416	2.006027	1.4163429
32.48084918183028	2.0537949	1.4331067
32.49910479650405	2.1062696	1.4512993
32.51736125888683	2.0826762	1.443148
32.53561856956014	2.1189246	1.4556526
32.5538767291058	2.1527898	1.4672389
32.572135738105764	2.12913	1.4591538
32.59039559714228	2.084293	1.4437081
32.608656306797776	2.0727715	1.4397123
32.62691786765491	2.0199156	1.4212373
32.645180280296586	1.9260958	1.3878386
32.663443545305896	1.9168897	1.3845178
32.68170766326619	2.0012941	1.4146711
32.69997263476099	1.9683002	1.4029613
32.7182384603741	1.9749693	1.405336
32.7365051406895	2.0746965	1.4403807
32.75477267629144	1.9860319	1.4092665
32.77304106776434	1.8252841	1.3510307
32.79131031569289	1.87254	1.3684078
32.809580420661966	1.9926316	1.4116061
32.827851383256714	2.0488827	1.4313918
32.84612320406245	1.9630337	1.401083
32.86439588366476	1.9340776	1.3907112
32.88266942264945	1.8925909	1.3757147
32.9009438216025	1.8507465	1.3604214
32.9192190811102	1.844866	1.3582585
32.937495201758985	1.9771984	1.4061289
32.95577218413556	2.0145245	1.4193394
32.974050028826866	2.0005946	1.4144238
32.992328736420035	1.9695232	1.403397
33.010608307502444	2.11201	1.4532756
33.02888874266169	2.220541	1.490148
33.047170042485604	2.121299	1.456468
33.06545220756225	1.9924041	1.4115255
33.083735238479896	1.9375174	1.3919474
33.10201913582707	1.9643141	1.4015399
33.12030390019248	2.0714014	1.4392364
33.138589532165135	2.0559921	1.4338732
33.15687603233419	1.9571837	1.3989938
33.17516340128909	1.8998946	1.3783666
33.19345163961947	1.8830798	1.3722535
33.211740747915215	1.9571085	1.3989669
33.23003072676643	2.0237796	1.4225961
33.248321576763466	2.0028012	1.4152036
33.266613298496885	1.8710338	1.3678573
33.28490589255747	1.8637544	1.3651938
33.30319935953626	1.9480784	1.3957357
33.32149370002451	1.9787706	1.4066879
33.339788914613706	1.9681292	1.4029002
33.358085003895575	2.0085087	1.4172187
33.376381968462034	1.9718282	1.404218
33.39467980890529	1.9680433	1.4028697
33.41297852581774	2.0499604	1.4317683
33.43127811979204	2.0812411	1.4426507
33.44957859142105	2.0678983	1.4380189
33.467879941297866	2.0385382	1.4277738
33.486182170015844	2.028389	1.4242152
33.50448527816853	1.9307147	1.3895016
33.522789266349754	1.8117291	1.3460048
33.541094135153514	1.8467647	1.3589572
33.55939988517411	1.9299681	1.3892329
33.57770651700602	2.0204706	1.4214326
33.59601403124398	2.0070055	1.4166882
33.61432242848296	1.956889	1.3988885
33.632631709318154	1.9617321	1.4006184
33.650941874344994	2.0260706	1.4234011
33.66925292415916	1.9555573	1.3984125
33.68756485935654	1.9865983	1.4094673
33.70587768053328	2.0256271	1.4232453
33.724191388285746	2.069437	1.4385538
33.74250598321054	2.0121772	1.4185123
33.760821465904506	1.9172214	1.3846376
33.77913783696474	1.9335234	1.3905119
33.79745509698852	1.9874771	1.4097791
33.815773246573414	1.9633946	1.4012119
33.8340922863172	1.9313403	1.3897268
33.852412216817896	1.938454	1.3922838
33.87073303867377	1.9105241	1.382217
33.889054752483304	1.9203411	1.3857638
33.907377358845245	1.9070439	1.3809576
33.92570085835853	1.9907513	1.4109398
33.94402525162239	1.9817251	1.4077376
33.96235053923627	1.8986768	1.3779248
33.980676721799824	1.8120035	1.3461068
33.999003799912984	1.9298285	1.3891827
34.01733177417592	1.9972203	1.4132304
34.03566064518901	2.0458546	1.4303337
34.0539904135529	1.9717023	1.4041731
34.07232107986846	1.8963457	1.3770787
34.090652644736785	1.9517372	1.3970459
34.108985108759235	2.0591815	1.4349848
34.12731847253742	2.1214266	1.4565117
34.14565273667313	2.1192267	1.4557564
34.16398790176847	2.1204824	1.4561876
34.18232396842574	2.0818737	1.4428699
34.20066093724749	1.8792579	1.3708603
34.21899880883651	1.838048	1.3557463
34.23733758379583	1.9466184	1.3952127
34.25567726272874	2.0380864	1.4276156
34.27401784623872	1.9955665	1.4126452
34.29235933492957	1.9700524	1.4035856
34.31070172940526	1.935704	1.3912958
34.32904503027003	2.0556562	1.433756
34.347389238128386	2.1211586	1.4564198
34.36573435358502	2.1637769	1.4709783
34.38408037724492	2.1661515	1.4717852
34.402427309713296	1.9859726	1.4092454
34.42077515159559	1.9759357	1.4056798
34.43912390349752	2.085245	1.4440377
34.45747356602499	1.9648716	1.4017388
34.47582413978423	1.8610275	1.3641948
34.49417562538163	1.9552803	1.3983134
34.51252802342388	2.0372827	1.4273341
34.53088133451789	2.0069876	1.4166819
34.54923555927084	1.9578348	1.3992265
34.567590698290104	1.9884884	1.4101378
34.58594675218336	1.9058325	1.3805189
34.6043037215585	1.9232156	1.3868005
34.62266160702365	1.967475	1.4026672
34.641020409187234	2.0704954	1.4389216
34.65938012865785	2.0507746	1.4320526
34.677740766044394	2.0807526	1.4424814
34.69610232195598	2.0864947	1.4444704
34.714464797002016	2.0348284	1.4264741
34.73282819179208	1.8938273	1.376164
34.751192506936064	1.9503604	1.396553
34.76955774304408	2.0114675	1.4182621
34.7879239007265	2.068544	1.4382434
34.80629098059391	1.9312525	1.389695
34.824658983257194	2.1006088	1.4493477
34.843027909327446	2.1394978	1.4627022
34.86139775941603	1.972475	1.4044483
34.879768534134534	1.835907	1.3549565
34.89814023409483	2.030741	1.4250407
34.91651285990901	2.0885844	1.4451935
34.93488641218944	1.9659458	1.4021219
34.95326089154871	1.8462368	1.358763
34.97163629859967	1.9993395	1.41398
34.99001263395542	2.1941352	1.4812614
35.00838989822934	2.200466	1.4833968
35.02676809203499	2.0336435	1.4260588
35.04514721598624	1.8016646	1.342261
35.063527270697215	1.7874248	1.3369461
35.081908256782256	1.9664199	1.4022909
35.10029017485597	2.2174509	1.4891107
35.11867302553321	2.29746	1.5157374
35.137056809429104	2.072312	1.4395528
35.155441527159006	2.0893197	1.4454479
35.173827179338524	1.9838885	1.4085058
35.19221376658354	1.9231863	1.3867899
35.21060128951017	1.7322396	1.3161458
35.2289897487348	1.8246914	1.3508114
35.24737914487405	1.9940686	1.412115
35.26576947854479	2.1980238	1.4825734
35.28416075036418	2.2162688	1.4887137
35.30255296094958	1.9394435	1.392639
35.32094611091867	1.9276466	1.3883971
35.33934020088932	2.0653062	1.4371173
35.35773523147969	1.9366399	1.3916321
35.3761312033082	1.6667515	1.2910273
35.394528116993506	1.7135645	1.3090318
35.41292597315452	2.0495374	1.4316206
35.431324772410434	2.173212	1.4741818
35.449724515380666	2.3978035	1.5484843
35.46812520268491	2.3466299	1.5318713
35.486526834943106	2.2254813	1.4918047
35.504929412775454	2.3157477	1.5217581
35.52333293680242	2.1597705	1.4696158
35.54173740764471	2.0398862	1.4282459
35.560142825923286	2.365606	1.5380527
35.5785491922594	2.522993	1.5883932
35.59695650727454	2.3148372	1.5214589
35.61536477159042	2.0476286	1.4309537
