0.008763373481513119	0.0	0.0
0.026290120649546365	0.0	0.0
0.043816868432600686	0.0	0.0
0.06134361724069026	0.0	0.0
0.07887036748382949	0.025947431	0.16108206
0.0963971195720331	0.053569306	0.23145044
0.11392387391531617	0.085186556	0.29186735
0.1314506309236943	0.07943192	0.2818367
0.1489773910071836	0.12818867	0.35803446
0.16650415457580078	0.15737355	0.39670336
0.18403092203956356	0.14683934	0.3831962
0.20155769380849	0.08768957	0.29612425
0.2190844702925996	0.0565252	0.23775029
0.2366112519019124	0.060891893	0.24676283
0.2541380390464497	0.048463896	0.22014517
0.27166483213623416	0.08838417	0.29729474
0.28919163158128947	0.1372822	0.37051612
0.3067184377916406	0.20881271	0.4569603
0.324245251177314	0.20514362	0.45292783
0.34177207214833777	0.17042243	0.4128225
0.3592989011147415	0.10241494	0.32002336
0.37682573848655654	0.052188147	0.22844726
0.39435258467381573	0.036544316	0.19116567
0.41187944008655414	0.06023128	0.24542062
0.42940630513480854	0.11388023	0.33746144
0.446933180228618	0.16307323	0.40382326
0.4644600657780234	0.17740177	0.4211909
0.48198696219306775	0.16400257	0.4049723
0.49951386988379676	0.15331289	0.3915519
0.5170407892602581	0.20202538	0.44947234
0.5345677207325025	0.21761632	0.46649364
0.5520946647105822	0.20447296	0.45218685
0.5696216216045534	0.19483173	0.44139746
0.5871485918244737	0.17497835	0.41830415
0.6046755757804043	0.19124804	0.43731916
0.6222025738824094	0.1857262	0.4309596
0.6397295865405557	0.17501894	0.41835263
0.6572566141649129	0.1803158	0.42463607
0.6747836571655547	0.16011433	0.40014288
0.6923107159525568	0.15944946	0.39931124
0.7098377909359992	0.1628399	0.40353426
0.7273648825259653	0.21121016	0.45957607
0.7448919911325411	0.2242558	0.47355655
0.762419117165817	0.24423026	0.49419656
0.7799462610358868	0.2178731	0.46676877
0.7974734231528482	0.19391344	0.44035605
0.8150006039268024	0.2082243	0.456316
0.8325278037678551	0.19919743	0.44631538
0.8500550230861152	0.21191888	0.46034646
0.8675822622916969	0.19769005	0.4446235
0.8851095217947171	0.22386599	0.47314477
0.9026368020052984	0.2206277	0.46971023
0.9201641033335665	0.2317044	0.48135683
0.9376914261896523	0.21211758	0.46056226
0.9552187709836915	0.19487344	0.44144472
0.9727461381258234	0.18802264	0.43361577
0.990273528026193	0.21126637	0.45963722
1.0078009410949496	0.24446368	0.4944327
1.0253283777422473	0.2678723	0.5175638
1.0428558383782454	0.2779957	0.527253
1.0603833234131086	0.28388533	0.5328089
1.0779108332570058	0.2868737	0.5356059
1.0954383683201119	0.318487	0.5643465
1.112965929012607	0.3864434	0.62164575
1.1304935157446763	0.53305626	0.730107
1.1480211289265108	0.51822674	0.7198797
1.1655487689683062	1.2384483	1.1128559
1.1830764362802655	1.4929684	1.2218709
1.200604131272596	1.8665326	1.366211
1.2181318543555117	2.234981	1.4949853
1.235659605939232	2.2978811	1.5158764
1.253187386433982	3.9151583	1.9786758
1.270715196249994	6.282474	2.5064864
1.2882430357975057	11.934179	3.4545882
1.3057709054867608	16.55802	4.0691547
1.3232988057280106	22.354425	4.728047
1.3408267369315112	27.233767	5.2185984
1.358354699507526	30.824305	5.551964
1.3758826938663256	35.3186	5.9429455
1.3934107204181858	37.042446	6.086251
1.410938779573391	37.3697	6.113076
1.4284668717422309	37.814133	6.1493196
1.4459949973350033	37.468555	6.121156
1.4635231567620117	37.88489	6.1550703
1.4810513504335687	36.870144	6.072079
1.4985795787599925	36.22343	6.0185905
1.5161078421516088	36.295143	6.024545
1.5336361410187505	35.709145	5.975713
1.5511644757717598	35.797176	5.983074
1.5686928468209842	36.194004	6.016145
1.58622125457678	36.52354	6.043471
1.6037496994495108	37.80413	6.148506
1.621278181849548	37.412205	6.116552
1.6388067021872719	37.951115	6.1604476
1.6563352608730693	37.41396	6.116695
1.673863858317336	36.20462	6.0170274
1.6913924949304753	35.69561	5.9745803
1.7089211711228998	34.488533	5.872694
1.7264498873050296	33.911186	5.8233314
1.7439786438872935	32.72697	5.720749
1.7615074412801288	31.879395	5.646184
1.779036279893981	31.1156	5.578136
1.796565160139305	30.45065	5.518211
1.814094082426564	29.84851	5.463379
1.8316230471662298	28.979122	5.383226
1.849152054768784	28.283596	5.3182325
1.8666811056447168	27.981085	5.289715
1.8842102002045273	27.435526	5.237893
1.901739338858724	27.128464	5.208499
1.9192685220178245	26.464586	5.1443744
1.9367977500923557	25.675558	5.0671053
1.9543270234928547	24.8943	4.989419
1.971856342629867	24.169428	4.916241
1.9893857079139496	23.53229	4.851009
2.006915119755667	22.905066	4.7859235
2.0244445785655945	22.31	4.723346
2.0419740847543175	21.843382	4.6736903
2.0595036387324317	21.439688	4.630301
2.0770332409105414	21.200521	4.6044025
2.094562891699263	20.86247	4.5675454
2.1120925915092217	20.140123	4.487775
2.129622340751053	19.543657	4.4208207
2.1471521398354043	187.49463	13.692868
2.1646819891729323	444.01526	21.071669
2.182211889174303	440.41498	20.986067
2.1997418402501974	453.01572	21.284166
2.2172718428113023	432.9177	20.806675
2.234801897268317	320.97113	17.915667
2.2523320040319548	17.312786	4.1608634
2.269862163512935	16.886532	4.1093225
2.287392376121992	16.623226	4.077159
2.304922642269869	16.209164	4.0260606
2.322452962367322	16.120432	4.0150256
2.3399833368251164	15.844409	3.9805036
2.357513766054032	15.524039	3.9400558
2.3750442504648586	15.2322035	3.9028456
2.3925747904683963	14.920784	3.8627431
2.410105386475459	14.521654	3.8107288
2.4276360388968707	14.241458	3.7737856
2.445166748143469	13.945912	3.7344227
2.4626975146261025	13.650432	3.694649
2.4802283387556323	13.475946	3.67096
2.4977592209429305	13.37667	3.657413
2.5152901615988825	13.117823	3.6218536
2.5328211611343865	12.748038	3.5704396
2.5503522199603523	12.4108095	3.522898
2.5678833384877024	12.397465	3.5210035
2.5854145171273712	12.3378105	3.512522
2.6029457562903064	12.074567	3.4748478
2.620477056387469	11.943661	3.4559603
2.6380084178298326	11.701849	3.4207966
2.655539841028383	11.485745	3.3890626
2.673071326394119	11.236532	3.3520937
2.6906028743380523	10.897893	3.3011956
2.708134485271211	10.808448	3.2876203
2.7256661596046325	10.732557	3.2760582
2.743197897749369	10.632471	3.260747
2.760729700116486	10.617567	3.2584608
2.778261567117063	10.413433	3.2269852
2.795793499162193	10.389776	3.2233176
2.8133254966629817	10.261202	3.203311
2.830857560030551	10.105032	3.1788414
2.8483896896760337	9.877982	3.1429257
2.865921886010578	9.583905	3.0957882
2.883454149445347	9.3461485	3.057147
2.9009864803915177	9.175729	3.0291464
2.91851887926028	9.113735	3.0188963
2.9360513464628384	9.078782	3.0131018
2.953583882410413	9.050335	3.0083776
2.9711164875142373	8.807404	2.967727
2.9886491621855606	8.698773	2.9493682
3.0061819068356455	8.591687	2.931158
3.023714721875769	8.651228	2.941297
3.041247607717225	8.483889	2.9127116
3.0587805647713213	8.435096	2.9043236
3.0763135934493806	8.219086	2.8668947
3.0938466941627407	8.222375	2.8674684
3.1113798673227544	8.133743	2.8519719
3.1289131133407904	8.093161	2.8448482
3.1464464326282315	7.9136453	2.8131201
3.1639798255964786	7.7858887	2.7903206
3.1815132926569443	7.785933	2.7903285
3.1990468342210603	7.712358	2.7771132
3.216580450700272	7.6208878	2.7605956
3.2341141425060416	7.526219	2.7433956
3.251647910049847	7.554319	2.748512
3.2691817537431813	7.4273386	2.7253144
3.286715673997555	7.242559	2.6912003
3.3042496712244938	7.0455008	2.6543362
3.32178374583554	6.8942747	2.625695
3.339317898242251	6.952856	2.636827
3.3568521288562034	6.9550185	2.6372368
3.3743864380889876	6.8337593	2.614146
3.3919208263522127	6.6371374	2.5762641
3.4094552940575023	6.4624453	2.542134
3.4269898416164972	6.4485936	2.5394082
3.444524469440858	6.434257	2.5365837
3.4620591779422587	6.478386	2.5452673
3.479593967532391	6.583037	2.565743
3.4971288386229658	6.535807	2.5565224
3.5146637916257086	6.4621024	2.5420666
3.5321988269523628	6.379839	2.5258343
3.5497339450146903	6.362353	2.5223706
3.5672691462244708	6.3699584	2.5238776
3.5848044309934988	6.3295593	2.5158615
3.60233979973359	6.2881546	2.5076194
3.619875252856575	6.2786894	2.5057313
3.6374107907743034	6.309314	2.5118349
3.6549464138986427	6.2077155	2.4915287
3.6724821226414788	6.1791606	2.4857917
3.690017917414714	6.2027025	2.4905226
3.7075537986302702	6.225996	2.4951947
3.7250897667000857	6.3715916	2.5242012
3.7426258220361235	6.538544	2.5570576
3.7601619650503553	6.9182124	2.6302495
3.777698196154779	7.4258547	2.725042
3.7952345157614067	8.417137	2.9012303
3.8127709242822716	9.199336	3.0330408
3.830307422129425	11.541067	3.3972147
3.847844009714936	30.402115	5.513811
3.8653806874508954	97.94842	9.89689
3.882917455749409	97.2387	9.860969
3.900454315022606	96.91334	9.844458
3.917991265682631	41.44419	6.4377165
3.9355283081416506	10.960168	3.3106143
3.9530654428118495	8.740149	2.9563742
3.970602670105433	7.548424	2.7474394
3.9881399904346244	6.631838	2.5752356
4.005677404211669	6.5159187	2.5526297
4.023214911848827	6.526729	2.5547464
4.0407525137583855	6.5475283	2.5588138
4.058290210352644	6.4450717	2.5387146
4.075828002043927	6.378991	2.5256665
4.0933658892445814	6.1990867	2.4897964
4.110903872366966	6.213887	2.492767
4.128441951823468	6.192566	2.4884868
4.145980128026488	6.209336	2.491854
4.163518401388452	6.224755	2.4949458
4.181056772321807	6.1676784	2.4834812
4.1985952412390155	6.1737123	2.4846957
4.216133808552567	6.167149	2.4833746
4.233672474674966	6.2137933	2.492748
4.251211240018741	6.458718	2.5414007
4.268750104996445	6.7077403	2.5899305
4.286289070020643	7.637904	2.763676
4.303828135503928	9.258114	3.0427148
4.3213673018589125	29.643415	5.4445767
4.3389065694982305	90.73095	9.525279
4.356445938834537	165.94167	12.881835
4.3739854102805085	171.12527	13.081486
4.391524984248844	172.0634	13.117294
4.409064661152262	136.3853	11.6784115
4.426604441403504	96.82757	9.8401
4.444144325415337	75.988174	8.717119
4.461684313600543	21.799248	4.6689663
4.47922440637193	22.04298	4.6949954
4.496764604142329	20.286135	4.504013
4.5143049073245916	18.620564	4.315155
4.531845316331589	16.519196	4.064381
4.5493858315762195	13.62588	3.691325
4.566926453471405	11.272935	3.3575191
4.584467182430081	9.179443	3.0297596
4.602008018865218	8.09527	2.845219
4.619548963189798	7.4717355	2.7334476
4.637090015816834	6.997602	2.645298
4.654631177159353	6.7782145	2.6035004
4.672172447630417	6.5182185	2.5530803
4.689713827643102	6.366762	2.5232444
4.7072553176105085	6.061549	2.4620214
4.724796917945764	5.8022757	2.4087913
4.742338629062015	5.729346	2.3936052
4.759880451372434	5.7003813	2.387547
4.777422385290215	5.7266736	2.3930469
4.794964431228581	5.685399	2.3844075
4.812506589600768	5.689278	2.3852208
4.830048860820047	5.664319	2.379983
4.847591245299709	5.6574407	2.3785374
4.8651337434530655	5.7526135	2.3984606
4.882676355693457	5.6717386	2.3815413
4.900219082434242	5.6704307	2.3812666
4.917761924088813	5.5882034	2.363938
4.935304881070575	5.621277	2.3709233
4.952847953792969	5.583059	2.3628497
4.970391142669449	5.567461	2.359547
4.9879344481135055	5.473735	2.3396015
5.005477870538642	5.435317	2.3313766
5.023021410358394	5.3997107	2.3237278
5.040565067986324	5.405426	2.3249571
5.05810884383601	5.3677278	2.3168356
5.075652738321066	5.344796	2.3118815
5.09319675185512	5.283074	2.2984939
5.110740884851836	5.286411	2.2992196
5.128285137724894	5.3510094	2.3132248
5.145829510888007	5.329922	2.3086624
5.163374004754908	5.2370243	2.2884545
5.1809186197393595	5.222863	2.2853584
5.198463356255145	5.202341	2.280864
5.216008214716077	5.254486	2.2922666
5.233553195535998	5.244165	2.2900143
5.251098299128764	5.226533	2.2861612
5.268643525908272	5.162087	2.2720227
5.286188876288432	5.166687	2.2730348
5.3037343506831895	5.242924	2.2897432
5.32127994950651	5.2693443	2.2955053
5.3388256731723915	5.276661	2.2970984
5.356371522094851	5.193084	2.2788339
5.373917496687938	5.174147	2.2746751
5.391463597365729	5.229654	2.2868435
5.40900982454232	5.244399	2.2900653
5.426556178631843	5.3027067	2.3027606
5.444102660048449	5.2809224	2.2980258
5.4616492692063225	5.2742395	2.2965713
5.479196006519669	5.282922	2.2984607
5.496742872402727	5.1983585	2.279991
5.514289867269756	5.1512766	2.2696424
5.531836991535049	5.1123776	2.2610567
5.549384245612924	5.118221	2.2623484
5.566931629917724	5.1367564	2.2664413
5.584479144863822	5.123421	2.2634976
5.6020267908656205	5.1107726	2.260702
5.619574568337545	5.0939384	2.2569754
5.637122477694054	5.117718	2.2622375
5.654670519349629	5.140058	2.2671697
5.672218693718784	5.130013	2.2649531
5.689767001216059	5.170431	2.2738583
5.707315442256021	5.1227026	2.2633388
5.724864017253266	5.1469345	2.2686856
5.7424127266224225	5.14093	2.2673619
5.75996157077814	5.120809	2.2629204
5.777510550135105	5.0431023	2.2456853
5.795059665108022	5.0139027	2.2391746
5.812608916111639	4.9999514	2.236057
5.830158303560715	5.1382656	2.2667742
5.847707827870055	5.157623	2.27104
5.86525748945448	5.290503	2.3001094
5.8828072887288485	5.430646	2.3303747
5.900357226108044	5.522229	2.3499424
5.917907302006979	5.5551133	2.3569288
5.9354575168406	6.1864386	2.4872553
5.9530078710238765	6.8281817	2.613079
5.970558364971812	7.4255853	2.7249928
5.988108999099438	7.815207	2.7955692
6.005659773821818	8.312772	2.8831878
6.023210689554039	8.06265	2.8394806
6.040761746711227	8.50467	2.9162767
6.058312945708531	7.872209	2.8057458
6.075864286961132	7.4132032	2.72272
6.093415770884244	6.753186	2.5986893
6.1109673978931065	6.183765	2.4867177
6.128519168402993	5.5784593	2.3618762
6.146071082829204	5.4619203	2.3370752
6.163623141587075	5.3183813	2.3061616
6.181175345091969	5.190048	2.2781677
6.198727693759281	5.109063	2.2603238
6.216280188004435	5.061805	2.2498455
6.233832828242885	5.134282	2.2658954
6.251385614890126	5.2108264	2.2827234
6.268938548361669	5.235168	2.288049
6.286491629073067	5.1386137	2.266851
6.304044857439898	5.023584	2.2413354
6.321598233877777	4.988814	2.2335653
6.339151758802344	5.003942	2.2369492
6.356705432629277	5.08745	2.2555377
6.37425925577428	4.9518237	2.2252693
6.391813228653095	4.9928026	2.234458
6.409367351681486	4.932443	2.2209105
6.426921625275259	4.931405	2.2206767
6.44447604985025	4.915868	2.2171757
6.46203062582232	4.9727163	2.2299588
6.47958535360737	4.9897013	2.233764
6.497140233621328	4.971268	2.229634
6.514695266280161	4.94174	2.2230024
6.532250451999859	4.931831	2.2207725
6.549805791196454	5.0030613	2.2367525
6.567361284286002	5.03937	2.2448542
6.584916931684597	5.0658274	2.2507393
6.602472733808367	5.074791	2.2527297
6.6200286910734665	5.0688562	2.2514122
6.637584803896092	5.0694494	2.2515438
6.655141072692462	5.044694	2.2460396
6.672697497878842	4.9712033	2.2296195
6.690254079871514	4.921846	2.2185233
6.707810819086808	4.93829	2.2222264
6.725367715941078	5.0611515	2.2497003
6.742924770850719	5.028902	2.2425213
6.760481984232151	4.9658294	2.228414
6.778039356501836	4.890898	2.2115376
6.795596888076266	4.9214416	2.2184322
6.813154579371963	4.975877	2.2306674
6.830712430805492	4.9806647	2.2317402
6.84827044279344	5.0029993	2.2367384
6.865828615752445	5.011368	2.2386084
6.883386950099159	5.0403647	2.2450757
6.900945446250287	5.098757	2.2580426
6.918504104622553	5.075061	2.2527895
6.936062925632727	5.1010523	2.258551
6.953621909697607	5.0284524	2.2424212
6.971181057234028	5.110928	2.2607362
6.988740368658859	5.1412625	2.2674353
7.006299844389007	5.2821975	2.2983031
7.023859484841407	5.350906	2.3132026
7.041419290433036	5.3420396	2.3112853
7.058979261580902	5.408882	2.3257003
7.0765393987020495	5.557636	2.3574638
7.094099702213559	5.9635477	2.4420376
7.111660172532549	6.341946	2.518322
7.129220810076164	6.7187915	2.5920632
7.146781615261595	7.267934	2.6959107
7.16434258850606	7.513091	2.7410018
7.181903730226821	7.9684906	2.8228514
7.1994650408411704	8.113531	2.848426
7.217026520766437	8.227234	2.8683155
7.234588170419983	8.466034	2.909645
7.252149990219215	8.486032	2.9130795
7.269711980581568	8.390127	2.8965716
7.2872741419245175	8.238677	2.8703096
7.304836474665574	7.885208	2.8080614
7.322398979222286	7.5905566	2.7550964
7.339961656012233	7.3026505	2.7023416
7.357524505453039	6.8826475	2.62348
7.375087527962357	6.546516	2.558616
7.392650723957886	6.1638384	2.482708
7.410214093857353	5.823295	2.4131505
7.427777638078528	5.578879	2.361965
7.445341357039213	5.424921	2.329146
7.4629052511572525	5.296022	2.3013086
7.480469320850524	5.318857	2.3062649
7.498033566536948	5.3453016	2.3119907
7.5155979886344735	5.252581	2.291851
7.5331625875610975	5.203541	2.281127
7.550727363734844	5.179294	2.2758062
7.568292317573788	5.241583	2.2894504
7.585857449496025	5.2717695	2.2960334
7.603422759919705	5.2347813	2.2879643
7.620988249263007	5.196311	2.2795417
7.638553917944147	5.171742	2.2741463
7.656119766381391	5.1118264	2.2609348
7.673685794993023	5.130417	2.2650423
7.691252004197388	5.1891723	2.2779756
7.70881839441285	5.2135444	2.2833188
7.726384966057826	5.231855	2.287325
7.743951719550762	5.223	2.2853885
7.761518655310149	5.289503	2.299892
7.779085773754511	5.3374333	2.3102887
7.796653075302419	5.369468	2.3172114
7.814220560372475	5.337561	2.3103163
7.831788229383323	5.3144183	2.3053021
7.8493560827536495	5.3186245	2.3062143
7.866924120902174	5.3397403	2.310788
7.884492344247663	5.3310275	2.3089018
7.9020607532089135	5.3489857	2.3127875
7.919629348204771	5.3422637	2.3113337
7.937198129654115	5.3265495	2.307932
7.954767097975865	5.3340626	2.3095589
7.972336253588986	5.3846803	2.3204913
7.989905596912472	5.4669847	2.3381584
8.007475128365371	5.4851046	2.34203
8.025044848366756	5.41782	2.327621
8.042614757335754	5.384616	2.3204775
8.060184855691523	5.4838157	2.341755
8.07775514385327	5.6534815	2.377705
8.095325622240228	5.783322	2.4048538
8.112896291271687	5.83938	2.4164808
8.130467151366968	5.8309526	2.4147365
8.148038202945436	5.8651915	2.4218156
8.165609446426497	5.825991	2.413709
8.183180882229594	5.875572	2.423958
8.200752510774217	5.8261366	2.4137392
8.218324332479893	5.809655	2.4103227
8.235896347766193	5.804944	2.4093451
8.253468557052724	5.8638716	2.4215431
8.27104096075914	5.929774	2.4351127
8.288613559305137	6.0295415	2.4555125
8.306186353110448	6.117742	2.473407
8.32375934259485	6.2557025	2.5011404
8.341332528178162	6.2596173	2.5019226
8.358905910280246	6.294261	2.5088365
8.376479489321003	6.2882843	2.5076451
8.394053265720377	6.3704762	2.5239801
8.411627239898356	6.3635745	2.5226126
8.42920141227497	6.3564873	2.5212076
8.44677578327029	6.32794	2.5155396
8.464350353304427	6.2141395	2.4928176
8.48192512279754	6.1738086	2.484715
8.499500092169827	6.1253695	2.4749484
8.51707526184153	6.146892	2.4792926
8.534650632232934	6.157334	2.4813976
8.552226203764365	6.125912	2.475058
8.569801976856192	6.1938357	2.4887419
8.587377951928834	6.2265325	2.495302
8.60495412940274	6.224853	2.4949656
8.622530509698416	6.2478285	2.4995656
8.6401070932364	6.443901	2.538484
8.657683880437283	6.6052914	2.5700762
8.675260871721695	6.725233	2.5933053
8.692838067510303	6.73744	2.5956578
8.710415468223834	6.730993	2.5944157
8.727993074283043	6.865242	2.6201606
8.745570886108737	6.887183	2.6243443
8.763148904121765	6.997978	2.6453693
8.78072712874302	7.021487	2.649809
8.798305560393441	7.2890897	2.6998315
8.815884199494006	7.478143	2.7346194
8.833463046465745	7.7561574	2.784988
8.851042101729728	7.8862357	2.8082442
8.86862136570707	8.206919	2.864772
8.886200838818924	8.309593	2.8826365
8.903780521486505	8.39584	2.8975575
8.921360414131055	8.462249	2.9089944
8.938940517173874	8.6142025	2.9349961
8.956520831036297	8.790629	2.9648995
8.97410135613971	9.007934	3.001322
8.99168209290554	9.166019	3.0275435
9.009263041755265	9.352891	3.0582497
9.026844203110405	9.586708	3.096241
9.044425577392525	9.842121	3.1372156
9.062007165023239	9.995717	3.1616004
9.079588966424197	10.362511	3.2190855
9.097170982017108	10.486754	3.2383258
9.11475321222372	11.51664	3.3936174
9.132335657465825	12.395037	3.5206585
9.149918318165264	12.4558735	3.529288
9.167501194743924	13.116146	3.621622
9.18508428762374	12.729283	3.5678122
9.202667597226693	12.719313	3.5664146
9.220251123974803	12.367268	3.5167127
9.237834868290143	12.0997925	3.4784756
9.255418830594836	11.849056	3.4422457
9.273003011311046	11.309317	3.3629327
9.290587410860985	11.084019	3.329267
9.308172029666911	10.494588	3.239535
9.32575686815113	10.260705	3.2032335
9.343341926735997	8.95139	2.9918873
9.360927205843916	8.719199	2.9528291
9.378512705897327	8.501672	2.9157627
9.396098427318728	8.268179	2.8754442
9.413684370530664	8.164617	2.8573794
9.431270535955722	8.125376	2.8505044
9.448856924016539	8.031196	2.8339365
9.466443535135806	7.919098	2.814089
9.484030369736251	7.8767734	2.806559
9.501617428240658	7.8299365	2.7982023
9.519204711071852	7.8392277	2.7998621
9.536792218652714	7.7857394	2.7902937
9.55437995140617	7.79323	2.7916358
9.571967909755191	7.843331	2.8005948
9.589556094122802	7.8583603	2.8032768
9.60714450493207	7.974368	2.8238924
9.624733142606116	8.031427	2.8339772
9.642322007568108	8.064726	2.8398461
9.659911100241267	8.070637	2.8408866
9.677500421048851	7.9999785	2.8284233
9.695089970414175	7.9776287	2.8244696
9.712679748760609	7.9955206	2.827635
9.730269756511557	8.111724	2.8481088
9.747859994090492	8.227658	2.8683896
9.765450461920915	8.238225	2.870231
9.78304116042639	8.233066	2.8693318
9.800632090030527	8.19423	2.8625565
9.81822325115699	8.292557	2.87968
9.835814644229481	8.327152	2.8856804
9.853406269671762	8.340971	2.888074
9.870998127907646	8.362488	2.8917966
9.888590219360985	8.401291	2.898498
9.906182544455698	8.427798	2.903067
9.923775103615734	8.354457	2.8904078
9.941367897265108	8.399001	2.898103
9.958960925827878	8.389666	2.896492
9.97655418972816	8.419334	2.901609
9.994147689390106	8.367629	2.8926854
10.011741425237934	8.289941	2.8792257
10.029335397695904	8.280457	2.8775783
10.04692960718833	8.201534	2.863832
10.06452405413958	8.235433	2.8697443
10.082118738974064	8.21081	2.865451
10.099713662116246	8.19801	2.8632169
10.117308823990651	8.222733	2.8675308
10.134904225021844	8.276202	2.876839
10.152499865634445	8.226284	2.86815
10.170095746253125	8.194755	2.8626482
10.18769186730261	8.155615	2.8558037
10.205288229207675	8.179928	2.8600574
10.222884832393145	8.109098	2.847648
10.2404816772839	8.013896	2.8308825
10.258078764304868	8.018097	2.8316245
10.275676093881035	8.130529	2.8514082
10.293273666437438	8.205442	2.8645144
10.310871482399158	8.297007	2.8804524
10.32846954219134	8.264936	2.8748803
10.346067846239173	8.207857	2.8649359
10.363666394967908	8.130905	2.8514743
10.38126518880283	8.126325	2.8506708
10.398864228169298	8.172077	2.8586845
10.416463513492713	8.213789	2.8659708
10.434063045198531	8.223628	2.867687
10.451662823712262	8.241057	2.8707242
10.469262849459467	8.254546	2.8730726
10.486863122865758	8.143071	2.8536067
10.504463644356806	8.049034	2.837082
10.522064414358338	7.9568505	2.820789
10.539665433296118	7.902829	2.811197
10.557266701595987	7.8928976	2.8094301
10.574868219683818	7.879942	2.8071234
10.592469987985552	7.792462	2.7914982
10.610072006927185	7.666948	2.7689254
10.627674276934751	7.505982	2.7397046
10.64527679843435	7.3620815	2.7133155
10.662879571852143	7.283716	2.698836
10.680482597614331	7.2267933	2.6882696
10.698085876147173	7.1216903	2.6686494
10.715689407876988	7.0616117	2.6573694
10.733293193230146	6.977043	2.6414094
10.750897232633072	6.9477153	2.6358519
10.76850152651225	6.8233414	2.6121526
10.786106075294207	6.6746335	2.5835311
10.803710879405534	6.568606	2.5629292
10.821315939272877	6.5120306	2.551868
10.83892125532294	6.435817	2.5368912
10.856526827982472	6.386088	2.527071
10.874132657678285	6.382593	2.5263793
10.891738744837243	6.3356466	2.517071
10.909345089886271	6.263812	2.502761
10.926951693252343	6.135044	2.476902
10.944558555362494	6.1224275	2.474354
10.96216567664381	6.0169544	2.452948
10.979773057523436	5.932497	2.4356718
10.997380698428573	5.8360972	2.4158015
11.014988599786477	5.750763	2.3980749
11.032596762024461	5.712383	2.3900592
11.050205185569892	5.643053	2.3755112
11.067813870850198	5.6427226	2.3754416
11.085422818292859	5.5498013	2.3558016
11.10303202832541	5.4627175	2.3372457
11.120641501375454	5.363781	2.3159838
11.138251237870636	5.3074665	2.303794
11.155861238238671	5.302873	2.3027968
11.173471502907317	5.266777	2.294946
11.191082032304402	5.278206	2.2974346
11.208692826857805	5.2374377	2.288545
11.226303886995465	5.167347	2.27318
11.243915213145371	5.1000295	2.2583244
11.261526805735578	5.0013795	2.2363765
11.279138665194196	4.9425855	2.2231927
11.296750791949393	4.8738103	2.2076707
11.314363186429393	4.8240495	2.1963718
11.331975849062479	4.759618	2.181655
11.34958878027699	4.6593776	2.158559
11.36720198050133	4.6759834	2.1624022
11.384815450163948	4.6453123	2.1552987
11.402429189693366	4.583742	2.1409676
11.420043199518153	4.5067315	2.1229064
11.437657480066942	63.50838	7.9692144
11.455272031768422	85.23643	9.232358
11.472886855051353	107.63544	10.37475
11.490501950344528	99.20615	9.960228
11.508117318076819	84.54754	9.194974
11.52573295867715	45.936474	6.777645
11.543348872574514	4.2165656	2.0534277
11.560965060197946	4.146018	2.0361774
11.57858152197655	4.079242	2.0197134
11.59619825833949	4.0110407	2.0027583
11.613815269715985	3.9527683	1.988157
11.631432556535323	38.446003	6.2004843
11.649050119226837	82.987175	9.10973
11.666667958219929	93.41158	9.664967
11.68428607394406	107.73156	10.379381
11.701904466828756	82.57699	9.087188
11.719523137303586	65.44856	8.090029
11.737142085798196	4.692274	2.1661658
11.754761312742286	3.7974124	1.9486951
11.772380818565619	3.7462246	1.9355166
11.790000603698015	3.6917543	1.9213939
11.80762066856935	3.6320503	1.9057939
11.825241013609572	3.612507	1.9006597
11.842861639248683	3.5690513	1.8891933
11.860482545916748	3.5672812	1.8887248
11.878103734043883	3.5124083	1.874142
11.895725204060282	3.4877083	1.8675407
11.91334695639619	3.462094	1.8606703
11.930968991481919	3.3972454	1.8431618
11.948591309747824	3.3818545	1.838982
11.966213911624347	3.328988	1.8245515
11.98383679754198	3.2910361	1.8141214
12.001459967931268	3.2158804	1.7932876
12.019083423222835	3.2138615	1.7927246
12.036707163847352	3.2260735	1.7961273
12.05433119023556	3.2994084	1.8164274
12.071955502818259	3.2243032	1.7956345
12.089580102026313	3.2043006	1.790056
12.107204988290643	3.1719615	1.7810001
12.12483016204224	3.1837785	1.7843146
12.142455623712152	3.1249819	1.7677618
12.16008137373149	3.1451416	1.7734547
12.177707412531431	3.1005156	1.7608281
12.19533374054321	3.1150842	1.76496
12.212960358198126	3.092628	1.7585869
12.230587265927545	3.1145675	1.7648138
12.248214464162889	3.1107135	1.7637215
12.265841953335649	3.0705087	1.7522867
12.283469733877375	3.0218053	1.7383341
12.301097806219685	3.018273	1.7373178
12.31872617079425	2.9787295	1.7258996
12.336354828032825	2.969525	1.723231
12.353983778367205	2.9572892	1.7196771
12.371613022229262	2.9681482	1.7228315
12.389242560050928	2.9572966	1.7196792
12.406872392264201	2.9510455	1.7178607
12.424502519301143	2.9332998	1.7126878
12.442132941593874	2.916251	1.7077035
12.459763659574586	2.8705401	1.6942668
12.477394673675532	2.8418941	1.6857919
12.49502598432903	2.809746	1.6762297
12.51265759196746	2.8260238	1.6810782
12.530289497023267	2.82079	1.6795207
12.547921699928967	2.839591	1.6851087
12.565554201117134	2.8557844	1.6899066
12.583187001020404	2.8725338	1.6948551
12.600820100071486	2.8619328	1.6917248
12.618453498703152	2.829245	1.682036
12.636087197348235	2.7825296	1.6680917
12.65372119643964	2.7896655	1.6702292
12.671355496410326	2.7885468	1.6698942
12.68899009769333	2.8550274	1.6896826
12.706625000721749	2.8773963	1.696289
12.724260205928752	2.9217474	1.709312
12.741895713747551	2.9229789	1.7096722
12.759531524611454	2.9937894	1.730257
12.777167638953818	3.015852	1.7366209
12.794804057208072	3.019514	1.737675
12.812440779807702	3.023486	1.7388173
12.830077807186271	3.2322192	1.7978374
12.847715139777405	3.3211815	1.822411
12.865352778014795	3.5325303	1.8795027
12.882990722332197	3.6149573	1.9013041
12.90062897316344	3.6961594	1.9225398
12.918267530942412	3.780404	1.9443262
12.935906396103071	3.6853943	1.919738
12.953545569079449	3.8229768	1.9552435
12.971185050305628	3.6109827	1.9002585
12.988824840215775	3.645689	1.9093688
13.006464939244115	3.6734943	1.9166362
13.024105347824943	3.5415475	1.8819
13.041746066392617	3.5955777	1.8962009
13.05938709538157	3.3924859	1.8418702
13.077028435226296	3.3883522	1.8407477
13.094670086361363	3.3115866	1.8197765
13.112312049221401	3.232321	1.7978656
13.129954324241112	3.1313984	1.7695758
13.147596911855258	2.944528	1.7159628
13.165239812498685	2.8944235	1.7013005
13.182883026606293	2.8185456	1.6788524
13.200526554613058	2.7450778	1.6568277
13.218170396954017	2.6906877	1.6403316
13.235814554064284	2.663792	1.6321127
13.253459026379034	2.6844804	1.6384385
13.271103814333523	2.6793365	1.6368679
13.288748918363058	2.7075732	1.6454705
13.306394338903031	2.7143688	1.6475341
13.32404007638889	2.7056658	1.6448908
13.341686131256164	2.7187042	1.6488494
13.359332503940449	2.7297194	1.6521863
13.376979194877402	2.7272084	1.6514262
13.394626204502751	2.7423482	1.6560037
13.412273533252307	2.7574334	1.6605521
13.429921181561937	2.7585778	1.6608967
13.447569149867581	2.777465	1.6665728
13.465217438605247	2.7638137	1.6624721
13.482866048211022	2.7397342	1.6552142
13.500514979121052	2.737343	1.6544918
13.518164231771568	2.7216842	1.6497527
13.535813806598844	2.7003365	1.64327
13.553463704039254	2.6739764	1.6352298
13.571113924529229	2.7132168	1.6471845
13.588764468505275	2.7407196	1.6555119
13.606415336403956	2.744719	1.6567193
13.624066528661917	2.7250426	1.6507703
13.641718045715882	2.7660608	1.6631479
13.659369888002635	2.7979226	1.6726992
13.67702205595903	2.8712444	1.6944747
13.694674550021993	2.9531245	1.7184658
13.712327370628532	3.0158699	1.736626
13.729980518215713	3.1152701	1.7650127
13.747633993220681	3.2027726	1.7896292
13.765287796080647	3.2774436	1.8103712
13.7829419272329	3.2891374	1.8135979
13.800596387114801	3.2582633	1.805066
13.818251176163775	3.2550483	1.8041753
13.835906294817324	3.3551328	1.8317021
13.853561743513023	3.4523067	1.8580384
13.871217522688525	3.5270607	1.8780471
13.888873632781538	3.5304868	1.878959
13.906530074229858	3.5044703	1.8720231
13.92418684747135	3.4983752	1.8703943
13.941843952943948	3.4758723	1.8643692
13.959501391085665	3.4677527	1.8621902
13.977159162334578	3.44204	1.8552736
13.994817267128846	3.3916025	1.8416303
14.012475705906693	3.3140025	1.8204402
14.030134479106424	3.2140934	1.7927893
14.047793587166414	3.1663895	1.7794352
14.065453030525108	3.0899627	1.757829
14.083112809621026	3.0033898	1.7330291
14.100772924892766	2.9590588	1.7201915
14.118433376778997	2.926105	1.7105862
14.136094165718458	2.8606858	1.6913562
14.153755292149969	2.8108296	1.6765529
14.171416756512416	2.7253628	1.6508672
14.189078559244768	2.6455417	1.6265122
14.20674070078606	2.5800025	1.6062386
14.224403181575408	2.5079226	1.5836422
14.242066002051999	2.4882927	1.5774323
14.259729162655093	2.46326	1.5694776
14.277392663824022	2.4483244	1.5647123
14.295056505998208	2.424612	1.5571166
14.312720689617128	2.3834963	1.5438576
14.330385215120348	2.4031808	1.5502197
14.348050082947497	2.4170167	1.5546758
14.3657152935383	2.4502301	1.5653211
14.383380847332528	2.3803046	1.5428236
14.401046744770051	2.36572	1.5380898
14.418712986290798	2.3887846	1.5455693
14.436379572334793	2.4595096	1.5682824
14.454046503342123	2.4748838	1.5731764
14.471713779752946	2.455994	1.5671611
14.489381402007504	2.4319584	1.5594738
14.507049370546113	2.430183	1.5589044
14.524717685809168	2.4110007	1.5527397
14.542386348237134	2.4044967	1.5506439
14.560055358270553	2.407066	1.5514722
14.577724716350051	2.446953	1.564274
14.595394422916325	2.4598508	1.5683912
14.61306447841015	2.4679112	1.5709587
14.63073488327237	2.4665892	1.5705379
14.648405637943917	2.4794006	1.5746113
14.6660767428658	2.5115433	1.584785
14.683748198479094	2.5498111	1.5968128
14.701420005224954	2.5897696	1.609276
14.719092163544628	2.6364343	1.62371
14.73676467387942	2.6763716	1.635962
14.754437536670727	2.7162747	1.6481125
14.772110752360014	2.7153482	1.6478313
14.78978432138882	2.689915	1.6400961
14.807458244198777	2.658641	1.6305339
14.82513252123159	2.6182277	1.6180938
14.842807152929028	2.6329234	1.6226286
14.860482139732962	2.6739058	1.6352082
14.87815748208531	2.7098112	1.6461505
14.8958331804281	2.7445383	1.6566648
14.91350923520342	2.7178283	1.6485838
14.931185646853438	2.7001016	1.6431986
14.948862415820408	2.6384337	1.6243256
14.966539542546656	2.652774	1.6287339
14.98421702747459	2.6619174	1.6315384
15.001894871046696	2.6966121	1.6421365
15.019573073705542	2.7093651	1.6460149
15.037251635893766	2.6898615	1.6400797
15.054930558054092	2.7407768	1.6555291
15.072609840629323	2.7755392	1.665995
15.090289484062351	2.8880696	1.6994321
15.107969488796124	3.1290827	1.7689214
15.125649855273691	3.5405679	1.8816397
15.14333058393817	4.0576997	2.0143733
15.161011675232768	5.0236945	2.24136
15.17869312960076	6.3296256	2.5158746
15.196374947485506	8.204948	2.864428
15.214057129330447	11.208055	3.3478432
15.231739675579114	15.965866	3.9957309
15.249422586675102	21.16274	4.600298
15.267105863062092	24.535105	4.9532924
15.284789505183847	24.991516	4.9991517
15.302473513484218	23.132603	4.8096366
15.320157888407127	19.504692	4.416412
15.337842630396578	15.151003	3.8924289
15.355527739896656	11.623024	3.4092557
15.37321321735153	8.947545	2.9912448
15.39089906320545	6.5159926	2.5526443
15.408585277902748	4.867453	2.2062304
15.42627186188783	3.7688951	1.9413643
15.443958815605198	3.2247825	1.7957679
15.461646139499424	2.9421122	1.7152586
15.479333834015168	2.7803555	1.6674398
15.497021899597165	2.7183096	1.6487297
15.514710336690234	2.6269534	1.6207879
15.53239914573928	2.5810072	1.6065514
15.550088327189297	2.555131	1.5984777
15.567777881485336	2.5647311	1.6014777
15.58546780907256	2.526488	1.589493
15.6031581103962	2.4890368	1.5776682
15.620848785901568	2.4928	1.5788604
15.638539836034063	2.4986277	1.5807048
15.656231261239173	2.4744377	1.5730345
15.673923061962451	2.4408736	1.5623295
15.691615238649552	2.440078	1.5620749
15.709307791746202	2.4026532	1.5500494
15.727000721698221	2.3909082	1.5462562
15.744694028951498	2.34699	1.531989
15.76238771395202	2.328384	1.5259043
15.780081777145844	2.3304849	1.5265926
15.797776218979125	2.3476605	1.5322077
15.815471039898094	2.3698268	1.5394242
15.833166240349064	2.3549879	1.5345969
15.850861820778437	2.3631046	1.5372393
15.868557781632699	2.3523245	1.533729
15.886254123358412	2.340609	1.529905
15.903950846402232	2.3177748	1.522424
15.921647951210897	2.3261569	1.5251744
15.939345438231225	2.3780622	1.5420967
15.957043307910133	2.4092631	1.5521802
15.974741560694602	2.3890648	1.54566
15.992440197031714	2.3732805	1.5405456
16.01013921736862	2.3875504	1.54517
16.02783862215259	2.4122488	1.5531416
16.045538411830933	2.4288867	1.5584886
16.06323858685107	2.4335601	1.5599872
16.080939147660512	2.3910472	1.5463011
16.09864009470684	2.3745513	1.5409579
16.11634142843774	2.3844268	1.5441589
16.134043149300954	2.3786144	1.5422758
16.15174525774433	2.3778567	1.5420301
16.169447754215817	2.3731608	1.5405067
16.18715063916342	2.386673	1.5448861
16.204853913035244	2.4224384	1.5564184
16.222557576279478	2.436268	1.5608549
16.240261629344403	22.406553	4.7335563
16.257966072678386	42.95473	6.553986
16.275670906729868	38.0643	6.169627
16.293376131947387	2.5151656	1.5859274
16.31108174877957	2.5422893	1.5944558
16.328787757675133	2.5589037	1.5996574
16.34649415908287	2.5530095	1.597814
16.364200953451657	2.5897248	1.6092622
16.38190814123048	2.6483195	1.6273658
16.39961572286839	2.668823	1.6336533
16.41732369881455	2.679917	1.6370453
16.43503206951817	2.6574094	1.6301563
16.45274083542859	2.6838498	1.6382459
16.47044999699522	2.7207139	1.6494586
16.488159554667558	2.7653377	1.6629305
16.505869508895184	2.856907	1.6902387
16.523579860127786	2.955481	1.7191513
16.541290608815117	3.0191495	1.73757
16.559001755407035	3.026703	1.7397422
16.57671330035348	3.0206292	1.7379957
16.59442524410448	3.0703747	1.7522485
16.61213758711015	3.1757946	1.7820759
16.629850329820705	3.2999969	1.8165894
16.647563472686436	3.4293282	1.8518445
16.665277016157724	3.4980779	1.870315
16.682990960685053	3.509687	1.8734158
16.70070530671898	3.5435994	1.8824451
16.718420054710155	3.5769498	1.8912826
16.736135205109335	3.6470525	1.9097258
16.753850758367335	3.653642	1.9114503
16.771566714935087	3.6831346	1.9191494
16.789283075263597	3.7038999	1.9245518
16.80699983980398	3.7725606	1.9423081
16.82471700900741	3.8443725	1.9607072
16.84243458332518	3.9472919	1.9867792
16.860152563208665	4.0159	2.003971
16.87787094910932	4.077747	2.0193431
16.89558974147871	4.1026907	2.02551
16.913308940768466	4.144915	2.0359066
16.931028547430333	4.2251577	2.0555189
16.94874856191613	4.2594666	2.0638475
16.966468984677785	4.3311467	2.0811408
16.98418981616729	4.339688	2.0831916
17.00191105683676	4.400444	2.0977235
17.019632707138374	4.477686	2.1160543
17.03735476752442	4.5534873	2.1338902
17.05507723844728	4.582721	2.1407292
17.072800120359403	4.543418	2.1315296
17.090523413713353	4.565757	2.136763
17.108247118961785	4.617843	2.1489167
17.125971236557437	4.680353	2.1634123
17.143695766953133	4.708974	2.170017
17.161420710601806	4.744242	2.1781282
17.179146067956477	4.753093	2.1801589
17.19687183947025	4.7003465	2.1680284
17.21459802559634	4.688975	2.165404
17.232324626788028	4.7026587	2.1685615
17.25005164349871	4.6971498	2.167291
17.267779076181863	4.690652	2.1657913
17.285506925291074	4.6279697	2.1512716
17.30323519127999	4.6316094	2.1521175
17.320963874602384	4.6167707	2.148667
17.33869297571211	4.611856	2.1475232
17.356422495063114	4.592528	2.1430185
17.37415243310944	4.563667	2.136274
17.391882790305218	4.532228	2.128903
17.40961356710468	4.568424	2.1373873
17.42734476396215	4.600283	2.1448271
17.445076381332044	4.619994	2.1494172
17.462808419668868	4.683234	2.1640782
17.48054087942723	4.784709	2.1873977
17.498273761061835	5.0471363	2.2465832
17.51600706502747	5.4547405	2.3355386
17.533740791779024	6.1299024	2.475864
17.551474941771485	7.5871663	2.754481
17.56920951545993	8.736731	2.955796
17.586944513299528	11.077296	3.3282573
17.60467993574556	12.75607	3.5715642
17.622415783253373	14.539534	3.813074
17.64015205627843	16.07506	4.0093713
17.657888755276293	17.405071	4.1719384
17.675625880702604	17.944527	4.236098
17.69336343301311	17.71634	4.2090783
17.71110141266366	16.717968	4.0887613
17.728839820110178	15.711582	3.9637837
17.746578655808705	14.585366	3.8190792
17.764317920215372	12.925153	3.595157
17.7820576137864	11.350295	3.36902
17.79979773697811	9.380475	3.062756
17.81753829024692	7.483661	2.7356281
17.835279274049356	5.8470764	2.418073
17.85302068884201	4.836009	2.1990929
17.870762535081607	4.2216506	2.0546656
17.888504813224934	3.9378839	1.9844102
17.90624752372891	3.7881029	1.9463049
17.923990667050536	3.684941	1.91962
17.941734243646895	3.5372264	1.8807516
17.959478253975185	3.4342546	1.8531742
17.9772226984927	3.400577	1.8440653
17.994967577656833	3.4353838	1.8534788
18.01271289192506	3.4362535	1.8537134
18.030458641754965	3.3627305	1.8337749
18.04820482760425	3.3040597	1.8177073
18.06595144993067	3.2616484	1.8060035
18.083698509192125	3.269601	1.8082038
18.101446005846576	3.2916453	1.8142892
18.119193940352105	3.2766757	1.810159
18.136942313166887	3.2397964	1.7999434
18.1546911247492	3.1835954	1.7842633
18.1724403755574	3.1206775	1.766544
18.19019006604997	3.0954173	1.7593797
18.207940196685467	3.0966046	1.7597172
18.225690767922575	3.125332	1.7678609
18.243441780220046	3.1255345	1.7679181
18.261193234036764	3.131941	1.7697291
18.278945129831676	3.1529412	1.7756523
18.29669746806386	3.1228237	1.7671514
18.314450249192483	3.1024945	1.76139
18.3322034736768	3.1159828	1.7652147
18.349957141976184	3.1467676	1.773913
18.3677112545501	3.102861	1.7614939
18.385465811858108	3.0763063	1.7539402
18.403220814359884	3.0330677	1.7415705
18.420976262515172	3.0591254	1.7490356
18.43873215678387	3.0946412	1.7591592
18.456488497625923	3.1664257	1.7794453
18.474245285501407	3.2424204	1.8006722
18.492002520870486	3.285233	1.8125212
18.50976020419343	3.322752	1.8228418
18.527518335930615	3.621915	1.9031329
18.545276916542516	4.182687	2.0451617
18.563035946489688	4.345021	2.0844712
18.580795426232832	4.7923927	2.1891534
18.598555356232698	4.7153654	2.1714892
18.616315736950185	5.0692086	2.2514904
18.63407656884626	4.7268615	2.1741347
18.65183785238201	4.8764596	2.2082708
18.669599588018617	4.6286387	2.151427
18.68736177621737	4.6384087	2.1536965
18.705124417439652	4.682196	2.1638384
18.72288751214696	4.4848685	2.117751
18.740651060800886	4.5960374	2.143837
18.758415063863115	4.308593	2.075715
18.77617952179546	4.493458	2.1197777
18.793944435059814	4.202944	2.0501082
18.811709804118184	4.2107587	2.0520134
18.829475629432675	4.220352	2.0543497
18.8472419114655	4.0623074	2.0155168
18.86500865067897	4.0960674	2.0238743
18.88277584753551	3.7828782	1.9449623
18.90054350249763	3.7602768	1.9391433
18.918311616027957	3.451511	1.8578242
18.936080188589226	3.3222678	1.822709
18.953849220644265	3.0361876	1.742466
18.971618712656007	2.8709772	1.6943958
18.9893886650875	2.8487453	1.6878227
19.007159078401887	7.9926095	2.8271203
19.024929953062408	32.883812	5.734441
19.042701289532435	32.822906	5.729128
19.060473088275405	25.412916	5.0411224
19.07824534975489	2.689132	1.6398573
19.096018074434568	2.6796649	1.6369681
19.113791262778197	2.6638148	1.6321198
19.13156491524966	2.6442308	1.6261091
19.149339032312945	2.5539596	1.5981113
19.167113614432136	2.4803965	1.5749274
19.184888662071433	2.4861867	1.5767647
19.202664175695123	2.5281243	1.5900077
19.220440155767623	2.5539238	1.5981001
19.238216602753447	2.5450091	1.5953084
19.2559935171172	2.542585	1.5945485
19.27377089932361	2.5459452	1.5956018
19.291548749837514	2.5842984	1.6075753
19.309327069123835	2.5557954	1.5986855
19.32710585764763	2.5388355	1.5933723
19.344885115874032	2.51864	1.5870224
19.362664844268313	2.5432818	1.594767
19.380445043295822	2.5234306	1.5885309
19.39822571342203	2.469119	1.5713431
19.41600685511252	2.4742935	1.5729887
19.43378846883297	2.5094202	1.5841149
19.451570555049173	2.5295074	1.5904425
19.469353114227037	2.4773364	1.5739557
19.48713614683254	2.4765732	1.5737132
19.50491965333182	2.4598246	1.5683827
19.52270363419109	2.46453	1.5698822
19.540488089876686	2.4877858	1.5772716
19.55827302085503	2.5434427	1.5948174
19.576058427592674	2.5610542	1.6003294
19.593844310556282	2.527605	1.5898443
19.611630670212598	2.5028198	1.5820303
19.629417507028506	2.490464	1.5781204
19.64720482147098	2.4806118	1.5749958
19.6649926140071	2.4926524	1.5788136
19.682780885104084	2.5044596	1.5825485
19.70056963522921	2.491297	1.5783843
19.718358864849908	2.5073593	1.5834643
19.7361485744337	2.5110407	1.5846263
19.753938764448215	2.5090137	1.5839866
19.771729435361202	2.5309384	1.5908923
19.789520587640506	2.5532637	1.5978935
19.807312221754092	2.5657942	1.6018096
19.825104338170043	2.5427926	1.5946136
19.842896937356517	2.544472	1.5951401
19.860690019781824	2.5543644	1.5982379
19.87848358591436	2.579047	1.6059412
19.896277636222635	2.567238	1.6022604
19.914072171175278	2.5453339	1.5954102
19.931867191241015	2.5108268	1.5845588
19.94966269688869	2.4959962	1.5798723
19.967458688587264	2.494414	1.5793715
19.985255166805807	2.4814928	1.5752754
20.00305213201348	2.4514692	1.5657169
20.020849584679578	2.4141557	1.5537554
20.038647525273507	2.4217205	1.5561879
20.05644595426477	2.4233284	1.5567043
20.07424487212299	2.439571	1.5619125
20.092044279317903	2.4186726	1.5552082
20.109844176319353	2.3926497	1.5468192
20.127644563597304	2.3815966	1.5432422
20.145445441621817	2.403144	1.5502077
20.16324681086307	2.4237888	1.5568522
20.181048671791373	2.4314227	1.559302
20.198851024877122	2.458208	1.5678674
20.216653870590836	2.4385276	1.5615785
20.234457209403146	2.3896909	1.5458626
20.252261041784802	2.3291378	1.5261513
20.270065368206662	2.3357713	1.528323
20.287870189139685	2.350575	1.5331585
20.305675505054968	2.3506122	1.5331706
20.323481316423702	2.337689	1.5289502
20.341287623717207	2.3430004	1.5306863
20.359094427406884	2.344197	1.531077
20.376901727964288	2.324781	1.5247233
20.39470952586107	2.3102653	1.5199556
20.41251782156899	2.350262	1.5330564
20.430326615559935	2.393974	1.5472473
20.448135908305886	2.396778	1.5481532
20.465945700278965	2.3549068	1.5345706
20.483755991951384	2.3219073	1.5237806
20.50156678379548	2.286008	1.511955
20.519378076283708	2.297611	1.5157872
20.537189869888635	2.3290443	1.5261207
20.55500216508294	2.329896	1.5263997
20.572814962339415	2.3255243	1.524967
20.59062826213098	2.3123362	1.5206368
20.60844206493066	2.3207302	1.5233943
20.626256371211593	2.300937	1.516884
20.644071181447032	2.2975862	1.515779
20.66188649611036	2.3085034	1.519376
20.67970231567506	2.3093505	1.5196548
20.697518640614742	2.2910385	1.5136176
20.715335471403122	2.2911243	1.513646
20.73315280851404	2.2866921	1.5121813
20.750970652421447	2.3233538	1.5242552
20.768789003599412	2.329919	1.5264072
20.786607862522136	2.3353152	1.5281738
20.8044272296639	2.3479037	1.5322871
20.82224710549913	2.3308642	1.5267168
20.84006749050237	2.3230839	1.5241666
20.857888385148268	3.8764253	1.968864
20.8757097899116	45.95903	6.779309
20.893531705267254	64.759056	8.047301
20.911354131690224	83.75285	9.151658
20.92917706965566	69.02028	8.307844
20.94700051963877	50.10911	7.0787787
20.96482448211493	29.390776	5.421326
20.982648957559622	4.155276	2.0384493
21.00047394644843	2.255691	1.5018958
21.01829944925707	2.2600317	1.5033401
21.036125466461375	2.2238414	1.4912549
21.053951998537297	2.2111218	1.4869841
21.071779045960906	2.2194502	1.489782
21.089606609208378	2.2345502	1.4948412
21.10743468875603	2.265799	1.5052571
21.12526328508028	2.248597	1.4995322
21.143092398657675	2.226157	1.4920311
21.16092202996488	2.1614394	1.4701835
21.17875217947867	2.1573827	1.4688032
21.19658284767596	2.1827774	1.4774226
21.21441403503377	2.24643	1.4988095
21.232245742029225	2.2260365	1.4919908
21.2500779691396	2.1889856	1.4795221
21.26791071684227	2.1763842	1.4752573
21.28574398561475	2.184774	1.478098
21.30357777593465	2.1902516	1.4799498
21.321412088279704	2.2053196	1.4850318
21.339246923127792	2.1875272	1.4790292
21.357082280956888	2.1496048	1.466153
21.3749181622451	2.114375	1.454089
21.392754567470647	2.1150675	1.4543271
21.41059149711187	2.1145794	1.4541594
21.42842895164726	2.1161742	1.4547076
21.446266931555378	2.131096	1.4598273
21.464105437314945	2.146353	1.4650437
21.481944469404798	2.1520007	1.4669698
21.49978402830388	2.132278	1.4602321
21.51762411449127	2.1405566	1.4630641
21.53546472844617	2.12418	1.4574567
21.553305870647876	2.127486	1.4585904
21.571147541575865	2.1120954	1.453305
21.58898974170967	2.1084821	1.4520613
21.60683247152899	2.1033063	1.450278
21.62467573151363	2.0978622	1.4483999
21.642519522143523	2.1153672	1.4544302
21.660363843898722	2.0900269	1.4456925
21.6782086972594	2.0691228	1.4384446
21.696054082705864	2.0560503	1.4338934
21.713900000718535	2.058849	1.434869
21.73174645177795	2.0678196	1.4379915
21.749593436364794	2.0629508	1.4362977
21.767440954959845	2.0195894	1.4211226
21.785289008044032	2.0194597	1.421077
21.803137596098388	2.0469964	1.4307328
21.820986719604086	2.0852447	1.4440377
21.838836379042412	2.0511408	1.4321804
21.85668657489478	2.0033555	1.4153994
21.87453730764273	1.9557694	1.3984883
21.892388577767914	1.9322093	1.3900393
21.91024038575213	1.9771245	1.4061025
21.928092732077285	2.018942	1.4208949
21.945945617225426	2.0631042	1.436351
21.963799041678694	2.034676	1.4264207
21.981653005919398	31.324953	5.59687
21.999507510429943	78.12355	8.838753
22.01736255569286	73.10163	8.54995
22.035218142190818	4.209593	2.0517292
22.05307427040661	1.9903057	1.410782
22.07093094082315	1.9299808	1.3892375
22.088788153923474	1.9269447	1.3881444
22.106645910190746	1.9478279	1.3956461
22.12450421010827	1.9962051	1.4128712
22.142363054159464	2.0104525	1.4179043
22.16022244282787	1.9952352	1.4125279
22.178082376597164	1.9891964	1.4103887
22.195942855951145	2.008026	1.4170483
22.213803881373742	2.0244386	1.4228277
22.231665453349002	2.0079877	1.4170349
22.24952757236111	1.9545268	1.3980439
22.26739023889438	1.9467438	1.3952576
22.28525345343323	1.9389347	1.3924563
22.30311721646225	1.9491669	1.3961257
22.320981528466113	1.9644074	1.4015732
22.33884638992964	1.9729393	1.4046136
22.356711801337788	1.9525751	1.3973458
22.37457776317561	1.9487017	1.395959
22.392444275928337	1.9653375	1.401905
22.410311340081282	2.0022497	1.4150088
22.428178956119904	1.9853127	1.4090112
22.446047124529805	1.9423314	1.3936756
22.46391584579669	1.9018649	1.3790811
22.481785120406414	1.9034966	1.3796726
22.49965494884496	1.9361342	1.3914504
22.51752533159841	1.9652909	1.4018884
22.53539626915302	1.9612149	1.4004338
22.553267761995137	1.9304934	1.3894219
22.571139810611264	1.9328082	1.3902547
22.589012415488025	1.9671876	1.4025646
22.60688557711216	1.9891274	1.4103643
22.624759295970566	2.0189688	1.4209043
22.642633572550263	2.0095024	1.4175692
22.660508407338362	1.9894365	1.4104738
22.67838380082217	1.9462924	1.3950958
22.696259753489077	1.9375619	1.3919634
22.714136265826614	1.9412667	1.3932935
22.73201333832246	1.924321	1.387199
22.74989097146439	1.8836734	1.3724698
22.76776916574035	1.8857818	1.3732377
22.785647921638393	1.8944936	1.3764061
22.803527239646712	1.8991772	1.3781064
22.82140712025363	1.8815156	1.3716835
22.839287563947593	1.8999528	1.3783877
22.85716857121719	1.872891	1.3685361
22.875050142551135	1.8460469	1.3586931
22.892932278438277	1.8483489	1.35954
22.910814979367604	1.8803376	1.371254
22.928698245828222	1.9222411	1.3864491
22.946582078309387	1.9556761	1.3984549
22.96446647730047	1.9681373	1.4029032
22.98235144329098	1.934448	1.3908443
23.000236976770562	1.929152	1.3889391
23.018123078229	1.9225324	1.3865541
23.03600974815619	1.9554813	1.3983853
23.053896987042194	1.9602444	1.4000872
23.071784795377173	1.92183	1.3863008
23.08967317365145	1.8978853	1.3776376
23.10756212235546	1.8963103	1.3770659
23.125451641979787	1.9184161	1.385069
23.143341733015134	1.9060587	1.3806008
23.161232395952357	1.9302316	1.3893278
23.179123631282426	1.9209656	1.3859891
23.197015439496468	1.9127337	1.3830161
23.214907821085717	1.921852	1.3863088
23.23280077654157	1.9171871	1.3846252
23.250694306355538	1.9466687	1.3952308
23.268588411019277	1.9231435	1.3867745
23.28648309102458	1.8831135	1.3722658
23.304378346863356	1.8552952	1.3620923
23.322274179027676	1.9169579	1.3845425
23.340170588009723	1.9396569	1.3927157
23.358067574301852	1.9262595	1.3878975
23.37596513839651	1.8724946	1.3683913
23.39386328078629	1.8805938	1.3713474
23.411762001963947	1.9057525	1.38049
23.429661302422353	1.9433767	1.3940505
23.4475611826545	1.9316188	1.3898269
23.46546164315356	1.8971778	1.3773807
23.48336268441279	1.9065442	1.3807766
23.501264306925638	1.9558638	1.398522
23.51916651118564	1.9483944	1.395849
23.537069297686497	1.8947642	1.3765043
23.554972666922037	1.9011931	1.3788376
23.57287661938623	1.9238396	1.3870255
23.59078115557318	1.9034889	1.3796698
23.608686275977128	1.870083	1.3675097
23.62659198109246	1.8670193	1.3663892
23.6444982714137	1.8928524	1.3758098
23.66240514743549	1.8970679	1.3773409
23.68031260965263	1.8986697	1.3779223
23.698220658560068	1.9071544	1.3809977
23.716129294652845	1.8699014	1.3674434
23.7340385184262	1.8783367	1.3705243
23.75194833037546	1.9045963	1.3800712
23.769858730996123	1.9263338	1.3879243
23.78776972078382	1.9052731	1.3803163
23.80568130023431	1.8905329	1.3749665
23.823593469843495	1.8904661	1.3749422
23.841506230107424	1.8671193	1.3664258
23.859419581522275	1.876405	1.3698193
23.87733352458438	1.8686997	1.3670039
23.89524805979019	1.9069293	1.3809161
23.913163187636318	1.9637154	1.4013263
23.931078908619508	1.9661134	1.4021816
23.948995223236633	1.984864	1.408852
23.966912131984735	1.9770461	1.4060748
23.98482963536096	2.0254047	1.4231671
24.002747733862616	2.0423124	1.4290949
24.020666427987155	2.0336683	1.4260675
24.038585718232156	2.038875	1.4278919
24.056505605095353	2.042625	1.4292043
24.074426089074617	2.1069539	1.451535
24.092347170667946	2.1262207	1.4581566
24.110268850373515	2.0931988	1.4467891
24.128191128689586	2.0518863	1.4324406
24.146114006114626	2.0350971	1.4265683
24.164037483147187	2.044666	1.4299182
24.181961560286005	2.0533762	1.4329606
24.199886238029926	2.0470316	1.4307451
24.21781151687797	2.0343294	1.4262992
24.235737397329274	2.0184214	1.4207116
24.253663879883135	2.0116937	1.4183419
24.271590965038975	2.0048478	1.4159265
24.289518653296376	2.012593	1.4186589
24.30744694515505	2.057526	1.434408
24.32537584111486	2.0829537	1.4432441
24.34330534167581	2.0747812	1.44041
24.361235447338046	2.0372097	1.4273086
24.379166158601876	2.027868	1.4240323
24.39709747596772	2.0391338	1.4279824
24.41502939993615	2.0316386	1.4253556
24.432961931007917	1.9826518	1.4080667
24.450895069683856	1.9703416	1.4036885
24.468828816465	1.9739441	1.4049712
24.4867631718525	2.0133224	1.4189159
24.504698136347656	2.0225766	1.4221731
24.52263371045192	1.9859724	1.4092454
24.540569894666874	2.0056226	1.4162
24.558506689494266	2.0033698	1.4154044
24.57644409543597	1.9820429	1.4078505
24.594382112994012	1.918121	1.3849624
24.61232074267057	1.8830192	1.3722315
24.630259984967953	1.8804406	1.3712916
24.64819984038863	1.8888631	1.3743591
24.66614030943522	1.9147964	1.3837616
24.684081392610462	1.9116094	1.3826096
24.702023090417274	1.9350885	1.3910745
24.7199654033587	1.9570876	1.3989595
24.737908331937927	1.9666907	1.4023875
24.755851876658305	1.9939967	1.4120895
24.773796038023324	2.035041	1.4265487
24.79174081653661	2.056167	1.4339341
24.809686212701962	2.1096041	1.4524477
24.827632227023294	2.1218848	1.4566691
24.8455788600047	2.118581	1.4555346
24.8635261121504	2.1259487	1.4580634
24.88147398396475	2.0963233	1.4478685
24.899422475952303	2.1011622	1.4495386
24.917371588617698	2.077711	1.4414268
24.935321322465768	2.1439683	1.4642296
24.953271678001478	2.2835312	1.5111357
24.97122265572994	2.5046985	1.582624
24.989174256156414	2.8311827	1.6826118
25.00712647978632	3.2312932	1.7975798
25.02507932712521	3.783027	1.9450005
25.043032798678798	4.3506937	2.0858316
25.060986894952933	4.9874816	2.233267
25.078941616453637	5.7066793	2.3888657
25.096896963687055	6.6766076	2.5839133
25.114852937159508	7.935092	2.8169296
25.132809537377444	8.480263	2.912089
25.150766764847468	8.490596	2.9138627
25.168724620076347	7.9038787	2.8113837
25.186683103570985	6.8531346	2.6178493
25.204642215838426	5.667939	2.3807435
25.222601957385894	4.266708	2.065601
25.24056232872074	3.1980178	1.7883003
25.25852333035048	2.5898993	1.6093163
25.276484962782778	2.265295	1.5050898
25.294447226525435	2.0861158	1.4443393
25.312410122086423	2.0015557	1.4147635
25.330373649973843	1.9357272	1.3913041
25.348337810695988	1.9235712	1.3869287
25.366302604761245	1.887245	1.3737704
25.384268032678207	1.9101423	1.382079
25.40223409495558	1.9209648	1.3859887
25.420200792102257	1.9530916	1.3975306
25.438168124627246	1.9782416	1.4064997
25.45613609303974	1.940292	1.3929436
25.474104697849057	1.9061967	1.3806509
25.492073939564698	1.8960888	1.3769854
25.510043818696285	1.8848952	1.3729149
25.528014335753614	1.8990785	1.3780706
25.54598549124664	1.9116526	1.3826252
25.56395728568544	1.9047232	1.380117
25.58192971958028	1.8468074	1.3589729
25.59990279344156	1.8195437	1.3489046
25.617876507779833	1.8053415	1.34363
25.635850863105826	1.8489503	1.3597611
25.653825859930386	1.8713492	1.3679726
25.671801498764548	1.8947711	1.3765068
25.68977778011949	1.8631763	1.3649821
25.707754704506524	1.8355703	1.3548322
25.725732272437153	1.8480657	1.3594358
25.743710484423012	1.8264668	1.3514684
25.761689340975888	1.8437439	1.3578453
25.77966884260774	1.8091297	1.3450389
25.797648989830662	1.7988454	1.3412105
25.815629783156922	1.7978619	1.3408438
25.83361122309895	1.8664453	1.3661791
25.85159331016929	1.9101939	1.3820976
25.869576044880695	1.8926901	1.3757508
25.887559427746034	1.8183367	1.3484572
25.90554345927836	1.7920436	1.3386723
25.92352813999086	1.7988564	1.3412145
25.94151347039689	1.8158861	1.3475482
25.959499451009965	1.7972077	1.3405998
25.97748608234374	1.8420812	1.3572329
25.995473364912062	1.8567412	1.3626229
26.013461299228904	1.8381566	1.3557863
26.03144988580839	1.8237073	1.350447
26.04943912516483	1.8767643	1.3699504
26.067429017812675	1.9162241	1.3842775
26.085419564266537	1.925765	1.3877194
26.103410765041186	1.906343	1.3807038
26.12140262065155	1.8734748	1.3687494
26.139395131612723	1.8778973	1.370364
26.157388298439948	1.9105078	1.3822112
26.17538212164861	1.8886276	1.3742735
26.193376601754295	1.8633757	1.3650552
26.211371739272714	1.8597131	1.363713
26.229367534719746	1.8694212	1.3672678
26.247363988611433	1.9224166	1.3865124
26.26536110146397	1.8984267	1.3778341
26.283358873793727	1.8670149	1.3663875
26.301357306117204	1.8747563	1.3692174
26.319356398951104	1.8950644	1.3766134
26.33735615281224	1.842738	1.3574749
26.35535656821762	1.8033665	1.3428948
26.373357645684404	1.7996874	1.3415242
26.39135938572991	1.8099433	1.3453413
26.409361788871614	1.7685118	1.329854
26.427364855627165	1.7594118	1.3264282
26.445368586514352	1.7980125	1.3408998
26.46337298205115	1.8335779	1.3540967
26.48137804275568	1.8279512	1.3520174
26.499383769146217	1.8130394	1.3464916
26.517390161741215	1.7901598	1.3379686
26.53539722105928	1.7691393	1.3300899
26.553404947619182	1.8053315	1.3436263
26.571413341939856	1.8243107	1.3506705
26.589422404540397	1.8203682	1.3492101
26.60743213594006	1.8283819	1.3521767
26.62544253665827	1.7880414	1.3371767
26.64345360721459	1.7765453	1.3328711
26.66146534812879	1.7755579	1.3325006
26.679477759920758	1.8000463	1.341658
26.69749084311057	1.8008082	1.341942
26.71550459821847	1.8298706	1.352727
26.733519025764842	1.8468871	1.3590022
26.751534126270258	1.8341118	1.3542938
26.769549900255434	1.807625	1.3444794
26.787566348241267	1.8150231	1.3472279
26.80558347074881	1.8097496	1.3452693
26.823601268299267	1.8070998	1.3442842
26.841619741414036	1.8164585	1.3477606
26.85963889061465	1.8353003	1.3547325
26.877658716422832	1.8269566	1.3516496
26.89567921936045	1.7891634	1.337596
26.913700399949544	1.76575	1.3288152
26.93172225871233	1.8162857	1.3476964
26.949744796171174	1.7898992	1.3378712
26.967768012848605	1.7676431	1.3295274
26.98579190926733	1.8112282	1.3458188
27.003816485950225	1.8492929	1.3598871
27.021841743420318	1.8458664	1.3586267
27.039867682200814	1.8244823	1.350734
27.057894302815072	1.8402566	1.3565606
27.07592160578664	1.8280947	1.3520706
27.0939495916392	1.8217293	1.3497145
27.111978260896635	1.8274125	1.3518182
27.13000761408296	1.803997	1.3431295
27.148037651722397	1.7630243	1.3277893
27.166068374339304	1.8188215	1.3486369
27.184099782458215	1.8528435	1.361192
27.20213187660384	1.852274	1.3609827
27.22016465730105	1.8049518	1.343485
27.23819812507487	1.8397874	1.3563876
27.256232280450533	1.808979	1.3449829
27.274267123953383	1.8043324	1.3432544
27.292302656108987	1.8013675	1.3421503
27.31033887744306	1.8205996	1.349296
27.32837578848146	1.852635	1.3611153
27.34641338975026	1.8211584	1.349503
27.364451681775673	1.811112	1.3457756
27.382490665084074	1.8004917	1.341824
27.400530340202046	1.795124	1.3398224
27.41857070765629	1.7651627	1.3285942
27.436611767973726	1.7753048	1.3324057
27.454653521681404	1.7873384	1.3369137
27.472695969306564	1.76162	1.3272604
27.490739111376627	1.7484987	1.3223081
27.508782948419153	1.7954211	1.3399333
27.526827480961902	1.8553305	1.3621051
27.54487270953279	1.8694421	1.3672755
27.562918634659898	1.8352447	1.354712
27.580965256871508	1.8271403	1.3517176
27.599012576696026	1.865128	1.3656969
27.617060594662068	1.8779149	1.3703704
27.63510931129842	1.846967	1.3590317
27.65315872713401	1.8087378	1.3448932
27.67120884269797	1.838995	1.3560954
27.68925965851958	1.8379949	1.3557267
27.707311175128307	1.8571833	1.3627851
27.725363393053787	1.9471439	1.395401
27.74341631282583	2.005003	1.4159813
27.7614699349744	1.9785303	1.4066024
27.77952426002968	2.0019283	1.4148952
27.797579288521973	2.0073822	1.4168211
27.815635020981784	2.4147065	1.5539325
27.83369145793979	2.5355258	1.5923334
27.85174859992682	2.4563112	1.5672623
27.869806447473923	2.3332925	1.5275118
27.887865001112267	2.0303426	1.4249009
27.905924261373233	1.9435383	1.3941084
27.92398422878836	1.9302341	1.3893286
27.94204490388936	1.940383	1.3929763
27.96010628720813	1.8917804	1.3754201
27.978168379276728	1.8933791	1.3760011
27.9962311806274	1.8977864	1.3776016
28.014294691792568	1.8861814	1.3733832
28.0323589133048	1.9037014	1.3797469
28.050423845696887	1.9435158	1.3941003
28.068489489501758	1.9056326	1.3804466
28.086555845252523	1.8678349	1.3666875
28.104622913482487	1.9097317	1.3819305
28.122690694725115	1.9794648	1.4069345
28.14075918951405	1.9916235	1.4112489
28.15882839838312	1.9453216	1.3947479
28.176898321866304	1.8914268	1.3752916
28.1949689604978	1.9014846	1.3789433
28.213040314811945	1.9522796	1.3972399
28.23111238534327	1.9632646	1.4011655
28.249185172626493	1.9387987	1.3924075
28.267258677196473	1.9449489	1.3946142
28.285332899588294	1.9485418	1.3959018
28.303407840337172	1.9415334	1.3933892
28.321483499978545	1.9360741	1.3914288
28.33955987904799	1.9459022	1.394956
28.357636978081285	1.978787	1.4066936
28.37571479761439	1.9918121	1.4113157
28.393793338183425	1.9207008	1.3858935
28.41187260032469	1.8968455	1.3772601
28.429952584574686	1.9324188	1.3901147
28.448033291470065	1.9561	1.3986064
28.46611472154769	1.9633409	1.4011927
28.484196875344566	2.0120888	1.4184811
28.502279753397914	2.0404856	1.4284557
28.52036335624511	2.050122	1.4318247
28.538447684423716	2.045441	1.4301891
28.556532738471482	2.0125327	1.4186376
28.574618518926325	1.9728338	1.4045761
28.59270502632635	1.9645281	1.4016162
28.61079226120985	1.9714246	1.4040743
28.628880224115274	1.9562918	1.398675
28.646968915581287	2.0156934	1.4197512
28.66505833614671	2.0175626	1.4204093
28.68314848635055	2.052583	1.4326838
28.701239366732004	2.145581	1.4647802
28.71933097783044	2.1642241	1.4711303
28.737423320185403	2.0818994	1.4428788
28.75551639433665	2.015662	1.4197401
28.773610200824074	2.0400608	1.4283069
28.791704740187793	2.0856345	1.4441726
28.80980001296809	2.1041934	1.4505838
28.827896019705413	2.1336432	1.4606996
28.845992760940433	2.1171317	1.4550366
28.86409023721397	2.1635466	1.4708999
28.88218844906704	2.178991	1.4761406
28.900287397040845	2.1985593	1.482754
28.918387081676755	2.2398288	1.4966058
28.936487503516343	2.251817	1.5006056
28.954588663101365	2.2875614	1.5124687
28.97269056097374	2.3293934	1.526235
28.990793197675597	2.3861308	1.5447106
29.00889657374923	2.4241078	1.5569546
29.027000689737125	2.3758833	1.5413901
29.04510554618196	2.3568106	1.5351907
29.06321114362659	2.4579537	1.5677862
29.08131748261405	2.5460403	1.5956316
29.099424563687567	2.5098097	1.5842379
29.11753238739057	2.4941223	1.5792791
29.13564095426663	2.5415368	1.5942198
29.15375026485954	2.5588665	1.5996457
29.171860319713275	2.6037393	1.6136106
29.18997111937199	2.683445	1.6381224
29.20808266438002	2.7231464	1.6501958
29.226194955281898	2.7840421	1.6685449
29.244307992622335	2.851595	1.6886666
29.26242177694624	2.9207246	1.7090127
29.2805363087987	2.9412084	1.7149951
29.29865158872498	2.9325159	1.712459
29.316767617270557	2.8918338	1.7005392
29.334884394981064	2.9254644	1.7103989
29.353001922402367	2.987035	1.7283041
29.37112020008047	3.0748773	1.7535328
29.389239228561596	3.207449	1.7909353
29.407359008392152	3.3900716	1.8412147
29.42547954011872	3.7063384	1.9251853
29.44360082428809	4.372806	2.0911255
29.46172286144722	5.3848047	2.3205183
29.479845652143283	6.9210906	2.6307967
29.497969196923606	9.033224	3.0055323
29.516093496335728	11.735373	3.425693
29.5342185509274	14.71717	3.8362963
29.55234436124651	17.24977	4.153284
29.570470927841175	18.684526	4.3225603
29.588598251259686	18.27544	4.274978
29.60672633205055	17.050644	4.1292424
29.624855170762405	14.904344	3.8606143
29.642984767944146	12.208346	3.4940443
29.66111512414481	9.265132	3.0438678
29.67924623991366	6.833922	2.614177
29.697378115800138	5.154811	2.2704208
29.71551075235387	4.1591434	2.0393977
29.733644150124675	3.7240877	1.9297895
29.751778309662576	3.4986424	1.8704659
29.769913231517766	3.4064786	1.8456649
29.78804891624066	3.3506489	1.8304777
29.806185364381818	3.3971515	1.8431363
29.82432257649206	3.3792744	1.8382803
29.842460553122333	3.3873816	1.840484
29.86059929482382	3.3662784	1.8347421
29.878738802147872	3.3052742	1.8180413
29.896879075646048	3.2679386	1.807744
29.915020115870114	3.2981718	1.8160869
29.933161923371976	3.3256824	1.8236454
29.951304498703777	3.2950156	1.8152177
29.969447842417857	3.2797866	1.8110181
29.987591955066733	3.2482405	1.8022876
30.005736837203123	3.2355254	1.7987566
30.023882489379943	3.2427578	1.8007659
30.04202891215028	3.2533653	1.8037088
30.060176106067455	3.2111886	1.791979
30.078324071684946	3.2241693	1.7955972
30.09647280955646	3.21451	1.7929054
30.114622320235863	3.1709802	1.7807246
30.132772604277257	3.1135259	1.7645186
30.1509236622349	3.0867512	1.7569152
30.16907549466328	3.073135	1.7530359
30.18722810211705	3.0816731	1.7554694
30.205381485151097	3.086394	1.7568136
30.22353564432045	3.1245117	1.7676288
30.241690580180403	3.106287	1.7624662
30.25984629328638	3.0854328	1.75654
30.278002784194037	3.0112753	1.7353027
30.296160053459246	2.9811144	1.7265904
30.314318101638033	2.993335	1.7301257
30.332476929286646	2.9600744	1.7204866
30.35063653696153	2.9643066	1.7217162
30.368796925219307	2.9308388	1.7119693
30.386958094616844	2.9412124	1.7149963
30.40512004571115	2.9243495	1.710073
30.423282779059463	2.9633732	1.7214451
30.441446295219233	2.9522796	1.7182199
30.459610594748067	2.8375335	1.684498
30.47777567820382	2.7506166	1.6584983
30.495941546144504	2.8327298	1.6830715
30.51410819912835	2.8759265	1.6958557
30.532275637713795	2.8656971	1.692837
30.55044386245946	2.8580267	1.69057
30.56861287392416	2.839506	1.6850834
30.586782672666956	2.7964919	1.6722715
30.604953259247047	2.7893682	1.6701401
30.623124634223885	2.8022149	1.6739818
30.641296798157075	2.7806835	1.6675382
30.659469751606462	2.7070794	1.6453204
30.677643495132074	2.7309697	1.6525645
30.695818029294152	2.740704	1.6555072
30.713993354653116	2.7524464	1.6590499
30.73216947176962	2.7255392	1.6509207
30.75034638120448	2.655174	1.6294705
30.768524083518756	2.7020464	1.6437902
30.786702579273673	2.772794	1.6651709
30.80488186903069	2.8284502	1.6817997
30.82306195335144	2.9291873	1.7114868
30.841242832797782	3.1275008	1.7684741
30.85942450793176	3.4770758	1.8646919
30.877606979315637	3.8066847	1.9510727
30.895790247511883	4.2089515	2.051573
30.913974313083134	4.7139773	2.1711695
30.932159176592283	5.0497093	2.247156
30.95034483860237	5.030666	2.2429147
30.968531299676698	4.6951957	2.16684
30.98671856037873	4.3593245	2.0878994
31.00490662127215	4.0627084	2.0156162
31.023095482920848	3.6162298	1.9016387
31.04128514588892	3.104344	1.7619148
31.059475610740662	2.7085915	1.6457798
31.07766687804056	2.502655	1.5819782
31.09585894835335	2.4681027	1.5710196
31.11405182224393	2.4904118	1.5781039
31.132245500277417	2.5053194	1.58282
31.15043998301914	2.4225843	1.5564653
31.168635271034628	2.4351208	1.5604874
31.18683136488964	2.4766417	1.5737349
31.20502826515008	2.4545484	1.5666999
31.223225972382135	2.408938	1.5520754
31.241424487152155	2.4130719	1.5534066
31.259623810026692	2.4190714	1.5553365
31.27782394157253	2.4814699	1.5752681
31.296024882356644	2.4898849	1.5779369
31.314226632946237	2.4572065	1.5675479
31.332429193908684	2.4279153	1.5581769
31.350632565811598	2.479241	1.5745605
31.368836749222787	2.438291	1.5615028
31.387041744710295	2.3729827	1.5404489
31.40524755284232	2.4803562	1.5749147
31.423454174187317	2.5439358	1.594972
31.441661609313922	2.509048	1.5839975
31.459869858791002	2.4768438	1.5737991
31.478078923187628	2.4231653	1.556652
31.496288803073064	2.3875234	1.5451612
31.514499499016807	2.3138032	1.5211191
31.532711011588546	2.3342826	1.527836
31.550923341358178	2.3712425	1.539884
31.56913648889584	2.3980196	1.5485541
31.587350454771844	2.3960202	1.5479083
31.605565239556732	2.4474204	1.5644233
31.62378084382127	2.357341	1.5353634
31.641997268136382	2.2198157	1.4899046
31.660214513073274	2.1942143	1.4812881
31.67843257920331	2.2731988	1.5077131
31.6966514670981	2.3691323	1.5391986
31.71487117732944	2.3372264	1.528799
31.733091710469346	2.2668726	1.5056137
31.751313067090052	2.2640197	1.504666
31.769535247764008	2.27065	1.5068675
31.787758253063878	2.243552	1.4978491
31.805982083562526	2.232141	1.4940351
31.824206739833024	2.282236	1.5107071
31.84243222244869	2.2847075	1.5115249
31.860658531983013	2.2599752	1.5033214
31.878885669009737	2.309407	1.5196733
31.897113634102784	2.3746498	1.5409899
31.91534242783632	2.368991	1.5391526
31.933572050784694	2.314912	1.5214835
31.951802503522508	2.2518845	1.500628
31.970033786624548	2.288178	1.5126724
31.988265900665834	2.263862	1.5046135
32.006498846221575	2.2775457	1.509154
32.02473262386724	2.2384534	1.4961462
32.04296723417845	2.1920233	1.4805483
32.0612026777311	2.1605155	1.4698693
32.07943895510129	2.1636348	1.4709299
32.097676066865304	2.1946876	1.4814478
32.115914013599685	2.1963866	1.4820211
32.13415279588115	2.0975554	1.4482939
32.152392414286666	2.035277	1.4266313
32.1706328693934	2.0830925	1.4432923
32.18887416177875	2.1505969	1.4664913
32.20711629202032	2.1261945	1.4581476
32.225359260695924	2.1265757	1.4582783
32.243603068383614	2.1121728	1.4533316
32.26184771566166	2.0834036	1.4434
32.28009320310852	2.1279233	1.4587404
32.2983395313029	2.2215545	1.490488
32.31658670082372	2.2197156	1.489871
32.33483471225012	2.1948795	1.4815125
32.35308356616143	2.1390908	1.462563
32.371333263137245	2.163474	1.4708753
32.38958380375734	2.1849716	1.4781649
32.407835188601744	2.1645179	1.47123
32.42608741825067	2.0978117	1.4483825
32.444340493284585	2.0013518	1.4146914
32.46259441428416	1.9759617	1.405689
32.48084918183028	2.0391657	1.4279937
32.49910479650405	2.034521	1.4263664
32.51736125888683	2.060971	1.4356083
32.53561856956014	2.0531838	1.4328935
32.5538767291058	1.9681668	1.4029137
32.572135738105764	1.9629118	1.4010396
32.59039559714228	2.0996006	1.4489999
32.608656306797776	2.1119106	1.4532413
32.62691786765491	2.0507827	1.4320554
32.645180280296586	2.0204308	1.4214185
32.663443545305896	2.0438058	1.4296174
32.68170766326619	1.9486898	1.3959548
32.69997263476099	1.9698673	1.4035196
32.7182384603741	2.0561516	1.4339287
32.7365051406895	2.0409827	1.4286296
32.75477267629144	2.0228994	1.4222866
32.77304106776434	2.0145001	1.4193308
32.79131031569289	2.0103228	1.4178585
32.809580420661966	1.9713008	1.4040302
32.827851383256714	1.9565927	1.3987826
32.84612320406245	1.9638703	1.4013816
32.86439588366476	1.9465535	1.3951894
32.88266942264945	1.9056978	1.3804702
32.9009438216025	1.9477861	1.3956311
32.9192190811102	2.0472665	1.4308273
32.937495201758985	2.0627272	1.4362198
32.95577218413556	1.9796032	1.4069837
32.974050028826866	1.9790256	1.4067785
32.992328736420035	2.0086243	1.4172595
33.010608307502444	1.9867468	1.40952
33.02888874266169	1.960296	1.4001057
33.047170042485604	1.9464716	1.3951601
33.06545220756225	1.9614428	1.4005152
33.083735238479896	2.023481	1.4224911
33.10201913582707	2.04007	1.4283102
33.12030390019248	2.04706	1.430755
33.138589532165135	2.085955	1.4442835
33.15687603233419	2.1136389	1.453836
33.17516340128909	2.0915008	1.4462022
33.19345163961947	2.0797906	1.4421479
33.211740747915215	2.0251858	1.4230902
33.23003072676643	1.8886127	1.374268
33.248321576763466	1.9047657	1.3801326
33.266613298496885	2.0028565	1.4152231
33.28490589255747	2.0543826	1.4333117
33.30319935953626	2.0480137	1.4310883
33.32149370002451	1.9943357	1.4122095
33.339788914613706	2.065387	1.4371455
33.358085003895575	2.1006691	1.4493685
33.376381968462034	2.046584	1.4305886
33.39467980890529	1.9602886	1.4001031
33.41297852581774	1.8755407	1.3695039
33.43127811979204	1.8889445	1.3743888
33.44957859142105	1.9187646	1.3851948
33.467879941297866	1.9196054	1.3854983
33.486182170015844	1.9698743	1.4035221
33.50448527816853	1.9656628	1.4020209
33.522789266349754	1.821541	1.3496448
33.541094135153514	1.8384224	1.3558843
33.55939988517411	2.0206397	1.4214921
33.57770651700602	2.0544736	1.4333435
33.59601403124398	2.0314536	1.4252907
33.61432242848296	1.8947794	1.3765099
33.632631709318154	1.8906069	1.3749934
33.650941874344994	1.9945784	1.4122955
33.66925292415916	2.0006545	1.4144449
33.68756485935654	1.9510612	1.396804
33.70587768053328	1.9450756	1.3946596
33.724191388285746	1.950379	1.3965597
33.74250598321054	1.865261	1.3657455
33.760821465904506	1.6969609	1.3026745
33.77913783696474	1.6665463	1.2909478
33.79745509698852	1.8725978	1.368429
33.815773246573414	1.993957	1.4120754
33.8340922863172	1.9957246	1.4127011
33.852412216817896	1.9761199	1.4057453
33.87073303867377	1.9462676	1.395087
33.889054752483304	1.9498976	1.3963873
33.907377358845245	1.9681416	1.4029046
33.92570085835853	1.988417	1.4101124
33.94402525162239	1.978854	1.4067174
33.96235053923627	2.004775	1.4159008
33.980676721799824	1.971797	1.4042069
33.999003799912984	1.9282441	1.3886123
34.01733177417592	1.9799055	1.4070911
34.03566064518901	2.0160236	1.4198675
34.0539904135529	1.9111842	1.3824558
34.07232107986846	1.7977909	1.3408172
34.090652644736785	1.8941945	1.3762974
34.108985108759235	1.9460894	1.3950231
34.12731847253742	2.0281112	1.4241177
34.14565273667313	2.1041577	1.4505715
34.16398790176847	2.084155	1.4436603
34.18232396842574	1.9965541	1.4129947
34.20066093724749	1.9019076	1.3790966
34.21899880883651	1.8862381	1.3734038
34.23733758379583	1.9737005	1.4048846
34.25567726272874	1.9966514	1.4130292
34.27401784623872	1.9043207	1.3799713
34.29235933492957	1.8536513	1.3614886
34.31070172940526	1.9765936	1.4059138
34.32904503027003	2.0924335	1.4465246
34.347389238128386	2.1764274	1.4752719
34.36573435358502	2.1219876	1.4567044
34.38408037724492	2.0651662	1.4370686
34.402427309713296	2.0350125	1.4265386
34.42077515159559	2.0251827	1.4230891
34.43912390349752	2.0694718	1.4385659
34.45747356602499	2.0854464	1.4441074
34.47582413978423	2.0643241	1.4367756
34.49417562538163	2.088878	1.4452951
34.51252802342388	1.9617203	1.4006143
34.53088133451789	1.8879155	1.3740144
34.54923555927084	1.9140263	1.3834834
34.567590698290104	2.0484345	1.4312353
34.58594675218336	2.1420453	1.4635727
34.6043037215585	2.097978	1.4484398
34.62266160702365	1.9890205	1.4103264
34.641020409187234	1.7853304	1.3361626
34.65938012865785	1.7553263	1.3248873
34.677740766044394	1.8394251	1.3562541
34.69610232195598	1.9552723	1.3983105
34.714464797002016	1.9559968	1.3985696
34.73282819179208	1.9520475	1.397157
34.751192506936064	1.8712946	1.3679527
34.76955774304408	1.8114934	1.3459173
34.7879239007265	1.8967892	1.3772397
34.80629098059391	1.9605151	1.4001839
34.824658983257194	2.0875986	1.4448525
34.843027909327446	2.1898744	1.4798224
34.86139775941603	2.1111104	1.4529661
34.879768534134534	1.9628521	1.4010183
34.89814023409483	1.8178087	1.3482614
34.91651285990901	1.8297079	1.352667
34.93488641218944	2.1151674	1.4543616
34.95326089154871	2.246892	1.4989636
34.97163629859967	2.0599306	1.4352459
34.99001263395542	1.8226578	1.3500584
35.00838989822934	1.9805069	1.4073049
35.02676809203499	1.9447238	1.3945335
35.04514721598624	1.5934331	1.2623127
35.063527270697215	1.4805292	1.2167699
35.081908256782256	1.886571	1.373525
35.10029017485597	2.128162	1.4588221
35.11867302553321	1.9285312	1.3887156
35.137056809429104	2.0432096	1.4294088
35.155441527159006	2.3493397	1.5327556
35.173827179338524	2.2826788	1.5108536
35.19221376658354	2.1081235	1.4519379
35.21060128951017	2.2400377	1.4966755
35.2289897487348	2.1225836	1.456909
35.24737914487405	1.9528791	1.3974545
35.26576947854479	2.026714	1.4236271
35.28416075036418	2.1816258	1.4770328
35.30255296094958	1.9674736	1.4026666
35.32094611091867	1.8958519	1.3768994
35.33934020088932	1.9489594	1.3960513
35.35773523147969	1.7625444	1.3276085
35.3761312033082	1.6907799	1.3002999
35.394528116993506	1.8565803	1.3625638
35.41292597315452	2.0535486	1.4330208
35.431324772410434	2.0347226	1.426437
35.449724515380666	1.7222056	1.3123283
35.46812520268491	1.5635449	1.2504178
35.486526834943106	1.5236477	1.2343613
35.504929412775454	1.9109901	1.3823856
35.52333293680242	2.3929641	1.5469209
35.54173740764471	2.4043841	1.5506077
35.560142825923286	2.1306498	1.4596746
35.5785491922594	2.1547863	1.4679191
35.59695650727454	1.8670282	1.3663924
35.61536477159042	1.5382273	1.240253
