0.008763373481513119	0.61777776	0.7859884
0.026290120649546365	0.373186	0.6108895
0.043816868432600686	0.3462486	0.5884289
0.06134361724069026	0.20175956	0.44917655
0.07887036748382949	0.17097788	0.4134947
0.0963971195720331	0.06439476	0.25376123
0.11392387391531617	0.113677904	0.33716154
0.1314506309236943	0.17190807	0.414618
0.1489773910071836	0.18063617	0.42501312
0.16650415457580078	0.1635355	0.40439522
0.18403092203956356	0.128589	0.35859308
0.20155769380849	0.13821854	0.37177753
0.2190844702925996	0.20944902	0.457656
0.2366112519019124	0.21780841	0.46669948
0.2541380390464497	0.19977881	0.44696623
0.27166483213623416	0.16596131	0.4073835
0.28919163158128947	0.14190911	0.37670824
0.3067184377916406	0.13539924	0.36796635
0.324245251177314	0.12508394	0.3536721
0.34177207214833777	0.1328312	0.36446014
0.3592989011147415	0.12341464	0.3513042
0.37682573848655654	0.15003084	0.38733813
0.39435258467381573	0.15452956	0.39310247
0.41187944008655414	0.20566425	0.4535022
0.42940630513480854	0.17873016	0.4227649
0.446933180228618	0.19027619	0.43620658
0.4644600657780234	0.1705963	0.41303304
0.48198696219306775	0.16142352	0.40177545
0.49951386988379676	0.15420723	0.3926923
0.5170407892602581	0.13070686	0.36153403
0.5345677207325025	0.17039749	0.4127923
0.5520946647105822	0.1686087	0.41061988
0.5696216216045534	0.19887486	0.44595388
0.5871485918244737	0.1793105	0.4234507
0.6046755757804043	0.15088585	0.38844028
0.6222025738824094	0.10697831	0.3270754
0.6397295865405557	0.11092416	0.33305278
0.6572566141649129	0.1203175	0.34686813
0.6747836571655547	0.14137802	0.37600267
0.6923107159525568	0.1702454	0.41260803
0.7098377909359992	0.16669084	0.4082779
0.7273648825259653	0.17318356	0.41615328
0.7448919911325411	0.13172214	0.36293545
0.762419117165817	0.12662488	0.3558439
0.7799462610358868	0.16412707	0.40512598
0.7974734231528482	0.17812118	0.42204404
0.8150006039268024	0.21451372	0.46315625
0.8325278037678551	0.21237092	0.4608372
0.8500550230861152	0.17875065	0.42278913
0.8675822622916969	0.18766083	0.43319836
0.8851095217947171	0.19125424	0.43732625
0.9026368020052984	0.19043967	0.43639395
0.9201641033335665	0.22015476	0.4692065
0.9376914261896523	0.23456526	0.4843194
0.9552187709836915	0.25215414	0.5021495
0.9727461381258234	0.27454832	0.5239736
0.990273528026193	0.28133938	0.53041434
1.0078009410949496	0.25413775	0.50412077
1.0253283777422473	0.24685937	0.49684945
1.0428558383782454	0.26227877	0.5121316
1.0603833234131086	0.2984244	0.54628235
1.0779108332570058	0.387195	0.62224996
1.0954383683201119	0.39900196	0.631666
1.112965929012607	0.44336566	0.6658571
1.1304935157446763	0.5147199	0.71743983
1.1480211289265108	0.5230039	0.72319007
1.1655487689683062	1.4498154	1.2040828
1.1830764362802655	1.8066278	1.3441086
1.200604131272596	2.247153	1.4990507
1.2181318543555117	2.354049	1.534291
1.235659605939232	2.3294134	1.5262415
1.253187386433982	4.029139	2.0072715
1.270715196249994	6.5909414	2.567283
1.2882430357975057	12.145243	3.4850025
1.3057709054867608	16.649685	4.0804024
1.3232988057280106	22.155357	4.706948
1.3408267369315112	27.06907	5.2027946
1.358354699507526	30.557245	5.5278606
1.3758826938663256	34.813343	5.9002833
1.3934107204181858	36.734287	6.0608816
1.410938779573391	36.924	6.0765123
1.4284668717422309	37.64063	6.1351957
1.4459949973350033	37.25604	6.1037726
1.4635231567620117	37.562435	6.12882
1.4810513504335687	36.577793	6.047958
1.4985795787599925	35.759937	5.9799614
1.5161078421516088	35.35436	5.9459534
1.5336361410187505	34.70986	5.8915076
1.5511644757717598	35.03878	5.9193563
1.5686928468209842	35.892067	5.9909987
1.58622125457678	36.699577	6.0580177
1.6037496994495108	37.858788	6.1529493
1.621278181849548	37.775887	6.1462092
1.6388067021872719	38.6765	6.2190433
1.6563352608730693	37.996555	6.1641345
1.673863858317336	36.811073	6.067213
1.6913924949304753	35.858276	5.9881783
1.7089211711228998	34.90377	5.9079413
1.7264498873050296	34.14263	5.8431697
1.7439786438872935	33.073105	5.750922
1.7615074412801288	32.223385	5.6765647
1.779036279893981	31.460367	5.6089544
1.796565160139305	30.20206	5.4956403
1.814094082426564	29.588928	5.4395704
1.8316230471662298	28.76249	5.363067
1.849152054768784	28.172922	5.307817
1.8666811056447168	28.018818	5.2932806
1.8842102002045273	27.178383	5.2132893
1.901739338858724	26.523355	5.150083
1.9192685220178245	25.698008	5.06932
1.9367977500923557	24.865854	4.9865675
1.9543270234928547	24.490929	4.948831
1.971856342629867	23.741678	4.8725433
1.9893857079139496	23.280834	4.8250217
2.006915119755667	22.910107	4.7864504
2.0244445785655945	22.389229	4.7317257
2.0419740847543175	22.046766	4.6953983
2.0595036387324317	21.679113	4.6560836
2.0770332409105414	21.066317	4.5898056
2.094562891699263	20.656225	4.544912
2.1120925915092217	19.791342	4.448746
2.129622340751053	19.552317	4.4218
2.1471521398354043	188.09622	13.714818
2.1646819891729323	444.58218	21.085117
2.182211889174303	440.64963	20.991655
2.1997418402501974	452.89822	21.281406
2.2172718428113023	432.7281	20.802118
2.234801897268317	320.70508	17.908241
2.2523320040319548	17.001583	4.1232977
2.269862163512935	16.553225	4.0685654
2.287392376121992	16.282064	4.035104
2.304922642269869	16.119411	4.014899
2.322452962367322	15.752676	3.968964
2.3399833368251164	15.630099	3.953492
2.357513766054032	15.407967	3.9252982
2.3750442504648586	14.991154	3.8718412
2.3925747904683963	14.709885	3.8353467
2.410105386475459	14.442192	3.8002884
2.4276360388968707	14.112183	3.7566185
2.445166748143469	13.966507	3.737179
2.4626975146261025	13.621976	3.6907961
2.4802283387556323	13.425806	3.6641243
2.4977592209429305	13.200649	3.6332698
2.5152901615988825	13.080907	3.6167536
2.5328211611343865	12.93118	3.595995
2.5503522199603523	12.700799	3.563818
2.5678833384877024	12.565698	3.5448127
2.5854145171273712	12.229434	3.4970608
2.6029457562903064	11.997889	3.4637969
2.620477056387469	11.742004	3.4266608
2.6380084178298326	11.590469	3.4044778
2.655539841028383	11.531113	3.395749
2.673071326394119	11.432981	3.381269
2.6906028743380523	11.238445	3.352379
2.708134485271211	10.971162	3.3122745
2.7256661596046325	10.807381	3.2874582
2.743197897749369	10.620579	3.258923
2.760729700116486	10.58202	3.2530017
2.778261567117063	10.333984	3.2146516
2.795793499162193	10.182203	3.1909566
2.8133254966629817	10.0076885	3.1634932
2.830857560030551	9.873993	3.142291
2.8483896896760337	9.8942585	3.145514
2.865921886010578	9.704202	3.1151567
2.883454149445347	9.461962	3.0760303
2.9009864803915177	9.313364	3.0517805
2.91851887926028	9.105397	3.0175152
2.9360513464628384	9.14289	3.0237212
2.953583882410413	9.135422	3.022486
2.9711164875142373	8.945348	2.9908774
2.9886491621855606	8.703277	2.9501317
3.0061819068356455	8.582193	2.929538
3.023714721875769	8.510089	2.9172056
3.041247607717225	8.473999	2.9110134
3.0587805647713213	8.290352	2.879297
3.0763135934493806	8.249595	2.8722107
3.0938466941627407	8.153692	2.855467
3.1113798673227544	8.134512	2.8521066
3.1289131133407904	8.000343	2.8284879
3.1464464326282315	7.8797855	2.8070955
3.1639798255964786	7.7506447	2.783998
3.1815132926569443	7.586256	2.7543159
3.1990468342210603	7.576136	2.7524781
3.216580450700272	7.430773	2.7259443
3.2341141425060416	7.453426	2.7300963
3.251647910049847	7.2855153	2.6991694
3.2691817537431813	7.265085	2.695382
3.286715673997555	7.207276	2.684637
3.3042496712244938	7.1877556	2.680999
3.32178374583554	7.179279	2.6794176
3.339317898242251	7.072974	2.6595063
3.3568521288562034	6.9345236	2.6333485
3.3743864380889876	6.7660375	2.6011608
3.3919208263522127	6.650424	2.5788417
3.4094552940575023	6.560862	2.561418
3.4269898416164972	6.370351	2.5239553
3.444524469440858	6.360471	2.5219975
3.4620591779422587	6.3869734	2.5272462
3.479593967532391	6.4442053	2.538544
3.4971288386229658	6.3375688	2.5174527
3.5146637916257086	6.234645	2.496927
3.5321988269523628	6.2112117	2.4922302
3.5497339450146903	6.2153754	2.4930654
3.5672691462244708	6.2426543	2.4985304
3.5848044309934988	6.212214	2.4924314
3.60233979973359	6.1576447	2.48146
3.619875252856575	6.2187576	2.4937437
3.6374107907743034	6.166994	2.4833434
3.6549464138986427	6.0781255	2.4653854
3.6724821226414788	6.0867176	2.4671273
3.690017917414714	6.152275	2.480378
3.7075537986302702	6.3981304	2.5294526
3.7250897667000857	6.4965253	2.5488281
3.7426258220361235	6.6195483	2.5728483
3.7601619650503553	6.8495007	2.617155
3.777698196154779	7.3919535	2.7188146
3.7952345157614067	8.398422	2.898003
3.8127709242822716	9.272682	3.0451078
3.830307422129425	11.402027	3.3766887
3.847844009714936	30.190584	5.494596
3.8653806874508954	97.67122	9.882875
3.882917455749409	96.81364	9.839392
3.900454315022606	96.42443	9.819594
3.917991265682631	40.955624	6.399658
3.9355283081416506	10.731761	3.2759366
3.9530654428118495	8.660726	2.9429111
3.970602670105433	7.5241795	2.7430239
3.9881399904346244	6.560284	2.561305
4.005677404211669	6.5763955	2.5644484
4.023214911848827	6.506609	2.5508056
4.0407525137583855	6.4879513	2.5471456
4.058290210352644	6.454366	2.5405445
4.075828002043927	6.303347	2.5106468
4.0933658892445814	6.192863	2.4885464
4.110903872366966	6.141242	2.478153
4.128441951823468	6.183461	2.4866567
4.145980128026488	6.2870245	2.507394
4.163518401388452	6.2834034	2.5066717
4.181056772321807	6.294783	2.5089407
4.1985952412390155	6.257696	2.5015388
4.216133808552567	6.3036637	2.5107098
4.233672474674966	6.330398	2.5160282
4.251211240018741	6.5138984	2.552234
4.268750104996445	6.7510176	2.598272
4.286289070020643	7.59966	2.756748
4.303828135503928	9.061433	3.0102215
4.3213673018589125	29.225471	5.406059
4.3389065694982305	90.39332	9.50754
4.356445938834537	165.60765	12.868864
4.3739854102805085	170.9213	13.073688
4.391524984248844	171.79684	13.107129
4.409064661152262	135.91618	11.65831
4.426604441403504	96.34142	9.815367
4.444144325415337	75.546326	8.691739
4.461684313600543	21.626017	4.650378
4.47922440637193	22.11225	4.7023664
4.496764604142329	20.328686	4.508734
4.5143049073245916	18.422937	4.292195
4.531845316331589	16.354027	4.044011
4.5493858315762195	13.488957	3.6727316
4.566926453471405	11.268217	3.3568165
4.584467182430081	9.177391	3.0294209
4.602008018865218	8.048559	2.8369982
4.619548963189798	7.373624	2.7154417
4.637090015816834	6.828325	2.6131063
4.654631177159353	6.598724	2.568798
4.672172447630417	6.351851	2.520288
4.689713827643102	6.1473947	2.479394
4.7072553176105085	5.983925	2.4462063
4.724796917945764	5.8049808	2.4093528
4.742338629062015	5.8014584	2.4086218
4.759880451372434	5.682493	2.3837981
4.777422385290215	5.6059084	2.36768
4.794964431228581	5.603495	2.3671703
4.812506589600768	5.581885	2.3626013
4.830048860820047	5.55999	2.357963
4.847591245299709	5.5467257	2.3551488
4.8651337434530655	5.5190554	2.349267
4.882676355693457	5.4927926	2.3436708
4.900219082434242	5.540398	2.353805
4.917761924088813	5.564771	2.3589768
4.935304881070575	5.5678525	2.3596296
4.952847953792969	5.5534115	2.3565676
4.970391142669449	5.459233	2.3365002
4.9879344481135055	5.512705	2.347915
5.005477870538642	5.5333395	2.3523052
5.023021410358394	5.530929	2.3517928
5.040565067986324	5.4594374	2.3365438
5.05810884383601	5.4088154	2.325686
5.075652738321066	5.382339	2.3199868
5.09319675185512	5.3920274	2.322074
5.110740884851836	5.3801494	2.319515
5.128285137724894	5.376021	2.3186247
5.145829510888007	5.319883	2.306487
5.163374004754908	5.301106	2.302413
5.1809186197393595	5.305205	2.303303
5.198463356255145	5.265025	2.2945642
5.216008214716077	5.254515	2.292273
5.233553195535998	5.260559	2.2935908
5.251098299128764	5.25681	2.2927735
5.268643525908272	5.2154446	2.2837348
5.286188876288432	5.2315736	2.2872634
5.3037343506831895	5.286781	2.2993002
5.32127994950651	5.313445	2.3050911
5.3388256731723915	5.3119345	2.3047633
5.356371522094851	5.2750835	2.296755
5.373917496687938	5.2681704	2.2952495
5.391463597365729	5.2433753	2.2898417
5.40900982454232	5.2081146	2.2821293
5.426556178631843	5.2191887	2.2845545
5.444102660048449	5.221575	2.2850766
5.4616492692063225	5.1747713	2.2748125
5.479196006519669	5.091923	2.256529
5.496742872402727	5.0549064	2.248312
5.514289867269756	5.0609937	2.2496653
5.531836991535049	5.155509	2.2705746
5.549384245612924	5.2375546	2.2885704
5.566931629917724	5.284847	2.2988794
5.584479144863822	5.218294	2.2843585
5.6020267908656205	5.149202	2.2691853
5.619574568337545	5.111118	2.2607782
5.637122477694054	5.143587	2.2679477
5.654670519349629	5.182842	2.2765856
5.672218693718784	5.142398	2.2676857
5.689767001216059	5.104655	2.2593484
5.707315442256021	5.0916615	2.256471
5.724864017253266	5.0999174	2.2582996
5.7424127266224225	5.138275	2.2667763
5.75996157077814	5.175577	2.2749896
5.777510550135105	5.2407937	2.289278
5.795059665108022	5.2479973	2.2908509
5.812608916111639	5.2688446	2.2953963
5.830158303560715	5.357726	2.3146763
5.847707827870055	5.3821473	2.3199456
5.86525748945448	5.4183555	2.3277361
5.8828072887288485	5.427842	2.329773
5.900357226108044	5.5128098	2.3479373
5.917907302006979	5.5984926	2.3661134
5.9354575168406	6.2557707	2.501154
5.9530078710238765	6.895801	2.6259856
5.970558364971812	7.4872055	2.736276
5.988108999099438	7.825491	2.7974079
6.005659773821818	8.276527	2.8768954
6.023210689554039	7.965739	2.822364
6.040761746711227	8.381843	2.8951411
6.058312945708531	7.7851806	2.7901936
6.075864286961132	7.3189044	2.7053473
6.093415770884244	6.6511407	2.5789804
6.1109673978931065	6.081911	2.4661531
6.128519168402993	5.437764	2.3319013
6.146071082829204	5.32692	2.3080122
6.163623141587075	5.1565156	2.2707963
6.181175345091969	5.091815	2.256505
6.198727693759281	5.061988	2.2498863
6.216280188004435	5.132634	2.2655318
6.233832828242885	5.1303062	2.265018
6.251385614890126	5.1302295	2.265001
6.268938548361669	5.0325637	2.2433376
6.286491629073067	4.9824243	2.2321346
6.304044857439898	5.0565805	2.2486842
6.321598233877777	5.033425	2.2435296
6.339151758802344	4.9605346	2.2272258
6.356705432629277	4.939632	2.2225282
6.37425925577428	4.8869348	2.2106411
6.391813228653095	4.891842	2.2117507
6.409367351681486	4.9062557	2.2150068
6.426921625275259	4.9727817	2.2299736
6.44447604985025	4.996424	2.2352684
6.46203062582232	5.0196505	2.2404575
6.47958535360737	5.001853	2.2364824
6.497140233621328	5.000445	2.2361674
6.514695266280161	4.9943886	2.234813
6.532250451999859	4.9914784	2.2341616
6.549805791196454	5.0069757	2.2376273
6.567361284286002	5.0571156	2.2488031
6.584916931684597	5.088902	2.2558594
6.602472733808367	5.1304154	2.265042
6.6200286910734665	5.1050453	2.2594347
6.637584803896092	5.0145826	2.2393265
6.655141072692462	4.902391	2.2141345
6.672697497878842	4.8091755	2.1929832
6.690254079871514	4.828844	2.197463
6.707810819086808	4.873044	2.2074971
6.725367715941078	4.9730763	2.2300396
6.742924770850719	5.0044675	2.2370667
6.760481984232151	5.0170097	2.2398682
6.778039356501836	4.9852285	2.2327626
6.795596888076266	4.9318466	2.220776
6.813154579371963	4.9336066	2.2211723
6.830712430805492	4.934689	2.221416
6.84827044279344	4.9141793	2.2167947
6.865828615752445	4.89375	2.2121823
6.883386950099159	4.879921	2.2090542
6.900945446250287	4.9832673	2.2323234
6.918504104622553	5.047429	2.2466483
6.936062925632727	5.0961123	2.257457
6.953621909697607	5.08742	2.255531
6.971181057234028	5.085037	2.2550027
6.988740368658859	5.0825205	2.2544446
7.006299844389007	5.1212144	2.26301
7.023859484841407	5.153438	2.2701185
7.041419290433036	5.2247586	2.285773
7.058979261580902	5.3450823	2.3119433
7.0765393987020495	5.551173	2.3560927
7.094099702213559	5.8872714	2.42637
7.111660172532549	6.206817	2.4913485
7.129220810076164	6.5789194	2.5649405
7.146781615261595	7.1366425	2.6714494
7.16434258850606	7.4376206	2.7272
7.181903730226821	7.8297224	2.7981641
7.1994650408411704	8.008529	2.8299344
7.217026520766437	8.185778	2.8610797
7.234588170419983	8.419421	2.901624
7.252149990219215	8.353802	2.8902943
7.269711980581568	8.284011	2.8781958
7.2872741419245175	8.107277	2.847328
7.304836474665574	7.8384714	2.799727
7.322398979222286	7.5157285	2.741483
7.339961656012233	7.2322965	2.689293
7.357524505453039	6.8609786	2.619347
7.375087527962357	6.5221934	2.5538585
7.392650723957886	6.2264037	2.4952762
7.410214093857353	5.837654	2.4161239
7.427777638078528	5.6707234	2.381328
7.445341357039213	5.5285425	2.3512852
7.4629052511572525	5.381475	2.3198006
7.480469320850524	5.2946153	2.3010032
7.498033566536948	5.2498317	2.2912512
7.5155979886344735	5.2403255	2.2891757
7.5331625875610975	5.175835	2.275046
7.550727363734844	5.1802707	2.2760208
7.568292317573788	5.140775	2.2673278
7.585857449496025	5.150996	2.2695806
7.603422759919705	5.117266	2.2621374
7.620988249263007	5.12934	2.2648046
7.638553917944147	5.143537	2.2679367
7.656119766381391	5.17168	2.2741327
7.673685794993023	5.2002883	2.280414
7.691252004197388	5.1859303	2.2772639
7.70881839441285	5.228358	2.2865603
7.726384966057826	5.264847	2.2945254
7.743951719550762	5.2809634	2.2980347
7.761518655310149	5.2407107	2.28926
7.779085773754511	5.2214355	2.285046
7.796653075302419	5.166408	2.2729733
7.814220560372475	5.189018	2.2779415
7.831788229383323	5.174009	2.2746449
7.8493560827536495	5.252125	2.2917514
7.866924120902174	5.301203	2.3024342
7.884492344247663	5.30146	2.30249
7.9020607532089135	5.3009634	2.3023822
7.919629348204771	5.25423	2.2922108
7.937198129654115	5.3388786	2.3106015
7.954767097975865	5.2780695	2.297405
7.972336253588986	5.291242	2.30027
7.989905596912472	5.286653	2.2992723
8.007475128365371	5.3335724	2.3094528
8.025044848366756	5.39905	2.3235857
8.042614757335754	5.4951506	2.3441737
8.060184855691523	5.5627494	2.3585482
8.07775514385327	5.7076793	2.389075
8.095325622240228	5.7805414	2.4042757
8.112896291271687	5.791368	2.406526
8.130467151366968	5.8187866	2.4122162
8.148038202945436	5.7991934	2.4081514
8.165609446426497	5.76003	2.4000063
8.183180882229594	5.794999	2.4072804
8.200752510774217	5.8601656	2.4207778
8.218324332479893	5.9296885	2.435095
8.235896347766193	5.947555	2.438761
8.253468557052724	5.923395	2.4338026
8.27104096075914	5.8823543	2.4253566
8.288613559305137	5.971049	2.443573
8.306186353110448	6.001947	2.449887
8.32375934259485	6.0533257	2.4603508
8.341332528178162	6.095576	2.468922
8.358905910280246	6.2309666	2.4961903
8.376479489321003	6.2957997	2.509143
8.394053265720377	6.3490787	2.5197377
8.411627239898356	6.286389	2.5072672
8.42920141227497	6.2441864	2.498837
8.44677578327029	6.1674156	2.4834282
8.464350353304427	6.1467533	2.4792647
8.48192512279754	6.154321	2.4807904
8.499500092169827	6.1363125	2.477158
8.51707526184153	6.100715	2.4699626
8.534650632232934	6.104688	2.4707668
8.552226203764365	6.108287	2.471495
8.569801976856192	6.149984	2.479916
8.587377951928834	6.1766214	2.485281
8.60495412940274	6.2162614	2.4932432
8.622530509698416	6.2705593	2.5041084
8.6401070932364	6.3138084	2.5127292
8.657683880437283	6.4314237	2.5360253
8.675260871721695	6.6092343	2.5708432
8.692838067510303	6.779316	2.6037118
8.710415468223834	6.995894	2.6449752
8.727993074283043	7.102036	2.6649644
8.745570886108737	7.1249056	2.669252
8.763148904121765	7.1629915	2.6763766
8.78072712874302	7.115175	2.6674285
8.798305560393441	7.3581395	2.712589
8.815884199494006	7.4766793	2.7343516
8.833463046465745	7.738947	2.7818964
8.851042101729728	7.852878	2.8022988
8.86862136570707	8.128203	2.8510003
8.886200838818924	8.157321	2.8561025
8.903780521486505	8.187349	2.8613544
8.921360414131055	8.359916	2.891352
8.938940517173874	8.572957	2.9279613
8.956520831036297	8.792462	2.9652088
8.97410135613971	8.9695215	2.994916
8.99168209290554	9.098687	3.016403
9.009263041755265	9.384381	3.0633938
9.026844203110405	9.640307	3.1048844
9.044425577392525	9.849043	3.1383185
9.062007165023239	9.970374	3.15759
9.079588966424197	10.271633	3.204939
9.097170982017108	10.381874	3.2220917
9.11475321222372	11.412312	3.3782113
9.132335657465825	12.393284	3.5204096
9.149918318165264	12.451581	3.5286798
9.167501194743924	12.903645	3.5921643
9.18508428762374	12.5722	3.5457299
9.202667597226693	12.6925335	3.5626583
9.220251123974803	12.570795	3.5455317
9.237834868290143	12.226165	3.4965932
9.255418830594836	11.960277	3.4583633
9.273003011311046	11.363974	3.3710494
9.290587410860985	11.089484	3.3300877
9.308172029666911	10.391566	3.2235951
9.32575686815113	10.098273	3.177778
9.343341926735997	8.781068	2.9632866
9.360927205843916	8.50129	2.9156973
9.378512705897327	8.246398	2.8716543
9.396098427318728	8.038264	2.8351834
9.413684370530664	7.9948874	2.8275232
9.431270535955722	7.992186	2.8270454
9.448856924016539	7.9239593	2.8149529
9.466443535135806	7.7389107	2.7818897
9.484030369736251	7.694536	2.7739027
9.501617428240658	7.6593304	2.7675495
9.519204711071852	7.7494674	2.7837865
9.536792218652714	7.747921	2.7835088
9.55437995140617	7.7793355	2.789146
9.571967909755191	7.779599	2.7891934
9.589556094122802	7.7701445	2.787498
9.60714450493207	7.8110704	2.7948291
9.624733142606116	7.8397555	2.7999563
9.642322007568108	7.9401007	2.8178184
9.659911100241267	8.061791	2.8393295
9.677500421048851	8.080625	2.842644
9.695089970414175	8.088988	2.8441148
9.712679748760609	8.103826	2.846722
9.730269756511557	8.115173	2.8487144
9.747859994090492	8.137512	2.8526325
9.765450461920915	8.1506405	2.8549325
9.78304116042639	8.2380085	2.870193
9.800632090030527	8.278737	2.8772795
9.81822325115699	8.245195	2.871445
9.835814644229481	8.148899	2.8546276
9.853406269671762	8.112452	2.8482366
9.870998127907646	8.159564	2.8564951
9.888590219360985	8.245335	2.871469
9.906182544455698	8.293557	2.8798537
9.923775103615734	8.267387	2.8753064
9.941367897265108	8.249833	2.8722522
9.958960925827878	8.2842	2.8782287
9.97655418972816	8.284314	2.8782485
9.994147689390106	8.350642	2.8897479
10.011741425237934	8.389094	2.8963933
10.029335397695904	8.3524	2.8900518
10.04692960718833	8.327632	2.8857636
10.06452405413958	8.2810955	2.8776894
10.082118738974064	8.261437	2.8742716
10.099713662116246	8.236523	2.8699343
10.117308823990651	8.247262	2.8718047
10.134904225021844	8.205168	2.8644664
10.152499865634445	8.234055	2.8695042
10.170095746253125	8.160985	2.8567438
10.18769186730261	8.109734	2.8477595
10.205288229207675	8.077187	2.842039
10.222884832393145	8.104837	2.8468995
10.2404816772839	8.101451	2.846305
10.258078764304868	8.107397	2.8473492
10.275676093881035	8.103641	2.8466895
10.293273666437438	8.074965	2.841648
10.310871482399158	8.124949	2.8504298
10.32846954219134	8.111781	2.8481188
10.346067846239173	8.110661	2.847922
10.363666394967908	8.097868	2.8456752
10.38126518880283	8.124393	2.8503323
10.398864228169298	8.102362	2.8464649
10.416463513492713	8.156552	2.8559678
10.434063045198531	8.099522	2.8459659
10.451662823712262	8.130837	2.8514624
10.469262849459467	8.154348	2.855582
10.486863122865758	8.07282	2.8412707
10.504463644356806	7.985275	2.8258228
10.522064414358338	7.9110866	2.8126655
10.539665433296118	7.871787	2.8056705
10.557266701595987	7.877359	2.8066633
10.574868219683818	7.835824	2.7992542
10.592469987985552	7.77013	2.7874954
10.610072006927185	7.634011	2.7629714
10.627674276934751	7.560587	2.7496521
10.64527679843435	7.3714747	2.715046
10.662879571852143	7.268784	2.6960683
10.680482597614331	7.0956745	2.6637707
10.698085876147173	6.974419	2.6409125
10.715689407876988	6.824911	2.612453
10.733293193230146	6.7315617	2.5945253
10.750897232633072	6.680337	2.5846348
10.76850152651225	6.677657	2.5841162
10.786106075294207	6.619054	2.5727522
10.803710879405534	6.5174456	2.552929
10.821315939272877	6.3409233	2.518119
10.83892125532294	6.275861	2.5051668
10.856526827982472	6.1674137	2.4834278
10.874132657678285	6.233746	2.496747
10.891738744837243	6.1587367	2.4816802
10.909345089886271	6.1113524	2.472115
10.926951693252343	6.063962	2.4625113
10.944558555362494	5.97253	2.443876
10.96216567664381	5.8787556	2.4246144
10.979773057523436	5.8198166	2.4124296
10.997380698428573	5.791663	2.4065874
11.014988599786477	5.7610955	2.4002283
11.032596762024461	5.7014384	2.3877685
11.050205185569892	5.6651516	2.380158
11.067813870850198	5.567091	2.3594685
11.085422818292859	5.491458	2.343386
11.10303202832541	5.416018	2.327234
11.120641501375454	5.3922124	2.3221138
11.138251237870636	5.35646	2.3144028
11.155861238238671	5.354948	2.3140762
11.173471502907317	5.2382393	2.28872
11.191082032304402	5.1598005	2.2715194
11.208692826857805	5.0918474	2.2565122
11.226303886995465	5.0378456	2.2445145
11.243915213145371	5.0192475	2.2403677
11.261526805735578	4.9301214	2.2203877
11.279138665194196	4.8927	2.2119448
11.296750791949393	4.804297	2.1918707
11.314363186429393	4.7239137	2.1734567
11.331975849062479	4.580168	2.1401327
11.34958878027699	4.56409	2.136373
11.36720198050133	4.5562186	2.13453
11.384815450163948	4.5599008	2.1353924
11.402429189693366	4.5268917	2.1276493
11.420043199518153	4.5035763	2.122163
11.437657480066942	63.4622	7.9663167
11.455272031768422	85.18583	9.229617
11.472886855051353	107.529205	10.369629
11.490501950344528	99.10971	9.955386
11.508117318076819	84.45985	9.190204
11.52573295867715	45.846394	6.7709966
11.543348872574514	4.135821	2.0336719
11.560965060197946	4.0800843	2.0199218
11.57858152197655	4.007738	2.0019336
11.59619825833949	3.9906104	1.9976512
11.613815269715985	3.9874883	1.9968696
11.631432556535323	38.484406	6.20358
11.649050119226837	83.04021	9.11264
11.666667958219929	93.428116	9.665822
11.68428607394406	107.693375	10.377542
11.701904466828756	82.49483	9.082666
11.719523137303586	65.3298	8.082685
11.737142085798196	4.5782247	2.1396787
11.754761312742286	3.7307642	1.9315186
11.772380818565619	3.7492182	1.9362898
11.790000603698015	3.6789649	1.9180628
11.80762066856935	3.6012511	1.8976963
11.825241013609572	3.563899	1.8878292
11.842861639248683	3.5474353	1.8834636
11.860482545916748	3.5199203	1.8761451
11.878103734043883	3.471512	1.8631995
11.895725204060282	3.458257	1.8596389
11.91334695639619	3.4444	1.8559095
11.930968991481919	3.350199	1.8303549
11.948591309747824	3.3265517	1.8238837
11.966213911624347	3.3087814	1.8190056
11.98383679754198	3.3368223	1.8266971
12.001459967931268	3.3285778	1.824439
12.019083423222835	3.298076	1.8160605
12.036707163847352	3.2249367	1.7958109
12.05433119023556	3.159062	1.777375
12.071955502818259	3.1663272	1.7794176
12.089580102026313	3.1472435	1.7740473
12.107204988290643	3.1301856	1.7692331
12.12483016204224	3.095807	1.7594906
12.142455623712152	3.1079507	1.7629381
12.16008137373149	3.0983894	1.7602242
12.177707412531431	3.1151052	1.764966
12.19533374054321	3.1057389	1.7623106
12.212960358198126	3.08424	1.7562004
12.230587265927545	3.0396068	1.7434468
12.248214464162889	2.9984689	1.7316087
12.265841953335649	3.0187078	1.7374429
12.283469733877375	3.008357	1.7344615
12.301097806219685	3.0073256	1.7341642
12.31872617079425	2.9823675	1.7269533
12.336354828032825	2.9714928	1.7238019
12.353983778367205	2.9293013	1.7115202
12.371613022229262	2.9148238	1.7072855
12.389242560050928	2.926595	1.7107294
12.406872392264201	2.9253583	1.7103679
12.424502519301143	2.9111326	1.7062042
12.442132941593874	2.9197729	1.7087343
12.459763659574586	2.8937597	1.7011055
12.477394673675532	2.8860812	1.698847
12.49502598432903	2.8018112	1.6738611
12.51265759196746	2.7700934	1.6643598
12.530289497023267	2.7414103	1.6557205
12.547921699928967	2.7282183	1.651732
12.565554201117134	2.7261615	1.6511092
12.583187001020404	2.7433584	1.6563087
12.600820100071486	2.7547355	1.6597396
12.618453498703152	2.7620184	1.6619321
12.636087197348235	2.7571769	1.6604749
12.65372119643964	2.7624187	1.6620525
12.671355496410326	2.7772572	1.6665105
12.68899009769333	2.7933419	1.6713294
12.706625000721749	2.8223517	1.6799856
12.724260205928752	2.9152567	1.7074122
12.741895713747551	2.9567537	1.7195214
12.759531524611454	3.0143247	1.736181
12.777167638953818	2.970699	1.7235717
12.794804057208072	2.966641	1.722394
12.812440779807702	3.007873	1.7343221
12.830077807186271	3.1815472	1.7836891
12.847715139777405	3.2512724	1.8031285
12.865352778014795	3.4741964	1.8639196
12.882990722332197	3.5603483	1.8868885
12.90062897316344	3.6328995	1.9060167
12.918267530942412	3.7658818	1.940588
12.935906396103071	3.6867929	1.9201024
12.953545569079449	3.8669643	1.9664599
12.971185050305628	3.6276598	1.9046416
12.988824840215775	3.6388054	1.9075654
13.006464939244115	3.6597683	1.9130521
13.024105347824943	3.4695365	1.8626692
13.041746066392617	3.5700653	1.8894616
13.05938709538157	3.3381622	1.8270638
13.077028435226296	3.3606825	1.8332164
13.094670086361363	3.238854	1.7996817
13.112312049221401	3.1286557	1.7688006
13.129954324241112	3.0669982	1.7512847
13.147596911855258	2.8704526	1.694241
13.165239812498685	2.8580132	1.690566
13.182883026606293	2.7689528	1.6640171
13.200526554613058	2.6901348	1.6401631
13.218170396954017	2.6953053	1.6417385
13.235814554064284	2.7294936	1.652118
13.253459026379034	2.7587917	1.660961
13.271103814333523	2.7443388	1.6566045
13.288748918363058	2.6993785	1.6429785
13.306394338903031	2.6812768	1.6374605
13.32404007638889	2.6213944	1.6190721
13.341686131256164	2.681692	1.6375872
13.359332503940449	2.6580052	1.630339
13.376979194877402	2.6910512	1.6404424
13.394626204502751	2.698436	1.6426917
13.412273533252307	2.714638	1.6476159
13.429921181561937	2.7155044	1.6478788
13.447569149867581	2.748142	1.657752
13.465217438605247	2.729743	1.6521934
13.482866048211022	2.673929	1.6352153
13.500514979121052	2.6442728	1.626122
13.518164231771568	2.6325448	1.6225119
13.535813806598844	2.6435478	1.6258991
13.553463704039254	2.6229641	1.6195568
13.571113924529229	2.6409373	1.6250961
13.588764468505275	2.6656964	1.632696
13.606415336403956	2.689836	1.640072
13.624066528661917	2.7072096	1.64536
13.641718045715882	2.7752616	1.6659117
13.659369888002635	2.8165493	1.6782578
13.67702205595903	2.9281812	1.711193
13.694674550021993	3.0214837	1.7382416
13.712327370628532	3.0835447	1.7560025
13.729980518215713	3.1656058	1.779215
13.747633993220681	3.2188904	1.7941266
13.765287796080647	3.23709	1.7991915
13.7829419272329	3.2475786	1.802104
13.800596387114801	3.2712793	1.8086678
13.818251176163775	3.2911282	1.8141466
13.835906294817324	3.3626666	1.8337575
13.853561743513023	3.4148629	1.8479347
13.871217522688525	3.4585233	1.8597106
13.888873632781538	3.4506404	1.85759
13.906530074229858	3.5131145	1.8743304
13.92418684747135	3.5797484	1.8920223
13.941843952943948	3.6013324	1.8977177
13.959501391085665	3.5334969	1.8797598
13.977159162334578	3.4612238	1.8604364
13.994817267128846	3.390411	1.8413068
14.012475705906693	3.2891133	1.8135912
14.030134479106424	3.1911128	1.7863686
14.047793587166414	3.1142893	1.7647349
14.065453030525108	3.0692565	1.7519294
14.083112809621026	3.0186253	1.7374191
14.100772924892766	2.9587498	1.7201017
14.118433376778997	2.91188	1.7064232
14.136094165718458	2.8224552	1.6800164
14.153755292149969	2.750276	1.6583956
14.171416756512416	2.6681607	1.6334505
14.189078559244768	2.6324532	1.6224836
14.20674070078606	2.5814633	1.6066933
14.224403181575408	2.5100179	1.5843036
14.242066002051999	2.464859	1.5699869
14.259729162655093	2.438481	1.5615636
14.277392663824022	2.4780118	1.5741702
14.295056505998208	2.4881918	1.5774003
14.312720689617128	2.4591982	1.5681831
14.330385215120348	2.454492	1.5666819
14.348050082947497	2.429343	1.558635
14.3657152935383	2.390406	1.5460937
14.383380847332528	2.3583572	1.5356944
14.401046744770051	2.3854225	1.5444813
14.418712986290798	2.4281425	1.5582498
14.436379572334793	2.396663	1.548116
14.454046503342123	2.3951335	1.5476218
14.471713779752946	2.3594012	1.5360342
14.489381402007504	2.3451002	1.531372
14.507049370546113	2.3348708	1.5280284
14.524717685809168	2.3566618	1.5351423
14.542386348237134	2.431336	1.5592742
14.560055358270553	2.4271455	1.5579299
14.577724716350051	2.4502485	1.5653269
14.595394422916325	2.4491267	1.5649686
14.61306447841015	2.4879422	1.5773212
14.63073488327237	2.4793854	1.5746064
14.648405637943917	2.482918	1.5757278
14.6660767428658	2.4702992	1.5717186
14.683748198479094	2.4924967	1.5787643
14.701420005224954	2.4943857	1.5793624
14.719092163544628	2.5848067	1.6077334
14.73676467387942	2.6172976	1.6178064
14.754437536670727	2.642984	1.6257256
14.772110752360014	2.6590955	1.6306733
14.78978432138882	2.6864908	1.6390518
14.807458244198777	2.7364867	1.654233
14.82513252123159	2.681606	1.637561
14.842807152929028	2.6996777	1.6430696
14.860482139732962	2.6524906	1.6286469
14.87815748208531	2.6483333	1.6273701
14.8958331804281	2.6383219	1.6242912
14.91350923520342	2.6685896	1.6335819
14.931185646853438	2.7031856	1.6441367
14.948862415820408	2.680397	1.6371918
14.966539542546656	2.6591508	1.6306903
14.98421702747459	2.6050627	1.6140207
15.001894871046696	2.5948246	1.6108459
15.019573073705542	2.5688853	1.6027743
15.037251635893766	2.5946937	1.6108053
15.054930558054092	2.627151	1.6208489
15.072609840629323	2.6582448	1.6304125
15.090289484062351	2.7973754	1.6725357
15.107969488796124	3.1036336	1.7617133
15.125649855273691	3.5269952	1.8780296
15.14333058393817	4.023201	2.005792
15.161011675232768	4.9198885	2.2180822
15.17869312960076	6.175709	2.4850974
15.196374947485506	7.908914	2.8122792
15.214057129330447	10.984578	3.314299
15.231739675579114	15.836307	3.9794858
15.249422586675102	21.07352	4.5905905
15.267105863062092	24.419205	4.9415793
15.284789505183847	24.852255	4.9852037
15.302473513484218	23.020552	4.7979736
15.320157888407127	19.495668	4.41539
15.337842630396578	15.304957	3.9121552
15.355527739896656	11.926322	3.4534507
15.37321321735153	9.202476	3.0335581
15.39089906320545	6.6595974	2.5806196
15.408585277902748	4.929818	2.2203193
15.42627186188783	3.7913694	1.9471439
15.443958815605198	3.2300646	1.7972381
15.461646139499424	2.907494	1.7051376
15.479333834015168	2.7590914	1.6610513
15.497021899597165	2.6984198	1.6426867
15.514710336690234	2.6903486	1.6402283
15.53239914573928	2.6578362	1.6302872
15.550088327189297	2.5969334	1.6115004
15.567777881485336	2.5113482	1.5847234
15.58546780907256	2.482518	1.5756009
15.6031581103962	2.4523613	1.5660017
15.620848785901568	2.4161422	1.5543945
15.638539836034063	2.4399564	1.562036
15.656231261239173	2.4689906	1.5713022
15.673923061962451	2.4742155	1.572964
15.691615238649552	2.4355793	1.5606343
15.709307791746202	2.3965943	1.5480938
15.727000721698221	2.386668	1.5448844
15.744694028951498	2.4035802	1.5503484
15.76238771395202	2.3990302	1.5488803
15.780081777145844	2.373875	1.5407385
15.797776218979125	2.33477	1.5279953
15.815471039898094	2.3657703	1.5381061
15.833166240349064	2.3739657	1.5407679
15.850861820778437	2.3773544	1.5418671
15.868557781632699	2.3701034	1.539514
15.886254123358412	2.3506315	1.5331769
15.903950846402232	2.375998	1.5414273
15.921647951210897	2.3774939	1.5419124
15.939345438231225	2.3857493	1.5445871
15.957043307910133	2.3482327	1.5323944
15.974741560694602	2.358878	1.5358639
15.992440197031714	2.3603456	1.5363417
16.01013921736862	2.374129	1.540821
16.02783862215259	2.36398	1.537524
16.045538411830933	2.3780653	1.5420977
16.06323858685107	2.363925	1.5375061
16.080939147660512	2.3533938	1.5340775
16.09864009470684	2.3869143	1.5449642
16.11634142843774	2.4152813	1.5541176
16.134043149300954	2.4488995	1.564896
16.15174525774433	2.4629478	1.5693781
16.169447754215817	2.418944	1.5552955
16.18715063916342	2.4102616	1.5525017
16.204853913035244	2.3945835	1.5474442
16.222557576279478	2.431118	1.5592043
16.240261629344403	22.43121	4.73616
16.257966072678386	42.964302	6.554716
16.275670906729868	38.094604	6.172083
16.293376131947387	2.5242374	1.5887849
16.31108174877957	2.5190942	1.5871655
16.328787757675133	2.5434074	1.5948064
16.34649415908287	2.5358264	1.5924278
16.364200953451657	2.5633023	1.6010317
16.38190814123048	2.6079164	1.6149044
16.39961572286839	2.641309	1.6252104
16.41732369881455	2.673024	1.6349385
16.43503206951817	2.7061057	1.6450245
16.45274083542859	2.7775388	1.666595
16.47044999699522	2.803777	1.6744483
16.488159554667558	2.8094387	1.676138
16.505869508895184	2.8312554	1.6826335
16.523579860127786	2.9242895	1.7100554
16.541290608815117	2.999623	1.7319419
16.559001755407035	3.023692	1.7388766
16.57671330035348	3.038861	1.743233
16.59442524410448	3.0589268	1.7489789
16.61213758711015	3.1590562	1.7773734
16.629850329820705	3.2418818	1.8005227
16.647563472686436	3.333891	1.8258946
16.665277016157724	3.354733	1.831593
16.682990960685053	3.4138663	1.8476651
16.70070530671898	3.4830256	1.8662865
16.718420054710155	3.505882	1.8724
16.736135205109335	3.5573964	1.8861061
16.753850758367335	3.6029425	1.8981419
16.771566714935087	3.6605277	1.9132506
16.789283075263597	3.7119272	1.9266362
16.80699983980398	3.7515109	1.9368818
16.82471700900741	3.8382077	1.9591345
16.84243458332518	3.9756885	1.9939128
16.860152563208665	4.032832	2.0081913
16.87787094910932	4.0682516	2.0169907
16.89558974147871	4.108211	2.0268722
16.913308940768466	4.1352787	2.0335386
16.931028547430333	4.217034	2.053542
16.94874856191613	4.243776	2.0600426
16.966468984677785	4.3595204	2.0879464
16.98418981616729	4.4118447	2.100439
17.00191105683676	4.4549656	2.110679
17.019632707138374	4.491827	2.119393
17.03735476752442	4.539842	2.1306906
17.05507723844728	4.592132	2.142926
17.072800120359403	4.61841	2.1490486
17.090523413713353	4.6634874	2.1595109
17.108247118961785	4.690545	2.1657667
17.125971236557437	4.6565332	2.1579
17.143695766953133	4.6246476	2.1504993
17.161420710601806	4.633558	2.15257
17.179146067956477	4.620845	2.149615
17.19687183947025	4.5744324	2.1387923
17.21459802559634	4.5861435	2.1415284
17.232324626788028	4.600617	2.1449049
17.25005164349871	4.663895	2.1596053
17.267779076181863	4.6552157	2.157595
17.285506925291074	4.6248674	2.1505506
17.30323519127999	4.5675488	2.1371825
17.320963874602384	4.5683246	2.137364
17.33869297571211	4.5813746	2.1404147
17.356422495063114	4.5717044	2.1381545
17.37415243310944	4.531118	2.1286423
17.391882790305218	4.469801	2.1141903
17.40961356710468	4.496799	2.1205657
17.42734476396215	4.487161	2.118292
17.445076381332044	4.4976087	2.1207566
17.462808419668868	4.5314703	2.128725
17.48054087942723	4.6453757	2.1553133
17.498273761061835	4.921773	2.2185068
17.51600706502747	5.416437	2.327324
17.533740791779024	6.146566	2.4792268
17.551474941771485	7.6107454	2.758758
17.56920951545993	8.711739	2.9515655
17.586944513299528	10.9533615	3.3095863
17.60467993574556	12.609472	3.5509818
17.622415783253373	14.430851	3.798796
17.64015205627843	16.01982	4.0024767
17.657888755276293	17.295254	4.1587563
17.675625880702604	17.814165	4.220683
17.69336343301311	17.62694	4.198445
17.71110141266366	16.837885	4.1033993
17.728839820110178	15.784728	3.9729998
17.746578655808705	14.666942	3.8297443
17.764317920215372	12.964883	3.6006782
17.7820576137864	11.354404	3.3696296
17.79979773697811	9.286962	3.0474517
17.81753829024692	7.3633265	2.713545
17.835279274049356	5.687112	2.3847666
17.85302068884201	4.7170415	2.171875
17.870762535081607	4.078701	2.0195794
17.888504813224934	3.775088	1.9429586
17.90624752372891	3.628133	1.9047658
17.923990667050536	3.587414	1.894047
17.941734243646895	3.5519314	1.8846568
17.959478253975185	3.5119145	1.8740103
17.9772226984927	3.4992237	1.8706212
17.994967577656833	3.481744	1.8659432
18.01271289192506	3.4466226	1.8565081
18.030458641754965	3.387803	1.8405986
18.04820482760425	3.3506908	1.8304893
18.06595144993067	3.2828927	1.8118755
18.083698509192125	3.2254806	1.7959623
18.101446005846576	3.2223642	1.7950945
18.119193940352105	3.2374144	1.7992816
18.136942313166887	3.2505968	1.8029411
18.1546911247492	3.2272394	1.7964519
18.1724403755574	3.203689	1.7898852
18.19019006604997	3.1786916	1.7828885
18.207940196685467	3.1665492	1.77948
18.225690767922575	3.1566277	1.7766901
18.243441780220046	3.1173937	1.7656143
18.261193234036764	3.0827827	1.7557855
18.278945129831676	3.047025	1.7455729
18.29669746806386	2.9947882	1.7305456
18.314450249192483	2.9781792	1.7257402
18.3322034736768	2.9888341	1.7288245
18.349957141976184	3.025721	1.73946
18.3677112545501	3.059875	1.7492498
18.385465811858108	3.0606418	1.749469
18.403220814359884	3.0896597	1.7577428
18.420976262515172	3.12872	1.7688189
18.43873215678387	3.1120174	1.7640911
18.456488497625923	3.1311953	1.7695184
18.474245285501407	3.2382686	1.799519
18.492002520870486	3.3361816	1.8265218
18.50976020419343	3.4140298	1.8477093
18.527518335930615	3.7035792	1.9244685
18.545276916542516	4.3068485	2.0752947
18.563035946489688	4.466038	2.1133003
18.580795426232832	4.885935	2.2104151
18.598555356232698	4.744925	2.178285
18.616315736950185	5.0736094	2.2524674
18.63407656884626	4.7220407	2.1730256
18.65183785238201	4.8845577	2.2101035
18.669599588018617	4.655275	2.1576085
18.68736177621737	4.698801	2.167672
18.705124417439652	4.657439	2.1581101
18.72288751214696	4.375341	2.0917315
18.740651060800886	4.476383	2.1157465
18.758415063863115	4.258314	2.0635684
18.77617952179546	4.4698043	2.114191
18.793944435059814	4.1853976	2.0458245
18.811709804118184	4.212558	2.0524516
18.829475629432675	4.1605906	2.0397525
18.8472419114655	3.9588532	1.9896867
18.86500865067897	4.03643	2.0090868
18.88277584753551	3.702902	1.9242926
18.90054350249763	3.6871736	1.9202014
18.918311616027957	3.3768706	1.8376263
18.936080188589226	3.2861238	1.8127669
18.953849220644265	3.0124319	1.7356359
18.971618712656007	2.8645012	1.6924838
18.9893886650875	2.8199677	1.679276
19.007159078401887	7.998881	2.8282292
19.024929953062408	32.87293	5.733492
19.042701289532435	32.817142	5.728625
19.060473088275405	25.40665	5.040501
19.07824534975489	2.6599987	1.6309502
19.096018074434568	2.6187942	1.6182688
19.113791262778197	2.5616882	1.6005275
19.13156491524966	2.5498996	1.5968405
19.149339032312945	2.5382736	1.593196
19.167113614432136	2.5136316	1.5854436
19.184888662071433	2.4848807	1.5763505
19.202664175695123	2.4685657	1.571167
19.220440155767623	2.5275707	1.5898335
19.238216602753447	2.550594	1.5970579
19.2559935171172	2.6072485	1.6146977
19.27377089932361	2.5653427	1.6016687
19.291548749837514	2.5498903	1.5968376
19.309327069123835	2.5204463	1.5875914
19.32710585764763	2.497862	1.5804626
19.344885115874032	2.5052812	1.582808
19.362664844268313	2.5017648	1.5816967
19.380445043295822	2.4908073	1.5782292
19.39822571342203	2.4757612	1.5734552
19.41600685511252	2.472019	1.5722655
19.43378846883297	2.4981377	1.5805498
19.451570555049173	2.5029945	1.5820855
19.469353114227037	2.5204103	1.58758
19.48713614683254	2.4717066	1.5721662
19.50491965333182	2.428907	1.558495
19.52270363419109	2.4355223	1.560616
19.540488089876686	2.4557078	1.5670698
19.55827302085503	2.468785	1.5712367
19.576058427592674	2.480817	1.575061
19.593844310556282	2.486268	1.5767905
19.611630670212598	2.4688609	1.5712609
19.629417507028506	2.4229586	1.5565856
19.64720482147098	2.4221199	1.5563161
19.6649926140071	2.4449556	1.5636353
19.682780885104084	2.4912019	1.5783541
19.70056963522921	2.4735153	1.5727413
19.718358864849908	2.459207	1.5681859
19.7361485744337	2.4495206	1.5650945
19.753938764448215	2.511301	1.5847085
19.771729435361202	2.5216663	1.5879755
19.789520587640506	2.5013652	1.5815705
19.807312221754092	2.4435844	1.5631969
19.825104338170043	2.4407692	1.5622962
19.842896937356517	2.4969306	1.5801679
19.860690019781824	2.5282307	1.590041
19.87848358591436	2.5438614	1.5949488
19.896277636222635	2.5293458	1.5903918
19.914072171175278	2.5272002	1.589717
19.931867191241015	2.5224054	1.5882082
19.94966269688869	2.5035498	1.582261
19.967458688587264	2.4864357	1.5768436
19.985255166805807	2.4693482	1.571416
20.00305213201348	2.4624994	1.5692353
20.020849584679578	2.4652753	1.5701195
20.038647525273507	2.4522834	1.5659769
20.05644595426477	2.4042063	1.5505503
20.07424487212299	2.4198382	1.5555829
20.092044279317903	2.420085	1.5556623
20.109844176319353	2.4282281	1.5582772
20.127644563597304	2.3752627	1.5411887
20.145445441621817	2.366905	1.5384749
20.16324681086307	2.355457	1.5347499
20.181048671791373	2.3532155	1.5340194
20.198851024877122	2.3667564	1.5384266
20.216653870590836	2.3644984	1.5376925
20.234457209403146	2.402277	1.5499281
20.252261041784802	2.4081914	1.5518348
20.270065368206662	2.3934216	1.5470687
20.287870189139685	2.381052	1.5430658
20.305675505054968	2.357441	1.535396
20.323481316423702	2.3537927	1.5342075
20.341287623717207	2.3326454	1.5273
20.359094427406884	2.3316052	1.5269594
20.376901727964288	2.2972744	1.5156763
20.39470952586107	2.300717	1.5168115
20.41251782156899	2.3106818	1.5200927
20.430326615559935	2.3378003	1.5289867
20.448135908305886	2.3461883	1.5317272
20.465945700278965	2.2964587	1.5154071
20.483755991951384	2.2954967	1.5150896
20.50156678379548	2.3230217	1.5241462
20.519378076283708	2.3545406	1.5344512
20.537189869888635	2.3537235	1.5341849
20.55500216508294	2.361145	1.5366018
20.572814962339415	2.325306	1.5248954
20.59062826213098	2.3105264	1.5200416
20.60844206493066	2.3123612	1.520645
20.626256371211593	2.3174238	1.5223087
20.644071181447032	2.2876284	1.5124907
20.66188649611036	2.2689714	1.5063106
20.67970231567506	2.259822	1.5032704
20.697518640614742	2.259333	1.5031078
20.715335471403122	2.2724695	1.5074712
20.73315280851404	2.3038	1.5178274
20.750970652421447	2.300111	1.5166117
20.768789003599412	2.2708097	1.5069206
20.786607862522136	2.2778509	1.509255
20.8044272296639	2.3295865	1.5262983
20.82224710549913	2.3104677	1.5200223
20.84006749050237	2.2559521	1.5019827
20.857888385148268	3.813669	1.9528618
20.8757097899116	45.934933	6.7775316
20.893531705267254	64.80863	8.050381
20.911354131690224	83.82344	9.155514
20.92917706965566	69.06085	8.310286
20.94700051963877	50.11297	7.0790515
20.96482448211493	29.402842	5.4224386
20.982648957559622	4.139734	2.0346336
21.00047394644843	2.2419543	1.4973158
21.01829944925707	2.2529	1.5009663
21.036125466461375	2.2704933	1.5068156
21.053951998537297	2.2841477	1.5113397
21.071779045960906	2.2723496	1.5074315
21.089606609208378	2.2358844	1.4952874
21.10743468875603	2.2006202	1.4834487
21.12526328508028	2.1991036	1.4829375
21.143092398657675	2.1843276	1.4779471
21.16092202996488	2.190257	1.4799517
21.17875217947867	2.183218	1.4775716
21.19658284767596	2.1859283	1.4784886
21.21441403503377	2.18019	1.4765466
21.232245742029225	2.1933265	1.4809884
21.2500779691396	2.2087872	1.4861989
21.26791071684227	2.1711106	1.4734689
21.28574398561475	2.1387606	1.4624501
21.30357777593465	2.1540022	1.467652
21.321412088279704	2.1775022	1.4756362
21.339246923127792	2.18056	1.4766719
21.357082280956888	2.159066	1.4693761
21.3749181622451	2.1602254	1.4697706
21.392754567470647	2.1811962	1.4768873
21.41059149711187	2.1911612	1.4802572
21.42842895164726	2.1540394	1.4676646
21.446266931555378	2.1067293	1.4514576
21.464105437314945	2.0819373	1.442892
21.481944469404798	2.0592144	1.4349962
21.49978402830388	2.084573	1.4438051
21.51762411449127	2.0998387	1.449082
21.53546472844617	2.1007357	1.4493915
21.553305870647876	2.0784087	1.4416687
21.571147541575865	2.0459232	1.4303577
21.58898974170967	2.013101	1.4188379
21.60683247152899	2.0259995	1.4233761
21.62467573151363	2.0287848	1.4243542
21.642519522143523	2.0258622	1.4233279
21.660363843898722	2.0273664	1.4238561
21.6782086972594	2.0110893	1.4181288
21.696054082705864	2.0037537	1.4155401
21.713900000718535	1.9804981	1.4073017
21.73174645177795	1.9911895	1.4110951
21.749593436364794	1.9896047	1.4105334
21.767440954959845	1.9862823	1.4093553
21.785289008044032	1.9740465	1.4050076
21.803137596098388	1.9929279	1.411711
21.820986719604086	1.9942164	1.4121673
21.838836379042412	1.9964789	1.4129682
21.85668657489478	1.9965689	1.413
21.87453730764273	2.0010498	1.4145846
21.892388577767914	1.9873091	1.4097195
21.91024038575213	1.9868642	1.4095618
21.928092732077285	2.027868	1.4240323
21.945945617225426	2.04722	1.4308109
21.963799041678694	2.0206714	1.4215032
21.981653005919398	31.341734	5.5983686
21.999507510429943	78.13019	8.8391285
22.01736255569286	73.106674	8.550244
22.035218142190818	4.204054	2.050379
22.05307427040661	2.0296285	1.4246503
22.07093094082315	2.030664	1.4250137
22.088788153923474	2.0134544	1.4189625
22.106645910190746	1.9745501	1.4051869
22.12450421010827	1.9233335	1.386843
22.142363054159464	1.9625679	1.4009168
22.16022244282787	2.0206182	1.4214845
22.178082376597164	2.0491621	1.4314895
22.195942855951145	1.9843129	1.4086564
22.213803881373742	1.9659345	1.4021178
22.231665453349002	1.9716148	1.404142
22.24952757236111	1.9475967	1.3955632
22.26739023889438	1.9332834	1.3904257
22.28525345343323	1.9594443	1.3998015
22.30311721646225	2.0169077	1.4201788
22.320981528466113	2.0078337	1.4169805
22.33884638992964	2.014142	1.4192047
22.356711801337788	1.957771	1.3992037
22.37457776317561	1.9706947	1.4038143
22.392444275928337	1.9738687	1.4049444
22.410311340081282	1.9666429	1.4023705
22.428178956119904	1.9576895	1.3991746
22.446047124529805	1.9090447	1.3816818
22.46391584579669	1.9230002	1.3867228
22.481785120406414	1.9231844	1.3867892
22.49965494884496	1.9325975	1.3901789
22.51752533159841	1.9162337	1.3842809
22.53539626915302	1.8910755	1.3751638
22.553267761995137	1.9275814	1.3883736
22.571139810611264	1.9470121	1.3953538
22.589012415488025	1.9915434	1.4112206
22.60688557711216	1.9938192	1.4120266
22.624759295970566	1.975337	1.4054668
22.642633572550263	1.9164973	1.3843762
22.660508407338362	1.8857689	1.373233
22.67838380082217	1.9179213	1.3848903
22.696259753489077	1.9587522	1.3995543
22.714136265826614	1.9734024	1.4047784
22.73201333832246	1.9179736	1.3849093
22.74989097146439	1.8714856	1.3680226
22.76776916574035	1.8741523	1.3689969
22.785647921638393	1.8900199	1.3747799
22.803527239646712	1.9083587	1.3814336
22.82140712025363	1.8952483	1.3766801
22.839287563947593	1.8735517	1.3687775
22.85716857121719	1.8748237	1.3692421
22.875050142551135	1.8910035	1.3751376
22.892932278438277	1.9037081	1.3797493
22.910814979367604	1.9222524	1.3864532
22.928698245828222	1.897167	1.3773768
22.946582078309387	1.880284	1.3712344
22.96446647730047	1.8812351	1.3715812
22.98235144329098	1.9132824	1.3832145
23.000236976770562	1.9127642	1.3830272
23.018123078229	1.8850791	1.3729818
23.03600974815619	1.8995802	1.3782526
23.053896987042194	1.9102132	1.3821046
23.071784795377173	1.9252584	1.3875368
23.08967317365145	1.9198825	1.3855983
23.10756212235546	1.8808649	1.3714463
23.125451641979787	1.8744348	1.3691
23.143341733015134	1.8757144	1.3695673
23.161232395952357	1.9171962	1.3846285
23.179123631282426	1.9498768	1.3963798
23.197015439496468	1.9550519	1.3982317
23.214907821085717	1.9477333	1.3956121
23.23280077654157	1.939659	1.3927164
23.250694306355538	1.9496876	1.3963121
23.268588411019277	1.9199083	1.3856076
23.28648309102458	1.9144968	1.3836534
23.304378346863356	1.9050183	1.380224
23.322274179027676	1.872778	1.3684949
23.340170588009723	1.8609462	1.3641651
23.358067574301852	1.8919853	1.3754946
23.37596513839651	1.9359976	1.3914013
23.39386328078629	1.938198	1.3921918
23.411762001963947	1.9326527	1.3901988
23.429661302422353	1.9216545	1.3862375
23.4475611826545	1.926784	1.3880864
23.46546164315356	1.9138547	1.3834214
23.48336268441279	1.8897916	1.374697
23.501264306925638	1.898629	1.3779074
23.51916651118564	1.9241993	1.3871552
23.537069297686497	1.9713042	1.4040314
23.554972666922037	1.9880801	1.4099929
23.57287661938623	1.9597154	1.3998983
23.59078115557318	1.8960704	1.3769788
23.608686275977128	1.8836334	1.3724552
23.62659198109246	1.8647074	1.3655429
23.6444982714137	1.8924145	1.3756505
23.66240514743549	1.8903348	1.3748945
23.68031260965263	1.8983388	1.3778021
23.698220658560068	1.8812953	1.3716033
23.716129294652845	1.8932656	1.3759599
23.7340385184262	1.9191637	1.3853388
23.75194833037546	1.918185	1.3849856
23.769858730996123	1.8849083	1.3729197
23.78776972078382	1.8495148	1.3599687
23.80568130023431	1.9030013	1.3794931
23.823593469843495	1.951857	1.3970888
23.841506230107424	1.9443002	1.3943816
23.859419581522275	1.8744359	1.3691005
23.87733352458438	1.8705657	1.3676863
23.89524805979019	1.8789288	1.3707402
23.913163187636318	1.9074086	1.3810897
23.931078908619508	1.9277345	1.3884288
23.948995223236633	1.9305565	1.3894447
23.966912131984735	1.9645206	1.4016136
23.98482963536096	1.9923683	1.4115127
24.002747733862616	1.9809412	1.4074591
24.020666427987155	1.9582273	1.3993667
24.038585718232156	1.978096	1.406448
24.056505605095353	2.0130446	1.418818
24.074426089074617	2.1148627	1.4542568
24.092347170667946	2.1077335	1.4518036
24.110268850373515	2.0954082	1.4475524
24.128191128689586	2.099957	1.4491228
24.146114006114626	2.093325	1.4468327
24.164037483147187	2.081097	1.4426007
24.181961560286005	2.0657535	1.4372729
24.199886238029926	2.0409856	1.4286307
24.21781151687797	2.0321434	1.4255327
24.235737397329274	2.031165	1.4251894
24.253663879883135	2.0197575	1.4211817
24.271590965038975	2.0283244	1.4241925
24.289518653296376	2.0137537	1.4190679
24.30744694515505	1.9957724	1.412718
24.32537584111486	1.9560001	1.3985708
24.34330534167581	1.9502685	1.3965201
24.361235447338046	2.004078	1.4156545
24.379166158601876	2.0096169	1.4176096
24.39709747596772	2.030459	1.4249418
24.41502939993615	2.0345397	1.4263729
24.432961931007917	2.027234	1.4238096
24.450895069683856	1.9955158	1.4126272
24.468828816465	1.9780439	1.4064295
24.4867631718525	1.9654399	1.4019415
24.504698136347656	1.9882578	1.410056
24.52263371045192	1.9744576	1.405154
24.540569894666874	1.9804578	1.4072874
24.558506689494266	1.940739	1.3931041
24.57644409543597	1.9446436	1.3945048
24.594382112994012	1.9286116	1.3887446
24.61232074267057	1.9176877	1.384806
24.630259984967953	1.907541	1.3811376
24.64819984038863	1.9064655	1.3807482
24.66614030943522	1.9451885	1.3947002
24.684081392610462	1.9604318	1.4001542
24.702023090417274	2.0016797	1.4148073
24.7199654033587	2.0867295	1.4445517
24.737908331937927	2.0972655	1.4481939
24.755851876658305	2.1059027	1.4511728
24.773796038023324	2.1054752	1.4510256
24.79174081653661	2.098934	1.4487698
24.809686212701962	2.1029449	1.4501534
24.827632227023294	2.0966747	1.4479898
24.8455788600047	2.0725782	1.4396452
24.8635261121504	2.0648763	1.4369677
24.88147398396475	2.0664885	1.4375286
24.899422475952303	2.0964372	1.4479079
24.917371588617698	2.108898	1.4522045
24.935321322465768	2.157371	1.4687992
24.953271678001478	2.2454	1.4984659
24.97122265572994	2.428183	1.5582628
24.989174256156414	2.778541	1.6668956
25.00712647978632	3.2487085	1.8024174
25.02507932712521	3.803554	1.9502703
25.043032798678798	4.3336425	2.0817401
25.060986894952933	4.9499903	2.2248573
25.078941616453637	5.74512	2.396898
25.096896963687055	6.716043	2.591533
25.114852937159508	8.025348	2.8329046
25.132809537377444	8.419063	2.9015622
25.150766764847468	8.506223	2.916543
25.168724620076347	7.85022	2.8018243
25.186683103570985	6.874079	2.6218464
25.204642215838426	5.591058	2.3645418
25.222601957385894	4.2313604	2.057027
25.24056232872074	3.216976	1.793593
25.25852333035048	2.6302402	1.6218015
25.276484962782778	2.2825766	1.5108198
25.294447226525435	2.0785685	1.4417242
25.312410122086423	2.0075836	1.4168923
25.330373649973843	1.972366	1.4044095
25.348337810695988	1.9691391	1.4032601
25.366302604761245	1.9307116	1.3895005
25.384268032678207	1.9415644	1.3934003
25.40223409495558	1.9229314	1.386698
25.420200792102257	1.9211196	1.3860446
25.438168124627246	1.9889891	1.4103153
25.45613609303974	1.9989884	1.4138559
25.474104697849057	1.9533403	1.3976195
25.492073939564698	1.8998523	1.3783513
25.510043818696285	1.8357377	1.354894
25.528014335753614	1.8518051	1.3608104
25.54598549124664	1.8975205	1.3775052
25.56395728568544	1.8988451	1.3779858
25.58192971958028	1.8659157	1.3659853
25.59990279344156	1.8614472	1.3643486
25.617876507779833	1.8671007	1.366419
25.635850863105826	1.8623719	1.3646874
25.653825859930386	1.8714428	1.3680068
25.671801498764548	1.8963543	1.3770819
25.68977778011949	1.8771186	1.3700798
25.707754704506524	1.8691776	1.3671787
25.725732272437153	1.8469613	1.3590295
25.743710484423012	1.7946913	1.3396609
25.761689340975888	1.7786996	1.333679
25.77966884260774	1.7772878	1.3331496
25.797648989830662	1.7835196	1.3354847
25.815629783156922	1.8076969	1.3445063
25.83361122309895	1.8542141	1.3616953
25.85159331016929	1.9034677	1.3796622
25.869576044880695	1.8694693	1.3672854
25.887559427746034	1.8824539	1.3720255
25.90554345927836	1.8644099	1.3654339
25.92352813999086	1.8352897	1.3547287
25.94151347039689	1.8340338	1.3542651
25.959499451009965	1.8730389	1.3685901
25.97748608234374	1.8433115	1.357686
25.995473364912062	1.8150508	1.3472382
26.013461299228904	1.8590721	1.363478
26.03144988580839	1.8688111	1.3670447
26.04943912516483	1.8889124	1.3743771
26.067429017812675	1.8744175	1.3690937
26.085419564266537	1.8499098	1.3601139
26.103410765041186	1.8413616	1.3569678
26.12140262065155	1.824386	1.3506984
26.139395131612723	1.8317978	1.3534392
26.157388298439948	1.857591	1.3629347
26.17538212164861	1.8426787	1.357453
26.193376601754295	1.8230816	1.3502154
26.211371739272714	1.8448434	1.3582501
26.229367534719746	1.8631512	1.364973
26.247363988611433	1.903667	1.3797344
26.26536110146397	1.8687611	1.3670263
26.283358873793727	1.8286963	1.352293
26.301357306117204	1.7820677	1.334941
26.319356398951104	1.7949349	1.3397518
26.33735615281224	1.8496826	1.3600304
26.35535656821762	1.8721944	1.3682816
26.373357645684404	1.8153087	1.3473339
26.39135938572991	1.7636518	1.3280256
26.409361788871614	1.7665371	1.3291113
26.427364855627165	1.7524256	1.3237921
26.445368586514352	1.7911934	1.3383547
26.46337298205115	1.8115973	1.345956
26.48137804275568	1.8350698	1.3546475
26.499383769146217	1.8222595	1.349911
26.517390161741215	1.8255008	1.3511109
26.53539722105928	1.8522915	1.3609891
26.553404947619182	1.837409	1.3555106
26.571413341939856	1.8342259	1.3543359
26.589422404540397	1.8365408	1.3551903
26.60743213594006	1.8366446	1.3552287
26.62544253665827	1.783134	1.3353404
26.64345360721459	1.8145734	1.347061
26.66146534812879	1.7824016	1.3350661
26.679477759920758	1.7726896	1.3314239
26.69749084311057	1.7588253	1.3262072
26.71550459821847	1.7416463	1.3197144
26.733519025764842	1.7476221	1.3219765
26.751534126270258	1.7778133	1.3333466
26.769549900255434	1.8081973	1.3446922
26.787566348241267	1.8045545	1.343337
26.80558347074881	1.8285009	1.3522208
26.823601268299267	1.8514267	1.3606714
26.841619741414036	1.8383982	1.3558755
26.85963889061465	1.82479	1.3508478
26.877658716422832	1.8009331	1.3419884
26.89567921936045	1.815773	1.3475062
26.913700399949544	1.819438	1.3488654
26.93172225871233	1.8048939	1.3434634
26.949744796171174	1.8144222	1.3470049
26.967768012848605	1.8180095	1.3483359
26.98579190926733	1.8054019	1.3436525
27.003816485950225	1.8008966	1.3419749
27.021841743420318	1.7963346	1.3402741
27.039867682200814	1.7892883	1.3376428
27.057894302815072	1.7955383	1.339977
27.07592160578664	1.7993668	1.3414048
27.0939495916392	1.7995386	1.3414688
27.111978260896635	1.7874556	1.3369576
27.13000761408296	1.7662867	1.3290172
27.148037651722397	1.7330374	1.3164488
27.166068374339304	1.7375816	1.3181736
27.184099782458215	1.7553692	1.3249035
27.20213187660384	1.7395542	1.3189216
27.22016465730105	1.7707707	1.330703
27.23819812507487	1.803773	1.3430462
27.256232280450533	1.7947662	1.3396889
27.274267123953383	1.7919472	1.3386363
27.292302656108987	1.8235663	1.3503948
27.31033887744306	1.8942723	1.3763256
27.32837578848146	1.8990048	1.3780439
27.34641338975026	1.8337014	1.3541423
27.364451681775673	1.8098738	1.3453155
27.382490665084074	1.8273023	1.3517774
27.400530340202046	1.844218	1.3580198
27.41857070765629	1.812645	1.3463451
27.436611767973726	1.7966288	1.3403839
27.454653521681404	1.7698109	1.3303424
27.472695969306564	1.7360845	1.3176056
27.490739111376627	1.7302604	1.3153936
27.508782948419153	1.7924311	1.338817
27.526827480961902	1.8430319	1.357583
27.54487270953279	1.8508478	1.3604587
27.562918634659898	1.844656	1.3581811
27.580965256871508	1.8306953	1.3530319
27.599012576696026	1.8067662	1.34416
27.617060594662068	1.8087715	1.3449057
27.63510931129842	1.8155233	1.3474135
27.65315872713401	1.8643231	1.3654022
27.67120884269797	1.8878564	1.3739928
27.68925965851958	1.8790683	1.3707911
27.707311175128307	1.8743825	1.3690809
27.725363393053787	1.8861403	1.3733683
27.74341631282583	1.8694295	1.3672708
27.7614699349744	1.8481203	1.359456
27.77952426002968	2.0001469	1.4142655
27.797579288521973	2.0595438	1.435111
27.815635020981784	2.443487	1.5631657
27.83369145793979	2.5303144	1.5906962
27.85174859992682	2.4298549	1.5587991
27.869806447473923	2.3114028	1.5203298
27.887865001112267	2.0159695	1.4198484
27.905924261373233	1.8717358	1.368114
27.92398422878836	1.8606282	1.3640485
27.94204490388936	1.8403265	1.3565863
27.96010628720813	1.8211738	1.3495088
27.978168379276728	1.7798018	1.3340921
27.9962311806274	1.8130455	1.3464938
28.014294691792568	1.8484579	1.35958
28.0323589133048	1.8605334	1.3640137
28.050423845696887	1.8605815	1.3640313
28.068489489501758	1.8682779	1.3668497
28.086555845252523	1.8430243	1.3575803
28.104622913482487	1.7893361	1.3376607
28.122690694725115	1.8217541	1.3497237
28.14075918951405	1.8462552	1.3587698
28.15882839838312	1.8586336	1.3633171
28.176898321866304	1.9085574	1.3815055
28.1949689604978	1.8726298	1.3684406
28.213040314811945	1.7920507	1.338675
28.23111238534327	1.8081102	1.3446599
28.249185172626493	1.9054695	1.3803874
28.267258677196473	1.9216458	1.3862344
28.285332899588294	1.9310724	1.3896303
28.303407840337172	1.8986074	1.3778996
28.321483499978545	1.8942643	1.3763227
28.33955987904799	1.8656771	1.3658979
28.357636978081285	1.8904915	1.3749515
28.37571479761439	1.906343	1.3807038
28.393793338183425	1.9529178	1.3974683
28.41187260032469	1.9489449	1.3960462
28.429952584574686	1.9332101	1.3903992
28.448033291470065	1.951785	1.397063
28.46611472154769	1.9977008	1.4134004
28.484196875344566	1.9826243	1.408057
28.502279753397914	1.9545257	1.3980435
28.52036335624511	1.9638572	1.4013768
28.538447684423716	2.0008373	1.4145095
28.556532738471482	2.0135262	1.4189878
28.574618518926325	2.034925	1.426508
28.59270502632635	2.022721	1.4222239
28.61079226120985	2.0037541	1.4155402
28.628880224115274	2.003109	1.4153123
28.646968915581287	2.021653	1.4218484
28.66505833614671	1.9787658	1.4066861
28.68314848635055	2.0046577	1.4158593
28.701239366732004	1.9995134	1.4140415
28.71933097783044	2.008003	1.4170402
28.737423320185403	2.0190656	1.4209383
28.75551639433665	2.056431	1.4340261
28.773610200824074	2.0859287	1.4442744
28.791704740187793	2.0974667	1.4482633
28.80980001296809	2.1172535	1.4550785
28.827896019705413	2.1032388	1.4502548
28.845992760940433	2.087949	1.4449737
28.86409023721397	2.122478	1.4568727
28.88218844906704	2.1253014	1.4578413
28.900287397040845	2.1597605	1.4696124
28.918387081676755	2.2384005	1.4961284
28.936487503516343	2.2675288	1.5058316
28.954588663101365	2.2505877	1.5001959
28.97269056097374	2.306019	1.5185583
28.990793197675597	2.3693588	1.5392722
29.00889657374923	2.4141772	1.5537623
29.027000689737125	2.384316	1.544123
29.04510554618196	2.4245374	1.5570927
29.06321114362659	2.4593303	1.5682253
29.08131748261405	2.50714	1.583395
29.099424563687567	2.4934475	1.5790654
29.11753238739057	2.5141435	1.585605
29.13564095426663	2.5429337	1.5946579
29.15375026485954	2.5795662	1.6061028
29.171860319713275	2.6507568	1.6281145
29.18997111937199	2.7444408	1.6566354
29.20808266438002	2.797253	1.672499
29.226194955281898	2.7990837	1.6730462
29.244307992622335	2.8047822	1.6747484
29.26242177694624	2.831645	1.6827493
29.2805363087987	2.8004737	1.6734616
29.29865158872498	2.8197656	1.6792158
29.316767617270557	2.84526	1.6867899
29.334884394981064	2.9023216	1.7036202
29.353001922402367	2.9705834	1.723538
29.37112020008047	3.0452187	1.7450556
29.389239228561596	3.1473956	1.77409
29.407359008392152	3.2876685	1.8131928
29.42547954011872	3.635696	1.9067501
29.44360082428809	4.225768	2.0556674
29.46172286144722	5.159303	2.27141
29.479845652143283	6.711603	2.5906763
29.497969196923606	8.894339	2.9823377
29.516093496335728	11.7741	3.431341
29.5342185509274	14.64817	3.827293
29.55234436124651	16.979319	4.120597
29.570470927841175	18.403425	4.2899213
29.588598251259686	18.292095	4.276926
29.60672633205055	16.95071	4.117124
29.624855170762405	14.760789	3.8419771
29.642984767944146	11.962582	3.4586966
29.66111512414481	9.098142	3.0163126
29.67924623991366	6.777049	2.6032765
29.697378115800138	5.1369185	2.266477
29.71551075235387	4.2291527	2.0564904
29.733644150124675	3.8385293	1.9592165
29.751778309662576	3.6482153	1.9100301
29.769913231517766	3.4895883	1.868044
29.78804891624066	3.4372683	1.8539871
29.806185364381818	3.4502227	1.8574775
29.82432257649206	3.329376	1.8246578
29.842460553122333	3.2764935	1.8101087
29.86059929482382	3.2751164	1.8097283
29.878738802147872	3.2743583	1.8095188
29.896879075646048	3.2729313	1.8091245
29.915020115870114	3.2748446	1.8096532
29.933161923371976	3.2426274	1.8007296
29.951304498703777	3.2580166	1.8049977
29.969447842417857	3.265975	1.8072009
29.987591955066733	3.2746208	1.8095913
30.005736837203123	3.311917	1.8198674
30.023882489379943	3.2429128	1.8008089
30.04202891215028	3.1491995	1.7745984
30.060176106067455	3.1242394	1.7675518
30.078324071684946	3.1791978	1.7830305
30.09647280955646	3.158944	1.7773418
30.114622320235863	3.0957415	1.7594719
30.132772604277257	3.1167247	1.7654248
30.1509236622349	3.1180453	1.7657988
30.16907549466328	3.0825038	1.7557061
30.18722810211705	3.0741038	1.7533122
30.205381485151097	3.0272121	1.7398885
30.22353564432045	3.0261586	1.7395858
30.241690580180403	3.0753586	1.7536701
30.25984629328638	3.1028776	1.7614987
30.278002784194037	3.016079	1.7366862
30.296160053459246	2.9530165	1.7184343
30.314318101638033	2.9515572	1.7180096
30.332476929286646	2.9810505	1.7265719
30.35063653696153	2.9966	1.731069
30.368796925219307	2.9703164	1.7234606
30.386958094616844	2.9544446	1.7188498
30.40512004571115	2.8945355	1.7013334
30.423282779059463	2.8062475	1.6751858
30.441446295219233	2.8147328	1.6777165
30.459610594748067	2.8151498	1.6778408
30.47777567820382	2.7191968	1.6489987
30.495941546144504	2.7503476	1.6584172
30.51410819912835	2.8164322	1.6782229
30.532275637713795	2.7879379	1.669712
30.55044386245946	2.7765706	1.6663045
30.56861287392416	2.765681	1.6630337
30.586782672666956	2.7570739	1.6604439
30.604953259247047	2.6971292	1.6422939
30.623124634223885	2.685806	1.6388429
30.641296798157075	2.7448466	1.6567578
30.659469751606462	2.7953887	1.6719416
30.677643495132074	2.8243196	1.6805712
30.695818029294152	2.8218713	1.6798426
30.713993354653116	2.734623	1.6536696
30.73216947176962	2.6336226	1.622844
30.75034638120448	2.5881534	1.6087738
30.768524083518756	2.668186	1.6334583
30.786702579273673	2.7799857	1.667329
30.80488186903069	2.869124	1.6938488
30.82306195335144	2.9124835	1.7066
30.841242832797782	3.126664	1.7682375
30.85942450793176	3.449528	1.8572905
30.877606979315637	3.7396984	1.93383
30.895790247511883	3.9829457	1.9957318
30.913974313083134	4.422492	2.1029723
30.932159176592283	4.7529488	2.180126
30.95034483860237	4.8066688	2.1924117
30.968531299676698	4.618944	2.149173
30.98671856037873	4.31865	2.0781362
31.00490662127215	3.9899049	1.9974747
31.023095482920848	3.5977845	1.8967826
31.04128514588892	3.1782496	1.7827646
31.059475610740662	2.7861772	1.6691846
31.07766687804056	2.6248183	1.6201291
31.09585894835335	2.6276662	1.6210078
31.11405182224393	2.5760286	1.6050011
31.132245500277417	2.4718547	1.5722133
31.15043998301914	2.3934267	1.5470704
31.168635271034628	2.3955534	1.5477575
31.18683136488964	2.399135	1.5489142
31.20502826515008	2.43168	1.5593845
31.223225972382135	2.4288127	1.5584649
31.241424487152155	2.4299846	1.5588408
31.259623810026692	2.4322383	1.5595635
31.27782394157253	2.4067676	1.551376
31.296024882356644	2.4008012	1.549452
31.314226632946237	2.4405603	1.5622293
31.332429193908684	2.4949286	1.5795343
31.350632565811598	2.5221384	1.5881242
31.368836749222787	2.4777584	1.5740898
31.387041744710295	2.489163	1.5777081
31.40524755284232	2.524309	1.5888073
31.423454174187317	2.4739842	1.5728904
31.441661609313922	2.394735	1.5474932
31.459869858791002	2.3777657	1.5420005
31.478078923187628	2.344406	1.5311453
31.496288803073064	2.2958765	1.515215
31.514499499016807	2.2226856	1.4908674
31.532711011588546	2.2944438	1.5147421
31.550923341358178	2.4089084	1.5520658
31.56913648889584	2.3752596	1.5411878
31.587350454771844	2.3470664	1.5320139
31.605565239556732	2.4255464	1.5574166
31.62378084382127	2.4377425	1.5613271
31.641997268136382	2.4365532	1.5609462
31.660214513073274	2.3738348	1.5407255
31.67843257920331	2.3646257	1.5377339
31.6966514670981	2.3775027	1.5419153
31.71487117732944	2.349556	1.5328262
31.733091710469346	2.267961	1.5059751
31.751313067090052	2.2965174	1.5154265
31.769535247764008	2.3203964	1.5232848
31.787758253063878	2.2648327	1.5049361
31.805982083562526	2.203213	1.4843224
31.824206739833024	2.1975632	1.4824181
31.84243222244869	2.2318125	1.4939252
31.860658531983013	2.2441282	1.4980415
31.878885669009737	2.2603433	1.5034438
31.897113634102784	2.210599	1.4868083
31.91534242783632	2.1629944	1.4707122
31.933572050784694	2.1392837	1.4626291
31.951802503522508	2.2114089	1.4870807
31.970033786624548	2.2065897	1.4854594
31.988265900665834	2.2267606	1.4922334
32.006498846221575	2.2797256	1.509876
32.02473262386724	2.2482271	1.499409
32.04296723417845	2.215412	1.488426
32.0612026777311	2.2133508	1.4877335
32.07943895510129	2.3227553	1.5240588
32.097676066865304	2.3199813	1.5231485
32.115914013599685	2.2265449	1.4921612
32.13415279588115	2.2088778	1.4862294
32.152392414286666	2.2106357	1.4868207
32.1706328693934	2.071341	1.4392154
32.18887416177875	2.0027626	1.41519
32.20711629202032	2.068383	1.4381874
32.225359260695924	2.0737107	1.4400384
32.243603068383614	2.0994031	1.4489317
32.26184771566166	2.0929694	1.4467099
32.28009320310852	2.12153	1.4565473
32.2983395313029	2.1568134	1.4686093
32.31658670082372	2.2428844	1.4976263
32.33483471225012	2.2825038	1.5107957
32.35308356616143	2.2609742	1.5036536
32.371333263137245	2.1225846	1.4569093
32.38958380375734	2.0528252	1.4327683
32.407835188601744	2.1045222	1.4506972
32.42608741825067	2.0892403	1.4454205
32.444340493284585	2.041509	1.4288138
32.46259441428416	2.0353193	1.4266462
32.48084918183028	2.1013632	1.449608
32.49910479650405	2.1350803	1.4611914
32.51736125888683	2.0751052	1.4405226
32.53561856956014	1.9923029	1.4114896
32.5538767291058	1.9641844	1.4014937
32.572135738105764	2.0471091	1.4307722
32.59039559714228	2.0475051	1.4309106
32.608656306797776	2.005346	1.4161024
32.62691786765491	1.9995874	1.4140676
32.645180280296586	1.9764413	1.4058596
32.663443545305896	1.9790193	1.4067762
32.68170766326619	1.9794133	1.4069163
32.69997263476099	2.0058358	1.4162753
32.7182384603741	2.019901	1.4212322
32.7365051406895	1.9404608	1.3930042
32.75477267629144	1.9715726	1.404127
32.77304106776434	2.111419	1.4530722
32.79131031569289	2.1072493	1.4516368
32.809580420661966	2.058936	1.4348993
32.827851383256714	2.0067737	1.4166064
32.84612320406245	1.9527252	1.3973994
32.86439588366476	1.9522243	1.3972201
32.88266942264945	1.9475317	1.3955399
32.9009438216025	1.9670155	1.4025033
32.9192190811102	1.983279	1.4082894
32.937495201758985	1.9575657	1.3991303
32.95577218413556	1.9623915	1.4008539
32.974050028826866	1.9467288	1.3952522
32.992328736420035	1.9533645	1.3976282
33.010608307502444	1.9286721	1.3887664
33.02888874266169	1.8846248	1.3728164
33.047170042485604	1.8713104	1.3679584
33.06545220756225	1.8910167	1.3751425
33.083735238479896	1.8998164	1.3783382
33.10201913582707	1.9534155	1.3976464
33.12030390019248	2.0098398	1.4176881
33.138589532165135	2.0076604	1.4169194
33.15687603233419	1.94808	1.3957363
33.17516340128909	1.9547455	1.3981222
33.19345163961947	1.9958677	1.4127518
33.211740747915215	1.9578549	1.3992337
33.23003072676643	1.959065	1.3996661
33.248321576763466	1.9133556	1.3832409
33.266613298496885	1.8136376	1.3467137
33.28490589255747	1.856624	1.36258
33.30319935953626	1.9242887	1.3871874
33.32149370002451	1.9340827	1.390713
33.339788914613706	1.9482808	1.3958083
33.358085003895575	1.9353621	1.3911729
33.376381968462034	1.9097936	1.3819529
33.39467980890529	1.8423542	1.3573334
33.41297852581774	1.8258944	1.3512566
33.43127811979204	1.8641937	1.3653548
33.44957859142105	1.9686536	1.4030871
33.467879941297866	1.9969835	1.4131467
33.486182170015844	2.0099878	1.4177403
33.50448527816853	1.9681424	1.402905
33.522789266349754	1.9199101	1.3856082
33.541094135153514	1.8884766	1.3742186
33.55939988517411	1.8885299	1.3742379
33.57770651700602	1.8863426	1.3734419
33.59601403124398	1.9139766	1.3834654
33.61432242848296	1.9436327	1.3941423
33.632631709318154	1.9665552	1.4023392
33.650941874344994	1.914528	1.3836647
33.66925292415916	1.9187082	1.3851744
33.68756485935654	1.9799381	1.4071027
33.70587768053328	1.9633911	1.4012105
33.724191388285746	2.0091054	1.4174292
33.74250598321054	2.0395675	1.4281342
33.760821465904506	1.9836311	1.4084144
33.77913783696474	1.917287	1.3846613
33.79745509698852	1.925511	1.3876278
33.815773246573414	1.9671587	1.4025544
33.8340922863172	2.0035	1.4154505
33.852412216817896	1.981104	1.407517
33.87073303867377	1.9525164	1.3973248
33.889054752483304	1.875307	1.3694185
33.907377358845245	1.8642243	1.365366
33.92570085835853	1.898715	1.3779386
33.94402525162239	1.8968233	1.3772521
33.96235053923627	1.9272534	1.3882555
33.980676721799824	1.978056	1.4064338
33.999003799912984	1.9577563	1.3991984
34.01733177417592	1.8509315	1.3604895
34.03566064518901	1.914359	1.3836036
34.0539904135529	1.9194024	1.385425
34.07232107986846	1.9382228	1.3922007
34.090652644736785	1.9465655	1.3951937
34.108985108759235	2.0092099	1.417466
34.12731847253742	2.135577	1.4613613
34.14565273667313	2.0613422	1.4357375
34.16398790176847	1.9316474	1.3898371
34.18232396842574	1.8107108	1.3456266
34.20066093724749	1.7258328	1.3137096
34.21899880883651	1.79712	1.340567
34.23733758379583	1.8529564	1.3612335
34.25567726272874	1.933212	1.3903999
34.27401784623872	1.9814948	1.4076558
34.29235933492957	1.9667257	1.4024
34.31070172940526	1.9423516	1.3936827
34.32904503027003	1.8833286	1.3723441
34.347389238128386	1.9418416	1.3934997
34.36573435358502	1.9712878	1.4040256
34.38408037724492	2.0076845	1.4169278
34.402427309713296	2.1061287	1.4512508
34.42077515159559	2.100499	1.4493098
34.43912390349752	2.047492	1.430906
34.45747356602499	2.0169365	1.4201889
34.47582413978423	1.956648	1.3988024
34.49417562538163	1.9789178	1.4067402
34.51252802342388	1.976843	1.4060025
34.53088133451789	2.058737	1.43483
34.54923555927084	2.074943	1.4404663
34.567590698290104	1.9651734	1.4018464
34.58594675218336	1.7293026	1.3150295
34.6043037215585	1.7995652	1.3414787
34.62266160702365	1.9332304	1.3904066
34.641020409187234	1.9543264	1.3979722
34.65938012865785	1.9445286	1.3944635
34.677740766044394	1.9196281	1.3855065
34.69610232195598	1.9116863	1.3826375
34.714464797002016	2.0608358	1.4355612
34.73282819179208	2.101346	1.449602
34.751192506936064	1.900986	1.3787625
34.76955774304408	1.7864827	1.3365937
34.7879239007265	1.928107	1.3885629
34.80629098059391	2.0680392	1.4380679
34.824658983257194	2.0024903	1.4150938
34.843027909327446	1.925075	1.3874707
34.86139775941603	1.8932725	1.3759624
34.879768534134534	1.8760395	1.3696859
34.89814023409483	1.8162767	1.3476931
34.91651285990901	1.8167073	1.3478528
34.93488641218944	1.8932643	1.3759594
34.95326089154871	1.8919463	1.3754804
34.97163629859967	1.9745619	1.4051911
34.99001263395542	2.1512375	1.4667097
35.00838989822934	2.2566383	1.5022111
35.02676809203499	2.1454751	1.4647441
35.04514721598624	1.9850621	1.4089223
35.063527270697215	1.8291222	1.3524505
35.081908256782256	1.8095232	1.3451852
35.10029017485597	1.9830129	1.4081949
35.11867302553321	2.2457092	1.498569
35.137056809429104	2.1252222	1.4578142
35.155441527159006	1.8019683	1.3423741
35.173827179338524	1.8489078	1.3597455
35.19221376658354	2.0083601	1.4171662
35.21060128951017	1.9838562	1.4084944
35.2289897487348	1.776941	1.3330195
35.24737914487405	1.5209196	1.2332556
35.26576947854479	1.5720762	1.2538246
35.28416075036418	1.8061883	1.343945
35.30255296094958	2.0337536	1.4260974
35.32094611091867	2.1489084	1.4659156
35.33934020088932	1.9811925	1.4075484
35.35773523147969	1.7022735	1.304712
35.3761312033082	1.9329803	1.3903166
35.394528116993506	2.1869004	1.4788172
35.41292597315452	2.4241195	1.5569584
35.431324772410434	2.3875463	1.5451686
35.449724515380666	2.05938	1.4350541
35.46812520268491	2.0260475	1.4233929
35.486526834943106	2.028245	1.4241647
35.504929412775454	1.7726583	1.3314122
35.52333293680242	2.155339	1.4681073
35.54173740764471	2.6580186	1.6303431
35.560142825923286	2.1948729	1.4815103
35.5785491922594	1.4550768	1.2062657
35.59695650727454	1.2344869	1.1110747
35.61536477159042	1.1140177	1.0554703
