0.008763373481513119	0.0	0.0
0.026290120649546365	0.11242709	0.3353015
0.043816868432600686	0.15683767	0.39602736
0.06134361724069026	0.1660059	0.40743822
0.07887036748382949	0.1952126	0.4418287
0.0963971195720331	0.1594177	0.39927146
0.11392387391531617	0.17044163	0.41284576
0.1314506309236943	0.20514044	0.4529243
0.1489773910071836	0.18112178	0.42558405
0.16650415457580078	0.15493262	0.3936148
0.18403092203956356	0.1404238	0.37473163
0.20155769380849	0.100053586	0.3163125
0.2190844702925996	0.06787174	0.26052207
0.2366112519019124	0.046950027	0.21667954
0.2541380390464497	0.07489769	0.27367443
0.27166483213623416	0.19265467	0.43892443
0.28919163158128947	0.22532244	0.4746814
0.3067184377916406	0.22172251	0.4708742
0.324245251177314	0.16667175	0.40825453
0.34177207214833777	0.13605046	0.3688502
0.3592989011147415	0.1493793	0.3864962
0.37682573848655654	0.15955184	0.39943942
0.39435258467381573	0.15328483	0.39151606
0.41187944008655414	0.14067955	0.37507272
0.42940630513480854	0.16694172	0.408585
0.446933180228618	0.22443062	0.47374108
0.4644600657780234	0.22398213	0.4732675
0.48198696219306775	0.19708322	0.44394055
0.49951386988379676	0.14907284	0.38609952
0.5170407892602581	0.16818376	0.41010213
0.5345677207325025	0.1646969	0.40582865
0.5520946647105822	0.17560405	0.41905135
0.5696216216045534	0.17552842	0.4189611
0.5871485918244737	0.14690937	0.38328758
0.6046755757804043	0.1454286	0.38135102
0.6222025738824094	0.13467108	0.36697558
0.6397295865405557	0.1557718	0.39467937
0.6572566141649129	0.19570553	0.44238618
0.6747836571655547	0.17252387	0.41535994
0.6923107159525568	0.18965852	0.43549803
0.7098377909359992	0.1903907	0.43633783
0.7273648825259653	0.2074354	0.45545077
0.7448919911325411	0.15960363	0.3995042
0.762419117165817	0.12266015	0.35022873
0.7799462610358868	0.15431136	0.39282486
0.7974734231528482	0.16764875	0.4094493
0.8150006039268024	0.20324467	0.45082664
0.8325278037678551	0.18267407	0.42740387
0.8500550230861152	0.18275374	0.42749706
0.8675822622916969	0.18804502	0.43364158
0.8851095217947171	0.224543	0.4738597
0.9026368020052984	0.22932513	0.47887903
0.9201641033335665	0.2529472	0.50293857
0.9376914261896523	0.21444355	0.4630805
0.9552187709836915	0.19799049	0.44496122
0.9727461381258234	0.2065612	0.45449004
0.990273528026193	0.22938761	0.47894427
1.0078009410949496	0.26279125	0.5126317
1.0253283777422473	0.2934101	0.5416734
1.0428558383782454	0.27959403	0.5287665
1.0603833234131086	0.26193678	0.5117976
1.0779108332570058	0.31673357	0.5627909
1.0954383683201119	0.33787575	0.5812708
1.112965929012607	0.37698543	0.6139914
1.1304935157446763	0.41758335	0.6462069
1.1480211289265108	0.44444805	0.66666937
1.1655487689683062	1.3006084	1.1404423
1.1830764362802655	1.5939893	1.2625328
1.200604131272596	2.0188434	1.42086
1.2181318543555117	2.4196653	1.5555273
1.235659605939232	2.4942598	1.5793226
1.253187386433982	3.9606671	1.9901425
1.270715196249994	6.234373	2.4968727
1.2882430357975057	11.767936	3.4304426
1.3057709054867608	16.713737	4.088244
1.3232988057280106	22.781319	4.772978
1.3408267369315112	27.674406	5.260647
1.358354699507526	31.26184	5.591229
1.3758826938663256	35.173363	5.9307137
1.3934107204181858	36.946465	6.0783606
1.410938779573391	37.351547	6.1115913
1.4284668717422309	37.892315	6.1556735
1.4459949973350033	37.708294	6.140708
1.4635231567620117	37.49496	6.123313
1.4810513504335687	36.956005	6.079145
1.4985795787599925	36.306755	6.025509
1.5161078421516088	36.35076	6.029159
1.5336361410187505	35.836243	5.986338
1.5511644757717598	35.95825	5.9965196
1.5686928468209842	36.428776	6.0356255
1.58622125457678	36.839565	6.0695605
1.6037496994495108	38.032425	6.1670437
1.621278181849548	37.794907	6.147756
1.6388067021872719	38.668037	6.218363
1.6563352608730693	37.968082	6.1618247
1.673863858317336	36.882908	6.07313
1.6913924949304753	36.069984	6.0058293
1.7089211711228998	34.874477	5.905462
1.7264498873050296	33.99717	5.830709
1.7439786438872935	33.306107	5.7711444
1.7615074412801288	32.406944	5.69271
1.779036279893981	31.543575	5.616367
1.796565160139305	30.226566	5.497869
1.814094082426564	29.759739	5.455249
1.8316230471662298	29.06657	5.391342
1.849152054768784	28.194355	5.309836
1.8666811056447168	27.920603	5.283995
1.8842102002045273	27.105387	5.2062836
1.901739338858724	26.717604	5.168907
1.9192685220178245	26.210636	5.1196322
1.9367977500923557	25.436699	5.043481
1.9543270234928547	25.001236	5.0001235
1.971856342629867	24.154345	4.914707
1.9893857079139496	23.904005	4.889172
2.006915119755667	23.431303	4.840589
2.0244445785655945	22.797462	4.7746687
2.0419740847543175	22.266512	4.7187405
2.0595036387324317	21.687857	4.6570225
2.0770332409105414	21.212164	4.6056666
2.094562891699263	20.561745	4.534506
2.1120925915092217	19.961546	4.4678345
2.129622340751053	19.764294	4.445705
2.1471521398354043	187.98953	13.710927
2.1646819891729323	444.3858	21.08046
2.182211889174303	440.49857	20.988058
2.1997418402501974	452.96494	21.282972
2.2172718428113023	432.87155	20.805565
2.234801897268317	320.91702	17.914158
2.2523320040319548	17.577717	4.192579
2.269862163512935	17.384485	4.169471
2.287392376121992	17.044695	4.128522
2.304922642269869	16.57869	4.071694
2.322452962367322	16.102425	4.0127826
2.3399833368251164	15.724391	3.9653993
2.357513766054032	15.190435	3.897491
2.3750442504648586	15.102114	3.886144
2.3925747904683963	14.844301	3.8528302
2.410105386475459	14.797447	3.846745
2.4276360388968707	14.531808	3.8120608
2.445166748143469	14.269888	3.7775505
2.4626975146261025	14.021132	3.7444804
2.4802283387556323	13.825049	3.7182052
2.4977592209429305	13.608455	3.688964
2.5152901615988825	13.242538	3.63903
2.5328211611343865	13.024828	3.6089926
2.5503522199603523	12.728929	3.5677624
2.5678833384877024	12.627468	3.553515
2.5854145171273712	12.422786	3.5245972
2.6029457562903064	12.330546	3.5114877
2.620477056387469	12.121555	3.4816024
2.6380084178298326	11.891711	3.448436
2.655539841028383	11.677137	3.4171827
2.673071326394119	11.481767	3.3884757
2.6906028743380523	11.386684	3.374416
2.708134485271211	11.13527	3.3369553
2.7256661596046325	10.896333	3.3009593
2.743197897749369	10.614612	3.2580073
2.760729700116486	10.531869	3.245284
2.778261567117063	10.410621	3.2265494
2.795793499162193	10.3073845	3.2105114
2.8133254966629817	10.201736	3.1940157
2.830857560030551	10.03079	3.1671424
2.8483896896760337	9.918481	3.149362
2.865921886010578	9.853732	3.1390655
2.883454149445347	9.733493	3.1198547
2.9009864803915177	9.625031	3.1024234
2.91851887926028	9.397751	3.0655751
2.9360513464628384	9.100941	3.0167766
2.953583882410413	9.059954	3.0099757
2.9711164875142373	8.943813	2.9906209
2.9886491621855606	8.920928	2.9867923
3.0061819068356455	8.769828	2.9613895
3.023714721875769	8.595942	2.9318836
3.041247607717225	8.381852	2.8951428
3.0587805647713213	8.257401	2.8735695
3.0763135934493806	8.182249	2.8604631
3.0938466941627407	8.09552	2.8452628
3.1113798673227544	8.082586	2.842989
3.1289131133407904	7.9457316	2.8188174
3.1464464326282315	7.918388	2.813963
3.1639798255964786	7.805653	2.79386
3.1815132926569443	7.60563	2.7578306
3.1990468342210603	7.578943	2.7529879
3.216580450700272	7.5014825	2.7388835
3.2341141425060416	7.444548	2.7284698
3.251647910049847	7.3209577	2.7057269
3.2691817537431813	7.1857657	2.6806278
3.286715673997555	7.107929	2.66607
3.3042496712244938	7.155074	2.674897
3.32178374583554	7.0501647	2.6552145
3.339317898242251	7.024368	2.6503525
3.3568521288562034	6.8118305	2.6099484
3.3743864380889876	6.735163	2.5952194
3.3919208263522127	6.6892257	2.5863538
3.4094552940575023	6.6313424	2.5751393
3.4269898416164972	6.619529	2.5728445
3.444524469440858	6.5174565	2.552931
3.4620591779422587	6.4491196	2.5395117
3.479593967532391	6.3954816	2.528929
3.4971288386229658	6.3112354	2.5122173
3.5146637916257086	6.268745	2.5037463
3.5321988269523628	6.3111844	2.512207
3.5497339450146903	6.3570514	2.5213194
3.5672691462244708	6.3511295	2.5201447
3.5848044309934988	6.3099866	2.5119686
3.60233979973359	6.3819375	2.5262496
3.619875252856575	6.484126	2.5463948
3.6374107907743034	6.5384316	2.5570357
3.6549464138986427	6.4789753	2.5453832
3.6724821226414788	6.378107	2.5254915
3.690017917414714	6.295026	2.508989
3.7075537986302702	6.36301	2.5225008
3.7250897667000857	6.486473	2.5468554
3.7426258220361235	6.7164154	2.5916047
3.7601619650503553	6.9058585	2.6279001
3.777698196154779	7.50711	2.7399106
3.7952345157614067	8.51447	2.9179566
3.8127709242822716	9.373371	3.0615962
3.830307422129425	11.548194	3.3982635
3.847844009714936	30.336872	5.5078917
3.8653806874508954	97.73486	9.886094
3.882917455749409	97.09598	9.853729
3.900454315022606	96.8322	9.840335
3.917991265682631	41.452415	6.438355
3.9355283081416506	11.063851	3.3262367
3.9530654428118495	8.829412	2.9714327
3.970602670105433	7.5283866	2.7437906
3.9881399904346244	6.687559	2.5860314
4.005677404211669	6.6381655	2.5764637
4.023214911848827	6.6119695	2.5713751
4.0407525137583855	6.5875697	2.566626
4.058290210352644	6.4888544	2.547323
4.075828002043927	6.3579397	2.5214956
4.0933658892445814	6.2727427	2.5045445
4.110903872366966	6.1767006	2.485297
4.128441951823468	6.1580925	2.4815505
4.145980128026488	6.1378784	2.4774742
4.163518401388452	6.1500444	2.4799283
4.181056772321807	6.190472	2.488066
4.1985952412390155	6.188112	2.4875915
4.216133808552567	6.244409	2.4988816
4.233672474674966	6.4228272	2.5343297
4.251211240018741	6.5760813	2.564387
4.268750104996445	6.8030357	2.608263
4.286289070020643	7.6512427	2.766088
4.303828135503928	9.399882	3.0659227
4.3213673018589125	29.839352	5.4625406
4.3389065694982305	90.960144	9.537303
4.356445938834537	166.18515	12.891282
4.3739854102805085	171.2883	13.087715
4.391524984248844	171.99727	13.114773
4.409064661152262	135.90034	11.65763
4.426604441403504	96.26006	9.811221
4.444144325415337	75.54081	8.6914215
4.461684313600543	21.662193	4.6542664
4.47922440637193	22.262955	4.718364
4.496764604142329	20.610523	4.539881
4.5143049073245916	18.7435	4.329376
4.531845316331589	16.606327	4.075086
4.5493858315762195	13.708009	3.7024329
4.566926453471405	11.348002	3.3686795
4.584467182430081	9.348142	3.0574732
4.602008018865218	8.127138	2.8508136
4.619548963189798	7.49838	2.738317
4.637090015816834	7.13006	2.6702173
4.654631177159353	6.850132	2.6172757
4.672172447630417	6.6370916	2.5762553
4.689713827643102	6.4466686	2.5390291
4.7072553176105085	6.284138	2.5068183
4.724796917945764	6.049494	2.4595718
4.742338629062015	5.9289503	2.4349437
4.759880451372434	5.8357525	2.4157302
4.777422385290215	5.7824965	2.4046822
4.794964431228581	5.7059326	2.3887093
4.812506589600768	5.6765523	2.3825517
4.830048860820047	5.735658	2.3949234
4.847591245299709	5.787137	2.4056468
4.8651337434530655	5.8399234	2.4165933
4.882676355693457	5.8719277	2.423206
4.900219082434242	5.898068	2.4285939
4.917761924088813	5.799216	2.4081562
4.935304881070575	5.669255	2.3810196
4.952847953792969	5.5508614	2.3560266
4.970391142669449	5.510322	2.3474076
4.9879344481135055	5.5702705	2.360142
5.005477870538642	5.5828586	2.3628073
5.023021410358394	5.61012	2.3685691
5.040565067986324	5.6000123	2.3664346
5.05810884383601	5.547681	2.3553514
5.075652738321066	5.4902368	2.3431253
5.09319675185512	5.4845934	2.3419209
5.110740884851836	5.4786744	2.3406568
5.128285137724894	5.444189	2.3332787
5.145829510888007	5.3928256	2.3222458
5.163374004754908	5.3848505	2.320528
5.1809186197393595	5.3400183	2.310848
5.198463356255145	5.3593087	2.3150182
5.216008214716077	5.418213	2.3277054
5.233553195535998	5.4137115	2.3267384
5.251098299128764	5.4860177	2.3422248
5.268643525908272	5.4797363	2.3408837
5.286188876288432	5.477371	2.3403785
5.3037343506831895	5.459011	2.3364527
5.32127994950651	5.456647	2.3359468
5.3388256731723915	5.4175754	2.3275685
5.356371522094851	5.426854	2.329561
5.373917496687938	5.411951	2.32636
5.391463597365729	5.35432	2.3139403
5.40900982454232	5.28012	2.297851
5.426556178631843	5.2536273	2.2920792
5.444102660048449	5.2484016	2.290939
5.4616492692063225	5.2838955	2.2986724
5.479196006519669	5.3266563	2.307955
5.496742872402727	5.366085	2.316481
5.514289867269756	5.334355	2.3096223
5.531836991535049	5.270771	2.295816
5.549384245612924	5.1829524	2.27661
5.566931629917724	5.231307	2.287205
5.584479144863822	5.178038	2.2755303
5.6020267908656205	5.148631	2.2690594
5.619574568337545	5.177286	2.275365
5.637122477694054	5.2165074	2.2839675
5.654670519349629	5.253725	2.2921007
5.672218693718784	5.182966	2.276613
5.689767001216059	5.0681696	2.2512596
5.707315442256021	5.0682087	2.2512681
5.724864017253266	5.1445236	2.2681541
5.7424127266224225	5.193138	2.2788458
5.75996157077814	5.2707443	2.2958102
5.777510550135105	5.265452	2.2946572
5.795059665108022	5.233222	2.2876236
5.812608916111639	5.1938653	2.2790053
5.830158303560715	5.2871404	2.2993782
5.847707827870055	5.345881	2.3121161
5.86525748945448	5.440663	2.3325229
5.8828072887288485	5.5397935	2.3536766
5.900357226108044	5.595635	2.3655095
5.917907302006979	5.668119	2.3807812
5.9354575168406	6.3207827	2.5141168
5.9530078710238765	6.965856	2.6392908
5.970558364971812	7.5332355	2.744674
5.988108999099438	7.856185	2.8028886
6.005659773821818	8.483665	2.9126732
6.023210689554039	8.228375	2.8685145
6.040761746711227	8.568435	2.9271889
6.058312945708531	7.9197645	2.8142076
6.075864286961132	7.401179	2.7205107
6.093415770884244	6.6753163	2.5836635
6.1109673978931065	6.2129455	2.492578
6.128519168402993	5.6632967	2.3797681
6.146071082829204	5.558282	2.357601
6.163623141587075	5.384238	2.320396
6.181175345091969	5.29549	2.3011932
6.198727693759281	5.2290735	2.2867167
6.216280188004435	5.193313	2.2788842
6.233832828242885	5.1573763	2.2709858
6.251385614890126	5.1436605	2.267964
6.268938548361669	5.106074	2.2596624
6.286491629073067	5.096986	2.2576506
6.304044857439898	5.1005754	2.2584453
6.321598233877777	5.03749	2.2444353
6.339151758802344	4.9818707	2.2320104
6.356705432629277	4.963805	2.2279599
6.37425925577428	4.9101033	2.2158754
6.391813228653095	4.9255805	2.219365
6.409367351681486	4.9704003	2.2294395
6.426921625275259	5.0056176	2.2373238
6.44447604985025	5.049488	2.2471066
6.46203062582232	5.2085733	2.28223
6.47958535360737	5.218844	2.284479
6.497140233621328	5.2043653	2.2813077
6.514695266280161	5.041117	2.2452433
6.532250451999859	5.0345063	2.2437706
6.549805791196454	5.0812755	2.2541685
6.567361284286002	5.1894703	2.278041
6.584916931684597	5.2084384	2.2822003
6.602472733808367	5.1598682	2.2715344
6.6200286910734665	5.0805235	2.2540016
6.637584803896092	5.0633965	2.2501993
6.655141072692462	5.0908885	2.2562997
6.672697497878842	5.1030393	2.2589908
6.690254079871514	5.14103	2.2673838
6.707810819086808	5.1403565	2.2672355
6.725367715941078	5.1293364	2.264804
6.742924770850719	5.084876	2.254967
6.760481984232151	5.0238633	2.2413976
6.778039356501836	5.036121	2.2441304
6.795596888076266	5.0376773	2.244477
6.813154579371963	5.031671	2.2431386
6.830712430805492	5.078146	2.2534742
6.84827044279344	5.091552	2.2564466
6.865828615752445	5.086595	2.2553482
6.883386950099159	5.0805	2.2539964
6.900945446250287	5.0786996	2.253597
6.918504104622553	5.0500717	2.2472365
6.936062925632727	5.0557623	2.2485023
6.953621909697607	5.103589	2.2591124
6.971181057234028	5.174314	2.2747118
6.988740368658859	5.1611295	2.271812
7.006299844389007	5.182679	2.2765498
7.023859484841407	5.2080975	2.2821257
7.041419290433036	5.3314424	2.3089917
7.058979261580902	5.4980936	2.3448014
7.0765393987020495	5.7371087	2.3952262
7.094099702213559	6.1285486	2.4755905
7.111660172532549	6.4800143	2.5455873
7.129220810076164	6.825138	2.6124966
7.146781615261595	7.4593534	2.7311816
7.16434258850606	7.736199	2.7814023
7.181903730226821	8.145433	2.8540206
7.1994650408411704	8.21273	2.865786
7.217026520766437	8.316389	2.883815
7.234588170419983	8.52253	2.9193373
7.252149990219215	8.541437	2.9225738
7.269711980581568	8.431198	2.9036524
7.2872741419245175	8.292422	2.8796566
7.304836474665574	7.7886415	2.7908137
7.322398979222286	7.496566	2.7379856
7.339961656012233	7.224054	2.68776
7.357524505453039	6.9240117	2.6313517
7.375087527962357	6.6442857	2.5776513
7.392650723957886	6.369276	2.5237424
7.410214093857353	6.0163417	2.4528232
7.427777638078528	5.805827	2.4095285
7.445341357039213	5.6609926	2.3792841
7.4629052511572525	5.5614057	2.3582633
7.480469320850524	5.4778185	2.340474
7.498033566536948	5.393586	2.3224096
7.5155979886344735	5.350439	2.3131015
7.5331625875610975	5.2820506	2.2982712
7.550727363734844	5.267446	2.2950916
7.568292317573788	5.2302628	2.2869768
7.585857449496025	5.2397394	2.2890477
7.603422759919705	5.22527	2.2858849
7.620988249263007	5.2564	2.292684
7.638553917944147	5.2859535	2.2991202
7.656119766381391	5.323362	2.3072412
7.673685794993023	5.3477025	2.31251
7.691252004197388	5.3283777	2.308328
7.70881839441285	5.250963	2.291498
7.726384966057826	5.246794	2.2905881
7.743951719550762	5.3033266	2.3028953
7.761518655310149	5.343533	2.3116083
7.779085773754511	5.3731766	2.3180113
7.796653075302419	5.3412127	2.3111064
7.814220560372475	5.3583097	2.3148024
7.831788229383323	5.385991	2.3207738
7.8493560827536495	5.3801174	2.319508
7.866924120902174	5.339904	2.3108232
7.884492344247663	5.347463	2.3124583
7.9020607532089135	5.3328905	2.3093052
7.919629348204771	5.3703666	2.3174052
7.937198129654115	5.3618426	2.3155653
7.954767097975865	5.354908	2.3140674
7.972336253588986	5.3789062	2.319247
7.989905596912472	5.417293	2.327508
8.007475128365371	5.4032025	2.3244789
8.025044848366756	5.419214	2.3279204
8.042614757335754	5.531285	2.3518684
8.060184855691523	5.59478	2.3653288
8.07775514385327	5.751724	2.3982751
8.095325622240228	5.879566	2.4247816
8.112896291271687	5.8557296	2.4198616
8.130467151366968	5.927806	2.4347086
8.148038202945436	5.9800496	2.445414
8.165609446426497	6.0553966	2.4607716
8.183180882229594	6.070728	2.4638846
8.200752510774217	5.9979467	2.4490707
8.218324332479893	5.994836	2.4484353
8.235896347766193	6.0169864	2.4529545
8.253468557052724	6.0754585	2.4648445
8.27104096075914	6.050261	2.4597278
8.288613559305137	6.03428	2.4564772
8.306186353110448	6.0656466	2.4628534
8.32375934259485	6.109169	2.4716733
8.341332528178162	6.1629696	2.482533
8.358905910280246	6.1895804	2.4878867
8.376479489321003	6.179167	2.4857929
8.394053265720377	6.206451	2.491275
8.411627239898356	6.247813	2.4995625
8.42920141227497	6.3017454	2.5103278
8.44677578327029	6.3419375	2.5183203
8.464350353304427	6.3679347	2.5234766
8.48192512279754	6.337973	2.517533
8.499500092169827	6.2646637	2.502931
8.51707526184153	6.159256	2.4817848
8.534650632232934	6.131148	2.4761155
8.552226203764365	6.1376724	2.4774327
8.569801976856192	6.158341	2.4816005
8.587377951928834	6.1896667	2.487904
8.60495412940274	6.1740775	2.484769
8.622530509698416	6.206789	2.4913428
8.6401070932364	6.385064	2.5268683
8.657683880437283	6.605867	2.570188
8.675260871721695	6.8525605	2.6177397
8.692838067510303	6.9576936	2.637744
8.710415468223834	7.055266	2.6561751
8.727993074283043	7.1919518	2.6817815
8.745570886108737	7.2234483	2.6876473
8.763148904121765	7.230187	2.6889007
8.78072712874302	7.1764865	2.6788964
8.798305560393441	7.3877096	2.718034
8.815884199494006	7.525527	2.7432694
8.833463046465745	7.7704873	2.7875593
8.851042101729728	7.9929037	2.8271723
8.86862136570707	8.30905	2.8825421
8.886200838818924	8.453921	2.9075627
8.903780521486505	8.495269	2.9146645
8.921360414131055	8.616316	2.9353561
8.938940517173874	8.780285	2.9631546
8.956520831036297	8.902972	2.983785
8.97410135613971	9.121145	3.0201235
8.99168209290554	9.224626	3.037207
9.009263041755265	9.575319	3.0944014
9.026844203110405	9.825312	3.1345353
9.044425577392525	10.050034	3.170179
9.062007165023239	10.070409	3.1733906
9.079588966424197	10.243533	3.200552
9.097170982017108	10.296001	3.2087383
9.11475321222372	11.284657	3.3592644
9.132335657465825	12.298137	3.50687
9.149918318165264	12.51601	3.5377975
9.167501194743924	13.067319	3.6148746
9.18508428762374	12.695733	3.5631073
9.202667597226693	12.673389	3.5599704
9.220251123974803	12.30367	3.5076587
9.237834868290143	12.027152	3.4680185
9.255418830594836	11.922576	3.4529083
9.273003011311046	11.39946	3.3763087
9.290587410860985	11.146225	3.3385963
9.308172029666911	10.3897085	3.2233071
9.32575686815113	10.010909	3.1640022
9.343341926735997	8.688806	2.947678
9.360927205843916	8.475374	2.9112496
9.378512705897327	8.399847	2.898249
9.396098427318728	8.238178	2.8702226
9.413684370530664	8.218249	2.8667488
9.431270535955722	8.087063	2.8437762
9.448856924016539	8.010225	2.830234
9.466443535135806	7.85701	2.8030357
9.484030369736251	7.793449	2.7916749
9.501617428240658	7.861649	2.8038633
9.519204711071852	7.915336	2.8134208
9.536792218652714	7.934089	2.8167515
9.55437995140617	7.9066615	2.8118787
9.571967909755191	7.8891263	2.8087587
9.589556094122802	7.8915615	2.8091924
9.60714450493207	7.96258	2.8218045
9.624733142606116	8.026051	2.8330286
9.642322007568108	8.227496	2.8683612
9.659911100241267	8.264898	2.8748736
9.677500421048851	8.254156	2.8730047
9.695089970414175	8.208364	2.865024
9.712679748760609	8.181055	2.8602543
9.730269756511557	8.236483	2.8699272
9.747859994090492	8.234105	2.869513
9.765450461920915	8.318067	2.884106
9.78304116042639	8.320225	2.88448
9.800632090030527	8.354101	2.8903463
9.81822325115699	8.357949	2.8910117
9.835814644229481	8.409898	2.8999825
9.853406269671762	8.456538	2.9080129
9.870998127907646	8.421956	2.9020607
9.888590219360985	8.407784	2.899618
9.906182544455698	8.3958645	2.8975618
9.923775103615734	8.383235	2.8953817
9.941367897265108	8.367416	2.8926487
9.958960925827878	8.416089	2.9010496
9.97655418972816	8.501471	2.915728
9.994147689390106	8.468212	2.9100192
10.011741425237934	8.357639	2.8909583
10.029335397695904	8.26387	2.8746948
10.04692960718833	8.232824	2.8692899
10.06452405413958	8.2387905	2.8703294
10.082118738974064	8.270636	2.8758712
10.099713662116246	8.279056	2.8773348
10.117308823990651	8.251042	2.8724627
10.134904225021844	8.1830015	2.8605945
10.152499865634445	8.160697	2.8566933
10.170095746253125	8.205922	2.864598
10.18769186730261	8.274774	2.8765907
10.205288229207675	8.278576	2.8772514
10.222884832393145	8.190857	2.8619673
10.2404816772839	8.197961	2.863208
10.258078764304868	8.208651	2.8650742
10.275676093881035	8.259542	2.873942
10.293273666437438	8.205941	2.8646014
10.310871482399158	8.211628	2.865594
10.32846954219134	8.1919985	2.8621666
10.346067846239173	8.227897	2.868431
10.363666394967908	8.321896	2.8847697
10.38126518880283	8.328518	2.8859172
10.398864228169298	8.268185	2.8754451
10.416463513492713	8.172943	2.858836
10.434063045198531	8.170526	2.8584132
10.451662823712262	8.311562	2.882978
10.469262849459467	8.315436	2.8836498
10.486863122865758	8.240682	2.8706586
10.504463644356806	8.159375	2.856462
10.522064414358338	8.111368	2.8480463
10.539665433296118	7.99728	2.8279462
10.557266701595987	7.965659	2.82235
10.574868219683818	7.9081926	2.812151
10.592469987985552	7.867709	2.8049438
10.610072006927185	7.7329187	2.7808125
10.627674276934751	7.5663476	2.7506995
10.64527679843435	7.4332175	2.7263927
10.662879571852143	7.310044	2.7037094
10.680482597614331	7.2379937	2.690352
10.698085876147173	7.1304803	2.670296
10.715689407876988	7.1189094	2.6681285
10.733293193230146	7.1011086	2.6647906
10.750897232633072	6.980585	2.6420796
10.76850152651225	6.823744	2.6122296
10.786106075294207	6.6482496	2.57842
10.803710879405534	6.5346866	2.5563033
10.821315939272877	6.455898	2.5408459
10.83892125532294	6.3329544	2.5165362
10.856526827982472	6.2740483	2.504805
10.874132657678285	6.292381	2.508462
10.891738744837243	6.307351	2.511444
10.909345089886271	6.2575064	2.5015008
10.926951693252343	6.123162	2.4745023
10.944558555362494	6.0523143	2.4601452
10.96216567664381	6.0076656	2.451054
10.979773057523436	6.000424	2.4495764
10.997380698428573	5.980995	2.4456074
11.014988599786477	5.8574367	2.4202142
11.032596762024461	5.7101765	2.3895977
11.050205185569892	5.64848	2.3766532
11.067813870850198	5.594635	2.365298
11.085422818292859	5.6284075	2.3724265
11.10303202832541	5.520917	2.3496633
11.120641501375454	5.467909	2.338356
11.138251237870636	5.3653884	2.316331
11.155861238238671	5.3234115	2.307252
11.173471502907317	5.2360325	2.2882378
11.191082032304402	5.1362305	2.2663252
11.208692826857805	5.131134	2.2652006
11.226303886995465	5.1017957	2.2587154
11.243915213145371	5.0726523	2.252255
11.261526805735578	4.9636	2.2279139
11.279138665194196	4.9067283	2.2151136
11.296750791949393	4.852919	2.2029343
11.314363186429393	4.8235154	2.1962502
11.331975849062479	4.8133407	2.1939328
11.34958878027699	4.771542	2.184386
11.36720198050133	4.7421045	2.1776373
11.384815450163948	4.699867	2.1679177
11.402429189693366	4.649359	2.1562374
11.420043199518153	4.5879426	2.1419482
11.437657480066942	63.537563	7.9710455
11.455272031768422	85.2596	9.233612
11.472886855051353	107.61717	10.37387
11.490501950344528	99.18187	9.959009
11.508117318076819	84.4634	9.190397
11.52573295867715	45.776737	6.765851
11.543348872574514	4.0878453	2.021842
11.560965060197946	4.083337	2.020727
11.57858152197655	4.0731745	2.0182106
11.59619825833949	3.9872513	1.9968103
11.613815269715985	3.9595191	1.9898541
11.631432556535323	38.489693	6.204006
11.649050119226837	83.03659	9.112441
11.666667958219929	93.41739	9.665267
11.68428607394406	107.63744	10.374846
11.701904466828756	82.48112	9.081911
11.719523137303586	65.40333	8.087233
11.737142085798196	4.6289806	2.1515067
11.754761312742286	3.6930544	1.9217322
11.772380818565619	3.6202385	1.9026924
11.790000603698015	3.601665	1.8978053
11.80762066856935	3.6212974	1.9029707
11.825241013609572	3.5916488	1.8951646
11.842861639248683	3.5426395	1.8821901
11.860482545916748	3.486921	1.86733
11.878103734043883	3.4830596	1.8662957
11.895725204060282	3.4956095	1.8696549
11.91334695639619	3.5116801	1.8739477
11.930968991481919	3.4405847	1.8548813
11.948591309747824	3.3970778	1.8431163
11.966213911624347	3.3519433	1.8308313
11.98383679754198	3.3320968	1.8254032
12.001459967931268	3.3246958	1.8233749
12.019083423222835	3.3240871	1.823208
12.036707163847352	3.3155057	1.820853
12.05433119023556	3.2938097	1.8148856
12.071955502818259	3.283268	1.811979
12.089580102026313	3.2485857	1.8023833
12.107204988290643	3.2379339	1.799426
12.12483016204224	3.200099	1.788882
12.142455623712152	3.1746309	1.7817494
12.16008137373149	3.1778786	1.7826606
12.177707412531431	3.13148	1.7695988
12.19533374054321	3.0858927	1.756671
12.212960358198126	3.0243556	1.7390674
12.230587265927545	3.00591	1.7337561
12.248214464162889	3.029277	1.7404819
12.265841953335649	3.0221832	1.7384428
12.283469733877375	2.9833918	1.7272497
12.301097806219685	2.9869852	1.7282897
12.31872617079425	2.9920785	1.7297626
12.336354828032825	2.956926	1.7195715
12.353983778367205	2.9130697	1.7067717
12.371613022229262	2.9013917	1.7033472
12.389242560050928	2.9559734	1.7192944
12.406872392264201	2.9595149	1.720324
12.424502519301143	2.9394412	1.7144799
12.442132941593874	2.866173	1.6929775
12.459763659574586	2.8422766	1.6859052
12.477394673675532	2.8681376	1.6935576
12.49502598432903	2.872228	1.6947649
12.51265759196746	2.8667243	1.6931404
12.530289497023267	2.8482487	1.6876756
12.547921699928967	2.8294084	1.6820846
12.565554201117134	2.8356204	1.68393
12.583187001020404	2.8132133	1.6772636
12.600820100071486	2.8010895	1.6736456
12.618453498703152	2.7671144	1.6634645
12.636087197348235	2.7327442	1.6531014
12.65372119643964	2.744546	1.6566671
12.671355496410326	2.7905781	1.6705023
12.68899009769333	2.8696072	1.6939915
12.706625000721749	2.8965883	1.7019366
12.724260205928752	2.9572594	1.7196684
12.741895713747551	2.9629653	1.7213266
12.759531524611454	3.014916	1.7363514
12.777167638953818	3.0230694	1.7386976
12.794804057208072	3.0319946	1.7412623
12.812440779807702	3.080502	1.7551359
12.830077807186271	3.2697222	1.8082373
12.847715139777405	3.3033311	1.8175068
12.865352778014795	3.5056345	1.872334
12.882990722332197	3.606862	1.8991741
12.90062897316344	3.7090144	1.9258802
12.918267530942412	3.767507	1.9410067
12.935906396103071	3.6270795	1.9044893
12.953545569079449	3.7927563	1.9475
12.971185050305628	3.6298747	1.905223
12.988824840215775	3.6469624	1.9097022
13.006464939244115	3.5914874	1.895122
13.024105347824943	3.3970323	1.843104
13.041746066392617	3.482336	1.8661019
13.05938709538157	3.349118	1.8300595
13.077028435226296	3.3885968	1.8408141
13.094670086361363	3.3257532	1.8236648
13.112312049221401	3.2503548	1.8028741
13.129954324241112	3.1497521	1.774754
13.147596911855258	2.9522839	1.7182212
13.165239812498685	2.9155738	1.7075051
13.182883026606293	2.8278613	1.6816247
13.200526554613058	2.770747	1.664556
13.218170396954017	2.7414808	1.6557418
13.235814554064284	2.7159736	1.6480211
13.253459026379034	2.7295594	1.6521379
13.271103814333523	2.7126458	1.6470112
13.288748918363058	2.750125	1.6583501
13.306394338903031	2.744682	1.6567082
13.32404007638889	2.733776	1.6534134
13.341686131256164	2.7341442	1.6535248
13.359332503940449	2.721117	1.6495808
13.376979194877402	2.6919372	1.6407124
13.394626204502751	2.694284	1.6414274
13.412273533252307	2.6932547	1.6411139
13.429921181561937	2.70275	1.6440042
13.447569149867581	2.715327	1.6478249
13.465217438605247	2.7416046	1.6557791
13.482866048211022	2.685977	1.638895
13.500514979121052	2.6228318	1.6195159
13.518164231771568	2.575828	1.6049386
13.535813806598844	2.6037536	1.613615
13.553463704039254	2.6323326	1.6224464
13.571113924529229	2.6674895	1.6332451
13.588764468505275	2.7017257	1.6436927
13.606415336403956	2.735667	1.6539851
13.624066528661917	2.7546065	1.6597008
13.641718045715882	2.840845	1.6854807
13.659369888002635	2.9079769	1.7052791
13.67702205595903	2.9565356	1.719458
13.694674550021993	2.992942	1.7300122
13.712327370628532	3.06709	1.751311
13.729980518215713	3.1641119	1.778795
13.747633993220681	3.2165093	1.793463
13.765287796080647	3.204219	1.7900332
13.7829419272329	3.2030954	1.7897193
13.800596387114801	3.2710602	1.8086072
13.818251176163775	3.3790874	1.8382294
13.835906294817324	3.4503963	1.8575243
13.853561743513023	3.4729826	1.863594
13.871217522688525	3.4817154	1.8659356
13.888873632781538	3.4891708	1.8679322
13.906530074229858	3.5112262	1.8738266
13.92418684747135	3.4921486	1.8687291
13.941843952943948	3.4631386	1.860951
13.959501391085665	3.432181	1.8526146
13.977159162334578	3.3832455	1.8393601
13.994817267128846	3.367931	1.8351923
14.012475705906693	3.3046806	1.817878
14.030134479106424	3.2430382	1.8008437
14.047793587166414	3.1880512	1.7855115
14.065453030525108	3.162542	1.7783538
14.083112809621026	3.0974414	1.7599549
14.100772924892766	3.034679	1.742033
14.118433376778997	2.9810708	1.7265778
14.136094165718458	2.9047847	1.7043428
14.153755292149969	2.8197024	1.679197
14.171416756512416	2.7429771	1.6561936
14.189078559244768	2.7031841	1.6441363
14.20674070078606	2.654905	1.629388
14.224403181575408	2.5825326	1.607026
14.242066002051999	2.5349283	1.5921458
14.259729162655093	2.506493	1.5831908
14.277392663824022	2.5083122	1.5837651
14.295056505998208	2.4631176	1.5694323
14.312720689617128	2.413188	1.5534439
14.330385215120348	2.3651795	1.537914
14.348050082947497	2.3741333	1.5408223
14.3657152935383	2.3997362	1.5491081
14.383380847332528	2.4517531	1.5658075
14.401046744770051	2.4595509	1.5682955
14.418712986290798	2.4529943	1.5662038
14.436379572334793	2.4188945	1.5552796
14.454046503342123	2.391086	1.5463138
14.471713779752946	2.3587234	1.5358136
14.489381402007504	2.355746	1.5348439
14.507049370546113	2.365737	1.5380952
14.524717685809168	2.4118376	1.5530092
14.542386348237134	2.4052284	1.5508798
14.560055358270553	2.4341543	1.5601777
14.577724716350051	2.4433255	1.563114
14.595394422916325	2.4706774	1.5718389
14.61306447841015	2.5304687	1.5907447
14.63073488327237	2.552919	1.5977856
14.648405637943917	2.555866	1.5987076
14.6660767428658	2.4862325	1.5767791
14.683748198479094	2.4897163	1.5778835
14.701420005224954	2.595837	1.6111602
14.719092163544628	2.6730425	1.6349442
14.73676467387942	2.7184296	1.648766
14.754437536670727	2.716402	1.6481512
14.772110752360014	2.6999092	1.6431401
14.78978432138882	2.6612332	1.6313287
14.807458244198777	2.6384356	1.6243262
14.82513252123159	2.6351445	1.6233128
14.842807152929028	2.6867085	1.6391182
14.860482139732962	2.698885	1.6428283
14.87815748208531	2.7155292	1.6478863
14.8958331804281	2.6860654	1.638922
14.91350923520342	2.62091	1.6189225
14.931185646853438	2.6311796	1.622091
14.948862415820408	2.6336	1.6228371
14.966539542546656	2.6532128	1.6288686
14.98421702747459	2.6290407	1.6214317
15.001894871046696	2.643055	1.6257476
15.019573073705542	2.6520238	1.6285036
15.037251635893766	2.6558788	1.6296867
15.054930558054092	2.6709611	1.6343075
15.072609840629323	2.7238855	1.6504198
15.090289484062351	2.861625	1.6916338
15.107969488796124	3.1312766	1.7695414
15.125649855273691	3.533133	1.879663
15.14333058393817	4.014752	2.0036845
15.161011675232768	5.0219383	2.2409682
15.17869312960076	6.4257026	2.5348969
15.196374947485506	8.261177	2.8742263
15.214057129330447	11.328359	3.3657627
15.231739675579114	16.083939	4.0104785
15.249422586675102	21.2139	4.605855
15.267105863062092	24.42152	4.9418135
15.284789505183847	24.767838	4.9767294
15.302473513484218	22.79122	4.774015
15.320157888407127	19.131195	4.3739223
15.337842630396578	14.90521	3.8607266
15.355527739896656	11.550158	3.3985522
15.37321321735153	9.034627	3.0057657
15.39089906320545	6.6018705	2.5694106
15.408585277902748	4.9709463	2.2295618
15.42627186188783	3.7725222	1.9422982
15.443958815605198	3.1666923	1.7795203
15.461646139499424	2.861229	1.6915168
15.479333834015168	2.7539077	1.6594902
15.497021899597165	2.7204237	1.6493707
15.514710336690234	2.6884081	1.6396366
15.53239914573928	2.603788	1.6136256
15.550088327189297	2.542584	1.5945482
15.567777881485336	2.4542072	1.5665909
15.58546780907256	2.4311182	1.5592043
15.6031581103962	2.410499	1.5525782
15.620848785901568	2.4526217	1.5660849
15.638539836034063	2.4856691	1.5766006
15.656231261239173	2.5148113	1.5858157
15.673923061962451	2.5054755	1.5828694
15.691615238649552	2.4818735	1.5753963
15.709307791746202	2.4301298	1.5588874
15.727000721698221	2.4102585	1.5525007
15.744694028951498	2.401634	1.5497206
15.76238771395202	2.4088244	1.5520388
15.780081777145844	2.3784537	1.5422236
15.797776218979125	2.3888626	1.5455946
15.815471039898094	2.4053843	1.5509301
15.833166240349064	2.4076273	1.5516531
15.850861820778437	2.3829796	1.5436902
15.868557781632699	2.385435	1.5444853
15.886254123358412	2.370626	1.5396837
15.903950846402232	2.3906696	1.546179
15.921647951210897	2.383407	1.5438287
15.939345438231225	2.3999422	1.5491747
15.957043307910133	2.415986	1.5543443
15.974741560694602	2.4284937	1.5583625
15.992440197031714	2.4224787	1.5564314
16.01013921736862	2.3891485	1.5456871
16.02783862215259	2.3917139	1.5465167
16.045538411830933	2.3928368	1.5468796
16.06323858685107	2.4090497	1.5521114
16.080939147660512	2.3978314	1.5484933
16.09864009470684	2.3996847	1.5490916
16.11634142843774	2.3869252	1.5449677
16.134043149300954	2.3841116	1.5440569
16.15174525774433	2.3941674	1.5473098
16.169447754215817	2.3701978	1.5395447
16.18715063916342	2.3594499	1.5360501
16.204853913035244	2.3746781	1.540999
16.222557576279478	2.4033542	1.5502756
16.240261629344403	22.444887	4.7376037
16.257966072678386	42.992283	6.55685
16.275670906729868	38.136463	6.1754727
16.293376131947387	2.5829332	1.6071507
16.31108174877957	2.563083	1.6009631
16.328787757675133	2.5845873	1.6076652
16.34649415908287	2.5902698	1.6094315
16.364200953451657	2.6121728	1.6162218
16.38190814123048	2.6112201	1.615927
16.39961572286839	2.595556	1.6110729
16.41732369881455	2.6252906	1.6202749
16.43503206951817	2.643291	1.62582
16.45274083542859	2.7134502	1.6472553
16.47044999699522	2.7967823	1.6723583
16.488159554667558	2.899716	1.7028552
16.505869508895184	2.9448621	1.71606
16.523579860127786	2.9197977	1.7087415
16.541290608815117	2.876535	1.696035
16.559001755407035	2.94258	1.715395
16.57671330035348	3.0667238	1.7512064
16.59442524410448	3.193644	1.787077
16.61213758711015	3.2441463	1.8011514
16.629850329820705	3.2969956	1.8157631
16.647563472686436	3.4005597	1.8440607
16.665277016157724	3.4744196	1.8639795
16.682990960685053	3.477491	1.8648032
16.70070530671898	3.4225285	1.8500077
16.718420054710155	3.4758003	1.8643498
16.736135205109335	3.5358324	1.8803809
16.753850758367335	3.611774	1.9004668
16.771566714935087	3.651074	1.9107784
16.789283075263597	3.7152317	1.9274936
16.80699983980398	3.7895033	1.9466647
16.82471700900741	3.8278058	1.9564779
16.84243458332518	3.8753889	1.9686007
16.860152563208665	3.9579973	1.9894717
16.87787094910932	4.0396996	2.0099003
16.89558974147871	4.1349583	2.0334597
16.913308940768466	4.236108	2.0581808
16.931028547430333	4.3125653	2.0766716
16.94874856191613	4.395444	2.0965314
16.966468984677785	4.4027343	2.0982695
16.98418981616729	4.424415	2.1034293
17.00191105683676	4.443052	2.1078548
17.019632707138374	4.4427595	2.1077855
17.03735476752442	4.4901104	2.118988
17.05507723844728	4.554428	2.1341107
17.072800120359403	4.638712	2.1537669
17.090523413713353	4.6613827	2.1590235
17.108247118961785	4.623125	2.1501453
17.125971236557437	4.667902	2.1605327
17.143695766953133	4.747135	2.1787922
17.161420710601806	4.837299	2.1993861
17.179146067956477	4.8559523	2.2036226
17.19687183947025	4.849483	2.2021542
17.21459802559634	4.783349	2.1870868
17.232324626788028	4.7393003	2.1769934
17.25005164349871	4.6576796	2.1581657
17.267779076181863	4.6206837	2.1495776
17.285506925291074	4.6076674	2.1465478
17.30323519127999	4.5676756	2.137212
17.320963874602384	4.518324	2.125635
17.33869297571211	4.5221524	2.1265354
17.356422495063114	4.545045	2.131911
17.37415243310944	4.5512104	2.1333566
17.391882790305218	4.5605416	2.1355424
17.40961356710468	4.542345	2.1312778
17.42734476396215	4.5455713	2.1320345
17.445076381332044	4.543525	2.1315546
17.462808419668868	4.567858	2.1372547
17.48054087942723	4.7161403	2.1716676
17.498273761061835	5.0187354	2.2402534
17.51600706502747	5.5200624	2.3494813
17.533740791779024	6.2573295	2.5014656
17.551474941771485	7.617704	2.7600188
17.56920951545993	8.7402	2.956383
17.586944513299528	11.07913	3.3285327
17.60467993574556	12.786052	3.575759
17.622415783253373	14.49519	3.8072548
17.64015205627843	15.764561	3.9704611
17.657888755276293	16.95323	4.11743
17.675625880702604	17.50324	4.183687
17.69336343301311	17.418673	4.1735682
17.71110141266366	16.60041	4.07436
17.728839820110178	15.620794	3.952315
17.746578655808705	14.660863	3.8289506
17.764317920215372	13.049935	3.6124694
17.7820576137864	11.471014	3.3868885
17.79979773697811	9.397451	3.0655262
17.81753829024692	7.5232406	2.7428527
17.835279274049356	5.863056	2.4213748
17.85302068884201	4.829334	2.1975746
17.870762535081607	4.24065	2.059284
17.888504813224934	4.004997	2.0012488
17.90624752372891	3.8609767	1.9649369
17.923990667050536	3.7488778	1.9362019
17.941734243646895	3.636433	1.9069433
17.959478253975185	3.5891778	1.8945125
17.9772226984927	3.5411658	1.8817985
17.994967577656833	3.4817858	1.8659544
18.01271289192506	3.406866	1.8457698
18.030458641754965	3.354522	1.8315355
18.04820482760425	3.3390553	1.8273082
18.06595144993067	3.3364913	1.8266065
18.083698509192125	3.3355818	1.8263575
18.101446005846576	3.313828	1.8203923
18.119193940352105	3.3130023	1.8201655
18.136942313166887	3.2629707	1.8063694
18.1546911247492	3.2612488	1.8058928
18.1724403755574	3.2374291	1.7992858
18.19019006604997	3.2069	1.790782
18.207940196685467	3.1684544	1.7800152
18.225690767922575	3.0995119	1.7605431
18.243441780220046	3.100692	1.7608782
18.261193234036764	3.0534444	1.7474108
18.278945129831676	3.0679388	1.7515533
18.29669746806386	3.0336506	1.7417378
18.314450249192483	3.0444996	1.7448494
18.3322034736768	3.0605264	1.749436
18.349957141976184	3.0857399	1.7566274
18.3677112545501	3.0948734	1.7592252
18.385465811858108	3.0916464	1.7583078
18.403220814359884	3.0655591	1.7508738
18.420976262515172	3.052166	1.7470449
18.43873215678387	3.0661452	1.7510412
18.456488497625923	3.1442258	1.7731965
18.474245285501407	3.3086753	1.8189764
18.492002520870486	3.392	1.8417383
18.50976020419343	3.3997502	1.8438412
18.527518335930615	3.665474	1.9145428
18.545276916542516	4.3128552	2.0767415
18.563035946489688	4.517961	2.1255496
18.580795426232832	4.993983	2.2347221
18.598555356232698	4.8156643	2.1944623
18.616315736950185	5.128301	2.2645752
18.63407656884626	4.761675	2.1821263
18.65183785238201	4.9871254	2.2331872
18.669599588018617	4.721603	2.172925
18.68736177621737	4.7130275	2.170951
18.705124417439652	4.7078466	2.1697574
18.72288751214696	4.514642	2.1247687
18.740651060800886	4.6072025	2.1464396
18.758415063863115	4.328559	2.080519
18.77617952179546	4.534327	2.129396
18.793944435059814	4.323981	2.0794184
18.811709804118184	4.3280683	2.080401
18.829475629432675	4.2017903	2.0498269
18.8472419114655	3.97315	1.9932762
18.86500865067897	4.0627193	2.0156188
18.88277584753551	3.8014567	1.9497324
18.90054350249763	3.8432872	1.9604304
18.918311616027957	3.554754	1.8854055
18.936080188589226	3.427559	1.8513668
18.953849220644265	3.0711331	1.7524649
18.971618712656007	2.8865716	1.6989914
18.9893886650875	2.8242993	1.6805652
19.007159078401887	8.015758	2.8312113
19.024929953062408	32.852238	5.731687
19.042701289532435	32.835854	5.7302575
19.060473088275405	25.423698	5.042192
19.07824534975489	2.7395747	1.655166
19.096018074434568	2.7125435	1.6469802
19.113791262778197	2.6962779	1.6420346
19.13156491524966	2.6277552	1.6210352
19.149339032312945	2.5614848	1.600464
19.167113614432136	2.5395029	1.5935818
19.184888662071433	2.556625	1.5989449
19.202664175695123	2.5920894	1.6099967
19.220440155767623	2.6123488	1.6162763
19.238216602753447	2.5689487	1.602794
19.2559935171172	2.5309284	1.5908892
19.27377089932361	2.5128453	1.5851957
19.291548749837514	2.5237567	1.5886337
19.309327069123835	2.529251	1.590362
19.32710585764763	2.499674	1.5810357
19.344885115874032	2.4925902	1.5787939
19.362664844268313	2.5033772	1.5822065
19.380445043295822	2.5242095	1.5887761
19.39822571342203	2.501565	1.5816337
19.41600685511252	2.4857435	1.576624
19.43378846883297	2.529446	1.5904232
19.451570555049173	2.5472682	1.5960163
19.469353114227037	2.5237246	1.5886235
19.48713614683254	2.5124717	1.5850778
19.50491965333182	2.5307252	1.5908253
19.52270363419109	2.5238554	1.5886647
19.540488089876686	2.5310612	1.5909309
19.55827302085503	2.4900405	1.5779862
19.576058427592674	2.4692087	1.5713716
19.593844310556282	2.4863281	1.5768095
19.611630670212598	2.5252388	1.5891
19.629417507028506	2.5123901	1.5850521
19.64720482147098	2.5075688	1.5835305
19.6649926140071	2.4866042	1.576897
19.682780885104084	2.5054045	1.582847
19.70056963522921	2.5472064	1.595997
19.718358864849908	2.5578687	1.5993339
19.7361485744337	2.5507622	1.5971106
19.753938764448215	2.5275595	1.58983
19.771729435361202	2.544982	1.5953
19.789520587640506	2.544999	1.5953052
19.807312221754092	2.5648692	1.6015209
19.825104338170043	2.5766404	1.6051917
19.842896937356517	2.5620022	1.6006255
19.860690019781824	2.5272634	1.5897369
19.87848358591436	2.5210505	1.5877817
19.896277636222635	2.526178	1.5893954
19.914072171175278	2.5394857	1.5935764
19.931867191241015	2.5257502	1.5892609
19.94966269688869	2.5153635	1.5859897
19.967458688587264	2.5192888	1.5872267
19.985255166805807	2.5301843	1.5906553
20.00305213201348	2.541458	1.594195
20.020849584679578	2.4967546	1.5801122
20.038647525273507	2.4754772	1.573365
20.05644595426477	2.4736512	1.5727845
20.07424487212299	2.4818301	1.5753826
20.092044279317903	2.4770198	1.573855
20.109844176319353	2.4469779	1.564282
20.127644563597304	2.4418666	1.5626473
20.145445441621817	2.4604695	1.5685884
20.16324681086307	2.4732761	1.5726653
20.181048671791373	2.454641	1.5667294
20.198851024877122	2.4217882	1.5562096
20.216653870590836	2.4496553	1.5651375
20.234457209403146	2.4815273	1.5752864
20.252261041784802	2.473884	1.5728586
20.270065368206662	2.4159155	1.5543215
20.287870189139685	2.3731995	1.5405192
20.305675505054968	2.3654625	1.5380061
20.323481316423702	2.3696728	1.5393741
20.341287623717207	2.3521397	1.5336688
20.359094427406884	2.324032	1.5244776
20.376901727964288	2.3411052	1.5300671
20.39470952586107	2.3320453	1.5271035
20.41251782156899	2.338744	1.5292952
20.430326615559935	2.342651	1.530572
20.448135908305886	2.3582969	1.5356747
20.465945700278965	2.344096	1.5310441
20.483755991951384	2.3315396	1.526938
20.50156678379548	2.3358815	1.528359
20.519378076283708	2.3505433	1.5331482
20.537189869888635	2.3734307	1.5405942
20.55500216508294	2.3531072	1.5339841
20.572814962339415	2.3556197	1.5348028
20.59062826213098	2.334533	1.5279179
20.60844206493066	2.3168082	1.5221065
20.626256371211593	2.330057	1.5264524
20.644071181447032	2.3313022	1.5268602
20.66188649611036	2.3439224	1.5309874
20.67970231567506	2.365567	1.5380399
20.697518640614742	2.360232	1.5363047
20.715335471403122	2.3258429	1.5250714
20.73315280851404	2.3372495	1.5288066
20.750970652421447	2.308973	1.5195305
20.768789003599412	2.2943192	1.514701
20.786607862522136	2.3109505	1.5201811
20.8044272296639	2.338755	1.5292988
20.82224710549913	2.325701	1.5250249
20.84006749050237	2.324063	1.5244879
20.857888385148268	3.8676894	1.9666442
20.8757097899116	45.97376	6.780395
20.893531705267254	64.83022	8.051722
20.911354131690224	83.84186	9.15652
20.92917706965566	69.06832	8.310736
20.94700051963877	50.118484	7.079441
20.96482448211493	29.409779	5.4230785
20.982648957559622	4.1744742	2.043153
21.00047394644843	2.2642887	1.5047554
21.01829944925707	2.2623284	1.5041039
21.036125466461375	2.2733736	1.507771
21.053951998537297	2.3090463	1.5195546
21.071779045960906	2.2679918	1.5059853
21.089606609208378	2.2181857	1.4893575
21.10743468875603	2.1952865	1.4816499
21.12526328508028	2.1972263	1.4823043
21.143092398657675	2.1680841	1.4724416
21.16092202996488	2.1419091	1.4635262
21.17875217947867	2.1470957	1.4652971
21.19658284767596	2.177751	1.4757205
21.21441403503377	2.1911747	1.4802617
21.232245742029225	2.166283	1.4718298
21.2500779691396	2.1623666	1.4704988
21.26791071684227	2.1672962	1.4721739
21.28574398561475	2.1583278	1.4691248
21.30357777593465	2.1717336	1.4736803
21.321412088279704	2.1551137	1.4680306
21.339246923127792	2.1299121	1.4594219
21.357082280956888	2.15532	1.4681008
21.3749181622451	2.1793795	1.4762721
21.392754567470647	2.2078745	1.4858918
21.41059149711187	2.194797	1.4814848
21.42842895164726	2.1685872	1.4726124
21.446266931555378	2.1213691	1.4564921
21.464105437314945	2.098616	1.44866
21.481944469404798	2.131856	1.4600877
21.49978402830388	2.1592155	1.4694269
21.51762411449127	2.1434505	1.4640528
21.53546472844617	2.1327772	1.4604031
21.553305870647876	2.11673	1.4548986
21.571147541575865	2.1247182	1.4576414
21.58898974170967	2.0988817	1.4487518
21.60683247152899	2.1112392	1.4530104
21.62467573151363	2.1358376	1.4614505
21.642519522143523	2.1006474	1.4493611
21.660363843898722	2.0606136	1.4354838
21.6782086972594	2.0370972	1.4272691
21.696054082705864	2.0518599	1.4324315
21.713900000718535	2.0752354	1.4405677
21.73174645177795	2.091242	1.4461128
21.749593436364794	2.0848167	1.4438894
21.767440954959845	2.0451927	1.4301023
21.785289008044032	2.0301924	1.4248482
21.803137596098388	2.0409718	1.4286258
21.820986719604086	2.0337026	1.4260795
21.838836379042412	2.0240343	1.4226856
21.85668657489478	2.0381339	1.4276322
21.87453730764273	2.0363503	1.4270074
21.892388577767914	2.0475554	1.4309282
21.91024038575213	1.9991235	1.4139036
21.928092732077285	1.9806436	1.4073534
21.945945617225426	1.9579297	1.3992604
21.963799041678694	1.9956194	1.4126639
21.981653005919398	31.325195	5.5968914
21.999507510429943	78.15092	8.840301
22.01736255569286	73.08493	8.548972
22.035218142190818	4.1846447	2.0456405
22.05307427040661	2.0098832	1.4177035
22.07093094082315	2.0015643	1.4147666
22.088788153923474	2.0058422	1.4162776
22.106645910190746	2.0176392	1.4204363
22.12450421010827	1.9999856	1.4142084
22.142363054159464	1.972914	1.4046046
22.16022244282787	1.966748	1.4024079
22.178082376597164	1.9411105	1.3932375
22.195942855951145	1.9715378	1.4041146
22.213803881373742	2.0040486	1.4156443
22.231665453349002	2.0382955	1.4276888
22.24952757236111	1.9918189	1.4113182
22.26739023889438	1.9494661	1.3962328
22.28525345343323	1.9687135	1.4031085
22.30311721646225	2.0051534	1.4160343
22.320981528466113	2.044218	1.4297615
22.33884638992964	2.027761	1.4239948
22.356711801337788	1.9821631	1.4078932
22.37457776317561	1.9635293	1.4012599
22.392444275928337	1.9719175	1.4042498
22.410311340081282	1.9947278	1.4123484
22.428178956119904	1.9730847	1.4046654
22.446047124529805	1.9383065	1.3922307
22.46391584579669	1.9161769	1.3842604
22.481785120406414	1.8997031	1.3782972
22.49965494884496	1.890673	1.3750175
22.51752533159841	1.9197394	1.3855466
22.53539626915302	1.9431863	1.3939822
22.553267761995137	1.9000611	1.378427
22.571139810611264	1.8898731	1.3747265
22.589012415488025	1.9267317	1.3880676
22.60688557711216	1.9530635	1.3975204
22.624759295970566	1.9518658	1.3970919
22.642633572550263	1.9609582	1.4003422
22.660508407338362	1.9603128	1.4001117
22.67838380082217	1.9524475	1.3973001
22.696259753489077	1.971783	1.4042019
22.714136265826614	1.9534463	1.3976574
22.73201333832246	1.9303601	1.389374
22.74989097146439	1.941891	1.3935175
22.76776916574035	1.9948405	1.4123882
22.785647921638393	1.9988437	1.4138047
22.803527239646712	1.9320976	1.3899992
22.82140712025363	1.8934186	1.3760154
22.839287563947593	1.8834285	1.3723806
22.85716857121719	1.8983663	1.3778121
22.875050142551135	1.9076608	1.381181
22.892932278438277	1.921729	1.3862644
22.910814979367604	1.9386855	1.3923669
22.928698245828222	1.9412513	1.3932879
22.946582078309387	1.9423969	1.393699
22.96446647730047	1.9400716	1.3928645
22.98235144329098	1.963077	1.4010985
23.000236976770562	1.9247496	1.3873534
23.018123078229	1.9089142	1.3816346
23.03600974815619	1.8813065	1.3716073
23.053896987042194	1.889399	1.3745542
23.071784795377173	1.9079504	1.3812858
23.08967317365145	1.9245476	1.3872806
23.10756212235546	1.9270545	1.388184
23.125451641979787	1.924407	1.3872299
23.143341733015134	1.9296789	1.3891288
23.161232395952357	1.8996819	1.3782895
23.179123631282426	1.8935268	1.3760548
23.197015439496468	1.9179472	1.3848997
23.214907821085717	1.9413426	1.3933207
23.23280077654157	1.934646	1.3909155
23.250694306355538	1.9567205	1.3988283
23.268588411019277	1.9403477	1.3929636
23.28648309102458	1.9478613	1.395658
23.304378346863356	1.9301779	1.3893085
23.322274179027676	1.9303296	1.389363
23.340170588009723	1.9444246	1.3944262
23.358067574301852	1.9710912	1.4039556
23.37596513839651	2.0140533	1.4191735
23.39386328078629	2.0084686	1.4172045
23.411762001963947	1.9855088	1.4090809
23.429661302422353	1.9240814	1.3871126
23.4475611826545	1.9091799	1.3817308
23.46546164315356	1.9183718	1.385053
23.48336268441279	1.9570411	1.3989428
23.501264306925638	1.9657494	1.4020518
23.51916651118564	1.9362346	1.3914865
23.537069297686497	1.9409009	1.3931623
23.554972666922037	1.9484805	1.3958799
23.57287661938623	1.9406091	1.3930575
23.59078115557318	1.9462647	1.3950859
23.608686275977128	1.9597524	1.3999116
23.62659198109246	1.9319943	1.389962
23.6444982714137	1.9345305	1.390874
23.66240514743549	1.9427319	1.3938192
23.68031260965263	1.9499533	1.3964072
23.698220658560068	1.904375	1.3799909
23.716129294652845	1.8722861	1.3683151
23.7340385184262	1.8853147	1.3730676
23.75194833037546	1.9139415	1.3834528
23.769858730996123	1.8790276	1.3707763
23.78776972078382	1.8501558	1.3602043
23.80568130023431	1.8903439	1.3748978
23.823593469843495	1.9041373	1.3799047
23.841506230107424	1.8926755	1.3757454
23.859419581522275	1.880169	1.3711926
23.87733352458438	1.8970225	1.3773243
23.89524805979019	1.9394025	1.3926243
23.913163187636318	1.9462879	1.3950942
23.931078908619508	1.9722131	1.404355
23.948995223236633	1.9969451	1.4131331
23.966912131984735	2.0078096	1.416972
23.98482963536096	2.0482373	1.4311664
24.002747733862616	2.0890791	1.4453647
24.020666427987155	2.0563767	1.4340072
24.038585718232156	2.1036518	1.4503971
24.056505605095353	2.1465292	1.4651039
24.074426089074617	2.1647732	1.4713168
24.092347170667946	2.0713336	1.4392128
24.110268850373515	2.0448415	1.4299796
24.128191128689586	2.0703125	1.438858
24.146114006114626	2.080433	1.4423705
24.164037483147187	2.0574095	1.4343673
24.181961560286005	2.0135672	1.4190022
24.199886238029926	2.002249	1.4150084
24.21781151687797	2.0573788	1.4343566
24.235737397329274	2.0885277	1.445174
24.253663879883135	2.1161811	1.45471
24.271590965038975	2.115658	1.4545302
24.289518653296376	2.0325832	1.425687
24.30744694515505	1.9917068	1.4112785
24.32537584111486	1.9800748	1.4071513
24.34330534167581	2.0248318	1.4229659
24.361235447338046	2.044322	1.4297979
24.379166158601876	2.025754	1.4232899
24.39709747596772	2.0227284	1.4222265
24.41502939993615	2.0409784	1.4286282
24.432961931007917	2.0627158	1.4362158
24.450895069683856	2.07036	1.4388745
24.468828816465	2.0470018	1.4307348
24.4867631718525	2.0474963	1.4309075
24.504698136347656	2.047571	1.4309336
24.52263371045192	2.0176728	1.4204481
24.540569894666874	1.9979249	1.4134797
24.558506689494266	1.9861443	1.4093063
24.57644409543597	2.01046	1.4179069
24.594382112994012	2.0120702	1.4184746
24.61232074267057	1.9894098	1.4104644
24.630259984967953	1.9788283	1.4067084
24.64819984038863	1.959381	1.399779
24.66614030943522	2.0242853	1.4227738
24.684081392610462	2.0409536	1.4286195
24.702023090417274	2.0220184	1.4219769
24.7199654033587	1.9752669	1.4054419
24.737908331937927	1.9947854	1.4123688
24.755851876658305	1.9818592	1.4077852
24.773796038023324	2.034518	1.4263653
24.79174081653661	2.051911	1.4324493
24.809686212701962	2.1238728	1.4573513
24.827632227023294	2.1219308	1.4566848
24.8455788600047	2.0569677	1.4342133
24.8635261121504	2.0078735	1.4169946
24.88147398396475	1.9854201	1.4090494
24.899422475952303	2.0591927	1.4349887
24.917371588617698	2.0771325	1.441226
24.935321322465768	2.1206405	1.456242
24.953271678001478	2.2036285	1.4844624
24.97122265572994	2.459775	1.568367
24.989174256156414	2.8179967	1.678689
25.00712647978632	3.3114562	1.8197407
25.02507932712521	3.7900717	1.9468106
25.043032798678798	4.216981	2.0535288
25.060986894952933	4.8367147	2.1992533
25.078941616453637	5.596141	2.3656163
25.096896963687055	6.667919	2.5822315
25.114852937159508	7.9240294	2.8149652
25.132809537377444	8.42185	2.9020424
25.150766764847468	8.454892	2.9077296
25.168724620076347	7.857979	2.8032086
25.186683103570985	6.8755813	2.622133
25.204642215838426	5.7207355	2.391806
25.222601957385894	4.377262	2.0921907
25.24056232872074	3.294765	1.8151487
25.25852333035048	2.6830783	1.6380105
25.276484962782778	2.298439	1.5160604
25.294447226525435	2.0805354	1.4424062
25.312410122086423	1.9689888	1.4032066
25.330373649973843	1.9360764	1.3914297
25.348337810695988	1.938187	1.3921878
25.366302604761245	1.93082	1.3895395
25.384268032678207	1.9607065	1.4002523
25.40223409495558	1.988948	1.4103007
25.420200792102257	1.9910591	1.4110489
25.438168124627246	1.9579833	1.3992796
25.45613609303974	1.9123015	1.38286
25.474104697849057	1.9207505	1.3859115
25.492073939564698	1.9085642	1.381508
25.510043818696285	1.8701719	1.3675423
25.528014335753614	1.8482053	1.3594872
25.54598549124664	1.8986863	1.3779283
25.56395728568544	1.8837165	1.3724855
25.58192971958028	1.8562924	1.3624582
25.59990279344156	1.8290309	1.3524166
25.617876507779833	1.8449627	1.358294
25.635850863105826	1.8418301	1.3571404
25.653825859930386	1.8205328	1.3492712
25.671801498764548	1.8507442	1.3604206
25.68977778011949	1.8635765	1.3651288
25.707754704506524	1.8550991	1.3620203
25.725732272437153	1.8013461	1.3421423
25.743710484423012	1.8293699	1.352542
25.761689340975888	1.8637224	1.3651822
25.77966884260774	1.8606162	1.3640441
25.797648989830662	1.8578746	1.3630388
25.815629783156922	1.8419124	1.3571707
25.83361122309895	1.8233767	1.3503246
25.85159331016929	1.8669169	1.3663517
25.869576044880695	1.8392469	1.3561884
25.887559427746034	1.8181157	1.3483752
25.90554345927836	1.8279406	1.3520136
25.92352813999086	1.8300605	1.3527973
25.94151347039689	1.847987	1.3594068
25.959499451009965	1.8293526	1.3525356
25.97748608234374	1.8468825	1.3590006
25.995473364912062	1.8616365	1.364418
26.013461299228904	1.9046469	1.3800894
26.03144988580839	1.8829794	1.3722169
26.04943912516483	1.8411596	1.3568933
26.067429017812675	1.7819499	1.3348969
26.085419564266537	1.8017586	1.342296
26.103410765041186	1.8481941	1.359483
26.12140262065155	1.8708678	1.3677967
26.139395131612723	1.852911	1.3612168
26.157388298439948	1.846208	1.3587524
26.17538212164861	1.8322763	1.353616
26.193376601754295	1.8170078	1.3479643
26.211371739272714	1.783132	1.3353397
26.229367534719746	1.7887471	1.3374405
26.247363988611433	1.747203	1.3218181
26.26536110146397	1.7435087	1.3204199
26.283358873793727	1.7477165	1.3220123
26.301357306117204	1.7931578	1.3390884
26.319356398951104	1.8137088	1.34674
26.33735615281224	1.811383	1.3458763
26.35535656821762	1.803402	1.342908
26.373357645684404	1.8037034	1.3430203
26.39135938572991	1.8332491	1.3539753
26.409361788871614	1.8505144	1.3603362
26.427364855627165	1.8253046	1.3510383
26.445368586514352	1.7995445	1.341471
26.46337298205115	1.8157008	1.3474795
26.48137804275568	1.8218163	1.3497467
26.499383769146217	1.8167875	1.3478826
26.517390161741215	1.8165805	1.3478059
26.53539722105928	1.7784398	1.3335816
26.553404947619182	1.7554927	1.3249501
26.571413341939856	1.7573482	1.3256501
26.589422404540397	1.796109	1.3401899
26.60743213594006	1.8321614	1.3535736
26.62544253665827	1.8123528	1.3462365
26.64345360721459	1.7882247	1.3372452
26.66146534812879	1.7694697	1.3302141
26.679477759920758	1.790266	1.3380083
26.69749084311057	1.7997277	1.3415393
26.71550459821847	1.8348625	1.354571
26.733519025764842	1.8666366	1.3662491
26.751534126270258	1.9164507	1.3843594
26.769549900255434	1.8919576	1.3754845
26.787566348241267	1.8473717	1.3591806
26.80558347074881	1.8272448	1.3517562
26.823601268299267	1.8268938	1.3516264
26.841619741414036	1.8019491	1.3423669
26.85963889061465	1.7876247	1.3370209
26.877658716422832	1.8120903	1.3461391
26.89567921936045	1.8330644	1.3539071
26.913700399949544	1.8386185	1.3559567
26.93172225871233	1.8065836	1.3440921
26.949744796171174	1.8021431	1.3424392
26.967768012848605	1.8060652	1.3438993
26.98579190926733	1.8644155	1.3654361
27.003816485950225	1.8798807	1.3710874
27.021841743420318	1.9102675	1.3821243
27.039867682200814	1.8895967	1.374626
27.057894302815072	1.8811014	1.3715324
27.07592160578664	1.8125883	1.346324
27.0939495916392	1.7699555	1.3303968
27.111978260896635	1.8124762	1.3462824
27.13000761408296	1.8550832	1.3620144
27.148037651722397	1.8638968	1.365246
27.166068374339304	1.8363152	1.3551071
27.184099782458215	1.8236502	1.350426
27.20213187660384	1.8139731	1.3468381
27.22016465730105	1.8089021	1.3449544
27.23819812507487	1.8364123	1.355143
27.256232280450533	1.8424168	1.3573565
27.274267123953383	1.8055596	1.3437111
27.292302656108987	1.8144723	1.3470235
27.31033887744306	1.8143692	1.3469852
27.32837578848146	1.8067425	1.3441513
27.34641338975026	1.8426342	1.3574367
27.364451681775673	1.8622823	1.3646547
27.382490665084074	1.8216189	1.3496736
27.400530340202046	1.7601337	1.3267003
27.41857070765629	1.7588836	1.3262291
27.436611767973726	1.8438579	1.3578873
27.454653521681404	1.8512403	1.3606029
27.472695969306564	1.8339891	1.3542485
27.490739111376627	1.8161952	1.3476629
27.508782948419153	1.8468384	1.3589844
27.526827480961902	1.8818446	1.3718034
27.54487270953279	1.8591853	1.3635194
27.562918634659898	1.8190454	1.34872
27.580965256871508	1.8056976	1.3437625
27.599012576696026	1.8217295	1.3497146
27.617060594662068	1.8386486	1.3559678
27.63510931129842	1.8320134	1.3535188
27.65315872713401	1.8245832	1.3507713
27.67120884269797	1.8648099	1.3655804
27.68925965851958	1.9051461	1.3802704
27.707311175128307	1.9247167	1.3873416
27.725363393053787	1.9102248	1.3821088
27.74341631282583	1.9533226	1.3976132
27.7614699349744	1.9792694	1.4068651
27.77952426002968	2.0955148	1.4475893
27.797579288521973	2.1480284	1.4656154
27.815635020981784	2.5712597	1.6035148
27.83369145793979	2.600018	1.6124572
27.85174859992682	2.452467	1.5660354
27.869806447473923	2.3075802	1.5190722
27.887865001112267	2.0065672	1.4165335
27.905924261373233	1.8898106	1.3747038
27.92398422878836	1.8990339	1.3780544
27.94204490388936	1.8961551	1.3770095
27.96010628720813	1.8566834	1.3626016
27.978168379276728	1.8675076	1.3665679
27.9962311806274	1.9033303	1.3796123
28.014294691792568	1.8841456	1.3726418
28.0323589133048	1.8798985	1.3710939
28.050423845696887	1.8446064	1.3581629
28.068489489501758	1.8440899	1.3579727
28.086555845252523	1.8520536	1.3609018
28.104622913482487	1.8244911	1.3507372
28.122690694725115	1.8523924	1.3610263
28.14075918951405	1.9329922	1.3903209
28.15882839838312	1.9184785	1.3850915
28.176898321866304	1.8689005	1.3670774
28.1949689604978	1.8611026	1.3642223
28.213040314811945	1.9011871	1.3788354
28.23111238534327	1.8745518	1.3691428
28.249185172626493	1.9139409	1.3834525
28.267258677196473	1.9681103	1.4028935
28.285332899588294	2.011779	1.418372
28.303407840337172	1.9838809	1.408503
28.321483499978545	1.9533858	1.3976358
28.33955987904799	1.9189979	1.3852789
28.357636978081285	1.8919575	1.3754845
28.37571479761439	1.9056814	1.3804642
28.393793338183425	1.9702739	1.4036645
28.41187260032469	1.9569484	1.3989097
28.429952584574686	1.9121637	1.3828101
28.448033291470065	1.9415818	1.3934065
28.46611472154769	1.982035	1.4078476
28.484196875344566	2.0040686	1.4156513
28.502279753397914	2.0019138	1.41489
28.52036335624511	1.9961522	1.4128525
28.538447684423716	1.964556	1.4016262
28.556532738471482	1.9955913	1.412654
28.574618518926325	2.0386693	1.4278197
28.59270502632635	2.0512838	1.4322304
28.61079226120985	2.0398877	1.4282464
28.628880224115274	2.0752945	1.4405882
28.646968915581287	2.0864332	1.4444491
28.66505833614671	2.0465894	1.4305905
28.68314848635055	2.0411894	1.428702
28.701239366732004	2.073248	1.4398777
28.71933097783044	2.0889025	1.4453036
28.737423320185403	2.0718129	1.4393793
28.75551639433665	2.098117	1.4484879
28.773610200824074	2.1735852	1.4743084
28.791704740187793	2.1698215	1.4730314
28.80980001296809	2.156968	1.468662
28.827896019705413	2.1501353	1.466334
28.845992760940433	2.1853602	1.4782964
28.86409023721397	2.234425	1.4947994
28.88218844906704	2.2554562	1.5018176
28.900287397040845	2.2349398	1.4949715
28.918387081676755	2.2134323	1.4877608
28.936487503516343	2.2646453	1.5048739
28.954588663101365	2.299292	1.5163417
28.97269056097374	2.3560169	1.5349323
28.990793197675597	2.3227348	1.5240521
29.00889657374923	2.342196	1.5304235
29.027000689737125	2.3919482	1.5465925
29.04510554618196	2.3748593	1.5410578
29.06321114362659	2.3593411	1.5360147
29.08131748261405	2.4314594	1.5593138
29.099424563687567	2.5236504	1.5886002
29.11753238739057	2.5773654	1.6054175
29.13564095426663	2.5931718	1.6103328
29.15375026485954	2.6144052	1.6169122
29.171860319713275	2.63865	1.6243922
29.18997111937199	2.6830208	1.637993
29.20808266438002	2.704746	1.6446112
29.226194955281898	2.7279859	1.6516615
29.244307992622335	2.748759	1.6579382
29.26242177694624	2.7988763	1.6729842
29.2805363087987	2.858965	1.6908474
29.29865158872498	2.9083707	1.7053946
29.316767617270557	2.9869545	1.7282808
29.334884394981064	3.0159338	1.7366444
29.353001922402367	3.0342538	1.7419109
29.37112020008047	3.1340706	1.7703307
29.389239228561596	3.207413	1.7909251
29.407359008392152	3.324844	1.8234154
29.42547954011872	3.652671	1.9111962
29.44360082428809	4.403358	2.098418
29.46172286144722	5.407078	2.3253124
29.479845652143283	6.883984	2.6237347
29.497969196923606	9.071111	3.0118284
29.516093496335728	11.768879	3.43058
29.5342185509274	14.565101	3.816425
29.55234436124651	16.833923	4.1029162
29.570470927841175	18.468006	4.297442
29.588598251259686	18.156233	4.261013
29.60672633205055	16.679464	4.08405
29.624855170762405	14.371862	3.791024
29.642984767944146	11.556868	3.3995392
29.66111512414481	8.895267	2.9824934
29.67924623991366	6.687266	2.585975
29.697378115800138	5.2392526	2.2889414
29.71551075235387	4.3198214	2.078418
29.733644150124675	3.8124537	1.9525505
29.751778309662576	3.5358768	1.8803927
29.769913231517766	3.4336307	1.8530059
29.78804891624066	3.399605	1.8438017
29.806185364381818	3.353449	1.8312426
29.82432257649206	3.3633077	1.8339323
29.842460553122333	3.3577652	1.8324206
29.86059929482382	3.3287475	1.8244855
29.878738802147872	3.3068588	1.818477
29.896879075646048	3.299342	1.8164091
29.915020115870114	3.283067	1.8119235
29.933161923371976	3.22626	1.7961793
29.951304498703777	3.216383	1.7934277
29.969447842417857	3.2671738	1.8075325
29.987591955066733	3.2789004	1.8107734
30.005736837203123	3.1487913	1.7744834
30.023882489379943	3.142051	1.7725831
30.04202891215028	3.194334	1.78727
30.060176106067455	3.2069128	1.7907856
30.078324071684946	3.1240392	1.7674952
30.09647280955646	3.0470011	1.7455661
30.114622320235863	3.1003191	1.7607723
30.132772604277257	3.1573725	1.7768997
30.1509236622349	3.1512313	1.7751708
30.16907549466328	3.090801	1.7580674
30.18722810211705	3.0501158	1.746458
30.205381485151097	3.1621797	1.7782519
30.22353564432045	3.1518614	1.7753483
30.241690580180403	3.113963	1.7646425
30.25984629328638	3.0682797	1.7516506
30.278002784194037	3.0288773	1.7403669
30.296160053459246	3.0346057	1.742012
30.314318101638033	3.0286148	1.7402916
30.332476929286646	2.956051	1.7193171
30.35063653696153	2.9449906	1.7160975
30.368796925219307	2.923317	1.709771
30.386958094616844	2.902438	1.7036543
30.40512004571115	2.8475401	1.6874655
30.423282779059463	2.897789	1.7022893
30.441446295219233	2.8765762	1.6960472
30.459610594748067	2.8525531	1.6889503
30.47777567820382	2.8408544	1.6854835
30.495941546144504	2.8246686	1.680675
30.51410819912835	2.850584	1.6883672
30.532275637713795	2.8673995	1.6933397
30.55044386245946	2.9043384	1.704212
30.56861287392416	2.8903263	1.700096
30.586782672666956	2.869401	1.6939306
30.604953259247047	2.8242114	1.680539
30.623124634223885	2.7087648	1.6458325
30.641296798157075	2.6793752	1.6368797
30.659469751606462	2.7393475	1.6550974
30.677643495132074	2.796664	1.672323
30.695818029294152	2.786291	1.6692187
30.713993354653116	2.7717164	1.6648473
30.73216947176962	2.7178624	1.648594
30.75034638120448	2.6806393	1.6372658
30.768524083518756	2.6510408	1.6282017
30.786702579273673	2.6985323	1.642721
30.80488186903069	2.7885814	1.6699046
30.82306195335144	2.90891	1.7055527
30.841242832797782	3.0968292	1.759781
30.85942450793176	3.424664	1.8505847
30.877606979315637	3.70696	1.9253467
30.895790247511883	4.034803	2.0086818
30.913974313083134	4.495504	2.1202602
30.932159176592283	4.837816	2.1995037
30.95034483860237	4.874387	2.2078013
30.968531299676698	4.7285695	2.1745274
30.98671856037873	4.4532647	2.110276
31.00490662127215	4.0635767	2.0158315
31.023095482920848	3.5971088	1.8966045
31.04128514588892	3.1401043	1.7720339
31.059475610740662	2.7195117	1.6490942
31.07766687804056	2.5509675	1.5971749
31.09585894835335	2.5009856	1.5814505
31.11405182224393	2.4660482	1.5703657
31.132245500277417	2.4252887	1.5573338
31.15043998301914	2.4081855	1.5518329
31.168635271034628	2.363633	1.5374111
31.18683136488964	2.384121	1.5440599
31.20502826515008	2.3965058	1.5480652
31.223225972382135	2.406255	1.5512108
31.241424487152155	2.386736	1.5449065
31.259623810026692	2.3994932	1.5490297
31.27782394157253	2.4137607	1.5536282
31.296024882356644	2.3804417	1.542868
31.314226632946237	2.3903785	1.5460849
31.332429193908684	2.464294	1.5698069
31.350632565811598	2.4951375	1.5796005
31.368836749222787	2.440348	1.5621613
31.387041744710295	2.4162366	1.5544249
31.40524755284232	2.4616525	1.5689654
31.423454174187317	2.5529208	1.5977862
31.441661609313922	2.59709	1.6115489
31.459869858791002	2.5339034	1.5918239
31.478078923187628	2.43918	1.5617874
31.496288803073064	2.4147608	1.5539501
31.514499499016807	2.381017	1.5430545
31.532711011588546	2.397177	1.5482819
31.550923341358178	2.4843297	1.5761757
31.56913648889584	2.473875	1.5728557
31.587350454771844	2.3912783	1.5463759
31.605565239556732	2.3136783	1.521078
31.62378084382127	2.2960172	1.5152614
31.641997268136382	2.3548415	1.5345492
31.660214513073274	2.3269384	1.5254306
31.67843257920331	2.3195055	1.5229923
31.6966514670981	2.3530846	1.5339767
31.71487117732944	2.3531034	1.5339829
31.733091710469346	2.368874	1.5391147
31.751313067090052	2.339029	1.5293884
31.769535247764008	2.343247	1.5307667
31.787758253063878	2.3771706	1.5418075
31.805982083562526	2.3877175	1.5452241
31.824206739833024	2.3793366	1.5425098
31.84243222244869	2.3512669	1.5333841
31.860658531983013	2.309217	1.5196108
31.878885669009737	2.233277	1.4944153
31.897113634102784	2.2437265	1.4979074
31.91534242783632	2.2709155	1.5069557
31.933572050784694	2.2118003	1.4872123
31.951802503522508	2.1214561	1.456522
31.970033786624548	2.1191993	1.455747
31.988265900665834	2.1955774	1.4817481
32.006498846221575	2.1572886	1.4687711
32.02473262386724	2.0955102	1.4475877
32.04296723417845	2.1856396	1.4783909
32.0612026777311	2.253791	1.5012631
32.07943895510129	2.266411	1.5054604
32.097676066865304	2.2494853	1.4998285
32.115914013599685	2.2146094	1.4881563
32.13415279588115	2.115067	1.454327
32.152392414286666	2.0601206	1.435312
32.1706328693934	2.0386233	1.4278036
32.18887416177875	2.0640576	1.4366828
32.20711629202032	2.145742	1.4648352
32.225359260695924	2.1449292	1.4645576
32.243603068383614	2.1839995	1.4778361
32.26184771566166	2.2136614	1.4878378
32.28009320310852	2.2062495	1.4853449
32.2983395313029	2.2536418	1.5012134
32.31658670082372	2.290285	1.5133688
32.33483471225012	2.2342916	1.4947547
32.35308356616143	2.1643648	1.471178
32.371333263137245	2.1429203	1.4638717
32.38958380375734	2.1714108	1.4735708
32.407835188601744	2.1584349	1.4691613
32.42608741825067	2.1620827	1.4704022
32.444340493284585	2.106797	1.451481
32.46259441428416	2.0036054	1.4154876
32.48084918183028	1.9433117	1.3940271
32.49910479650405	1.9764632	1.4058675
32.51736125888683	2.08707	1.4446695
32.53561856956014	2.1199205	1.4559947
32.5538767291058	2.0614443	1.435773
32.572135738105764	2.0514843	1.4323003
32.59039559714228	2.1391144	1.4625711
32.608656306797776	2.1677387	1.4723243
32.62691786765491	2.1580052	1.469015
32.645180280296586	2.1475766	1.4654613
32.663443545305896	2.1473706	1.4653909
32.68170766326619	2.115591	1.4545071
32.69997263476099	2.0768847	1.44114
32.7182384603741	2.0824144	1.4430573
32.7365051406895	2.081164	1.442624
32.75477267629144	1.9919745	1.4113733
32.77304106776434	1.8986201	1.3779043
32.79131031569289	1.9142356	1.383559
32.809580420661966	1.9898973	1.4106371
32.827851383256714	1.9841392	1.4085947
32.84612320406245	1.9101623	1.3820863
32.86439588366476	1.9773529	1.4061838
32.88266942264945	2.0179648	1.420551
32.9009438216025	2.057855	1.4345225
32.9192190811102	2.1119227	1.4532456
32.937495201758985	2.06498	1.4370039
32.95577218413556	2.0215135	1.4217994
32.974050028826866	1.9460326	1.3950027
32.992328736420035	1.8971562	1.377373
33.010608307502444	1.9022652	1.3792263
33.02888874266169	1.9722952	1.4043843
33.047170042485604	2.003835	1.4155688
33.06545220756225	1.9574541	1.3990904
33.083735238479896	1.9191681	1.3853405
33.10201913582707	1.8136041	1.3467011
33.12030390019248	1.7835144	1.3354828
33.138589532165135	1.8268151	1.3515973
33.15687603233419	1.8824093	1.3720093
33.17516340128909	1.9364115	1.3915501
33.19345163961947	1.9147748	1.3837539
33.211740747915215	1.9559463	1.3985515
33.23003072676643	2.0219362	1.4219481
33.248321576763466	2.0940738	1.4470915
33.266613298496885	2.0494494	1.4315898
33.28490589255747	2.026928	1.4237022
33.30319935953626	1.9170555	1.3845778
33.32149370002451	1.8211954	1.3495167
33.339788914613706	1.8017352	1.3422873
33.358085003895575	1.9002972	1.3785126
33.376381968462034	1.9377489	1.3920305
33.39467980890529	1.929993	1.3892419
33.41297852581774	2.0586052	1.434784
33.43127811979204	2.0408304	1.4285764
33.44957859142105	1.9424616	1.3937222
33.467879941297866	1.906457	1.380745
33.486182170015844	2.0690877	1.4384323
33.50448527816853	2.1391013	1.4625666
33.522789266349754	2.0752964	1.440589
33.541094135153514	1.9638817	1.4013857
33.55939988517411	1.8753446	1.3694322
33.57770651700602	1.8668723	1.3663354
33.59601403124398	1.8811928	1.3715658
33.61432242848296	1.882043	1.3718758
33.632631709318154	1.880214	1.3712089
33.650941874344994	1.9413574	1.393326
33.66925292415916	1.930184	1.3893106
33.68756485935654	1.8817139	1.3717557
33.70587768053328	1.9187429	1.3851869
33.724191388285746	1.9655367	1.401976
33.74250598321054	2.0465732	1.4305849
33.760821465904506	2.0434377	1.4294887
33.77913783696474	1.9713571	1.4040502
33.79745509698852	1.9390916	1.3925127
33.815773246573414	1.8843058	1.3727002
33.8340922863172	1.9030162	1.3794985
33.852412216817896	1.9557143	1.3984686
33.87073303867377	2.01366	1.4190348
33.889054752483304	1.9549785	1.3982054
33.907377358845245	1.9904171	1.4108214
33.92570085835853	2.079031	1.4418845
33.94402525162239	2.082993	1.4432578
33.96235053923627	1.9737923	1.4049172
33.980676721799824	1.9500284	1.3964342
33.999003799912984	1.9319535	1.3899473
34.01733177417592	1.9032263	1.3795747
34.03566064518901	1.9383023	1.3922292
34.0539904135529	2.1066566	1.4514326
34.07232107986846	2.0487728	1.4313534
34.090652644736785	1.9491283	1.3961118
34.108985108759235	1.8966116	1.3771752
34.12731847253742	1.851454	1.3606814
34.14565273667313	1.8883365	1.3741676
34.16398790176847	1.8450483	1.3583256
34.18232396842574	1.9195402	1.3854747
34.20066093724749	2.0388885	1.4278965
34.21899880883651	2.0209842	1.4216132
34.23733758379583	1.9507056	1.3966767
34.25567726272874	2.0239043	1.42264
34.27401784623872	2.098114	1.4484868
34.29235933492957	2.11163	1.4531449
34.31070172940526	2.0795393	1.4420608
34.32904503027003	2.0656648	1.437242
34.347389238128386	2.1055942	1.4510666
34.36573435358502	2.073424	1.4399389
34.38408037724492	2.0526268	1.4326992
34.402427309713296	2.1023686	1.4499546
34.42077515159559	2.0698593	1.4387006
34.43912390349752	1.8516847	1.3607662
34.45747356602499	1.8371171	1.355403
34.47582413978423	1.9736853	1.4048791
34.49417562538163	2.0378523	1.4275336
34.51252802342388	1.9206496	1.3858751
34.53088133451789	1.9107239	1.3822894
34.54923555927084	1.978787	1.4066936
34.567590698290104	2.0876772	1.4448797
34.58594675218336	2.1325808	1.4603359
34.6043037215585	1.9984477	1.4136646
34.62266160702365	2.1319456	1.4601184
34.641020409187234	2.213032	1.4876263
34.65938012865785	2.1627588	1.4706321
34.677740766044394	2.140092	1.4629053
34.69610232195598	2.1369236	1.461822
34.714464797002016	1.9888098	1.4102517
34.73282819179208	1.8020815	1.3424163
34.751192506936064	1.8463013	1.3587867
34.76955774304408	2.0255537	1.4232194
34.7879239007265	2.0316222	1.4253498
34.80629098059391	1.9003309	1.3785249
34.824658983257194	1.8283887	1.3521793
34.843027909327446	1.8883697	1.3741796
34.86139775941603	2.0606441	1.4354944
34.879768534134534	2.0982034	1.4485177
34.89814023409483	2.0667343	1.4376141
34.91651285990901	2.1686492	1.4726335
34.93488641218944	2.1529167	1.467282
34.95326089154871	2.087056	1.4446646
34.97163629859967	2.0412433	1.4287208
34.99001263395542	2.0068674	1.4166394
35.00838989822934	1.9423959	1.3936987
35.02676809203499	1.9296854	1.3891312
35.04514721598624	1.9831747	1.4082524
35.063527270697215	1.9435087	1.3940978
35.081908256782256	1.9310046	1.3896059
35.10029017485597	1.9396981	1.3927305
35.11867302553321	1.8961248	1.3769985
35.137056809429104	1.9401082	1.3928777
35.155441527159006	1.8961297	1.3770002
35.173827179338524	2.0039833	1.4156212
35.19221376658354	2.2841232	1.5113316
35.21060128951017	2.2636008	1.5045267
35.2289897487348	2.0755858	1.4406893
35.24737914487405	2.0948486	1.4473592
35.26576947854479	2.1925035	1.4807105
35.28416075036418	2.2127323	1.4875256
35.30255296094958	2.267478	1.5058147
35.32094611091867	2.3803668	1.5428437
35.33934020088932	2.287321	1.5123892
35.35773523147969	2.2644274	1.5048015
35.3761312033082	2.3359375	1.5283774
35.394528116993506	2.3765194	1.5415964
35.41292597315452	2.465122	1.5700707
35.431324772410434	2.5632572	1.6010176
35.449724515380666	2.6067421	1.6145408
35.46812520268491	2.3138263	1.5211266
35.486526834943106	2.0100858	1.4177749
35.504929412775454	1.9766623	1.4059383
35.52333293680242	2.1313019	1.4598979
35.54173740764471	2.3026917	1.5174623
35.560142825923286	2.5193298	1.5872396
35.5785491922594	2.3932815	1.5470234
35.59695650727454	1.7164171	1.310121
35.61536477159042	1.1889042	1.0903689
