0.008763373481513119	0.051685803	0.22734512
0.026290120649546365	0.18429624	0.4292974
0.043816868432600686	0.12367553	0.35167533
0.06134361724069026	0.08536854	0.29217896
0.07887036748382949	0.027003514	0.16432746
0.0963971195720331	0.08201659	0.2863854
0.11392387391531617	0.15043716	0.3878623
0.1314506309236943	0.18969932	0.43554485
0.1489773910071836	0.17670982	0.42036867
0.16650415457580078	0.10152899	0.31863615
0.18403092203956356	0.079891	0.28264996
0.20155769380849	0.068350725	0.2614397
0.2190844702925996	0.09374057	0.30617082
0.2366112519019124	0.1738802	0.41698945
0.2541380390464497	0.20433936	0.45203912
0.27166483213623416	0.20168005	0.449088
0.28919163158128947	0.1521343	0.39004397
0.3067184377916406	0.13823502	0.3717997
0.324245251177314	0.10132783	0.31832033
0.34177207214833777	0.07645756	0.2765096
0.3592989011147415	0.067703605	0.26019916
0.37682573848655654	0.08861519	0.29768303
0.39435258467381573	0.095825635	0.30955717
0.41187944008655414	0.09509695	0.30837795
0.42940630513480854	0.11668849	0.34159696
0.446933180228618	0.101591125	0.31873363
0.4644600657780234	0.1520247	0.38990346
0.48198696219306775	0.183082	0.42788082
0.49951386988379676	0.24672559	0.4967148
0.5170407892602581	0.21984874	0.4688803
0.5345677207325025	0.18572594	0.4309593
0.5520946647105822	0.09861127	0.31402433
0.5696216216045534	0.07803254	0.27934304
0.5871485918244737	0.06419397	0.25336528
0.6046755757804043	0.09560094	0.30919403
0.6222025738824094	0.11615083	0.34080908
0.6397295865405557	0.1637427	0.40465134
0.6572566141649129	0.19623467	0.44298384
0.6747836571655547	0.18793103	0.43351012
0.6923107159525568	0.19107011	0.43711567
0.7098377909359992	0.16908951	0.41120496
0.7273648825259653	0.19059132	0.43656766
0.7448919911325411	0.20221579	0.4496841
0.762419117165817	0.19962358	0.44679254
0.7799462610358868	0.22447985	0.47379306
0.7974734231528482	0.2018053	0.44922745
0.8150006039268024	0.17871642	0.42274866
0.8325278037678551	0.14415766	0.379681
0.8500550230861152	0.17760801	0.42143565
0.8675822622916969	0.17572288	0.41919312
0.8851095217947171	0.18605278	0.43133837
0.9026368020052984	0.14631802	0.38251537
0.9201641033335665	0.16484497	0.40601104
0.9376914261896523	0.1977788	0.44472328
0.9552187709836915	0.23394185	0.48367536
0.9727461381258234	0.29123572	0.5396626
0.990273528026193	0.28273675	0.53172994
1.0078009410949496	0.24764779	0.49764222
1.0253283777422473	0.2309414	0.48056364
1.0428558383782454	0.23407684	0.4838149
1.0603833234131086	0.3043827	0.5517089
1.0779108332570058	0.32245252	0.56784904
1.0954383683201119	0.34312564	0.5857693
1.112965929012607	0.40265188	0.63454854
1.1304935157446763	0.5275615	0.7263343
1.1480211289265108	0.6009856	0.7752326
1.1655487689683062	1.4109981	1.1878544
1.1830764362802655	1.7303643	1.3154331
1.200604131272596	2.053369	1.4329581
1.2181318543555117	2.2516146	1.5005381
1.235659605939232	2.253773	1.5012572
1.253187386433982	4.0008516	2.000213
1.270715196249994	6.5465364	2.55862
1.2882430357975057	12.044208	3.4704766
1.3057709054867608	16.830101	4.102451
1.3232988057280106	22.750036	4.7696996
1.3408267369315112	27.51475	5.2454505
1.358354699507526	30.969622	5.565036
1.3758826938663256	34.983257	5.9146647
1.3934107204181858	37.04856	6.086753
1.410938779573391	37.527817	6.125995
1.4284668717422309	38.019207	6.1659718
1.4459949973350033	37.541576	6.127118
1.4635231567620117	37.56168	6.1287584
1.4810513504335687	37.00428	6.083114
1.4985795787599925	36.337193	6.0280337
1.5161078421516088	36.107895	6.0089846
1.5336361410187505	35.28156	5.9398284
1.5511644757717598	35.19179	5.932267
1.5686928468209842	35.849113	5.987413
1.58622125457678	36.84019	6.069612
1.6037496994495108	37.965694	6.1616306
1.621278181849548	37.55354	6.128094
1.6388067021872719	37.691593	6.139348
1.6563352608730693	37.057613	6.0874963
1.673863858317336	36.113056	6.009414
1.6913924949304753	35.64875	5.9706573
1.7089211711228998	34.238777	5.851391
1.7264498873050296	33.72728	5.8075194
1.7439786438872935	33.114006	5.754477
1.7615074412801288	32.330784	5.6860166
1.779036279893981	31.643524	5.6252575
1.796565160139305	30.815866	5.551204
1.814094082426564	30.020807	5.4791245
1.8316230471662298	29.407274	5.4228473
1.849152054768784	28.452389	5.334078
1.8666811056447168	27.864458	5.2786794
1.8842102002045273	26.822493	5.179044
1.901739338858724	25.990528	5.0980906
1.9192685220178245	25.56323	5.0560093
1.9367977500923557	25.071035	5.0070987
1.9543270234928547	25.150356	5.015013
1.971856342629867	24.579655	4.9577875
1.9893857079139496	23.974451	4.8963714
2.006915119755667	23.368462	4.8340936
2.0244445785655945	22.500158	4.743433
2.0419740847543175	22.043741	4.6950765
2.0595036387324317	21.559381	4.643208
2.0770332409105414	21.072868	4.5905194
2.094562891699263	20.577862	4.536283
2.1120925915092217	19.831766	4.453287
2.129622340751053	19.39113	4.4035363
2.1471521398354043	187.82993	13.705106
2.1646819891729323	444.37012	21.080088
2.182211889174303	440.5575	20.989462
2.1997418402501974	452.70944	21.27697
2.2172718428113023	432.6532	20.800318
2.234801897268317	320.82596	17.911615
2.2523320040319548	17.346666	4.1649327
2.269862163512935	16.934805	4.115192
2.287392376121992	16.646372	4.0799966
2.304922642269869	16.449387	4.055784
2.322452962367322	16.194798	4.0242763
2.3399833368251164	15.677558	3.9594896
2.357513766054032	15.178582	3.89597
2.3750442504648586	14.9014225	3.8602362
2.3925747904683963	14.705554	3.8347821
2.410105386475459	14.707149	3.83499
2.4276360388968707	14.386213	3.7929163
2.445166748143469	14.310001	3.7828562
2.4626975146261025	14.0641575	3.750221
2.4802283387556323	13.774354	3.7113817
2.4977592209429305	13.393262	3.6596806
2.5152901615988825	13.14077	3.62502
2.5328211611343865	12.98073	3.602878
2.5503522199603523	12.855705	3.5854855
2.5678833384877024	12.586753	3.5477815
2.5854145171273712	12.222562	3.496078
2.6029457562903064	11.9282055	3.4537234
2.620477056387469	11.855291	3.4431515
2.6380084178298326	11.659124	3.414546
2.655539841028383	11.432568	3.381208
2.673071326394119	11.18183	3.3439243
2.6906028743380523	11.058575	3.3254435
2.708134485271211	10.955099	3.3098488
2.7256661596046325	10.828099	3.2906077
2.743197897749369	10.70934	3.272513
2.760729700116486	10.678209	3.267753
2.778261567117063	10.461644	3.2344465
2.795793499162193	10.33527	3.2148514
2.8133254966629817	10.164682	3.18821
2.830857560030551	10.093552	3.177035
2.8483896896760337	10.073055	3.1738076
2.865921886010578	9.867862	3.1413152
2.883454149445347	9.768827	3.1255124
2.9009864803915177	9.575049	3.0943577
2.91851887926028	9.416912	3.0686986
2.9360513464628384	9.077566	3.0128999
2.953583882410413	8.842239	2.9735904
2.9711164875142373	8.729893	2.9546392
2.9886491621855606	8.791983	2.9651277
3.0061819068356455	8.7904625	2.9648714
3.023714721875769	8.686891	2.9473531
3.041247607717225	8.603835	2.9332294
3.0587805647713213	8.42808	2.9031155
3.0763135934493806	8.394695	2.89736
3.0938466941627407	8.184611	2.860876
3.1113798673227544	8.190192	2.8618512
3.1289131133407904	8.093298	2.8448722
3.1464464326282315	8.062373	2.8394318
3.1639798255964786	7.972536	2.8235679
3.1815132926569443	7.7306037	2.7803962
3.1990468342210603	7.7229266	2.7790153
3.216580450700272	7.698506	2.7746181
3.2341141425060416	7.615564	2.7596312
3.251647910049847	7.456028	2.730573
3.2691817537431813	7.2259808	2.6881185
3.286715673997555	7.1647315	2.6767015
3.3042496712244938	7.1137753	2.6671662
3.32178374583554	7.043158	2.653895
3.339317898242251	7.0020294	2.6461349
3.3568521288562034	6.9404044	2.6344647
3.3743864380889876	6.8142357	2.610409
3.3919208263522127	6.8488226	2.6170256
3.4094552940575023	6.779996	2.6038425
3.4269898416164972	6.752168	2.5984933
3.444524469440858	6.6634994	2.5813754
3.4620591779422587	6.6029787	2.569626
3.479593967532391	6.4649925	2.542635
3.4971288386229658	6.4607325	2.5417972
3.5146637916257086	6.3684616	2.523581
3.5321988269523628	6.4242086	2.5346022
3.5497339450146903	6.3624983	2.5223994
3.5672691462244708	6.3692036	2.5237281
3.5848044309934988	6.249462	2.4998925
3.60233979973359	6.1787996	2.4857192
3.619875252856575	6.1850595	2.486978
3.6374107907743034	6.2874827	2.5074854
3.6549464138986427	6.4074984	2.5313036
3.6724821226414788	6.468773	2.5433784
3.690017917414714	6.5009484	2.5496957
3.7075537986302702	6.443709	2.5384462
3.7250897667000857	6.4812164	2.5458233
3.7426258220361235	6.527536	2.5549042
3.7601619650503553	6.7200537	2.5923066
3.777698196154779	7.313479	2.7043445
3.7952345157614067	8.437785	2.9047866
3.8127709242822716	9.438632	3.0722356
3.830307422129425	11.64626	3.4126618
3.847844009714936	30.362936	5.5102572
3.8653806874508954	97.79979	9.889378
3.882917455749409	97.00193	9.848956
3.900454315022606	96.975	9.847589
3.917991265682631	41.53443	6.444721
3.9355283081416506	11.146818	3.338685
3.9530654428118495	8.767208	2.9609473
3.970602670105433	7.408151	2.721792
3.9881399904346244	6.4655776	2.5427501
4.005677404211669	6.3765297	2.5251791
4.023214911848827	6.436841	2.537093
4.0407525137583855	6.4875755	2.547072
4.058290210352644	6.4660993	2.5428526
4.075828002043927	6.409187	2.5316372
4.0933658892445814	6.317275	2.513419
4.110903872366966	6.193912	2.4887571
4.128441951823468	6.115172	2.4728873
4.145980128026488	6.1046433	2.4707577
4.163518401388452	6.133255	2.476541
4.181056772321807	6.1430182	2.4785113
4.1985952412390155	6.163434	2.4826264
4.216133808552567	6.211699	2.492328
4.233672474674966	6.2781787	2.5056293
4.251211240018741	6.4596353	2.5415812
4.268750104996445	6.6301537	2.5749085
4.286289070020643	7.5559263	2.7488046
4.303828135503928	9.236122	3.039099
4.3213673018589125	29.657047	5.4458284
4.3389065694982305	90.97904	9.538294
4.356445938834537	166.2376	12.893316
4.3739854102805085	171.5508	13.09774
4.391524984248844	172.36888	13.128933
4.409064661152262	136.37732	11.67807
4.426604441403504	96.88636	9.843087
4.444144325415337	76.0427	8.720246
4.461684313600543	22.116737	4.7028437
4.47922440637193	22.397753	4.7326264
4.496764604142329	20.646524	4.5438447
4.5143049073245916	18.904724	4.347956
4.531845316331589	16.757286	4.0935664
4.5493858315762195	13.770613	3.7108777
4.566926453471405	11.228314	3.3508677
4.584467182430081	9.026082	3.0043437
4.602008018865218	7.917983	2.8138912
4.619548963189798	7.3057613	2.702917
4.637090015816834	6.9458985	2.6355073
4.654631177159353	6.7869935	2.605186
4.672172447630417	6.6143246	2.571833
4.689713827643102	6.4987545	2.5492654
4.7072553176105085	6.18742	2.4874525
4.724796917945764	5.944641	2.4381635
4.742338629062015	5.7981105	2.4079266
4.759880451372434	5.798889	2.4080882
4.777422385290215	5.7381563	2.3954449
4.794964431228581	5.706187	2.3887627
4.812506589600768	5.6866255	2.3846645
4.830048860820047	5.6799445	2.3832633
4.847591245299709	5.626793	2.3720863
4.8651337434530655	5.6200185	2.370658
4.882676355693457	5.598998	2.3662202
4.900219082434242	5.626043	2.371928
4.917761924088813	5.6446404	2.3758452
4.935304881070575	5.595796	2.3655436
4.952847953792969	5.5409675	2.353926
4.970391142669449	5.512274	2.3478231
4.9879344481135055	5.52566	2.3506722
5.005477870538642	5.510046	2.3473487
5.023021410358394	5.545817	2.354956
5.040565067986324	5.5327544	2.3521807
5.05810884383601	5.5319567	2.3520112
5.075652738321066	5.422804	2.3286915
5.09319675185512	5.426074	2.3293934
5.110740884851836	5.5092974	2.3471892
5.128285137724894	5.538952	2.3534977
5.145829510888007	5.493229	2.3437638
5.163374004754908	5.414026	2.3268058
5.1809186197393595	5.3839054	2.3203244
5.198463356255145	5.275664	2.2968814
5.216008214716077	5.26976	2.295596
5.233553195535998	5.2368293	2.2884119
5.251098299128764	5.2877507	2.299511
5.268643525908272	5.2858305	2.2990935
5.286188876288432	5.286639	2.2992692
5.3037343506831895	5.311367	2.3046403
5.32127994950651	5.3074703	2.3037949
5.3388256731723915	5.3031	2.3028462
5.356371522094851	5.249389	2.2911546
5.373917496687938	5.170148	2.2737958
5.391463597365729	5.11385	2.2613823
5.40900982454232	5.1032257	2.259032
5.426556178631843	5.2374954	2.2885575
5.444102660048449	5.268549	2.295332
5.4616492692063225	5.320241	2.3065648
5.479196006519669	5.2650704	2.294574
5.496742872402727	5.244997	2.290196
5.514289867269756	5.2516375	2.291645
5.531836991535049	5.2015724	2.2806957
5.549384245612924	5.2647123	2.294496
5.566931629917724	5.267042	2.2950037
5.584479144863822	5.2735295	2.2964168
5.6020267908656205	5.2442336	2.2900293
5.619574568337545	5.1964498	2.2795722
5.637122477694054	5.1724534	2.2743027
5.654670519349629	5.192958	2.2788062
5.672218693718784	5.1311	2.2651932
5.689767001216059	5.173267	2.2744818
5.707315442256021	5.1861863	2.27732
5.724864017253266	5.2205	2.2848413
5.7424127266224225	5.233221	2.2876234
5.75996157077814	5.2734065	2.2963898
5.777510550135105	5.258038	2.2930412
5.795059665108022	5.2302513	2.2869742
5.812608916111639	5.1407	2.267311
5.830158303560715	5.260052	2.2934804
5.847707827870055	5.3332353	2.3093798
5.86525748945448	5.4678063	2.338334
5.8828072887288485	5.6223545	2.3711505
5.900357226108044	5.6457253	2.3760736
5.917907302006979	5.644159	2.3757439
5.9354575168406	6.1373024	2.4773579
5.9530078710238765	6.758961	2.5998
5.970558364971812	7.443621	2.7283
5.988108999099438	7.8564525	2.8029363
6.005659773821818	8.541508	2.9225857
6.023210689554039	8.218302	2.866758
6.040761746711227	8.656777	2.9422402
6.058312945708531	7.9783916	2.8246047
6.075864286961132	7.42977	2.7257605
6.093415770884244	6.743022	2.5967329
6.1109673978931065	6.1368456	2.4772658
6.128519168402993	5.5414567	2.35403
6.146071082829204	5.4660816	2.3379653
6.163623141587075	5.3782983	2.3191159
6.181175345091969	5.3223186	2.3070152
6.198727693759281	5.252156	2.2917583
6.216280188004435	5.2406697	2.2892509
6.233832828242885	5.224716	2.2857637
6.251385614890126	5.254594	2.29229
6.268938548361669	5.2839303	2.29868
6.286491629073067	5.199518	2.2802453
6.304044857439898	5.103532	2.2590997
6.321598233877777	4.9553165	2.226054
6.339151758802344	4.971683	2.229727
6.356705432629277	5.0661182	2.250804
6.37425925577428	5.080571	2.2540123
6.391813228653095	5.0182505	2.2401452
6.409367351681486	4.98108	2.2318335
6.426921625275259	4.9753237	2.2305434
6.44447604985025	5.0192776	2.2403743
6.46203062582232	5.0086555	2.2380025
6.47958535360737	5.0686917	2.2513754
6.497140233621328	5.0391755	2.2448108
6.514695266280161	5.0577617	2.248947
6.532250451999859	5.0351768	2.2439198
6.549805791196454	5.032268	2.2432718
6.567361284286002	5.033536	2.2435544
6.584916931684597	5.04576	2.2462769
6.602472733808367	5.057768	2.248948
6.6200286910734665	5.0577602	2.2489464
6.637584803896092	5.0500927	2.247241
6.655141072692462	5.0573397	2.248853
6.672697497878842	5.0286655	2.2424686
6.690254079871514	5.1018677	2.2587314
6.707810819086808	5.0411105	2.2452416
6.725367715941078	5.006211	2.2374563
6.742924770850719	5.005808	2.2373662
6.760481984232151	4.977606	2.2310548
6.778039356501836	4.9763665	2.230777
6.795596888076266	4.9816446	2.2319598
6.813154579371963	4.981958	2.23203
6.830712430805492	5.0058885	2.2373843
6.84827044279344	5.0024447	2.2366145
6.865828615752445	4.9764066	2.230786
6.883386950099159	5.0115147	2.2386413
6.900945446250287	5.000359	2.2361484
6.918504104622553	5.0637217	2.2502716
6.936062925632727	5.068646	2.2513654
6.953621909697607	5.0847726	2.254944
6.971181057234028	5.086992	2.255436
6.988740368658859	5.0848627	2.254964
7.006299844389007	5.140592	2.2672875
7.023859484841407	5.178914	2.2757227
7.041419290433036	5.30341	2.3029134
7.058979261580902	5.451642	2.334875
7.0765393987020495	5.6625776	2.3796172
7.094099702213559	5.9871216	2.4468596
7.111660172532549	6.303314	2.5106401
7.129220810076164	6.668939	2.582429
7.146781615261595	7.3597264	2.7128816
7.16434258850606	7.737629	2.7816594
7.181903730226821	8.153761	2.855479
7.1994650408411704	8.204916	2.8644226
7.217026520766437	8.287156	2.8787422
7.234588170419983	8.423667	2.9023554
7.252149990219215	8.447522	2.9064622
7.269711980581568	8.365373	2.8922954
7.2872741419245175	8.214674	2.8661253
7.304836474665574	7.785723	2.7902908
7.322398979222286	7.373197	2.7153633
7.339961656012233	7.1432242	2.672681
7.357524505453039	6.7838697	2.6045864
7.375087527962357	6.592347	2.5675566
7.392650723957886	6.228974	2.4957912
7.410214093857353	5.923826	2.433891
7.427777638078528	5.704915	2.3884964
7.445341357039213	5.575437	2.3612363
7.4629052511572525	5.423312	2.3288007
7.480469320850524	5.3839293	2.3203297
7.498033566536948	5.2955775	2.301212
7.5155979886344735	5.1663423	2.272959
7.5331625875610975	5.094861	2.25718
7.550727363734844	5.141073	2.2673936
7.568292317573788	5.2335052	2.2876856
7.585857449496025	5.277569	2.297296
7.603422759919705	5.322179	2.306985
7.620988249263007	5.2757344	2.2968967
7.638553917944147	5.265872	2.2947488
7.656119766381391	5.201663	2.2807155
7.673685794993023	5.192034	2.2786036
7.691252004197388	5.1786785	2.275671
7.70881839441285	5.2786255	2.297526
7.726384966057826	5.2977066	2.3016748
7.743951719550762	5.3241563	2.3074133
7.761518655310149	5.3015466	2.3025088
7.779085773754511	5.3138914	2.305188
7.796653075302419	5.29044	2.3000956
7.814220560372475	5.2833233	2.298548
7.831788229383323	5.2720404	2.2960925
7.8493560827536495	5.299169	2.3019924
7.866924120902174	5.294779	2.3010387
7.884492344247663	5.2712746	2.2959256
7.9020607532089135	5.246753	2.2905793
7.919629348204771	5.3083735	2.3039908
7.937198129654115	5.399597	2.3237033
7.954767097975865	5.488782	2.342815
7.972336253588986	5.4652348	2.337784
7.989905596912472	5.441037	2.332603
8.007475128365371	5.4403577	2.3324575
8.025044848366756	5.496407	2.3444417
8.042614757335754	5.6167297	2.3699641
8.060184855691523	5.6189475	2.370432
8.07775514385327	5.7487345	2.397652
8.095325622240228	5.7847753	2.405156
8.112896291271687	5.8181653	2.4120874
8.130467151366968	5.865887	2.4219594
8.148038202945436	5.9102364	2.4310977
8.165609446426497	5.9549727	2.4402814
8.183180882229594	6.003055	2.4501133
8.200752510774217	6.014161	2.4523787
8.218324332479893	6.0018272	2.4498627
8.235896347766193	5.9725146	2.443873
8.253468557052724	5.9424167	2.4377072
8.27104096075914	5.967709	2.4428895
8.288613559305137	6.0945115	2.4687064
8.306186353110448	6.2204843	2.4940898
8.32375934259485	6.285023	2.506995
8.341332528178162	6.2138047	2.4927504
8.358905910280246	6.1921563	2.4884043
8.376479489321003	6.243519	2.4987035
8.394053265720377	6.361112	2.5221245
8.411627239898356	6.376889	2.5252504
8.42920141227497	6.3974824	2.5293245
8.44677578327029	6.345911	2.5191092
8.464350353304427	6.292565	2.5084984
8.48192512279754	6.2083073	2.4916475
8.499500092169827	6.163138	2.4825668
8.51707526184153	6.172283	2.484408
8.534650632232934	6.210536	2.4920948
8.552226203764365	6.2370157	2.4974017
8.569801976856192	6.228019	2.4956
8.587377951928834	6.280874	2.5061672
8.60495412940274	6.3420076	2.5183344
8.622530509698416	6.4087157	2.5315442
8.6401070932364	6.4927235	2.5480824
8.657683880437283	6.5348344	2.556332
8.675260871721695	6.674288	2.5834644
8.692838067510303	6.8358207	2.6145403
8.710415468223834	7.008457	2.647349
8.727993074283043	7.1718855	2.6780376
8.745570886108737	7.1784973	2.6792717
8.763148904121765	7.2247376	2.6878872
8.78072712874302	7.2792826	2.6980145
8.798305560393441	7.5189137	2.7420638
8.815884199494006	7.611848	2.7589579
8.833463046465745	7.7363067	2.7814217
8.851042101729728	7.847993	2.801427
8.86862136570707	8.231251	2.8690157
8.886200838818924	8.443976	2.905852
8.903780521486505	8.530605	2.92072
8.921360414131055	8.5831585	2.9297028
8.938940517173874	8.67688	2.9456544
8.956520831036297	8.785533	2.96404
8.97410135613971	8.997078	2.999513
8.99168209290554	9.128914	3.0214093
9.009263041755265	9.409604	3.0675077
9.026844203110405	9.765632	3.125001
9.044425577392525	9.998128	3.1619816
9.062007165023239	10.133459	3.1833096
9.079588966424197	10.377933	3.22148
9.097170982017108	10.411492	3.2266843
9.11475321222372	11.45148	3.3840036
9.132335657465825	12.373654	3.5176206
9.149918318165264	12.52864	3.5395818
9.167501194743924	13.133772	3.6240547
9.18508428762374	12.82053	3.5805767
9.202667597226693	12.801663	3.5779412
9.220251123974803	12.480733	3.532808
9.237834868290143	12.103915	3.479068
9.255418830594836	11.878811	3.4465652
9.273003011311046	11.245066	3.3533664
9.290587410860985	11.0025	3.3170016
9.308172029666911	10.385045	3.2225835
9.32575686815113	10.177285	3.1901858
9.343341926735997	8.971931	2.9953182
9.360927205843916	8.688378	2.9476056
9.378512705897327	8.477674	2.9116445
9.396098427318728	8.1786585	2.8598354
9.413684370530664	8.051985	2.837602
9.431270535955722	7.980573	2.8249907
9.448856924016539	7.880151	2.8071606
9.466443535135806	7.818678	2.7961898
9.484030369736251	7.7603307	2.785737
9.501617428240658	7.755716	2.7849085
9.519204711071852	7.748029	2.783528
9.536792218652714	7.790785	2.7911978
9.55437995140617	7.824965	2.797314
9.571967909755191	7.8707747	2.80549
9.589556094122802	7.873581	2.8059902
9.60714450493207	7.8319077	2.7985547
9.624733142606116	7.8330965	2.7987669
9.642322007568108	7.882528	2.807584
9.659911100241267	7.990731	2.826788
9.677500421048851	8.083118	2.8430827
9.695089970414175	8.144499	2.8538568
9.712679748760609	8.187596	2.8613975
9.730269756511557	8.2256	2.8680308
9.747859994090492	8.264216	2.874755
9.765450461920915	8.260192	2.874055
9.78304116042639	8.2560215	2.8733294
9.800632090030527	8.2534685	2.872885
9.81822325115699	8.351296	2.8898609
9.835814644229481	8.376204	2.8941672
9.853406269671762	8.346694	2.8890646
9.870998127907646	8.234108	2.8695135
9.888590219360985	8.217195	2.866565
9.906182544455698	8.249398	2.8721766
9.923775103615734	8.325527	2.8853989
9.941367897265108	8.368973	2.8929176
9.958960925827878	8.361919	2.8916984
9.97655418972816	8.398606	2.8980348
9.994147689390106	8.402651	2.8987327
10.011741425237934	8.354581	2.8904293
10.029335397695904	8.387802	2.8961701
10.04692960718833	8.446645	2.9063113
10.06452405413958	8.473198	2.9108758
10.082118738974064	8.479632	2.9119809
10.099713662116246	8.453183	2.907436
10.117308823990651	8.390768	2.8966823
10.134904225021844	8.31501	2.883576
10.152499865634445	8.228808	2.8685899
10.170095746253125	8.205457	2.8645167
10.18769186730261	8.179385	2.8599625
10.205288229207675	8.172819	2.8588142
10.222884832393145	8.159517	2.8564868
10.2404816772839	8.168428	2.8580463
10.258078764304868	8.194516	2.8626065
10.275676093881035	8.184368	2.8608334
10.293273666437438	8.159231	2.8564367
10.310871482399158	8.162073	2.8569343
10.32846954219134	8.1382475	2.8527613
10.346067846239173	8.152857	2.8553207
10.363666394967908	8.171947	2.8586617
10.38126518880283	8.215271	2.8662293
10.398864228169298	8.305585	2.881941
10.416463513492713	8.383116	2.8953612
10.434063045198531	8.332954	2.8866856
10.451662823712262	8.271607	2.8760402
10.469262849459467	8.252778	2.8727648
10.486863122865758	8.194485	2.862601
10.504463644356806	8.236096	2.86986
10.522064414358338	8.19669	2.862986
10.539665433296118	8.127531	2.8508825
10.557266701595987	8.008638	2.8299537
10.574868219683818	7.8640056	2.8042834
10.592469987985552	7.688727	2.7728553
10.610072006927185	7.586725	2.754401
10.627674276934751	7.498442	2.7383285
10.64527679843435	7.424613	2.7248144
10.662879571852143	7.4309645	2.7259796
10.680482597614331	7.276222	2.6974473
10.698085876147173	7.14303	2.6726449
10.715689407876988	7.0518756	2.655537
10.733293193230146	7.0113873	2.6479025
10.750897232633072	6.8754325	2.6221046
10.76850152651225	6.705408	2.5894802
10.786106075294207	6.5597563	2.561202
10.803710879405534	6.5763226	2.564434
10.821315939272877	6.4891047	2.547372
10.83892125532294	6.412726	2.532336
10.856526827982472	6.328542	2.5156593
10.874132657678285	6.2998147	2.5099432
10.891738744837243	6.2664366	2.5032852
10.909345089886271	6.2501597	2.500032
10.926951693252343	6.1519766	2.4803178
10.944558555362494	6.0712485	2.4639904
10.96216567664381	5.97014	2.443387
10.979773057523436	5.8744454	2.4237256
10.997380698428573	5.8067737	2.4097247
11.014988599786477	5.78209	2.4045978
11.032596762024461	5.7398167	2.3957915
11.050205185569892	5.7304487	2.3938355
11.067813870850198	5.5898175	2.3642795
11.085422818292859	5.5085998	2.3470407
11.10303202832541	5.480031	2.3409467
11.120641501375454	5.416496	2.3273365
11.138251237870636	5.3727655	2.3179226
11.155861238238671	5.3404417	2.3109396
11.173471502907317	5.303661	2.3029678
11.191082032304402	5.299797	2.3021288
11.208692826857805	5.237346	2.2885249
11.226303886995465	5.1571846	2.2709436
11.243915213145371	5.032778	2.2433853
11.261526805735578	4.925813	2.2194173
11.279138665194196	4.8859577	2.2104204
11.296750791949393	4.8184156	2.195089
11.314363186429393	4.7850275	2.1874707
11.331975849062479	4.744385	2.178161
11.34958878027699	4.7190447	2.1723363
11.36720198050133	4.7208347	2.172748
11.384815450163948	4.682092	2.1638143
11.402429189693366	4.602698	2.1453898
11.420043199518153	4.5302625	2.1284413
11.437657480066942	63.4546	7.96584
11.455272031768422	85.14856	9.227598
11.472886855051353	107.55362	10.370806
11.490501950344528	99.15854	9.957838
11.508117318076819	84.521255	9.193544
11.52573295867715	45.935818	6.777597
11.543348872574514	4.238582	2.0587816
11.560965060197946	4.1849866	2.045724
11.57858152197655	4.12325	2.0305789
11.59619825833949	4.0850997	2.021163
11.613815269715985	4.0843363	2.0209742
11.631432556535323	38.599228	6.2128277
11.649050119226837	83.06484	9.113992
11.666667958219929	93.42608	9.665717
11.68428607394406	107.66291	10.376074
11.701904466828756	82.50307	9.08312
11.719523137303586	65.39113	8.086478
11.737142085798196	4.641023	2.1543033
11.754761312742286	3.7694001	1.9414943
11.772380818565619	3.6985955	1.9231733
11.790000603698015	3.6981041	1.9230455
11.80762066856935	3.6380794	1.907375
11.825241013609572	3.5981338	1.8968748
11.842861639248683	3.5150905	1.8748574
11.860482545916748	3.4920015	1.8686898
11.878103734043883	3.4825304	1.8661538
11.895725204060282	3.474591	1.8640255
11.91334695639619	3.4653192	1.8615367
11.930968991481919	3.4550726	1.8587825
11.948591309747824	3.3989172	1.8436153
11.966213911624347	3.384963	1.839827
11.98383679754198	3.3385658	1.8271743
12.001459967931268	3.323543	1.8230587
12.019083423222835	3.31243	1.8200082
12.036707163847352	3.276971	1.8102406
12.05433119023556	3.256217	1.8044991
12.071955502818259	3.209701	1.7915639
12.089580102026313	3.2097793	1.7915857
12.107204988290643	3.1776493	1.7825962
12.12483016204224	3.2130065	1.7924861
12.142455623712152	3.2014332	1.7892549
12.16008137373149	3.1808422	1.7834916
12.177707412531431	3.1353033	1.7706788
12.19533374054321	3.124239	1.7675517
12.212960358198126	3.0886006	1.7574415
12.230587265927545	3.121107	1.7666656
12.248214464162889	3.0867424	1.7569127
12.265841953335649	3.0860155	1.7567059
12.283469733877375	3.0552309	1.7479218
12.301097806219685	3.027324	1.7399207
12.31872617079425	3.0253391	1.7393502
12.336354828032825	3.0173912	1.737064
12.353983778367205	2.9986143	1.7316507
12.371613022229262	2.957718	1.7198017
12.389242560050928	2.9296727	1.7116287
12.406872392264201	2.9303446	1.7118249
12.424502519301143	2.925176	1.7103145
12.442132941593874	2.925203	1.7103225
12.459763659574586	2.8952184	1.7015342
12.477394673675532	2.8995883	1.7028178
12.49502598432903	2.9301124	1.7117571
12.51265759196746	2.9170926	1.7079498
12.530289497023267	2.8704274	1.6942335
12.547921699928967	2.7947996	1.6717654
12.565554201117134	2.7727976	1.665172
12.583187001020404	2.7480667	1.6577294
12.600820100071486	2.74444	1.6566352
12.618453498703152	2.7319832	1.6528713
12.636087197348235	2.7431605	1.6562489
12.65372119643964	2.779079	1.6670569
12.671355496410326	2.784981	1.6688262
12.68899009769333	2.8162222	1.6781603
12.706625000721749	2.8688047	1.6937547
12.724260205928752	2.9429767	1.7155106
12.741895713747551	2.9724941	1.7240922
12.759531524611454	3.0217412	1.7383156
12.777167638953818	3.0161896	1.736718
12.794804057208072	3.035494	1.7422669
12.812440779807702	3.0565436	1.7482973
12.830077807186271	3.258656	1.8051748
12.847715139777405	3.2795284	1.8109468
12.865352778014795	3.4838321	1.8665026
12.882990722332197	3.562168	1.8873706
12.90062897316344	3.6393862	1.9077176
12.918267530942412	3.7377377	1.9333229
12.935906396103071	3.6523085	1.9111013
12.953545569079449	3.8504708	1.9622617
12.971185050305628	3.6528876	1.9112529
12.988824840215775	3.6404047	1.9079845
13.006464939244115	3.6067832	1.8991532
13.024105347824943	3.4708207	1.8630139
13.041746066392617	3.5644712	1.8879807
13.05938709538157	3.365264	1.8344656
13.077028435226296	3.3870656	1.8403982
13.094670086361363	3.2875504	1.8131603
13.112312049221401	3.1833189	1.7841858
13.129954324241112	3.104445	1.7619436
13.147596911855258	2.9171655	1.7079712
13.165239812498685	2.951904	1.7181106
13.182883026606293	2.8540187	1.6893841
13.200526554613058	2.7857602	1.6690596
13.218170396954017	2.7084265	1.6457298
13.235814554064284	2.716239	1.6481016
13.253459026379034	2.7180128	1.6486397
13.271103814333523	2.6578577	1.6302937
13.288748918363058	2.639896	1.6247756
13.306394338903031	2.6339629	1.6229488
13.32404007638889	2.6731505	1.6349772
13.341686131256164	2.7130058	1.6471205
13.359332503940449	2.7253728	1.6508703
13.376979194877402	2.7150683	1.6477464
13.394626204502751	2.7218482	1.6498024
13.412273533252307	2.718662	1.6488366
13.429921181561937	2.7434542	1.6563376
13.447569149867581	2.7701433	1.6643747
13.465217438605247	2.752742	1.6591389
13.482866048211022	2.6998963	1.6431361
13.500514979121052	2.6748948	1.6355106
13.518164231771568	2.6596713	1.6308498
13.535813806598844	2.6354194	1.6233975
13.553463704039254	2.6855268	1.6387577
13.571113924529229	2.683635	1.6381804
13.588764468505275	2.7205355	1.6494046
13.606415336403956	2.7157989	1.647968
13.624066528661917	2.745907	1.6570779
13.641718045715882	2.8059552	1.6750985
13.659369888002635	2.854264	1.6894567
13.67702205595903	2.9286265	1.711323
13.694674550021993	2.9661148	1.7222412
13.712327370628532	3.0280871	1.74014
13.729980518215713	3.1439917	1.7731305
13.747633993220681	3.2159133	1.7932968
13.765287796080647	3.2978494	1.8159982
13.7829419272329	3.3058653	1.8182038
13.800596387114801	3.3251572	1.8235013
13.818251176163775	3.364721	1.8343176
13.835906294817324	3.4568954	1.8592728
13.853561743513023	3.5411942	1.8818061
13.871217522688525	3.5160332	1.8751088
13.888873632781538	3.4603703	1.8602071
13.906530074229858	3.470248	1.8628602
13.92418684747135	3.5087852	1.8731751
13.941843952943948	3.5645783	1.8880091
13.959501391085665	3.5250607	1.8775145
13.977159162334578	3.4781733	1.8649862
13.994817267128846	3.4243777	1.8505074
14.012475705906693	3.3530316	1.8311285
14.030134479106424	3.245833	1.8016195
14.047793587166414	3.1827428	1.7840244
14.065453030525108	3.105305	1.7621876
14.083112809621026	3.0184174	1.7373593
14.100772924892766	2.9467256	1.7166029
14.118433376778997	2.8890922	1.699733
14.136094165718458	2.8491468	1.6879416
14.153755292149969	2.821266	1.6796625
14.171416756512416	2.7504187	1.6584386
14.189078559244768	2.6790118	1.6367687
14.20674070078606	2.6239066	1.6198477
14.224403181575408	2.5858796	1.608067
14.242066002051999	2.5358791	1.5924444
14.259729162655093	2.4864953	1.5768625
14.277392663824022	2.4535124	1.5663692
14.295056505998208	2.4441266	1.5633702
14.312720689617128	2.4370317	1.5610995
14.330385215120348	2.4617207	1.5689871
14.348050082947497	2.4825842	1.5756218
14.3657152935383	2.4323761	1.5596077
14.383380847332528	2.4198956	1.5556014
14.401046744770051	2.3904138	1.5460963
14.418712986290798	2.3868816	1.5449536
14.436379572334793	2.369351	1.5392696
14.454046503342123	2.3911302	1.546328
14.471713779752946	2.3997471	1.5491117
14.489381402007504	2.3713338	1.5399135
14.507049370546113	2.3430228	1.5306935
14.524717685809168	2.3363338	1.528507
14.542386348237134	2.3621974	1.5369442
14.560055358270553	2.4056447	1.5510141
14.577724716350051	2.4805937	1.57499
14.595394422916325	2.4757502	1.5734516
14.61306447841015	2.436829	1.5610347
14.63073488327237	2.4098454	1.5523677
14.648405637943917	2.4749336	1.5731921
14.6660767428658	2.4900908	1.5780022
14.683748198479094	2.518845	1.587087
14.701420005224954	2.5426424	1.5945665
14.719092163544628	2.6075678	1.6147965
14.73676467387942	2.6884253	1.6396419
14.754437536670727	2.7276382	1.6515563
14.772110752360014	2.7479382	1.6576906
14.78978432138882	2.6856244	1.6387875
14.807458244198777	2.712719	1.6470333
14.82513252123159	2.6612203	1.6313248
14.842807152929028	2.6778371	1.6364099
14.860482139732962	2.6659553	1.6327753
14.87815748208531	2.6702263	1.6340827
14.8958331804281	2.695385	1.6417627
14.91350923520342	2.7176116	1.648518
14.931185646853438	2.7311974	1.6526334
14.948862415820408	2.684754	1.6385219
14.966539542546656	2.6574912	1.6301813
14.98421702747459	2.6349125	1.6232413
15.001894871046696	2.6626449	1.6317613
15.019573073705542	2.645286	1.6264335
15.037251635893766	2.6159294	1.6173835
15.054930558054092	2.6333544	1.6227614
15.072609840629323	2.7134047	1.6472415
15.090289484062351	2.8297045	1.6821725
15.107969488796124	3.1062407	1.7624531
15.125649855273691	3.5180871	1.8756565
15.14333058393817	4.0496306	2.0123694
15.161011675232768	5.02809	2.2423403
15.17869312960076	6.436492	2.5370243
15.196374947485506	8.359176	2.891224
15.214057129330447	11.507416	3.3922582
15.231739675579114	16.38159	4.0474176
15.249422586675102	21.43308	4.6295877
15.267105863062092	24.539305	4.9537163
15.284789505183847	24.76789	4.976735
15.302473513484218	22.65836	4.76008
15.320157888407127	19.04953	4.364577
15.337842630396578	14.842532	3.8526008
15.355527739896656	11.524978	3.3948457
15.37321321735153	9.01559	3.002597
15.39089906320545	6.5756106	2.5642953
15.408585277902748	4.9473195	2.224257
15.42627186188783	3.8198292	1.9544383
15.443958815605198	3.2761679	1.8100188
15.461646139499424	2.9605556	1.7206265
15.479333834015168	2.7945507	1.671691
15.497021899597165	2.707498	1.6454477
15.514710336690234	2.646343	1.6267585
15.53239914573928	2.5977361	1.6117494
15.550088327189297	2.598748	1.6120633
15.567777881485336	2.5634642	1.6010822
15.58546780907256	2.5370548	1.5928135
15.6031581103962	2.4816415	1.5753226
15.620848785901568	2.4633582	1.5695089
15.638539836034063	2.4558482	1.5671146
15.656231261239173	2.461816	1.5690175
15.673923061962451	2.4221659	1.5563309
15.691615238649552	2.4552286	1.566917
15.709307791746202	2.470309	1.5717217
15.727000721698221	2.4933379	1.5790306
15.744694028951498	2.4413254	1.5624741
15.76238771395202	2.377849	1.5420276
15.780081777145844	2.3390055	1.5293808
15.797776218979125	2.3472931	1.5320878
15.815471039898094	2.3910985	1.5463177
15.833166240349064	2.4088871	1.552059
15.850861820778437	2.3975666	1.5484078
15.868557781632699	2.3716378	1.5400122
15.886254123358412	2.367846	1.5387807
15.903950846402232	2.3652334	1.5379316
15.921647951210897	2.392397	1.5467376
15.939345438231225	2.4128568	1.5533373
15.957043307910133	2.4382124	1.5614777
15.974741560694602	2.40429	1.5505773
15.992440197031714	2.3849115	1.5443159
16.01013921736862	2.3802624	1.5428098
16.02783862215259	2.4165108	1.5545131
16.045538411830933	2.4292257	1.5585973
16.06323858685107	2.4348302	1.5603943
16.080939147660512	2.4156969	1.5542512
16.09864009470684	2.3895206	1.5458075
16.11634142843774	2.3994074	1.549002
16.134043149300954	2.3856761	1.5445634
16.15174525774433	2.3898478	1.5459132
16.169447754215817	2.375225	1.5411766
16.18715063916342	2.3882704	1.545403
16.204853913035244	2.4467134	1.5641974
16.222557576279478	2.4895356	1.5778263
16.240261629344403	22.49173	4.7425447
16.257966072678386	43.04231	6.5606637
16.275670906729868	38.119717	6.1741166
16.293376131947387	2.5172105	1.5865719
16.31108174877957	2.520527	1.5876167
16.328787757675133	2.5711195	1.603471
16.34649415908287	2.6093607	1.6153516
16.364200953451657	2.6380227	1.624199
16.38190814123048	2.664799	1.6324213
16.39961572286839	2.668336	1.6335042
16.41732369881455	2.6501906	1.6279407
16.43503206951817	2.6368542	1.6238394
16.45274083542859	2.6728292	1.634879
16.47044999699522	2.7505975	1.6584926
16.488159554667558	2.8241687	1.6805263
16.505869508895184	2.8850472	1.6985427
16.523579860127786	2.905345	1.7045072
16.541290608815117	2.943307	1.7156068
16.559001755407035	2.987452	1.7284247
16.57671330035348	3.0556486	1.7480414
16.59442524410448	3.1043313	1.7619113
16.61213758711015	3.186769	1.7851524
16.629850329820705	3.243273	1.8009089
16.647563472686436	3.317941	1.8215216
16.665277016157724	3.4075615	1.8459581
16.682990960685053	3.4758162	1.8643541
16.70070530671898	3.488495	1.8677514
16.718420054710155	3.5129547	1.8742878
16.736135205109335	3.5676272	1.8888164
16.753850758367335	3.62203	1.9031632
16.771566714935087	3.679637	1.9182379
16.789283075263597	3.7514892	1.9368762
16.80699983980398	3.743558	1.9348276
16.82471700900741	3.7774012	1.9435538
16.84243458332518	3.8139386	1.9529308
16.860152563208665	3.8826008	1.9704316
16.87787094910932	3.9986818	1.9996704
16.89558974147871	4.047303	2.011791
16.913308940768466	4.140907	2.034922
16.931028547430333	4.2101016	2.0518532
16.94874856191613	4.3454185	2.0845668
16.966468984677785	4.3998423	2.0975802
16.98418981616729	4.4378843	2.1066287
17.00191105683676	4.4866185	2.118164
17.019632707138374	4.5454645	2.1320095
17.03735476752442	4.594234	2.1434164
17.05507723844728	4.5914993	2.1427784
17.072800120359403	4.620253	2.1494775
17.090523413713353	4.5995517	2.1446567
17.108247118961785	4.657625	2.1581533
17.125971236557437	4.678185	2.1629112
17.143695766953133	4.752877	2.1801095
17.161420710601806	4.786556	2.18782
17.179146067956477	4.855259	2.2034652
17.19687183947025	4.858466	2.2041929
17.21459802559634	4.771616	2.184403
17.232324626788028	4.6702347	2.1610725
17.25005164349871	4.6542854	2.1573794
17.267779076181863	4.661025	2.1589408
17.285506925291074	4.6113505	2.1474056
17.30323519127999	4.5597277	2.135352
17.320963874602384	4.545219	2.1319518
17.33869297571211	4.562641	2.136034
17.356422495063114	4.5524516	2.1336474
17.37415243310944	4.56042	2.135514
17.391882790305218	4.5575924	2.134852
17.40961356710468	4.5837307	2.140965
17.42734476396215	4.5771756	2.1394334
17.445076381332044	4.582617	2.1407046
17.462808419668868	4.5913887	2.1427526
17.48054087942723	4.7026434	2.168558
17.498273761061835	4.9913893	2.2341418
17.51600706502747	5.5279984	2.3511696
17.533740791779024	6.289495	2.5078866
17.551474941771485	7.6949925	2.773985
17.56920951545993	8.810115	2.9681838
17.586944513299528	11.063189	3.326137
17.60467993574556	12.7747	3.5741713
17.622415783253373	14.581727	3.8186028
17.64015205627843	16.06144	4.007673
17.657888755276293	17.208752	4.148343
17.675625880702604	17.729698	4.2106647
17.69336343301311	17.556442	4.190041
17.71110141266366	16.677744	4.0838394
17.728839820110178	15.693873	3.9615493
17.746578655808705	14.592953	3.8200724
17.764317920215372	13.065933	3.614683
17.7820576137864	11.468741	3.386553
17.79979773697811	9.428798	3.0706348
17.81753829024692	7.4352508	2.7267656
17.835279274049356	5.761599	2.4003332
17.85302068884201	4.794369	2.1896048
17.870762535081607	4.211479	2.0521889
17.888504813224934	3.9137669	1.9783243
17.90624752372891	3.7244372	1.9298801
17.923990667050536	3.5865743	1.8938253
17.941734243646895	3.500154	1.8708699
17.959478253975185	3.474054	1.8638815
17.9772226984927	3.4252064	1.8507314
17.994967577656833	3.3237422	1.8231133
18.01271289192506	3.3082595	1.8188622
18.030458641754965	3.3257654	1.8236681
18.04820482760425	3.3837278	1.8394911
18.06595144993067	3.3545945	1.8315552
18.083698509192125	3.3163393	1.8210819
18.101446005846576	3.2929077	1.8146371
18.119193940352105	3.286323	1.8128219
18.136942313166887	3.248539	1.8023704
18.1546911247492	3.2256582	1.7960117
18.1724403755574	3.195355	1.7875556
18.19019006604997	3.1880379	1.7855077
18.207940196685467	3.166309	1.7794126
18.225690767922575	3.1268737	1.7682968
18.243441780220046	3.1097178	1.7634392
18.261193234036764	3.1217904	1.7668589
18.278945129831676	3.1408403	1.7722416
18.29669746806386	3.152451	1.7755142
18.314450249192483	3.1001086	1.7607125
18.3322034736768	3.0621321	1.7498949
18.349957141976184	3.0514407	1.7468374
18.3677112545501	3.0863376	1.7567976
18.385465811858108	3.114392	1.7647641
18.403220814359884	3.0859382	1.7566838
18.420976262515172	3.0924766	1.7585438
18.43873215678387	3.1077743	1.7628881
18.456488497625923	3.1782887	1.7827755
18.474245285501407	3.2891603	1.8136042
18.492002520870486	3.3401313	1.8276026
18.50976020419343	3.3809125	1.8387258
18.527518335930615	3.6942046	1.9220314
18.545276916542516	4.292115	2.071742
18.563035946489688	4.4344788	2.1058202
18.580795426232832	4.872128	2.2072897
18.598555356232698	4.7862997	2.1877613
18.616315736950185	5.192917	2.2787971
18.63407656884626	4.8416533	2.2003758
18.65183785238201	5.0465007	2.2464418
18.669599588018617	4.7134643	2.1710515
18.68736177621737	4.696933	2.1672409
18.705124417439652	4.66474	2.159801
18.72288751214696	4.49351	2.11979
18.740651060800886	4.6735425	2.1618378
18.758415063863115	4.3679266	2.0899584
18.77617952179546	4.5861235	2.1415236
18.793944435059814	4.3588815	2.0877934
18.811709804118184	4.365875	2.0894675
18.829475629432675	4.2808623	2.0690246
18.8472419114655	4.030963	2.0077257
18.86500865067897	4.1188993	2.0295072
18.88277584753551	3.8275883	1.9564223
18.90054350249763	3.8843808	1.9708833
18.918311616027957	3.5214765	1.8765597
18.936080188589226	3.409296	1.8464279
18.953849220644265	3.090182	1.7578914
18.971618712656007	2.9368567	1.7137259
18.9893886650875	2.8699527	1.6940935
19.007159078401887	8.067831	2.8403928
19.024929953062408	32.97416	5.742313
19.042701289532435	32.879128	5.7340326
19.060473088275405	25.403444	5.040183
19.07824534975489	2.647888	1.6272333
19.096018074434568	2.6335478	1.622821
19.113791262778197	2.6499739	1.627874
19.13156491524966	2.6220832	1.6192847
19.149339032312945	2.613291	1.6165676
19.167113614432136	2.601344	1.6128683
19.184888662071433	2.5995176	1.612302
19.202664175695123	2.5726943	1.6039621
19.220440155767623	2.5343907	1.591977
19.238216602753447	2.5381813	1.5931671
19.2559935171172	2.5254998	1.5891821
19.27377089932361	2.5329475	1.5915236
19.291548749837514	2.5292664	1.5903667
19.309327069123835	2.515291	1.585967
19.32710585764763	2.5199535	1.5874361
19.344885115874032	2.5209103	1.5877374
19.362664844268313	2.5412312	1.594124
19.380445043295822	2.5227323	1.5883111
19.39822571342203	2.5236647	1.5886047
19.41600685511252	2.5088944	1.583949
19.43378846883297	2.503771	1.582331
19.451570555049173	2.4825516	1.5756115
19.469353114227037	2.479797	1.5747371
19.48713614683254	2.4759085	1.573502
19.50491965333182	2.470277	1.5717115
19.52270363419109	2.5044897	1.5825579
19.540488089876686	2.5148191	1.5858182
19.55827302085503	2.5024726	1.5819205
19.576058427592674	2.4335349	1.5599791
19.593844310556282	2.4009252	1.5494919
19.611630670212598	2.4011557	1.5495663
19.629417507028506	2.4884276	1.5774751
19.64720482147098	2.5409074	1.5940224
19.6649926140071	2.555222	1.5985062
19.682780885104084	2.5534706	1.5979582
19.70056963522921	2.5275714	1.5898337
19.718358864849908	2.5154161	1.5860064
19.7361485744337	2.4620183	1.569082
19.753938764448215	2.4977913	1.5804402
19.771729435361202	2.5229108	1.5883673
19.789520587640506	2.5701365	1.6031646
19.807312221754092	2.568926	1.602787
19.825104338170043	2.541715	1.5942757
19.842896937356517	2.5244985	1.5888671
19.860690019781824	2.5088687	1.5839409
19.87848358591436	2.515515	1.5860375
19.896277636222635	2.4951766	1.5796127
19.914072171175278	2.495068	1.5795784
19.931867191241015	2.4800894	1.5748299
19.94966269688869	2.4908016	1.5782274
19.967458688587264	2.476175	1.5735867
19.985255166805807	2.503835	1.5823511
20.00305213201348	2.5123076	1.585026
20.020849584679578	2.5438502	1.5949452
20.038647525273507	2.5502245	1.5969423
20.05644595426477	2.509408	1.5841111
20.07424487212299	2.4645028	1.5698735
20.092044279317903	2.4328573	1.5597619
20.109844176319353	2.411387	1.5528641
20.127644563597304	2.402395	1.5499661
20.145445441621817	2.39998	1.549187
20.16324681086307	2.4116294	1.5529422
20.181048671791373	2.3944175	1.5473906
20.198851024877122	2.3909686	1.5462757
20.216653870590836	2.3966825	1.5481223
20.234457209403146	2.4188592	1.5552682
20.252261041784802	2.4162054	1.5544149
20.270065368206662	2.38319	1.5437584
20.287870189139685	2.354045	1.5342897
20.305675505054968	2.3468974	1.5319587
20.323481316423702	2.3674395	1.5386486
20.341287623717207	2.3691685	1.5392103
20.359094427406884	2.35328	1.5340405
20.376901727964288	2.3535194	1.5341184
20.39470952586107	2.3724895	1.5402888
20.41251782156899	2.3709812	1.5397991
20.430326615559935	2.338254	1.529135
20.448135908305886	2.3190114	1.5228301
20.465945700278965	2.3279717	1.5257692
20.483755991951384	2.334659	1.5279591
20.50156678379548	2.332209	1.5271572
20.519378076283708	2.301131	1.516948
20.537189869888635	2.3249407	1.5247756
20.55500216508294	2.3516798	1.5335188
20.572814962339415	2.358647	1.5357888
20.59062826213098	2.3389964	1.5293778
20.60844206493066	2.3312309	1.5268369
20.626256371211593	2.330196	1.526498
20.644071181447032	2.337812	1.5289905
20.66188649611036	2.3019598	1.5172211
20.67970231567506	2.3057444	1.5184678
20.697518640614742	2.3233025	1.5242383
20.715335471403122	2.335559	1.5282536
20.73315280851404	2.3120399	1.5205393
20.750970652421447	2.3380387	1.5290647
20.768789003599412	2.3221428	1.5238578
20.786607862522136	2.3013773	1.517029
20.8044272296639	2.300809	1.5168418
20.82224710549913	2.3322265	1.5271629
20.84006749050237	2.3315394	1.526938
20.857888385148268	3.8645868	1.9658552
20.8757097899116	45.943314	6.7781496
20.893531705267254	64.76654	8.047766
20.911354131690224	83.77871	9.153071
20.92917706965566	69.061	8.310295
20.94700051963877	50.12549	7.0799356
20.96482448211493	29.419382	5.4239635
20.982648957559622	4.1317773	2.0326774
21.00047394644843	2.2248642	1.4915979
21.01829944925707	2.2240913	1.4913387
21.036125466461375	2.2390997	1.4963622
21.053951998537297	2.2406452	1.4968785
21.071779045960906	2.2486887	1.4995629
21.089606609208378	2.2612827	1.5037562
21.10743468875603	2.2326527	1.4942063
21.12526328508028	2.2103064	1.48671
21.143092398657675	2.224955	1.4916283
21.16092202996488	2.2295527	1.4931687
21.17875217947867	2.2196186	1.4898385
21.19658284767596	2.240201	1.4967301
21.21441403503377	2.263446	1.5044754
21.232245742029225	2.2604094	1.5034658
21.2500779691396	2.277219	1.5090457
21.26791071684227	2.2764492	1.5087906
21.28574398561475	2.244176	1.4980574
21.30357777593465	2.216686	1.4888539
21.321412088279704	2.1887443	1.4794406
21.339246923127792	2.158017	1.469019
21.357082280956888	2.1221368	1.4567556
21.3749181622451	2.0791807	1.4419365
21.392754567470647	2.0612943	1.4357208
21.41059149711187	2.065607	1.437222
21.42842895164726	2.0816746	1.442801
21.446266931555378	2.0982268	1.4485258
21.464105437314945	2.0855584	1.4441463
21.481944469404798	2.1251295	1.4577824
21.49978402830388	2.1309185	1.4597666
21.51762411449127	2.1541865	1.4677147
21.53546472844617	2.102494	1.4499979
21.553305870647876	2.1007109	1.4493829
21.571147541575865	2.108222	1.4519718
21.58898974170967	2.1257594	1.4579984
21.60683247152899	2.1142788	1.454056
21.62467573151363	2.0739262	1.4401133
21.642519522143523	2.072936	1.4397694
21.660363843898722	2.0686476	1.4382794
21.6782086972594	2.0855725	1.4441512
21.696054082705864	2.0778387	1.441471
21.713900000718535	2.0465465	1.4305756
21.73174645177795	2.022492	1.4221435
21.749593436364794	2.027561	1.4239244
21.767440954959845	2.0386527	1.4278139
21.785289008044032	2.0471044	1.4307705
21.803137596098388	2.0446265	1.4299043
21.820986719604086	2.0657642	1.4372766
21.838836379042412	2.0468976	1.4306983
21.85668657489478	2.0213497	1.4217417
21.87453730764273	1.9971881	1.4132191
21.892388577767914	1.9973673	1.4132824
21.91024038575213	1.9871808	1.409674
21.928092732077285	1.978891	1.4067307
21.945945617225426	1.9962913	1.4129018
21.963799041678694	2.046841	1.4306785
21.981653005919398	31.388432	5.602538
21.999507510429943	78.16876	8.84131
22.01736255569286	73.08754	8.549125
22.035218142190818	4.1821814	2.0450382
22.05307427040661	2.0106475	1.417973
22.07093094082315	1.9907393	1.4109356
22.088788153923474	1.9774294	1.406211
22.106645910190746	2.0235152	1.4225031
22.12450421010827	2.0335155	1.4260138
22.142363054159464	1.9958438	1.4127433
22.16022244282787	1.930197	1.3893152
22.178082376597164	1.9315871	1.3898154
22.195942855951145	1.9479147	1.3956772
22.213803881373742	1.9522585	1.3972324
22.231665453349002	1.9393678	1.3926119
22.24952757236111	1.952489	1.3973149
22.26739023889438	1.9704888	1.403741
22.28525345343323	1.9750192	1.4053538
22.30311721646225	1.9428327	1.3938553
22.320981528466113	1.9131863	1.3831798
22.33884638992964	1.9088917	1.3816265
22.356711801337788	1.9593085	1.399753
22.37457776317561	1.9602388	1.4000853
22.392444275928337	1.9552213	1.3982923
22.410311340081282	1.9491413	1.3961165
22.428178956119904	1.9357748	1.3913213
22.446047124529805	1.9268879	1.3881239
22.46391584579669	1.9293177	1.3889989
22.481785120406414	1.9371512	1.3918158
22.49965494884496	1.9067235	1.3808416
22.51752533159841	1.9576824	1.3991721
22.53539626915302	1.9907681	1.4109458
22.553267761995137	1.9670793	1.402526
22.571139810611264	1.9441787	1.3943381
22.589012415488025	1.9686161	1.4030738
22.60688557711216	2.0016553	1.4147987
22.624759295970566	1.9712261	1.4040036
22.642633572550263	1.9448639	1.3945838
22.660508407338362	1.9554762	1.3983834
22.67838380082217	1.970186	1.4036331
22.696259753489077	1.9496459	1.3962972
22.714136265826614	1.9515831	1.3969908
22.73201333832246	1.9449797	1.3946253
22.74989097146439	1.9317137	1.389861
22.76776916574035	1.9351052	1.3910806
22.785647921638393	1.9390562	1.3924999
22.803527239646712	1.9176782	1.3848026
22.82140712025363	1.9256284	1.3876702
22.839287563947593	1.9389693	1.3924688
22.85716857121719	1.9446927	1.3945224
22.875050142551135	1.9402989	1.3929461
22.892932278438277	1.9067738	1.3808599
22.910814979367604	1.9387089	1.3923752
22.928698245828222	1.9438267	1.3942119
22.946582078309387	1.9516901	1.397029
22.96446647730047	1.921138	1.3860513
22.98235144329098	1.9194331	1.385436
23.000236976770562	1.9112659	1.3824854
23.018123078229	1.9025788	1.37934
23.03600974815619	1.9092681	1.3817627
23.053896987042194	1.8939499	1.3762085
23.071784795377173	1.904727	1.3801185
23.08967317365145	1.9056193	1.3804417
23.10756212235546	1.9152738	1.3839341
23.125451641979787	1.9364405	1.3915604
23.143341733015134	1.9177948	1.3848447
23.161232395952357	1.8806486	1.3713675
23.179123631282426	1.8349913	1.3546185
23.197015439496468	1.866364	1.3661493
23.214907821085717	1.913892	1.3834349
23.23280077654157	1.9231828	1.3867887
23.250694306355538	1.9087912	1.3815901
23.268588411019277	1.9104763	1.3821998
23.28648309102458	1.9438239	1.3942108
23.304378346863356	1.9475228	1.3955368
23.322274179027676	1.9582115	1.3993611
23.340170588009723	1.9496697	1.3963057
23.358067574301852	1.9674104	1.402644
23.37596513839651	1.9600012	1.4000005
23.39386328078629	1.9743025	1.4050988
23.411762001963947	1.9965731	1.4130014
23.429661302422353	2.01426	1.4192463
23.4475611826545	1.985394	1.4090401
23.46546164315356	1.9984089	1.4136509
23.48336268441279	1.9628237	1.4010081
23.501264306925638	1.886087	1.3733488
23.51916651118564	1.8627186	1.3648145
23.537069297686497	1.9237072	1.3869778
23.554972666922037	1.9668504	1.4024445
23.57287661938623	1.9649299	1.4017596
23.59078115557318	1.961415	1.4005053
23.608686275977128	1.9870775	1.4096373
23.62659198109246	1.9914609	1.4111913
23.6444982714137	1.9868991	1.4095742
23.66240514743549	1.9869931	1.4096074
23.68031260965263	1.9713249	1.4040388
23.698220658560068	1.9449048	1.3945985
23.716129294652845	1.9194227	1.3854324
23.7340385184262	1.9144436	1.3836342
23.75194833037546	1.8960327	1.376965
23.769858730996123	1.9453357	1.394753
23.78776972078382	1.9600164	1.4000058
23.80568130023431	1.9566302	1.398796
23.823593469843495	1.9192733	1.3853784
23.841506230107424	1.904975	1.3802084
23.859419581522275	1.8605548	1.3640215
23.87733352458438	1.8361685	1.355053
23.89524805979019	1.8818867	1.3718188
23.913163187636318	1.9724683	1.4044459
23.931078908619508	1.9980783	1.413534
23.948995223236633	1.9657173	1.4020404
23.966912131984735	1.9919567	1.4113669
23.98482963536096	2.015103	1.4195433
24.002747733862616	2.0543718	1.433308
24.020666427987155	2.0757911	1.4407606
24.038585718232156	2.088514	1.4451692
24.056505605095353	2.0883613	1.4451164
24.074426089074617	2.134373	1.4609493
24.092347170667946	2.150355	1.466409
24.110268850373515	2.148831	1.4658891
24.128191128689586	2.1508284	1.4665703
24.146114006114626	2.0843906	1.4437419
24.164037483147187	2.0341907	1.4262506
24.181961560286005	2.0360217	1.4268923
24.199886238029926	2.0381024	1.4276212
24.21781151687797	2.0695343	1.4385877
24.235737397329274	2.0728896	1.4397533
24.253663879883135	2.0903175	1.445793
24.271590965038975	2.0869863	1.4446405
24.289518653296376	2.0485594	1.431279
24.30744694515505	2.027129	1.4237728
24.32537584111486	2.0379937	1.4275831
24.34330534167581	2.0729074	1.4397595
24.361235447338046	2.1074054	1.4516906
24.379166158601876	2.0619802	1.4359597
24.39709747596772	2.045446	1.4301909
24.41502939993615	2.0307817	1.425055
24.432961931007917	2.0118723	1.4184048
24.450895069683856	1.9927197	1.4116372
24.468828816465	2.0033667	1.4154034
24.4867631718525	2.0169094	1.4201794
24.504698136347656	1.9976912	1.4133971
24.52263371045192	1.9767548	1.4059712
24.540569894666874	1.964302	1.4015355
24.558506689494266	1.9356968	1.3912932
24.57644409543597	1.9788675	1.4067223
24.594382112994012	1.9789399	1.4067479
24.61232074267057	2.027638	1.4239515
24.630259984967953	2.024979	1.4230176
24.64819984038863	1.972317	1.404392
24.66614030943522	1.9236517	1.3869578
24.684081392610462	1.9441397	1.3943241
24.702023090417274	2.008148	1.4170914
24.7199654033587	2.0296464	1.4246566
24.737908331937927	2.0560284	1.4338858
24.755851876658305	2.014759	1.419422
24.773796038023324	1.9954848	1.4126163
24.79174081653661	2.0151365	1.4195551
24.809686212701962	2.0821872	1.4429786
24.827632227023294	2.11891	1.4556477
24.8455788600047	2.1511137	1.4666675
24.8635261121504	2.154911	1.4679615
24.88147398396475	2.1476638	1.4654909
24.899422475952303	2.1307888	1.4597222
24.917371588617698	2.1199675	1.4560108
24.935321322465768	2.1213157	1.4564737
24.953271678001478	2.1846762	1.478065
24.97122265572994	2.4220116	1.5562813
24.989174256156414	2.803232	1.6742855
25.00712647978632	3.3186302	1.8217108
25.02507932712521	3.8978546	1.9742985
25.043032798678798	4.4077806	2.0994716
25.060986894952933	4.9902735	2.233892
25.078941616453637	5.7864103	2.405496
25.096896963687055	6.779827	2.60381
25.114852937159508	7.9186854	2.8140159
25.132809537377444	8.383512	2.8954294
25.150766764847468	8.397245	2.8978002
25.168724620076347	7.7480717	2.7835357
25.186683103570985	6.666405	2.5819383
25.204642215838426	5.451136	2.3347669
25.222601957385894	4.1432157	2.035489
25.24056232872074	3.1938798	1.7871429
25.25852333035048	2.6288145	1.621362
25.276484962782778	2.2756503	1.5085258
25.294447226525435	2.0987287	1.448699
25.312410122086423	2.0330389	1.4258467
25.330373649973843	2.0133145	1.4189131
25.348337810695988	1.9893745	1.4104519
25.366302604761245	1.9841484	1.4085981
25.384268032678207	1.9683533	1.4029801
25.40223409495558	1.9381661	1.3921803
25.420200792102257	1.9238138	1.3870162
25.438168124627246	1.9058926	1.3805407
25.45613609303974	1.8981422	1.3777308
25.474104697849057	1.9096621	1.3819052
25.492073939564698	1.9536009	1.3977127
25.510043818696285	1.9886376	1.4101906
25.528014335753614	1.9468188	1.3952845
25.54598549124664	1.9047122	1.3801131
25.56395728568544	1.8864306	1.3734739
25.58192971958028	1.877151	1.3700916
25.59990279344156	1.8575824	1.3629316
25.617876507779833	1.8418686	1.3571546
25.635850863105826	1.8511989	1.3605877
25.653825859930386	1.9178097	1.38485
25.671801498764548	1.966323	1.4022564
25.68977778011949	1.9570098	1.3989316
25.707754704506524	1.9140221	1.3834819
25.725732272437153	1.9260093	1.3878074
25.743710484423012	1.9145075	1.3836573
25.761689340975888	1.8844222	1.3727425
25.77966884260774	1.8605405	1.3640163
25.797648989830662	1.832408	1.3536646
25.815629783156922	1.8346957	1.3545094
25.83361122309895	1.8095506	1.3451954
25.85159331016929	1.8455223	1.3585
25.869576044880695	1.8816527	1.3717334
25.887559427746034	1.8791821	1.3708327
25.90554345927836	1.8737212	1.3688394
25.92352813999086	1.8444139	1.358092
25.94151347039689	1.861151	1.36424
25.959499451009965	1.8660471	1.3660333
25.97748608234374	1.8687811	1.3670337
25.995473364912062	1.8867694	1.3735973
26.013461299228904	1.9539727	1.3978457
26.03144988580839	1.9239805	1.3870763
26.04943912516483	1.8413835	1.3569758
26.067429017812675	1.7912965	1.3383932
26.085419564266537	1.849879	1.3601025
26.103410765041186	1.8581561	1.363142
26.12140262065155	1.7957107	1.3400413
26.139395131612723	1.7382175	1.3184148
26.157388298439948	1.7451373	1.3210365
26.17538212164861	1.7968311	1.3404593
26.193376601754295	1.8294135	1.3525581
26.211371739272714	1.8593501	1.3635799
26.229367534719746	1.8700256	1.3674889
26.247363988611433	1.8447694	1.3582228
26.26536110146397	1.832598	1.3537349
26.283358873793727	1.839991	1.3564627
26.301357306117204	1.8103526	1.3454934
26.319356398951104	1.7834435	1.3354563
26.33735615281224	1.8385998	1.3559498
26.35535656821762	1.8644441	1.3654464
26.373357645684404	1.8461512	1.3587315
26.39135938572991	1.8378444	1.3556712
26.409361788871614	1.8260409	1.3513108
26.427364855627165	1.8242	1.3506294
26.445368586514352	1.8426121	1.3574286
26.46337298205115	1.8164346	1.3477517
26.48137804275568	1.8207628	1.3493564
26.499383769146217	1.7872435	1.3368783
26.517390161741215	1.7797226	1.3340625
26.53539722105928	1.795596	1.3399985
26.553404947619182	1.81689	1.3479207
26.571413341939856	1.8017853	1.342306
26.589422404540397	1.7601492	1.3267062
26.60743213594006	1.7871459	1.3368417
26.62544253665827	1.831869	1.3534656
26.64345360721459	1.8213642	1.3495792
26.66146534812879	1.7886361	1.337399
26.679477759920758	1.7629713	1.3277693
26.69749084311057	1.7490041	1.3224992
26.71550459821847	1.7694136	1.330193
26.733519025764842	1.8319664	1.3535016
26.751534126270258	1.8369474	1.3553404
26.769549900255434	1.8286139	1.3522625
26.787566348241267	1.7926996	1.3389173
26.80558347074881	1.7730515	1.3315598
26.823601268299267	1.7819219	1.3348864
26.841619741414036	1.7872412	1.3368775
26.85963889061465	1.7660081	1.3289124
26.877658716422832	1.8141557	1.346906
26.89567921936045	1.8490549	1.3597996
26.913700399949544	1.8614006	1.3643316
26.93172225871233	1.8637146	1.3651793
26.949744796171174	1.8369482	1.3553406
26.967768012848605	1.8069032	1.344211
26.98579190926733	1.8176094	1.3481874
27.003816485950225	1.8454975	1.358491
27.021841743420318	1.8665507	1.3662176
27.039867682200814	1.873162	1.368635
27.057894302815072	1.854188	1.3616858
27.07592160578664	1.8275077	1.3518535
27.0939495916392	1.8336333	1.3541172
27.111978260896635	1.8403677	1.3566015
27.13000761408296	1.8327056	1.3537745
27.148037651722397	1.8380927	1.3557627
27.166068374339304	1.8273847	1.351808
27.184099782458215	1.8089463	1.3449707
27.20213187660384	1.7890456	1.3375521
27.22016465730105	1.7634126	1.3279355
27.23819812507487	1.7995301	1.3414657
27.256232280450533	1.8480835	1.3594424
27.274267123953383	1.8500346	1.3601598
27.292302656108987	1.844262	1.358036
27.31033887744306	1.8211496	1.3494997
27.32837578848146	1.8379018	1.3556924
27.34641338975026	1.8513862	1.3606565
27.364451681775673	1.8587757	1.3633692
27.382490665084074	1.8670795	1.3664112
27.400530340202046	1.8775245	1.3702279
27.41857070765629	1.8511008	1.3605516
27.436611767973726	1.8225448	1.3500166
27.454653521681404	1.8204035	1.3492233
27.472695969306564	1.8348117	1.3545521
27.490739111376627	1.791431	1.3384435
27.508782948419153	1.7360191	1.3175808
27.526827480961902	1.7252506	1.313488
27.54487270953279	1.747443	1.3219088
27.562918634659898	1.7800696	1.3341925
27.580965256871508	1.7521659	1.323694
27.599012576696026	1.7724996	1.3313525
27.617060594662068	1.793277	1.3391329
27.63510931129842	1.8240821	1.3505858
27.65315872713401	1.8271388	1.351717
27.67120884269797	1.8360829	1.3550214
27.68925965851958	1.8240017	1.350556
27.707311175128307	1.8300555	1.3527955
27.725363393053787	1.9094684	1.3818351
27.74341631282583	1.9884943	1.4101398
27.7614699349744	1.9963887	1.4129362
27.77952426002968	2.0745575	1.4403324
27.797579288521973	2.0946293	1.4472834
27.815635020981784	2.4226668	1.5564919
27.83369145793979	2.5110524	1.58463
27.85174859992682	2.459089	1.5681483
27.869806447473923	2.3362684	1.5284857
27.887865001112267	2.0067632	1.4166027
27.905924261373233	1.8773671	1.3701705
27.92398422878836	1.8562893	1.362457
27.94204490388936	1.8294518	1.3525723
27.96010628720813	1.8013383	1.3421395
27.978168379276728	1.8641932	1.3653547
27.9962311806274	1.879035	1.3707789
28.014294691792568	1.8901163	1.374815
28.0323589133048	1.889202	1.3744824
28.050423845696887	1.8780391	1.3704157
28.068489489501758	1.8549416	1.3619624
28.086555845252523	1.8652688	1.3657484
28.104622913482487	1.8849843	1.3729473
28.122690694725115	1.8754345	1.369465
28.14075918951405	1.8662572	1.3661102
28.15882839838312	1.830668	1.3530217
28.176898321866304	1.8489691	1.359768
28.1949689604978	1.8613636	1.364318
28.213040314811945	1.8226497	1.3500555
28.23111238534327	1.7923479	1.338786
28.249185172626493	1.825464	1.3510973
28.267258677196473	1.8892455	1.3744982
28.285332899588294	1.9362532	1.3914932
28.303407840337172	1.9375806	1.39197
28.321483499978545	1.9208513	1.3859478
28.33955987904799	1.9495896	1.3962771
28.357636978081285	1.9978667	1.4134592
28.37571479761439	1.999919	1.4141849
28.393793338183425	1.9618161	1.4006485
28.41187260032469	1.9808017	1.4074095
28.429952584574686	2.031228	1.4252115
28.448033291470065	2.0080278	1.4170489
28.46611472154769	1.9616928	1.4006045
28.484196875344566	2.0079448	1.4170197
28.502279753397914	2.062707	1.4362127
28.52036335624511	2.0542445	1.4332635
28.538447684423716	1.9844246	1.408696
28.556532738471482	1.9256059	1.387662
28.574618518926325	1.9723535	1.404405
28.59270502632635	2.0648396	1.436955
28.61079226120985	2.0547154	1.4334278
28.628880224115274	2.0607812	1.4355421
28.646968915581287	2.096425	1.4479036
28.66505833614671	2.0834017	1.4433993
28.68314848635055	2.0770779	1.441207
28.701239366732004	2.1084013	1.4520335
28.71933097783044	2.132507	1.4603106
28.737423320185403	2.1086843	1.4521309
28.75551639433665	2.1161354	1.4546943
28.773610200824074	2.1366467	1.4617273
28.791704740187793	2.1262197	1.4581562
28.80980001296809	2.091216	1.4461038
28.827896019705413	2.1302674	1.4595436
28.845992760940433	2.1500902	1.4663186
28.86409023721397	2.1650765	1.4714199
28.88218844906704	2.2249079	1.4916126
28.900287397040845	2.2372644	1.4957488
28.918387081676755	2.2555475	1.501848
28.936487503516343	2.271602	1.5071834
28.954588663101365	2.3357806	1.528326
28.97269056097374	2.4705002	1.5717825
28.990793197675597	2.4746928	1.5731156
29.00889657374923	2.4312794	1.5592561
29.027000689737125	2.3853104	1.544445
29.04510554618196	2.46969	1.5715247
29.06321114362659	2.4945097	1.5794017
29.08131748261405	2.5102606	1.5843801
29.099424563687567	2.4968967	1.5801572
29.11753238739057	2.565533	1.6017281
29.13564095426663	2.5750265	1.6046889
29.15375026485954	2.5867438	1.6083357
29.171860319713275	2.653932	1.6290894
29.18997111937199	2.751256	1.658691
29.20808266438002	2.8214684	1.6797227
29.226194955281898	2.8325067	1.6830052
29.244307992622335	2.8404775	1.6853716
29.26242177694624	2.8228996	1.6801487
29.2805363087987	2.8439333	1.6863966
29.29865158872498	2.8923445	1.7006894
29.316767617270557	2.9688756	1.7230426
29.334884394981064	3.0341766	1.7418888
29.353001922402367	3.0705082	1.7522866
29.37112020008047	3.1115851	1.7639686
29.389239228561596	3.2322006	1.7978323
29.407359008392152	3.4524667	1.8580815
29.42547954011872	3.8251262	1.955793
29.44360082428809	4.4533362	2.110293
29.46172286144722	5.5647945	2.3589816
29.479845652143283	7.180924	2.6797247
29.497969196923606	9.264854	3.0438223
29.516093496335728	11.888304	3.447942
29.5342185509274	14.842748	3.8526287
29.55234436124651	17.276348	4.1564827
29.570470927841175	18.581299	4.310603
29.588598251259686	18.066536	4.250475
29.60672633205055	16.642103	4.0794735
29.624855170762405	14.448949	3.8011773
29.642984767944146	11.499672	3.3911166
29.66111512414481	8.755386	2.9589503
29.67924623991366	6.5165763	2.5527585
29.697378115800138	4.9631166	2.2278054
29.71551075235387	4.107042	2.0265837
29.733644150124675	3.774544	1.9428185
29.751778309662576	3.604977	1.8986777
29.769913231517766	3.4323676	1.852665
29.78804891624066	3.300609	1.8167578
29.806185364381818	3.2545896	1.8040481
29.82432257649206	3.320892	1.8223315
29.842460553122333	3.3587725	1.8326954
29.86059929482382	3.366117	1.8346981
29.878738802147872	3.3244662	1.8233119
29.896879075646048	3.2722898	1.8089471
29.915020115870114	3.320094	1.8221126
29.933161923371976	3.3546019	1.8315573
29.951304498703777	3.3733048	1.8366559
29.969447842417857	3.3672378	1.8350035
29.987591955066733	3.3177063	1.8214571
30.005736837203123	3.2581084	1.8050231
30.023882489379943	3.1417308	1.7724928
30.04202891215028	3.0425632	1.7442945
30.060176106067455	3.0822206	1.7556254
30.078324071684946	3.19042	1.7861747
30.09647280955646	3.1414886	1.7724245
30.114622320235863	3.0993502	1.7604971
30.132772604277257	3.1254926	1.7679063
30.1509236622349	3.0952315	1.759327
30.16907549466328	3.044219	1.7447691
30.18722810211705	3.0568767	1.7483926
30.205381485151097	3.0401886	1.7436136
30.22353564432045	2.9703991	1.7234846
30.241690580180403	2.969613	1.7232566
30.25984629328638	2.9836962	1.727338
30.278002784194037	3.009248	1.7347184
30.296160053459246	2.960483	1.7206055
30.314318101638033	2.9687102	1.7229946
30.332476929286646	3.000286	1.7321334
30.35063653696153	3.0241587	1.7390108
30.368796925219307	2.9602013	1.7205236
30.386958094616844	2.8966296	1.7019488
30.40512004571115	2.8801422	1.6970981
30.423282779059463	2.9138868	1.7070111
30.441446295219233	2.905547	1.7045665
30.459610594748067	2.8630786	1.6920635
30.47777567820382	2.83006	1.6822783
30.495941546144504	2.8057141	1.6750267
30.51410819912835	2.7616827	1.6618311
30.532275637713795	2.7822354	1.6680034
30.55044386245946	2.877314	1.6962647
30.56861287392416	2.9124365	1.7065862
30.586782672666956	2.8445973	1.6865934
30.604953259247047	2.7813702	1.667744
30.623124634223885	2.7521074	1.6589477
30.641296798157075	2.8025978	1.6740961
30.659469751606462	2.8873932	1.6992332
30.677643495132074	2.849873	1.6881567
30.695818029294152	2.7943707	1.671637
30.713993354653116	2.7654514	1.6629647
30.73216947176962	2.7688212	1.6639775
30.75034638120448	2.6989381	1.6428446
30.768524083518756	2.6837468	1.6382145
30.786702579273673	2.7599754	1.6613173
30.80488186903069	2.8586526	1.690755
30.82306195335144	2.9560707	1.7193227
30.841242832797782	3.1345239	1.7704587
30.85942450793176	3.36413	1.8341565
30.877606979315637	3.6547458	1.911739
30.895790247511883	4.077487	2.0192788
30.913974313083134	4.606248	2.146217
30.932159176592283	4.7997346	2.1908298
30.95034483860237	4.833066	2.1984236
30.968531299676698	4.719705	2.1724882
30.98671856037873	4.43836	2.1067417
31.00490662127215	3.9157553	1.9788268
31.023095482920848	3.4885874	1.867776
31.04128514588892	3.0595798	1.7491654
31.059475610740662	2.7555017	1.6599704
31.07766687804056	2.5676339	1.6023839
31.09585894835335	2.451886	1.5658499
31.11405182224393	2.467439	1.5708084
31.132245500277417	2.4588196	1.5680624
31.15043998301914	2.4116573	1.5529512
31.168635271034628	2.4074516	1.5515965
31.18683136488964	2.537307	1.5928926
31.20502826515008	2.5640798	1.6012744
31.223225972382135	2.521274	1.587852
31.241424487152155	2.420786	1.5558875
31.259623810026692	2.4435687	1.5631919
31.27782394157253	2.5229733	1.588387
31.296024882356644	2.533642	1.5917418
31.314226632946237	2.4547813	1.5667741
31.332429193908684	2.458526	1.5679687
31.350632565811598	2.4883797	1.5774599
31.368836749222787	2.4495137	1.5650922
31.387041744710295	2.4250722	1.5572643
31.40524755284232	2.4627368	1.5693109
31.423454174187317	2.4811878	1.5751786
31.441661609313922	2.48713	1.5770637
31.459869858791002	2.4246387	1.5571252
31.478078923187628	2.4277146	1.5581125
31.496288803073064	2.3915508	1.546464
31.514499499016807	2.361019	1.5365608
31.532711011588546	2.3281338	1.5258224
31.550923341358178	2.3234665	1.5242921
31.56913648889584	2.3168879	1.5221326
31.587350454771844	2.3189292	1.5228031
31.605565239556732	2.3351195	1.5281098
31.62378084382127	2.3735905	1.5406461
31.641997268136382	2.310752	1.5201157
31.660214513073274	2.248623	1.4995409
31.67843257920331	2.2923973	1.5140665
31.6966514670981	2.358353	1.5356929
31.71487117732944	2.442021	1.5626967
31.733091710469346	2.3905153	1.5461291
31.751313067090052	2.3431818	1.5307455
31.769535247764008	2.3035975	1.5177606
31.787758253063878	2.2796104	1.5098379
31.805982083562526	2.3213985	1.5236136
31.824206739833024	2.36549	1.5380149
31.84243222244869	2.3347962	1.5280039
31.860658531983013	2.2517529	1.5005841
31.878885669009737	2.196112	1.4819285
31.897113634102784	2.1881003	1.4792229
31.91534242783632	2.273328	1.507756
31.933572050784694	2.3192368	1.522904
31.951802503522508	2.3223572	1.5239282
31.970033786624548	2.2417402	1.4972442
31.988265900665834	2.2193832	1.4897594
32.006498846221575	2.2472973	1.4990988
32.02473262386724	2.2542875	1.5014285
32.04296723417845	2.1775315	1.4756461
32.0612026777311	2.1419125	1.4635274
32.07943895510129	2.1426575	1.463782
32.097676066865304	2.1383293	1.4623027
32.115914013599685	2.0498395	1.4317261
32.13415279588115	2.0319507	1.4254651
32.152392414286666	2.0576584	1.4344541
32.1706328693934	2.0839996	1.4436065
32.18887416177875	2.1525567	1.4671594
32.20711629202032	2.1782641	1.4758943
32.225359260695924	2.1186104	1.4555447
32.243603068383614	2.0266914	1.4236192
32.26184771566166	2.0956	1.4476187
32.28009320310852	2.1608531	1.469984
32.2983395313029	2.1737466	1.4743631
32.31658670082372	2.2144706	1.4881097
32.33483471225012	2.2643635	1.5047802
32.35308356616143	2.2832928	1.5110568
32.371333263137245	2.239448	1.4964786
32.38958380375734	2.1680827	1.4724411
32.407835188601744	2.0584607	1.4347336
32.42608741825067	2.014399	1.4192953
32.444340493284585	1.9963202	1.412912
32.46259441428416	2.0221574	1.4220258
32.48084918183028	2.0285316	1.4242653
32.49910479650405	2.0134377	1.4189565
32.51736125888683	2.004439	1.4157822
32.53561856956014	2.0556471	1.4337528
32.5538767291058	2.095439	1.447563
32.572135738105764	2.048089	1.4311146
32.59039559714228	2.0534506	1.4329866
32.608656306797776	2.0805273	1.4424033
32.62691786765491	2.0803888	1.4423553
32.645180280296586	2.1228447	1.4569985
32.663443545305896	2.0926933	1.4466144
32.68170766326619	2.0586262	1.4347913
32.69997263476099	1.9975109	1.4133333
32.7182384603741	1.993719	1.4119911
32.7365051406895	2.068683	1.4382917
32.75477267629144	2.0724678	1.4396068
32.77304106776434	1.9893528	1.4104441
32.79131031569289	1.9449267	1.3946064
32.809580420661966	1.931594	1.389818
32.827851383256714	1.9937236	1.4119928
32.84612320406245	2.1207461	1.4562782
32.86439588366476	2.1096816	1.4524744
32.88266942264945	2.1507256	1.4665352
32.9009438216025	2.1677701	1.472335
32.9192190811102	2.0300775	1.4248079
32.937495201758985	1.9930114	1.4117405
32.95577218413556	2.0505917	1.4319887
32.974050028826866	2.141482	1.4633803
32.992328736420035	2.182041	1.4771733
33.010608307502444	2.1070375	1.4515638
33.02888874266169	2.0254612	1.423187
33.047170042485604	1.921714	1.386259
33.06545220756225	1.9110773	1.3824172
33.083735238479896	1.9676324	1.4027232
33.10201913582707	2.0251448	1.4230758
33.12030390019248	1.9540244	1.3978642
33.138589532165135	1.9737402	1.4048986
33.15687603233419	1.9673584	1.4026256
33.17516340128909	1.9262346	1.3878886
33.19345163961947	1.9339247	1.3906562
33.211740747915215	1.9546547	1.3980896
33.23003072676643	1.9558737	1.3985256
33.248321576763466	1.9352336	1.3911268
33.266613298496885	1.9259211	1.3877755
33.28490589255747	1.9181672	1.3849791
33.30319935953626	2.0119734	1.4184405
33.32149370002451	2.0806181	1.4424348
33.339788914613706	2.002896	1.4152371
33.358085003895575	1.9499288	1.3963985
33.376381968462034	1.9808578	1.4074296
33.39467980890529	1.9057423	1.3804862
33.41297852581774	1.8473452	1.3591708
33.43127811979204	1.9492966	1.3961722
33.44957859142105	2.0654922	1.4371821
33.467879941297866	2.0968263	1.4480423
33.486182170015844	1.9739536	1.4049746
33.50448527816853	1.9425266	1.3937455
33.522789266349754	1.9555187	1.3983986
33.541094135153514	1.9670564	1.4025179
33.55939988517411	1.955972	1.3985606
33.57770651700602	2.026812	1.4236615
33.59601403124398	1.984011	1.4085493
33.61432242848296	1.9230933	1.3867564
33.632631709318154	1.8721042	1.3682486
33.650941874344994	1.9056064	1.380437
33.66925292415916	1.9196432	1.3855119
33.68756485935654	1.8690461	1.3671306
33.70587768053328	1.8839061	1.3725545
33.724191388285746	1.911254	1.3824811
33.74250598321054	1.9418725	1.3935108
33.760821465904506	1.9563432	1.3986933
33.77913783696474	1.8478589	1.3593597
33.79745509698852	1.8981518	1.3777343
33.815773246573414	1.9161706	1.3842582
33.8340922863172	1.9537431	1.3977636
33.852412216817896	2.0434186	1.429482
33.87073303867377	2.0946603	1.4472941
33.889054752483304	2.0856032	1.4441618
33.907377358845245	1.973011	1.4046391
33.92570085835853	1.957902	1.3992505
33.94402525162239	1.8896618	1.3746496
33.96235053923627	1.9171365	1.384607
33.980676721799824	1.9024311	1.3792864
33.999003799912984	1.8850529	1.3729722
34.01733177417592	1.8908541	1.3750833
34.03566064518901	1.9143196	1.3835894
34.0539904135529	1.8824826	1.372036
34.07232107986846	1.865178	1.3657151
34.090652644736785	1.9717556	1.4041922
34.108985108759235	2.0287666	1.4243478
34.12731847253742	1.9678078	1.4027857
34.14565273667313	2.0008013	1.4144969
34.16398790176847	2.027089	1.4237587
34.18232396842574	2.044266	1.4297783
34.20066093724749	2.0145395	1.4193448
34.21899880883651	1.9241712	1.387145
34.23733758379583	1.9263191	1.387919
34.25567726272874	1.9771932	1.406127
34.27401784623872	1.9072311	1.3810254
34.29235933492957	1.880322	1.3712484
34.31070172940526	1.9273438	1.3882881
34.32904503027003	1.9970467	1.413169
34.347389238128386	2.0681953	1.4381222
34.36573435358502	2.1750233	1.474796
34.38408037724492	2.1031246	1.4502153
34.402427309713296	2.0106492	1.4179736
34.42077515159559	2.0936484	1.4469445
34.43912390349752	2.1344523	1.4609765
34.45747356602499	2.1823616	1.4772818
34.47582413978423	2.255169	1.501722
34.49417562538163	2.2308118	1.4935902
34.51252802342388	2.2139032	1.4879191
34.53088133451789	1.9877067	1.4098605
34.54923555927084	1.882858	1.3721727
34.567590698290104	1.9179349	1.3848952
34.58594675218336	1.8843682	1.3727229
34.6043037215585	1.8330599	1.3539054
34.62266160702365	2.0854506	1.444109
34.641020409187234	1.9981238	1.41355
34.65938012865785	1.6922737	1.3008742
34.677740766044394	1.7513022	1.3233677
34.69610232195598	2.0463948	1.4305226
34.714464797002016	2.0187476	1.4208263
34.73282819179208	1.9006168	1.3786286
34.751192506936064	2.0544145	1.4333229
34.76955774304408	2.2211032	1.4903367
34.7879239007265	2.1907313	1.480112
34.80629098059391	2.0906897	1.4459218
34.824658983257194	1.9272456	1.3882527
34.843027909327446	1.8221223	1.3498601
34.86139775941603	1.6766007	1.2948362
34.879768534134534	1.7331054	1.3164747
34.89814023409483	1.7736214	1.3317738
34.91651285990901	1.8292853	1.3525107
34.93488641218944	1.7420332	1.319861
34.95326089154871	1.9534526	1.3976597
34.97163629859967	1.9351602	1.3911003
34.99001263395542	1.8889011	1.374373
35.00838989822934	1.8811626	1.3715549
35.02676809203499	1.8785472	1.370601
35.04514721598624	1.8139328	1.3468232
35.063527270697215	1.78063	1.3344024
35.081908256782256	1.8785732	1.3706105
35.10029017485597	1.9527354	1.3974031
35.11867302553321	1.8885218	1.374235
35.137056809429104	2.0748396	1.4404304
35.155441527159006	2.0919492	1.4463573
35.173827179338524	2.0884144	1.4451348
35.19221376658354	2.0430348	1.4293476
35.21060128951017	1.9856768	1.4091405
35.2289897487348	2.1970928	1.4822594
35.24737914487405	2.3682647	1.5389167
35.26576947854479	1.9939903	1.4120872
35.28416075036418	1.9379879	1.3921163
35.30255296094958	2.1357543	1.4614221
35.32094611091867	2.1795337	1.4763244
35.33934020088932	1.9354823	1.3912162
35.35773523147969	1.8744899	1.3691201
35.3761312033082	2.159593	1.4695554
35.394528116993506	2.3713503	1.5399189
35.41292597315452	2.3097827	1.519797
35.431324772410434	2.0539849	1.4331731
35.449724515380666	1.8613865	1.3643264
35.46812520268491	1.6949797	1.3019139
35.486526834943106	1.732327	1.3161789
35.504929412775454	1.9230654	1.3867463
35.52333293680242	1.7890725	1.3375622
35.54173740764471	1.8017418	1.3422898
35.560142825923286	1.9956092	1.4126604
35.5785491922594	1.7438585	1.3205523
35.59695650727454	0.8679547	0.93164086
35.61536477159042	0.42420965	0.6513138
