0.008763373481513119	0.051685803	0.22734512
0.026290120649546365	0.18429624	0.4292974
0.043816868432600686	0.15917647	0.39896926
0.06134361724069026	0.16762027	0.40941456
0.07887036748382949	0.110182956	0.33193818
0.0963971195720331	0.10669297	0.3266389
0.11392387391531617	0.06982671	0.26424745
0.1314506309236943	0.078048274	0.2793712
0.1489773910071836	0.039573196	0.19893013
0.16650415457580078	0.03018328	0.17373335
0.18403092203956356	0.064550206	0.25406733
0.20155769380849	0.07922426	0.28146803
0.2190844702925996	0.11224511	0.33503002
0.2366112519019124	0.1380564	0.3715594
0.2541380390464497	0.12717529	0.35661644
0.27166483213623416	0.12663992	0.35586503
0.28919163158128947	0.1093834	0.3307316
0.3067184377916406	0.15361339	0.39193544
0.324245251177314	0.19114469	0.43720096
0.34177207214833777	0.18552625	0.43072757
0.3592989011147415	0.19094071	0.43696764
0.37682573848655654	0.13566725	0.36833036
0.39435258467381573	0.11616589	0.3408312
0.41187944008655414	0.06791035	0.26059616
0.42940630513480854	0.07656025	0.27669522
0.446933180228618	0.08875462	0.29791713
0.4644600657780234	0.16078873	0.4009847
0.48198696219306775	0.18071252	0.42510295
0.49951386988379676	0.17558779	0.41903198
0.5170407892602581	0.140655	0.37504
0.5345677207325025	0.13542588	0.36800256
0.5520946647105822	0.13733736	0.37059054
0.5696216216045534	0.16537216	0.40665975
0.5871485918244737	0.18198586	0.426598
0.6046755757804043	0.21773024	0.46661574
0.6222025738824094	0.1963915	0.4431608
0.6397295865405557	0.20135985	0.4487314
0.6572566141649129	0.1875753	0.43309963
0.6747836571655547	0.18434457	0.42935368
0.6923107159525568	0.16164522	0.40205127
0.7098377909359992	0.15569997	0.39458835
0.7273648825259653	0.16546059	0.40676847
0.7448919911325411	0.1867774	0.4321775
0.762419117165817	0.18838535	0.4340338
0.7799462610358868	0.17412883	0.41728747
0.7974734231528482	0.15334657	0.39159492
0.8150006039268024	0.16490743	0.40608796
0.8325278037678551	0.16252302	0.40314144
0.8500550230861152	0.1997059	0.44688466
0.8675822622916969	0.18176463	0.42633864
0.8851095217947171	0.154103	0.39255956
0.9026368020052984	0.18815053	0.4337632
0.9201641033335665	0.20565718	0.4534944
0.9376914261896523	0.2218339	0.47099248
0.9552187709836915	0.21277247	0.46127266
0.9727461381258234	0.17751494	0.4213252
0.990273528026193	0.21221115	0.46066383
1.0078009410949496	0.25187805	0.50187457
1.0253283777422473	0.30361283	0.5510107
1.0428558383782454	0.34554398	0.5878299
1.0603833234131086	0.35751975	0.59792954
1.0779108332570058	0.3616757	0.60139483
1.0954383683201119	0.33197838	0.57617563
1.112965929012607	0.3597217	0.59976804
1.1304935157446763	0.5280861	0.72669536
1.1480211289265108	0.6048814	0.7777412
1.1655487689683062	1.4934065	1.2220502
1.1830764362802655	1.7275767	1.3143731
1.200604131272596	2.0917428	1.4462858
1.2181318543555117	2.381773	1.5432994
1.235659605939232	2.4515195	1.5657328
1.253187386433982	4.1208944	2.0299985
1.270715196249994	6.412863	2.5323632
1.2882430357975057	11.888244	3.4479332
1.3057709054867608	16.615864	4.0762563
1.3232988057280106	22.743168	4.7689795
1.3408267369315112	27.841246	5.27648
1.358354699507526	31.493034	5.6118655
1.3758826938663256	35.297478	5.941168
1.3934107204181858	37.078415	6.089205
1.410938779573391	37.891037	6.1555696
1.4284668717422309	38.562695	6.209887
1.4459949973350033	38.101143	6.172612
1.4635231567620117	38.01228	6.16541
1.4810513504335687	37.216534	6.1005354
1.4985795787599925	36.641537	6.0532255
1.5161078421516088	36.287094	6.023877
1.5336361410187505	35.57771	5.9647055
1.5511644757717598	35.422165	5.951652
1.5686928468209842	35.780704	5.9816976
1.58622125457678	36.28196	6.023451
1.6037496994495108	37.94019	6.1595607
1.621278181849548	37.947765	6.160176
1.6388067021872719	38.794228	6.2285013
1.6563352608730693	37.893475	6.1557674
1.673863858317336	36.65863	6.054637
1.6913924949304753	35.90189	5.9918184
1.7089211711228998	34.801334	5.899266
1.7264498873050296	34.207798	5.8487434
1.7439786438872935	33.427788	5.781677
1.7615074412801288	32.48796	5.699821
1.779036279893981	31.664537	5.6271253
1.796565160139305	30.433578	5.5166636
1.814094082426564	29.845669	5.463119
1.8316230471662298	29.35667	5.4181795
1.849152054768784	28.74415	5.361357
1.8666811056447168	28.189936	5.3094196
1.8842102002045273	27.347445	5.2294784
1.901739338858724	26.724586	5.169583
1.9192685220178245	26.096342	5.108458
1.9367977500923557	25.252956	5.025232
1.9543270234928547	24.77264	4.977212
1.971856342629867	24.360683	4.935654
1.9893857079139496	23.95414	4.8942966
2.006915119755667	23.34503	4.8316693
2.0244445785655945	22.68966	4.763366
2.0419740847543175	22.05518	4.6962943
2.0595036387324317	21.78819	4.6677823
2.0770332409105414	21.329458	4.6183825
2.094562891699263	21.25835	4.6106777
2.1120925915092217	20.62564	4.541546
2.129622340751053	20.0767	4.480703
2.1471521398354043	188.02005	13.71204
2.1646819891729323	444.16443	21.075209
2.182211889174303	440.4496	20.98689
2.1997418402501974	452.85953	21.280497
2.2172718428113023	432.99472	20.808525
2.234801897268317	321.01938	17.917013
2.2523320040319548	17.55851	4.1902876
2.269862163512935	17.200567	4.1473565
2.287392376121992	16.744698	4.0920286
2.304922642269869	16.387888	4.048196
2.322452962367322	16.094212	4.0117593
2.3399833368251164	15.744667	3.967955
2.357513766054032	15.609644	3.9509041
2.3750442504648586	15.26387	3.9069004
2.3925747904683963	14.991668	3.8719075
2.410105386475459	14.720922	3.8367853
2.4276360388968707	14.379916	3.792086
2.445166748143469	14.145929	3.7611074
2.4626975146261025	13.921035	3.7310903
2.4802283387556323	13.7411375	3.706904
2.4977592209429305	13.659141	3.6958275
2.5152901615988825	13.272414	3.6431324
2.5328211611343865	13.021444	3.6085238
2.5503522199603523	12.864782	3.586751
2.5678833384877024	12.633401	3.5543497
2.5854145171273712	12.436324	3.5265174
2.6029457562903064	12.070967	3.4743297
2.620477056387469	11.792016	3.4339504
2.6380084178298326	11.592673	3.4048016
2.655539841028383	11.558393	3.3997636
2.673071326394119	11.462022	3.3855608
2.6906028743380523	11.221013	3.3497782
2.708134485271211	11.044311	3.3232982
2.7256661596046325	10.825479	3.2902095
2.743197897749369	10.627033	3.259913
2.760729700116486	10.452041	3.2329617
2.778261567117063	10.33238	3.214402
2.795793499162193	10.249132	3.2014265
2.8133254966629817	10.117109	3.1807404
2.830857560030551	9.897802	3.1460774
2.8483896896760337	9.716758	3.1171715
2.865921886010578	9.540398	3.0887535
2.883454149445347	9.363009	3.0599036
2.9009864803915177	9.156808	3.0260217
2.91851887926028	9.14404	3.0239115
2.9360513464628384	9.111158	3.0184696
2.953583882410413	9.100241	3.0166605
2.9711164875142373	8.957448	2.9928997
2.9886491621855606	8.874968	2.9790883
3.0061819068356455	8.757574	2.9593198
3.023714721875769	8.682613	2.9466274
3.041247607717225	8.559134	2.9255996
3.0587805647713213	8.34537	2.8888354
3.0763135934493806	8.157819	2.8561895
3.0938466941627407	7.940689	2.8179228
3.1113798673227544	7.911717	2.8127775
3.1289131133407904	7.8423476	2.800419
3.1464464326282315	7.880595	2.8072398
3.1639798255964786	7.873156	2.8059144
3.1815132926569443	7.719942	2.7784784
3.1990468342210603	7.626497	2.7616112
3.216580450700272	7.538986	2.7457213
3.2341141425060416	7.3983483	2.7199905
3.251647910049847	7.3985624	2.7200298
3.2691817537431813	7.345018	2.7101693
3.286715673997555	7.2535253	2.693237
3.3042496712244938	7.198501	2.6830022
3.32178374583554	7.047984	2.654804
3.339317898242251	6.9904137	2.643939
3.3568521288562034	6.9725976	2.6405678
3.3743864380889876	6.873572	2.6217499
3.3919208263522127	6.7639055	2.600751
3.4094552940575023	6.6502967	2.578817
3.4269898416164972	6.613379	2.571649
3.444524469440858	6.6189914	2.57274
3.4620591779422587	6.5687575	2.5629587
3.479593967532391	6.522964	2.5540094
3.4971288386229658	6.4330616	2.536348
3.5146637916257086	6.4013143	2.5300817
3.5321988269523628	6.2843814	2.506867
3.5497339450146903	6.2669487	2.5033875
3.5672691462244708	6.26948	2.503893
3.5848044309934988	6.3207874	2.5141177
3.60233979973359	6.373994	2.524677
3.619875252856575	6.467366	2.5431018
3.6374107907743034	6.4963427	2.5487924
3.6549464138986427	6.4293537	2.535617
3.6724821226414788	6.4384813	2.5374162
3.690017917414714	6.34657	2.51924
3.7075537986302702	6.4299216	2.535729
3.7250897667000857	6.4601035	2.5416734
3.7426258220361235	6.646034	2.5779903
3.7601619650503553	6.8773637	2.6224728
3.777698196154779	7.3909245	2.7186255
3.7952345157614067	8.407317	2.8995373
3.8127709242822716	9.239185	3.0396028
3.830307422129425	11.415492	3.378682
3.847844009714936	30.195065	5.4950037
3.8653806874508954	97.7171	9.885196
3.882917455749409	96.93028	9.845318
3.900454315022606	96.78933	9.838157
3.917991265682631	41.303173	6.4267545
3.9355283081416506	10.968394	3.3118565
3.9530654428118495	8.770347	2.961477
3.970602670105433	7.5616293	2.7498417
3.9881399904346244	6.6806026	2.5846863
4.005677404211669	6.5603666	2.5613213
4.023214911848827	6.53223	2.5558228
4.0407525137583855	6.4045043	2.5307121
4.058290210352644	6.486989	2.5469568
4.075828002043927	6.497576	2.5490344
4.0933658892445814	6.5084677	2.5511699
4.110903872366966	6.512142	2.55189
4.128441951823468	6.331398	2.516227
4.145980128026488	6.3061013	2.5111952
4.163518401388452	6.185994	2.487166
4.181056772321807	6.132361	2.4763603
4.1985952412390155	6.111811	2.4722078
4.216133808552567	6.124227	2.4747176
4.233672474674966	6.140119	2.4779263
4.251211240018741	6.327064	2.5153656
4.268750104996445	6.636197	2.5760818
4.286289070020643	7.6650543	2.7685835
4.303828135503928	9.26348	3.0435965
4.3213673018589125	29.452549	5.42702
4.3389065694982305	90.63584	9.520286
4.356445938834537	165.90926	12.880577
4.3739854102805085	171.80586	13.107473
4.391524984248844	172.71416	13.142076
4.409064661152262	136.8233	11.697149
4.426604441403504	96.987946	9.848246
4.444144325415337	75.70806	8.701038
4.461684313600543	21.847712	4.674154
4.47922440637193	22.131042	4.7043643
4.496764604142329	20.601751	4.538915
4.5143049073245916	18.81755	4.33792
4.531845316331589	16.70004	4.0865684
4.5493858315762195	13.8815365	3.7257934
4.566926453471405	11.537002	3.3966162
4.584467182430081	9.579568	3.0950878
4.602008018865218	8.387415	2.8961034
4.619548963189798	7.5925746	2.7554626
4.637090015816834	7.0031395	2.6463447
4.654631177159353	6.8132854	2.610227
4.672172447630417	6.650162	2.578791
4.689713827643102	6.4794893	2.545484
4.7072553176105085	6.2860594	2.5072014
4.724796917945764	6.04862	2.4593942
4.742338629062015	5.95604	2.4405
4.759880451372434	5.779653	2.404091
4.777422385290215	5.6749277	2.3822107
4.794964431228581	5.680453	2.3833702
4.812506589600768	5.677032	2.3826523
4.830048860820047	5.694236	2.3862598
4.847591245299709	5.625728	2.3718617
4.8651337434530655	5.6229115	2.3712678
4.882676355693457	5.671158	2.3814192
4.900219082434242	5.6453342	2.375991
4.917761924088813	5.6417904	2.3752453
4.935304881070575	5.504752	2.3462207
4.952847953792969	5.479751	2.3408868
4.970391142669449	5.446425	2.3337576
4.9879344481135055	5.4543133	2.335447
5.005477870538642	5.5009604	2.3454127
5.023021410358394	5.3937907	2.3224535
5.040565067986324	5.3770084	2.3188376
5.05810884383601	5.3565645	2.3144252
5.075652738321066	5.4133897	2.3266692
5.09319675185512	5.382282	2.3199744
5.110740884851836	5.339763	2.3107927
5.128285137724894	5.340952	2.31105
5.145829510888007	5.458819	2.3364115
5.163374004754908	5.470384	2.3388853
5.1809186197393595	5.4460096	2.3336687
5.198463356255145	5.314216	2.3052583
5.216008214716077	5.311282	2.304622
5.233553195535998	5.3627214	2.3157551
5.251098299128764	5.453327	2.335236
5.268643525908272	5.459529	2.3365636
5.286188876288432	5.4316535	2.3305907
5.3037343506831895	5.3894477	2.3215184
5.32127994950651	5.3231063	2.307186
5.3388256731723915	5.267203	2.2950387
5.356371522094851	5.295881	2.301278
5.373917496687938	5.3215237	2.3068428
5.391463597365729	5.2874312	2.2994416
5.40900982454232	5.208843	2.282289
5.426556178631843	5.185471	2.277163
5.444102660048449	5.23255	2.2874768
5.4616492692063225	5.263003	2.2941236
5.479196006519669	5.2206397	2.2848718
5.496742872402727	5.1752768	2.2749236
5.514289867269756	5.1886783	2.277867
5.531836991535049	5.2205105	2.2848437
5.549384245612924	5.2416654	2.2894683
5.566931629917724	5.294277	2.3009295
5.584479144863822	5.261131	2.2937155
5.6020267908656205	5.267295	2.2950587
5.619574568337545	5.233821	2.2877545
5.637122477694054	5.1893535	2.2780151
5.654670519349629	5.229191	2.2867424
5.672218693718784	5.232674	2.287504
5.689767001216059	5.175275	2.274923
5.707315442256021	5.146242	2.268533
5.724864017253266	5.105063	2.2594388
5.7424127266224225	5.127024	2.2642932
5.75996157077814	5.1283565	2.2645874
5.777510550135105	5.1461163	2.2685053
5.795059665108022	5.24783	2.2908142
5.812608916111639	5.2987094	2.3018925
5.830158303560715	5.358471	2.3148372
5.847707827870055	5.3332467	2.3093824
5.86525748945448	5.4408937	2.3325722
5.8828072887288485	5.589441	2.3641999
5.900357226108044	5.65274	2.3775492
5.917907302006979	5.645393	2.3760035
5.9354575168406	6.138786	2.4776573
5.9530078710238765	6.7583303	2.599679
5.970558364971812	7.298984	2.7016633
5.988108999099438	7.6469817	2.7653177
6.005659773821818	8.22435	2.8678126
6.023210689554039	8.00729	2.8297155
6.040761746711227	8.40519	2.8991706
6.058312945708531	7.7991357	2.7926934
6.075864286961132	7.2895584	2.6999183
6.093415770884244	6.6262465	2.5741496
6.1109673978931065	5.9831133	2.4460404
6.128519168402993	5.3993692	2.3236542
6.146071082829204	5.3359056	2.309958
6.163623141587075	5.354398	2.3139572
6.181175345091969	5.396332	2.3230007
6.198727693759281	5.3279805	2.3082418
6.216280188004435	5.3120356	2.3047853
6.233832828242885	5.1560273	2.2706888
6.251385614890126	5.150585	2.26949
6.268938548361669	5.1147656	2.2615848
6.286491629073067	5.1066504	2.25979
6.304044857439898	5.0435834	2.2457924
6.321598233877777	4.966503	2.2285652
6.339151758802344	4.9332423	2.2210903
6.356705432629277	4.9772143	2.230967
6.37425925577428	4.9578705	2.2266276
6.391813228653095	4.9404473	2.2227118
6.409367351681486	4.993059	2.2345154
6.426921625275259	5.0028014	2.2366943
6.44447604985025	5.0087523	2.2380242
6.46203062582232	5.0579033	2.2489784
6.47958535360737	5.09234	2.2566214
6.497140233621328	5.1192274	2.2625709
6.514695266280161	5.01828	2.240152
6.532250451999859	5.0114965	2.2386372
6.549805791196454	4.9920006	2.2342784
6.567361284286002	5.0506597	2.2473674
6.584916931684597	5.0193434	2.240389
6.602472733808367	4.998221	2.23567
6.6200286910734665	5.0357056	2.2440379
6.637584803896092	5.069131	2.251473
6.655141072692462	5.105451	2.2595246
6.672697497878842	5.1477113	2.2688568
6.690254079871514	5.111347	2.260829
6.707810819086808	5.0337267	2.2435968
6.725367715941078	5.027937	2.2423062
6.742924770850719	4.956104	2.2262309
6.760481984232151	5.0296974	2.2426987
6.778039356501836	5.0548725	2.2483044
6.795596888076266	5.0984535	2.2579756
6.813154579371963	5.115149	2.2616696
6.830712430805492	5.0901423	2.2561343
6.84827044279344	5.1120586	2.2609863
6.865828615752445	5.1343718	2.2659152
6.883386950099159	5.1232433	2.2634583
6.900945446250287	5.112122	2.2610002
6.918504104622553	5.096463	2.2575347
6.936062925632727	5.124678	2.263775
6.953621909697607	5.1391816	2.2669764
6.971181057234028	5.1962166	2.2795212
6.988740368658859	5.2289934	2.2866993
7.006299844389007	5.2805796	2.2979512
7.023859484841407	5.314624	2.3053467
7.041419290433036	5.3854866	2.3206651
7.058979261580902	5.5380797	2.3533125
7.0765393987020495	5.798929	2.4080966
7.094099702213559	6.1881967	2.4876087
7.111660172532549	6.5372176	2.5567982
7.129220810076164	6.8921146	2.6252837
7.146781615261595	7.4262495	2.7251146
7.16434258850606	7.6723766	2.7699056
7.181903730226821	8.112521	2.8482487
7.1994650408411704	8.241251	2.8707578
7.217026520766437	8.34927	2.8895104
7.234588170419983	8.54585	2.9233286
7.252149990219215	8.533398	2.921198
7.269711980581568	8.481386	2.912282
7.2872741419245175	8.281215	2.8777099
7.304836474665574	7.862639	2.8040397
7.322398979222286	7.5541983	2.74849
7.339961656012233	7.2984257	2.7015598
7.357524505453039	6.978243	2.6416364
7.375087527962357	6.7324886	2.594704
7.392650723957886	6.4895687	2.5474632
7.410214093857353	6.1777577	2.4855096
7.427777638078528	5.880262	2.424925
7.445341357039213	5.6540713	2.377829
7.4629052511572525	5.455708	2.3357458
7.480469320850524	5.397083	2.3231623
7.498033566536948	5.380941	2.3196855
7.5155979886344735	5.3483396	2.3126478
7.5331625875610975	5.3349304	2.3097467
7.550727363734844	5.365538	2.316363
7.568292317573788	5.359742	2.3151116
7.585857449496025	5.3402977	2.3109083
7.603422759919705	5.2846775	2.2988427
7.620988249263007	5.2977	2.3016732
7.638553917944147	5.3356376	2.3098998
7.656119766381391	5.3345995	2.3096752
7.673685794993023	5.3211265	2.3067567
7.691252004197388	5.279098	2.2976289
7.70881839441285	5.332292	2.3091757
7.726384966057826	5.3049774	2.3032537
7.743951719550762	5.3432693	2.3115513
7.761518655310149	5.359201	2.3149948
7.779085773754511	5.345452	2.3120234
7.796653075302419	5.337155	2.3102283
7.814220560372475	5.294747	2.3010316
7.831788229383323	5.3055687	2.303382
7.8493560827536495	5.3304744	2.308782
7.866924120902174	5.3706226	2.3174603
7.884492344247663	5.3961716	2.322966
7.9020607532089135	5.3777275	2.3189929
7.919629348204771	5.4536905	2.3353138
7.937198129654115	5.4692063	2.3386335
7.954767097975865	5.442055	2.3328214
7.972336253588986	5.4280267	2.3298125
7.989905596912472	5.3918147	2.3220282
8.007475128365371	5.4502506	2.334577
8.025044848366756	5.4645176	2.3376307
8.042614757335754	5.5792403	2.3620415
8.060184855691523	5.6779876	2.3828528
8.07775514385327	5.827395	2.4139998
8.095325622240228	5.8769326	2.4242387
8.112896291271687	5.9281797	2.4347854
8.130467151366968	5.983486	2.4461164
8.148038202945436	5.9962974	2.4487338
8.165609446426497	6.041422	2.4579303
8.183180882229594	6.123589	2.4745886
8.200752510774217	6.0689907	2.4635322
8.218324332479893	6.047319	2.4591298
8.235896347766193	5.989715	2.4473894
8.253468557052724	5.973926	2.4441617
8.27104096075914	5.9921007	2.4478767
8.288613559305137	6.1165047	2.473157
8.306186353110448	6.227047	2.4954052
8.32375934259485	6.3018937	2.5103574
8.341332528178162	6.239511	2.4979014
8.358905910280246	6.243947	2.498789
8.376479489321003	6.2490172	2.4998035
8.394053265720377	6.356158	2.5211422
8.411627239898356	6.43168	2.5360758
8.42920141227497	6.4681406	2.543254
8.44677578327029	6.385484	2.5269516
8.464350353304427	6.2863436	2.5072582
8.48192512279754	6.25185	2.50037
8.499500092169827	6.279038	2.505801
8.51707526184153	6.30252	2.510482
8.534650632232934	6.325103	2.5149758
8.552226203764365	6.3111367	2.5121975
8.569801976856192	6.317937	2.5135508
8.587377951928834	6.349325	2.5197868
8.60495412940274	6.340894	2.5181131
8.622530509698416	6.317758	2.513515
8.6401070932364	6.3873806	2.5273268
8.657683880437283	6.5697827	2.5631588
8.675260871721695	6.8012056	2.607912
8.692838067510303	6.990921	2.644035
8.710415468223834	7.1837025	2.680243
8.727993074283043	7.313701	2.7043855
8.745570886108737	7.29902	2.70167
8.763148904121765	7.346712	2.710482
8.78072712874302	7.248403	2.6922858
8.798305560393441	7.436621	2.727017
8.815884199494006	7.6286383	2.761999
8.833463046465745	7.90519	2.811617
8.851042101729728	8.002531	2.8288746
8.86862136570707	8.270283	2.87581
8.886200838818924	8.390676	2.8966663
8.903780521486505	8.414809	2.900829
8.921360414131055	8.533509	2.9212172
8.938940517173874	8.7144375	2.9520226
8.956520831036297	8.870243	2.9782953
8.97410135613971	9.173203	3.0287297
8.99168209290554	9.313053	3.0517294
9.009263041755265	9.660564	3.1081448
9.026844203110405	9.975359	3.158379
9.044425577392525	10.155789	3.186815
9.062007165023239	10.173749	3.1896315
9.079588966424197	10.368739	3.2200527
9.097170982017108	10.4292	3.2294273
9.11475321222372	11.389359	3.3748126
9.132335657465825	12.233093	3.4975839
9.149918318165264	12.368021	3.5168197
9.167501194743924	12.876572	3.588394
9.18508428762374	12.582649	3.547203
9.202667597226693	12.590894	3.5483649
9.220251123974803	12.235083	3.4978683
9.237834868290143	11.998169	3.4638374
9.255418830594836	11.864402	3.444474
9.273003011311046	11.476439	3.3876894
9.290587410860985	11.263286	3.356082
9.308172029666911	10.623165	3.2593198
9.32575686815113	10.273433	3.2052195
9.343341926735997	8.889562	2.9815369
9.360927205843916	8.637122	2.938898
9.378512705897327	8.363343	2.8919446
9.396098427318728	8.14714	2.8543196
9.413684370530664	8.068931	2.8405864
9.431270535955722	7.9679985	2.8227644
9.448856924016539	8.003847	2.829107
9.466443535135806	7.922207	2.8146415
9.484030369736251	7.95725	2.82086
9.501617428240658	7.91192	2.8128135
9.519204711071852	7.87809	2.8067935
9.536792218652714	7.8653283	2.8045192
9.55437995140617	7.877623	2.8067105
9.571967909755191	7.953715	2.820233
9.589556094122802	8.003329	2.8290155
9.60714450493207	8.041986	2.8358397
9.624733142606116	8.025379	2.83291
9.642322007568108	8.017102	2.8314488
9.659911100241267	7.990482	2.826744
9.677500421048851	8.006131	2.8295107
9.695089970414175	8.04951	2.8371658
9.712679748760609	8.135352	2.852254
9.730269756511557	8.236234	2.869884
9.747859994090492	8.228343	2.8685088
9.765450461920915	8.196871	2.8630178
9.78304116042639	8.17708	2.8595595
9.800632090030527	8.268555	2.8755095
9.81822325115699	8.349917	2.8896224
9.835814644229481	8.386664	2.895974
9.853406269671762	8.391835	2.8968666
9.870998127907646	8.338399	2.8876286
9.888590219360985	8.319443	2.8843443
9.906182544455698	8.239371	2.8704305
9.923775103615734	8.263052	2.8745525
9.941367897265108	8.330808	2.886314
9.958960925827878	8.468547	2.9100769
9.97655418972816	8.402986	2.8987904
9.994147689390106	8.44468	2.9059732
10.011741425237934	8.393236	2.8971083
10.029335397695904	8.36642	2.8924763
10.04692960718833	8.301647	2.881258
10.06452405413958	8.32883	2.8859713
10.082118738974064	8.306115	2.882033
10.099713662116246	8.277031	2.876983
10.117308823990651	8.23811	2.8702106
10.134904225021844	8.232298	2.869198
10.152499865634445	8.24897	2.872102
10.170095746253125	8.288594	2.8789918
10.18769186730261	8.24788	2.8719122
10.205288229207675	8.203525	2.8641796
10.222884832393145	8.180393	2.8601387
10.2404816772839	8.252292	2.8726802
10.258078764304868	8.286032	2.8785467
10.275676093881035	8.271205	2.8759704
10.293273666437438	8.260601	2.8741262
10.310871482399158	8.242653	2.871002
10.32846954219134	8.258925	2.8738346
10.346067846239173	8.284658	2.8783083
10.363666394967908	8.317326	2.8839774
10.38126518880283	8.311847	2.8830273
10.398864228169298	8.34802	2.889294
10.416463513492713	8.344223	2.8886368
10.434063045198531	8.246309	2.8716388
10.451662823712262	8.210497	2.8653965
10.469262849459467	8.215344	2.8662422
10.486863122865758	8.139792	2.853032
10.504463644356806	8.140692	2.8531897
10.522064414358338	8.068842	2.8405707
10.539665433296118	8.085245	2.8434565
10.557266701595987	8.046507	2.8366365
10.574868219683818	7.9495826	2.8195004
10.592469987985552	7.8139005	2.7953355
10.610072006927185	7.696412	2.7742407
10.627674276934751	7.623345	2.7610404
10.64527679843435	7.501524	2.7388911
10.662879571852143	7.350208	2.7111266
10.680482597614331	7.240298	2.6907802
10.698085876147173	7.2020273	2.6836593
10.715689407876988	7.1234903	2.6689868
10.733293193230146	7.014471	2.6484847
10.750897232633072	6.919433	2.6304815
10.76850152651225	6.817894	2.6111097
10.786106075294207	6.6589584	2.5804958
10.803710879405534	6.5586705	2.56099
10.821315939272877	6.438114	2.537344
10.83892125532294	6.3961916	2.5290694
10.856526827982472	6.369293	2.5237458
10.874132657678285	6.4300637	2.535757
10.891738744837243	6.361807	2.5222623
10.909345089886271	6.2545485	2.5009096
10.926951693252343	6.1354156	2.476977
10.944558555362494	6.0652194	2.4627666
10.96216567664381	6.0186725	2.4532983
10.979773057523436	5.945155	2.438269
10.997380698428573	5.887028	2.4263198
11.014988599786477	5.76038	2.400079
11.032596762024461	5.702003	2.3878868
11.050205185569892	5.6809916	2.3834832
11.067813870850198	5.6757236	2.3823776
11.085422818292859	5.5918674	2.364713
11.10303202832541	5.5083942	2.3469968
11.120641501375454	5.4239674	2.3289413
11.138251237870636	5.4106903	2.3260891
11.155861238238671	5.385088	2.3205793
11.173471502907317	5.2925196	2.3005476
11.191082032304402	5.2547383	2.2923217
11.208692826857805	5.171475	2.2740877
11.226303886995465	5.1015115	2.2586527
11.243915213145371	5.003775	2.236912
11.261526805735578	4.916014	2.2172086
11.279138665194196	4.8821564	2.2095602
11.296750791949393	4.8841295	2.2100067
11.314363186429393	4.874055	2.2077262
11.331975849062479	4.8343267	2.1987102
11.34958878027699	4.757748	2.1812263
11.36720198050133	4.679035	2.1631079
11.384815450163948	4.639441	2.1539361
11.402429189693366	4.647243	2.1557465
11.420043199518153	4.6058583	2.1461263
11.437657480066942	63.518085	7.9698234
11.455272031768422	85.20282	9.230537
11.472886855051353	107.60044	10.373063
11.490501950344528	99.19087	9.959461
11.508117318076819	84.51872	9.193406
11.52573295867715	45.85432	6.7715816
11.543348872574514	4.155593	2.0385273
11.560965060197946	4.148695	2.0368345
11.57858152197655	4.1391244	2.034484
11.59619825833949	4.083017	2.0206475
11.613815269715985	4.0453544	2.0113065
11.631432556535323	38.554295	6.2092104
11.649050119226837	83.09149	9.115454
11.666667958219929	93.48515	9.668772
11.68428607394406	107.794685	10.3824215
11.701904466828756	82.61437	9.089245
11.719523137303586	65.4628	8.090908
11.737142085798196	4.696819	2.1672146
11.754761312742286	3.828499	1.956655
11.772380818565619	3.7761059	1.9432205
11.790000603698015	3.7083147	1.9256985
11.80762066856935	3.6765854	1.9174424
11.825241013609572	3.6072319	1.8992714
11.842861639248683	3.5828283	1.8928361
11.860482545916748	3.523178	1.8770131
11.878103734043883	3.5565972	1.8858943
11.895725204060282	3.4964023	1.869867
11.91334695639619	3.498266	1.8703651
11.930968991481919	3.4653418	1.8615428
11.948591309747824	3.4889023	1.8678603
11.966213911624347	3.4681866	1.8623068
11.98383679754198	3.4235196	1.8502755
12.001459967931268	3.3783872	1.8380389
12.019083423222835	3.3785617	1.8380865
12.036707163847352	3.3724651	1.8364273
12.05433119023556	3.330758	1.8250364
12.071955502818259	3.3161654	1.8210342
12.089580102026313	3.3068976	1.8184878
12.107204988290643	3.318234	1.821602
12.12483016204224	3.2608175	1.8057734
12.142455623712152	3.1867115	1.7851363
12.16008137373149	3.06823	1.7516364
12.177707412531431	3.0489893	1.7461355
12.19533374054321	3.0089605	1.7346356
12.212960358198126	2.9883401	1.7286816
12.230587265927545	2.9768355	1.7253509
12.248214464162889	3.0323713	1.7413706
12.265841953335649	3.0449064	1.744966
12.283469733877375	3.0295632	1.740564
12.301097806219685	3.014255	1.736161
12.31872617079425	2.9930403	1.7300406
12.336354828032825	2.9891143	1.7289056
12.353983778367205	2.9757707	1.7250422
12.371613022229262	2.9907346	1.729374
12.389242560050928	2.9966342	1.731079
12.406872392264201	3.0019767	1.7326213
12.424502519301143	3.0046213	1.7333844
12.442132941593874	3.0347085	1.7420415
12.459763659574586	3.0167665	1.7368841
12.477394673675532	2.9616318	1.7209392
12.49502598432903	2.9115026	1.7063125
12.51265759196746	2.892733	1.7008036
12.530289497023267	2.8855743	1.6986978
12.547921699928967	2.8353415	1.6838472
12.565554201117134	2.8412468	1.6855998
12.583187001020404	2.8416772	1.6857275
12.600820100071486	2.826103	1.6811017
12.618453498703152	2.810151	1.6763505
12.636087197348235	2.7810545	1.6676494
12.65372119643964	2.8009949	1.6736172
12.671355496410326	2.77586	1.6660912
12.68899009769333	2.8188643	1.6789474
12.706625000721749	2.864708	1.6925448
12.724260205928752	2.9424152	1.7153469
12.741895713747551	2.9477518	1.7169018
12.759531524611454	3.0083072	1.7344472
12.777167638953818	3.006936	1.734052
12.794804057208072	3.0429726	1.7444118
12.812440779807702	3.0835311	1.7559986
12.830077807186271	3.2347624	1.7985445
12.847715139777405	3.3037403	1.8176194
12.865352778014795	3.504972	1.8721571
12.882990722332197	3.627015	1.9044724
12.90062897316344	3.692311	1.9215387
12.918267530942412	3.7586389	1.938721
12.935906396103071	3.6178594	1.9020672
12.953545569079449	3.741441	1.9342805
12.971185050305628	3.5592911	1.8866084
12.988824840215775	3.5963147	1.8963952
13.006464939244115	3.6478236	1.9099276
13.024105347824943	3.5158424	1.8750579
13.041746066392617	3.5978172	1.8967913
13.05938709538157	3.4266489	1.851121
13.077028435226296	3.422457	1.8499883
13.094670086361363	3.3492029	1.8300828
13.112312049221401	3.2236183	1.7954438
13.129954324241112	3.1499486	1.7748095
13.147596911855258	2.9101253	1.7059089
13.165239812498685	2.8710916	1.6944296
13.182883026606293	2.8056545	1.6750088
13.200526554613058	2.7747316	1.6657525
13.218170396954017	2.7458205	1.6570518
13.235814554064284	2.7348657	1.6537429
13.253459026379034	2.7654278	1.6629575
13.271103814333523	2.7432053	1.6562624
13.288748918363058	2.740463	1.6554344
13.306394338903031	2.741987	1.6558946
13.32404007638889	2.743514	1.6563556
13.341686131256164	2.7322028	1.6529377
13.359332503940449	2.6774843	1.636302
13.376979194877402	2.6591134	1.6306788
13.394626204502751	2.678778	1.6366973
13.412273533252307	2.7447932	1.6567417
13.429921181561937	2.7645574	1.6626958
13.447569149867581	2.8068213	1.6753571
13.465217438605247	2.7955966	1.6720037
13.482866048211022	2.7646458	1.6627225
13.500514979121052	2.7313378	1.652676
13.518164231771568	2.7206314	1.6494336
13.535813806598844	2.7170997	1.6483628
13.553463704039254	2.715834	1.6479788
13.571113924529229	2.6792414	1.6368388
13.588764468505275	2.6947145	1.6415585
13.606415336403956	2.7164834	1.6481757
13.624066528661917	2.7402203	1.655361
13.641718045715882	2.7733502	1.6653379
13.659369888002635	2.8304007	1.6823795
13.67702205595903	2.901545	1.7033923
13.694674550021993	3.0036798	1.7331127
13.712327370628532	3.1070228	1.7626749
13.729980518215713	3.197926	1.7882746
13.747633993220681	3.2320292	1.7977846
13.765287796080647	3.2460666	1.8016844
13.7829419272329	3.2976418	1.815941
13.800596387114801	3.3631544	1.8338906
13.818251176163775	3.417606	1.8486768
13.835906294817324	3.44533	1.85616
13.853561743513023	3.481918	1.8659898
13.871217522688525	3.4866836	1.8672663
13.888873632781538	3.494914	1.8694689
13.906530074229858	3.4805048	1.8656111
13.92418684747135	3.487791	1.8675629
13.941843952943948	3.4839826	1.8665429
13.959501391085665	3.509209	1.8732883
13.977159162334578	3.4536452	1.8583986
13.994817267128846	3.4401588	1.8547665
14.012475705906693	3.3453152	1.8290203
14.030134479106424	3.2682784	1.8078381
14.047793587166414	3.1844156	1.7844931
14.065453030525108	3.1063683	1.7624892
14.083112809621026	3.0576203	1.7486053
14.100772924892766	2.984611	1.7276027
14.118433376778997	2.9334178	1.7127223
14.136094165718458	2.8336942	1.6833581
14.153755292149969	2.7357538	1.6540114
14.171416756512416	2.662574	1.6317396
14.189078559244768	2.639369	1.6246135
14.20674070078606	2.6257513	1.620417
14.224403181575408	2.586824	1.6083606
14.242066002051999	2.514696	1.5857793
14.259729162655093	2.471467	1.57209
14.277392663824022	2.4666188	1.5705473
14.295056505998208	2.4617102	1.5689838
14.312720689617128	2.4440491	1.5633454
14.330385215120348	2.4204872	1.5557915
14.348050082947497	2.4043288	1.5505898
14.3657152935383	2.4312584	1.5592493
14.383380847332528	2.419475	1.5554662
14.401046744770051	2.4290233	1.5585324
14.418712986290798	2.4257958	1.5574967
14.436379572334793	2.4113085	1.5528388
14.454046503342123	2.4266999	1.5577868
14.471713779752946	2.423052	1.5566156
14.489381402007504	2.4519737	1.5658779
14.507049370546113	2.422762	1.5565224
14.524717685809168	2.3983812	1.5486708
14.542386348237134	2.396428	1.54804
14.560055358270553	2.4041214	1.5505229
14.577724716350051	2.4670773	1.5706933
14.595394422916325	2.507361	1.5834649
14.61306447841015	2.561595	1.6004983
14.63073488327237	2.5359678	1.5924722
14.648405637943917	2.5224311	1.5882163
14.6660767428658	2.475277	1.5733013
14.683748198479094	2.4981215	1.5805447
14.701420005224954	2.571662	1.6036402
14.719092163544628	2.6443138	1.6261346
14.73676467387942	2.6798646	1.6370292
14.754437536670727	2.7016912	1.6436822
14.772110752360014	2.6975515	1.6424224
14.78978432138882	2.6899855	1.6401175
14.807458244198777	2.711507	1.6466655
14.82513252123159	2.6978235	1.6425053
14.842807152929028	2.7049518	1.6446737
14.860482139732962	2.656842	1.6299822
14.87815748208531	2.6375024	1.6240389
14.8958331804281	2.6657913	1.6327251
14.91350923520342	2.6754844	1.6356908
14.931185646853438	2.709471	1.6460471
14.948862415820408	2.6613677	1.6313698
14.966539542546656	2.667044	1.6331086
14.98421702747459	2.6417444	1.6253444
15.001894871046696	2.6577327	1.6302555
15.019573073705542	2.646801	1.6268992
15.037251635893766	2.6643784	1.6322924
15.054930558054092	2.6857448	1.6388242
15.072609840629323	2.7386189	1.6548773
15.090289484062351	2.886276	1.6989044
15.107969488796124	3.191619	1.7865102
15.125649855273691	3.5984128	1.8969482
15.14333058393817	4.0962377	2.0239165
15.161011675232768	5.064142	2.250365
15.17869312960076	6.47867	2.5453231
15.196374947485506	8.356233	2.890715
15.214057129330447	11.351715	3.3692307
15.231739675579114	16.01352	4.0016894
15.249422586675102	21.009928	4.5836587
15.267105863062092	24.269846	4.9264436
15.284789505183847	24.612898	4.9611387
15.302473513484218	22.572243	4.7510257
15.320157888407127	18.891268	4.346409
15.337842630396578	14.728134	3.8377252
15.355527739896656	11.546756	3.3980517
15.37321321735153	9.032836	3.0054677
15.39089906320545	6.6207347	2.5730789
15.408585277902748	4.9297447	2.2203028
15.42627186188783	3.7902946	1.946868
15.443958815605198	3.2405965	1.8001657
15.461646139499424	2.963885	1.7215937
15.479333834015168	2.803067	1.6742362
15.497021899597165	2.7461724	1.6571579
15.514710336690234	2.693062	1.6410552
15.53239914573928	2.6836529	1.6381859
15.550088327189297	2.6115503	1.6160291
15.567777881485336	2.5943065	1.6106851
15.58546780907256	2.5558746	1.5987103
15.6031581103962	2.5642228	1.6013191
15.620848785901568	2.5301533	1.5906456
15.638539836034063	2.5293486	1.5903926
15.656231261239173	2.4767885	1.5737816
15.673923061962451	2.478795	1.5744189
15.691615238649552	2.469697	1.571527
15.709307791746202	2.444331	1.5634357
15.727000721698221	2.4416618	1.5625818
15.744694028951498	2.4240859	1.5569476
15.76238771395202	2.4440284	1.5633389
15.780081777145844	2.451809	1.5658253
15.797776218979125	2.4316397	1.5593716
15.815471039898094	2.3696854	1.5393783
15.833166240349064	2.333568	1.5276021
15.850861820778437	2.3530624	1.5339695
15.868557781632699	2.4009433	1.5494977
15.886254123358412	2.3990645	1.5488914
15.903950846402232	2.3754184	1.5412393
15.921647951210897	2.3678198	1.5387722
15.939345438231225	2.4183462	1.5551033
15.957043307910133	2.4629612	1.5693824
15.974741560694602	2.4724095	1.5723897
15.992440197031714	2.4520977	1.5659175
16.01013921736862	2.4538653	1.5664818
16.02783862215259	2.4227695	1.5565249
16.045538411830933	2.3956556	1.5477905
16.06323858685107	2.388648	1.5455252
16.080939147660512	2.4275749	1.5580677
16.09864009470684	2.4461231	1.5640087
16.11634142843774	2.4467301	1.5642027
16.134043149300954	2.4350822	1.560475
16.15174525774433	2.4251795	1.5572988
16.169447754215817	2.4344692	1.5602785
16.18715063916342	2.4602246	1.5685103
16.204853913035244	2.4685538	1.5711632
16.222557576279478	2.498014	1.5805106
16.240261629344403	22.493124	4.7426915
16.257966072678386	43.06511	6.5624013
16.275670906729868	38.146984	6.1763244
16.293376131947387	2.559648	1.59989
16.31108174877957	2.5556355	1.5986356
16.328787757675133	2.5912075	1.6097229
16.34649415908287	2.5901241	1.6093862
16.364200953451657	2.6044564	1.6138328
16.38190814123048	2.6548514	1.6293715
16.39961572286839	2.7546299	1.6597078
16.41732369881455	2.8027265	1.6741346
16.43503206951817	2.798218	1.6727875
16.45274083542859	2.766213	1.6631936
16.47044999699522	2.7739384	1.6655145
16.488159554667558	2.8188524	1.6789439
16.505869508895184	2.8904977	1.7001463
16.523579860127786	2.9597204	1.7203838
16.541290608815117	3.0128984	1.7357702
16.559001755407035	3.0702243	1.7522055
16.57671330035348	3.1303084	1.7692678
16.59442524410448	3.1966505	1.787918
16.61213758711015	3.2330837	1.7980778
16.629850329820705	3.278662	1.8107076
16.647563472686436	3.367794	1.835155
16.665277016157724	3.4177387	1.8487127
16.682990960685053	3.4774513	1.8647926
16.70070530671898	3.4793985	1.8653146
16.718420054710155	3.4696941	1.8627115
16.736135205109335	3.534338	1.8799835
16.753850758367335	3.585341	1.8934996
16.771566714935087	3.6554515	1.9119235
16.789283075263597	3.7387807	1.9335927
16.80699983980398	3.8449821	1.9608626
16.82471700900741	3.938953	1.9846796
16.84243458332518	3.97169	1.9929099
16.860152563208665	3.9967926	1.999198
16.87787094910932	4.036708	2.009156
16.89558974147871	4.1447954	2.035877
16.913308940768466	4.2480507	2.06108
16.931028547430333	4.3255672	2.0798
16.94874856191613	4.3271565	2.0801818
16.966468984677785	4.348309	2.08526
16.98418981616729	4.378735	2.0925426
17.00191105683676	4.4913116	2.1192715
17.019632707138374	4.5659504	2.1368084
17.03735476752442	4.6219063	2.1498618
17.05507723844728	4.6284413	2.1513813
17.072800120359403	4.6749477	2.1621628
17.090523413713353	4.656984	2.1580045
17.108247118961785	4.6723037	2.1615512
17.125971236557437	4.6656594	2.1600137
17.143695766953133	4.7085214	2.1699128
17.161420710601806	4.7152267	2.1714573
17.179146067956477	4.7167664	2.1718118
17.19687183947025	4.6930623	2.1663477
17.21459802559634	4.701529	2.1683009
17.232324626788028	4.725471	2.1738148
17.25005164349871	4.7380204	2.1766994
17.267779076181863	4.725128	2.173736
17.285506925291074	4.6916304	2.166017
17.30323519127999	4.664369	2.159715
17.320963874602384	4.663928	2.159613
17.33869297571211	4.6628985	2.1593745
17.356422495063114	4.6466074	2.155599
17.37415243310944	4.5972047	2.1441092
17.391882790305218	4.509253	2.1235
17.40961356710468	4.4573894	2.111253
17.42734476396215	4.476809	2.115847
17.445076381332044	4.52637	2.1275268
17.462808419668868	4.613242	2.147846
17.48054087942723	4.774543	2.1850727
17.498273761061835	5.1061153	2.2596714
17.51600706502747	5.5554295	2.3569958
17.533740791779024	6.1979704	2.4895723
17.551474941771485	7.5801506	2.7532074
17.56920951545993	8.679607	2.9461174
17.586944513299528	10.854297	3.294586
17.60467993574556	12.494883	3.53481
17.622415783253373	14.181663	3.7658548
17.64015205627843	15.565979	3.9453745
17.657888755276293	16.629448	4.077922
17.675625880702604	17.177061	4.1445217
17.69336343301311	16.996855	4.122724
17.71110141266366	16.19513	4.0243173
17.728839820110178	15.237046	3.903466
17.746578655808705	14.460477	3.8026934
17.764317920215372	13.086908	3.6175833
17.7820576137864	11.624028	3.4094028
17.79979773697811	9.5722275	3.0939016
17.81753829024692	7.612166	2.7590153
17.835279274049356	5.8807898	2.425034
17.85302068884201	4.8508606	2.202467
17.870762535081607	4.2164154	2.0533912
17.888504813224934	3.9354475	1.9837962
17.90624752372891	3.772554	1.9423064
17.923990667050536	3.638125	1.9073869
17.941734243646895	3.515054	1.8748478
17.959478253975185	3.498265	1.8703649
17.9772226984927	3.4704874	1.8629245
17.994967577656833	3.4899457	1.8681396
18.01271289192506	3.4632425	1.860979
18.030458641754965	3.4242816	1.8504814
18.04820482760425	3.3639684	1.8341124
18.06595144993067	3.3354506	1.8263216
18.083698509192125	3.2975914	1.8159271
18.101446005846576	3.2506208	1.8029479
18.119193940352105	3.2238925	1.7955201
18.136942313166887	3.210243	1.7917151
18.1546911247492	3.2033203	1.7897822
18.1724403755574	3.1839418	1.7843603
18.19019006604997	3.1505985	1.7749926
18.207940196685467	3.1471899	1.7740321
18.225690767922575	3.1348119	1.77054
18.243441780220046	3.1190777	1.7660911
18.261193234036764	3.0819252	1.7555413
18.278945129831676	3.0823512	1.7556626
18.29669746806386	3.1327875	1.7699682
18.314450249192483	3.1373456	1.7712554
18.3322034736768	3.1179178	1.7657627
18.349957141976184	3.0595982	1.7491707
18.3677112545501	3.0463135	1.7453692
18.385465811858108	3.0600545	1.7493012
18.403220814359884	3.0600324	1.7492949
18.420976262515172	3.1074233	1.7627885
18.43873215678387	3.1361501	1.7709179
18.456488497625923	3.2082906	1.7911701
18.474245285501407	3.31439	1.8205466
18.492002520870486	3.3553932	1.8317733
18.50976020419343	3.4086123	1.8462428
18.527518335930615	3.6995952	1.9234332
18.545276916542516	4.3455114	2.084589
18.563035946489688	4.5389676	2.1304853
18.580795426232832	4.996422	2.2352676
18.598555356232698	4.858391	2.2041757
18.616315736950185	5.2081017	2.2821267
18.63407656884626	4.832831	2.19837
18.65183785238201	4.9818068	2.231996
18.669599588018617	4.697802	2.1674414
18.68736177621737	4.691882	2.1660752
18.705124417439652	4.6428137	2.1547189
18.72288751214696	4.444215	2.1081307
18.740651060800886	4.5873876	2.1418188
18.758415063863115	4.3470454	2.084957
18.77617952179546	4.5049906	2.1224964
18.793944435059814	4.2816577	2.0692167
18.811709804118184	4.3015976	2.0740292
18.829475629432675	4.235856	2.0581195
18.8472419114655	4.03956	2.0098655
18.86500865067897	4.1579876	2.0391145
18.88277584753551	3.8342643	1.9581277
18.90054350249763	3.8553083	1.963494
18.918311616027957	3.5377717	1.8808966
18.936080188589226	3.4480827	1.8569014
18.953849220644265	3.172994	1.7812899
18.971618712656007	2.9638977	1.7215974
18.9893886650875	2.8884869	1.6995549
19.007159078401887	8.034956	2.8345997
19.024929953062408	32.881546	5.7342434
19.042701289532435	32.825977	5.729396
19.060473088275405	25.378935	5.037751
19.07824534975489	2.6715832	1.6344979
19.096018074434568	2.6561358	1.6297655
19.113791262778197	2.6515963	1.6283723
19.13156491524966	2.628168	1.6211625
19.149339032312945	2.6100736	1.6155722
19.167113614432136	2.609985	1.6155448
19.184888662071433	2.5857933	1.6080402
19.202664175695123	2.587358	1.6085267
19.220440155767623	2.568951	1.6027948
19.238216602753447	2.5632741	1.6010228
19.2559935171172	2.5676558	1.6023906
19.27377089932361	2.5683641	1.6026117
19.291548749837514	2.5796049	1.6061149
19.309327069123835	2.5735745	1.6042365
19.32710585764763	2.543014	1.594683
19.344885115874032	2.5269346	1.5896335
19.362664844268313	2.5259836	1.5893344
19.380445043295822	2.5296981	1.5905025
19.39822571342203	2.495802	1.5798107
19.41600685511252	2.5069919	1.5833483
19.43378846883297	2.508043	1.5836803
19.451570555049173	2.5077069	1.583574
19.469353114227037	2.4702268	1.5716954
19.48713614683254	2.4750893	1.5732417
19.50491965333182	2.489822	1.577917
19.52270363419109	2.500106	1.5811723
19.540488089876686	2.4768803	1.5738108
19.55827302085503	2.485942	1.576687
19.576058427592674	2.4747	1.573118
19.593844310556282	2.5026102	1.581964
19.611630670212598	2.5219302	1.5880586
19.629417507028506	2.5314405	1.5910501
19.64720482147098	2.5413039	1.5941467
19.6649926140071	2.5163193	1.5862911
19.682780885104084	2.5161507	1.5862379
19.70056963522921	2.5112662	1.5846975
19.718358864849908	2.5105095	1.5844587
19.7361485744337	2.5307286	1.5908264
19.753938764448215	2.5352857	1.5922581
19.771729435361202	2.5258777	1.589301
19.789520587640506	2.4864821	1.5768583
19.807312221754092	2.4961705	1.5799273
19.825104338170043	2.5255527	1.5891988
19.842896937356517	2.5605237	1.6001637
19.860690019781824	2.5507932	1.5971203
19.87848358591436	2.5327947	1.5914756
19.896277636222635	2.533642	1.5917418
19.914072171175278	2.5613222	1.6004131
19.931867191241015	2.571243	1.6035095
19.94966269688869	2.6005461	1.6126208
19.967458688587264	2.534699	1.5920738
19.985255166805807	2.5024135	1.5819019
20.00305213201348	2.4569976	1.5674813
20.020849584679578	2.4516523	1.5657753
20.038647525273507	2.4509966	1.565566
20.05644595426477	2.484008	1.5760736
20.07424487212299	2.5031836	1.5821452
20.092044279317903	2.5050714	1.5827417
20.109844176319353	2.5005467	1.5813117
20.127644563597304	2.472738	1.5724941
20.145445441621817	2.461268	1.5688429
20.16324681086307	2.4429727	1.5630012
20.181048671791373	2.4202247	1.5557071
20.198851024877122	2.398313	1.5486488
20.216653870590836	2.3999636	1.5491816
20.234457209403146	2.4249272	1.5572178
20.252261041784802	2.4178598	1.5549469
20.270065368206662	2.4359384	1.5607493
20.287870189139685	2.397291	1.5483187
20.305675505054968	2.415691	1.5542493
20.323481316423702	2.4063957	1.5512562
20.341287623717207	2.38397	1.544011
20.359094427406884	2.362118	1.5369184
20.376901727964288	2.3701978	1.5395447
20.39470952586107	2.4021404	1.549884
20.41251782156899	2.421773	1.5562047
20.430326615559935	2.4210594	1.5559753
20.448135908305886	2.4316056	1.5593606
20.465945700278965	2.4128625	1.5533391
20.483755991951384	2.4268599	1.5578382
20.50156678379548	2.38232	1.5434766
20.519378076283708	2.372621	1.5403315
20.537189869888635	2.373513	1.5406209
20.55500216508294	2.405331	1.550913
20.572814962339415	2.3819606	1.5433602
20.59062826213098	2.382649	1.5435832
20.60844206493066	2.3485534	1.5324991
20.626256371211593	2.3321426	1.5271354
20.644071181447032	2.3062942	1.5186489
20.66188649611036	2.307582	1.5190727
20.67970231567506	2.33756	1.5289081
20.697518640614742	2.3754532	1.5412506
20.715335471403122	2.3548243	1.5345436
20.73315280851404	2.3376307	1.5289313
20.750970652421447	2.3139918	1.5211811
20.768789003599412	2.3197052	1.5230578
20.786607862522136	2.2765887	1.5088369
20.8044272296639	2.2666557	1.5055417
20.82224710549913	2.2508428	1.5002809
20.84006749050237	2.27165	1.5071994
20.857888385148268	3.851613	1.9625527
20.8757097899116	45.969833	6.7801056
20.893531705267254	64.7924	8.049373
20.911354131690224	83.78936	9.153653
20.92917706965566	69.031906	8.308544
20.94700051963877	50.113693	7.0791025
20.96482448211493	29.42342	5.424336
20.982648957559622	4.1975465	2.0487914
21.00047394644843	2.3087366	1.5194527
21.01829944925707	2.290974	1.5135963
21.036125466461375	2.2511463	1.5003821
21.053951998537297	2.2454712	1.4984896
21.071779045960906	2.2498083	1.4999361
21.089606609208378	2.2374651	1.4958159
21.10743468875603	2.2317011	1.4938879
21.12526328508028	2.236257	1.495412
21.143092398657675	2.230045	1.4933336
21.16092202996488	2.222211	1.4907082
21.17875217947867	2.2093534	1.4863894
21.19658284767596	2.200478	1.4834008
21.21441403503377	2.195727	1.4817986
21.232245742029225	2.2135475	1.4877995
21.2500779691396	2.198878	1.4828614
21.26791071684227	2.1961436	1.4819392
21.28574398561475	2.1993964	1.4830362
21.30357777593465	2.1808956	1.4767855
21.321412088279704	2.143173	1.463958
21.339246923127792	2.144496	1.4644097
21.357082280956888	2.1638265	1.4709951
21.3749181622451	2.2009194	1.4835496
21.392754567470647	2.1872814	1.4789461
21.41059149711187	2.1845808	1.4780327
21.42842895164726	2.151038	1.4666417
21.446266931555378	2.1258404	1.4580262
21.464105437314945	2.0819442	1.4428943
21.481944469404798	2.0990486	1.4488094
21.49978402830388	2.110574	1.4527814
21.51762411449127	2.131078	1.4598212
21.53546472844617	2.133692	1.4607162
21.553305870647876	2.1234205	1.4571961
21.571147541575865	2.135967	1.4614948
21.58898974170967	2.126784	1.4583498
21.60683247152899	2.1038284	1.450458
21.62467573151363	2.0814703	1.4427302
21.642519522143523	2.0779297	1.4415026
21.660363843898722	2.0861034	1.444335
21.6782086972594	2.1030602	1.4501932
21.696054082705864	2.0973184	1.4482121
21.713900000718535	2.099078	1.4488195
21.73174645177795	2.087062	1.4446667
21.749593436364794	2.1086917	1.4521335
21.767440954959845	2.0773013	1.4412845
21.785289008044032	2.049389	1.4315686
21.803137596098388	2.0173469	1.4203334
21.820986719604086	2.0154057	1.4196498
21.838836379042412	1.9954358	1.412599
21.85668657489478	1.9688677	1.4031634
21.87453730764273	1.9697372	1.4034733
21.892388577767914	1.9859372	1.4092329
21.91024038575213	2.0389102	1.4279041
21.928092732077285	2.059483	1.43509
21.945945617225426	2.0720348	1.4394565
21.963799041678694	2.0582442	1.4346582
21.981653005919398	31.34623	5.59877
21.999507510429943	78.126465	8.838918
22.01736255569286	73.08246	8.548828
22.035218142190818	4.206919	2.0510776
22.05307427040661	2.0436735	1.4295712
22.07093094082315	2.0186615	1.420796
22.088788153923474	2.0215855	1.4218247
22.106645910190746	2.0433145	1.4294455
22.12450421010827	2.0306072	1.4249938
22.142363054159464	2.0157247	1.4197621
22.16022244282787	2.0098875	1.4177049
22.178082376597164	1.9958494	1.4127454
22.195942855951145	1.9904742	1.4108417
22.213803881373742	1.9788811	1.4067271
22.231665453349002	1.9893512	1.4104435
22.24952757236111	1.9814727	1.407648
22.26739023889438	2.0275717	1.4239283
22.28525345343323	2.0435965	1.4295442
22.30311721646225	2.0600286	1.43528
22.320981528466113	2.0401163	1.4283264
22.33884638992964	2.0368152	1.4271703
22.356711801337788	1.9976677	1.4133887
22.37457776317561	1.9491128	1.3961062
22.392444275928337	1.9560025	1.3985716
22.410311340081282	1.9680809	1.402883
22.428178956119904	2.0014098	1.414712
22.446047124529805	2.0053577	1.4161066
22.46391584579669	1.9861978	1.4093254
22.481785120406414	1.9766327	1.4059277
22.49965494884496	1.9635723	1.4012753
22.51752533159841	1.9859258	1.4092288
22.53539626915302	2.0284781	1.4242465
22.553267761995137	2.0282295	1.4241592
22.571139810611264	1.99232	1.4114957
22.589012415488025	1.9280401	1.3885388
22.60688557711216	1.9556974	1.3984625
22.624759295970566	1.9664577	1.4023044
22.642633572550263	2.0083327	1.4171566
22.660508407338362	2.0082264	1.417119
22.67838380082217	2.0567238	1.4341283
22.696259753489077	2.0420868	1.429016
22.714136265826614	2.0260677	1.4234
22.73201333832246	1.9372238	1.3918419
22.74989097146439	1.939606	1.3926973
22.76776916574035	1.9466197	1.3952131
22.785647921638393	1.9510378	1.3967955
22.803527239646712	1.9282751	1.3886235
22.82140712025363	1.9491788	1.39613
22.839287563947593	1.9866945	1.4095014
22.85716857121719	1.9722608	1.4043721
22.875050142551135	1.9122901	1.3828558
22.892932278438277	1.8636293	1.3651481
22.910814979367604	1.8729273	1.3685493
22.928698245828222	1.8932117	1.3759403
22.946582078309387	1.9465458	1.3951867
22.96446647730047	1.9651929	1.4018534
22.98235144329098	1.9654452	1.4019433
23.000236976770562	1.915188	1.3839031
23.018123078229	1.8890082	1.374412
23.03600974815619	1.8923584	1.3756301
23.053896987042194	1.9420439	1.3935723
23.071784795377173	1.9631801	1.4011353
23.08967317365145	1.9598265	1.399938
23.10756212235546	1.9438502	1.3942202
23.125451641979787	1.9700897	1.4035988
23.143341733015134	1.9466554	1.3952259
23.161232395952357	1.8859851	1.3733118
23.179123631282426	1.8945678	1.376433
23.197015439496468	1.971601	1.4041371
23.214907821085717	2.0028398	1.4152173
23.23280077654157	1.9882803	1.410064
23.250694306355538	1.9508399	1.3967247
23.268588411019277	1.9642222	1.4015071
23.28648309102458	1.9939225	1.4120632
23.304378346863356	2.0191286	1.4209604
23.322274179027676	2.027229	1.423808
23.340170588009723	1.9930072	1.4117391
23.358067574301852	1.9895885	1.4105277
23.37596513839651	1.9611946	1.4004266
23.39386328078629	1.8957058	1.3768463
23.411762001963947	1.9016296	1.3789959
23.429661302422353	1.9428744	1.3938704
23.4475611826545	1.9581184	1.3993279
23.46546164315356	1.937162	1.3918197
23.48336268441279	1.9600632	1.4000226
23.501264306925638	1.9707067	1.4038186
23.51916651118564	1.9821547	1.4078902
23.537069297686497	1.9807756	1.4074003
23.554972666922037	1.9878036	1.4098948
23.57287661938623	1.9957939	1.4127257
23.59078115557318	1.9790579	1.4067899
23.608686275977128	1.9390649	1.3925031
23.62659198109246	1.9074758	1.381114
23.6444982714137	1.8892041	1.3744832
23.66240514743549	1.9426678	1.3937962
23.68031260965263	1.9733797	1.4047704
23.698220658560068	1.950963	1.3967688
23.716129294652845	1.9380976	1.3921558
23.7340385184262	1.9557531	1.3984824
23.75194833037546	1.9327245	1.3902246
23.769858730996123	1.8954824	1.3767653
23.78776972078382	1.8575355	1.3629143
23.80568130023431	1.8696307	1.3673444
23.823593469843495	1.8905237	1.3749632
23.841506230107424	1.915914	1.3841655
23.859419581522275	1.9031712	1.3795547
23.87733352458438	1.8791016	1.3708032
23.89524805979019	1.8813953	1.3716396
23.913163187636318	1.9235551	1.386923
23.931078908619508	1.9902723	1.41077
23.948995223236633	2.0209239	1.421592
23.966912131984735	2.0059412	1.4163126
23.98482963536096	2.0164752	1.4200264
24.002747733862616	2.0118816	1.4184082
24.020666427987155	2.0499625	1.431769
24.038585718232156	2.077182	1.4412433
24.056505605095353	2.0565333	1.4340619
24.074426089074617	2.0777419	1.4414375
24.092347170667946	2.1152608	1.4543936
24.110268850373515	2.1526537	1.4671924
24.128191128689586	2.160975	1.4700255
24.146114006114626	2.104898	1.4508266
24.164037483147187	2.0946813	1.4473014
24.181961560286005	2.0862334	1.4443799
24.199886238029926	2.0538657	1.4331315
24.21781151687797	2.092445	1.4465286
24.235737397329274	2.0862167	1.4443742
24.253663879883135	2.087075	1.4446713
24.271590965038975	2.0536933	1.4330713
24.289518653296376	2.0737834	1.4400637
24.30744694515505	2.0937505	1.4469798
24.32537584111486	2.1153927	1.4544389
24.34330534167581	2.1018236	1.4497668
24.361235447338046	2.0903778	1.4458139
24.379166158601876	2.0829637	1.4432477
24.39709747596772	2.049124	1.4314761
24.41502939993615	1.9898198	1.4106097
24.432961931007917	1.9528191	1.397433
24.450895069683856	1.9566698	1.3988101
24.468828816465	1.9590077	1.3996456
24.4867631718525	1.9597361	1.3999058
24.504698136347656	1.9357921	1.3913275
24.52263371045192	1.9812196	1.4075581
24.540569894666874	2.0032575	1.4153647
24.558506689494266	1.9859627	1.4092419
24.57644409543597	1.9180002	1.3849188
24.594382112994012	1.9401681	1.3928992
24.61232074267057	1.9898137	1.4106076
24.630259984967953	1.9889518	1.410302
24.64819984038863	1.9756716	1.4055859
24.66614030943522	1.9399543	1.3928224
24.684081392610462	1.9645443	1.401622
24.702023090417274	1.9918604	1.4113328
24.7199654033587	1.9755201	1.405532
24.737908331937927	1.9983815	1.4136412
24.755851876658305	2.0546055	1.4333895
24.773796038023324	2.0764997	1.4410065
24.79174081653661	2.0672336	1.4377878
24.809686212701962	2.1287642	1.4590285
24.827632227023294	2.128976	1.4591011
24.8455788600047	2.1785395	1.4759877
24.8635261121504	2.1979601	1.4825519
24.88147398396475	2.1618307	1.4703165
24.899422475952303	2.1227863	1.4569784
24.917371588617698	2.1546657	1.467878
24.935321322465768	2.2261963	1.4920443
24.953271678001478	2.3461134	1.5317028
24.97122265572994	2.5198915	1.5874166
24.989174256156414	2.8494911	1.6880436
25.00712647978632	3.29807	1.8160589
25.02507932712521	3.8616428	1.9651064
25.043032798678798	4.4571066	2.111186
25.060986894952933	5.102881	2.2589557
25.078941616453637	5.7632027	2.4006672
25.096896963687055	6.6572967	2.5801737
25.114852937159508	7.7867675	2.790478
25.132809537377444	8.285999	2.8785412
25.150766764847468	8.299156	2.8808255
25.168724620076347	7.8291135	2.7980554
25.186683103570985	6.791804	2.606109
25.204642215838426	5.640089	2.3748872
25.222601957385894	4.166827	2.0412807
25.24056232872074	3.1493278	1.7746346
25.25852333035048	2.6039414	1.6136733
25.276484962782778	2.2663035	1.5054247
25.294447226525435	2.0970478	1.4481187
25.312410122086423	1.9966383	1.4130245
25.330373649973843	1.9370902	1.3917938
25.348337810695988	1.9498458	1.3963687
25.366302604761245	1.9499376	1.3964016
25.384268032678207	1.9361557	1.3914582
25.40223409495558	1.9125818	1.3829613
25.420200792102257	1.9220583	1.3863832
25.438168124627246	1.9191113	1.38532
25.45613609303974	1.9048434	1.3801607
25.474104697849057	1.8760452	1.369688
25.492073939564698	1.8481468	1.3594656
25.510043818696285	1.834417	1.3544065
25.528014335753614	1.827075	1.3516934
25.54598549124664	1.8613108	1.3642987
25.56395728568544	1.8741618	1.3690003
25.58192971958028	1.8593456	1.3635782
25.59990279344156	1.8458971	1.3586379
25.617876507779833	1.9344667	1.390851
25.635850863105826	1.9508529	1.3967294
25.653825859930386	1.9070829	1.3809717
25.671801498764548	1.8914019	1.3752825
25.68977778011949	1.9021868	1.3791978
25.707754704506524	1.8763576	1.369802
25.725732272437153	1.8452011	1.3583817
25.743710484423012	1.8636385	1.3651514
25.761689340975888	1.8564895	1.3625306
25.77966884260774	1.8660752	1.3660436
25.797648989830662	1.8338032	1.3541799
25.815629783156922	1.8448969	1.3582698
25.83361122309895	1.8654042	1.365798
25.85159331016929	1.8889403	1.3743873
25.869576044880695	1.9322984	1.3900714
25.887559427746034	1.9240565	1.3871037
25.90554345927836	1.8495893	1.3599961
25.92352813999086	1.8412293	1.356919
25.94151347039689	1.8715805	1.3680573
25.959499451009965	1.8590693	1.363477
25.97748608234374	1.8488928	1.35974
25.995473364912062	1.8750666	1.3693308
26.013461299228904	1.898517	1.3778669
26.03144988580839	1.8805933	1.3713473
26.04943912516483	1.827082	1.351696
26.067429017812675	1.8313893	1.3532883
26.085419564266537	1.8267256	1.3515642
26.103410765041186	1.7866703	1.3366638
26.12140262065155	1.7936827	1.3392844
26.139395131612723	1.8399761	1.3564572
26.157388298439948	1.8501439	1.3601999
26.17538212164861	1.8139842	1.3468423
26.193376601754295	1.8298802	1.3527306
26.211371739272714	1.8145084	1.347037
26.229367534719746	1.8069663	1.3442345
26.247363988611433	1.7525585	1.3238423
26.26536110146397	1.7877005	1.3370492
26.283358873793727	1.8632414	1.365006
26.301357306117204	1.8850571	1.3729738
26.319356398951104	1.8877167	1.373942
26.33735615281224	1.8773725	1.3701724
26.35535656821762	1.8590876	1.3634837
26.373357645684404	1.8256577	1.351169
26.39135938572991	1.8394516	1.3562639
26.409361788871614	1.8651766	1.3657147
26.427364855627165	1.8517854	1.3608032
26.445368586514352	1.8360347	1.3550036
26.46337298205115	1.8386618	1.3559726
26.48137804275568	1.8463321	1.358798
26.499383769146217	1.8702095	1.367556
26.517390161741215	1.856959	1.3627028
26.53539722105928	1.8204365	1.3492355
26.553404947619182	1.7377688	1.3182446
26.571413341939856	1.7462813	1.3214693
26.589422404540397	1.7913996	1.3384317
26.60743213594006	1.8325	1.3536986
26.62544253665827	1.8204606	1.3492445
26.64345360721459	1.824589	1.3507735
26.66146534812879	1.8848947	1.3729147
26.679477759920758	1.8779193	1.3703719
26.69749084311057	1.825253	1.3510193
26.71550459821847	1.7997996	1.3415661
26.733519025764842	1.834479	1.3544294
26.751534126270258	1.8472346	1.3591301
26.769549900255434	1.847306	1.3591564
26.787566348241267	1.7989602	1.3412533
26.80558347074881	1.8117794	1.3460236
26.823601268299267	1.8099383	1.3453395
26.841619741414036	1.8112798	1.345838
26.85963889061465	1.8116626	1.3459802
26.877658716422832	1.8146303	1.3470821
26.89567921936045	1.8796899	1.3710178
26.913700399949544	1.9176967	1.3848093
26.93172225871233	1.8842883	1.3726938
26.949744796171174	1.8304765	1.352951
26.967768012848605	1.86398	1.3652766
26.98579190926733	1.8717195	1.368108
27.003816485950225	1.796818	1.3404545
27.021841743420318	1.7658995	1.3288715
27.039867682200814	1.8079525	1.3446013
27.057894302815072	1.8871996	1.3737539
27.07592160578664	1.8406923	1.3567212
27.0939495916392	1.8032662	1.3428575
27.111978260896635	1.8034008	1.3429075
27.13000761408296	1.8224816	1.3499932
27.148037651722397	1.7898083	1.3378372
27.166068374339304	1.8023162	1.3425037
27.184099782458215	1.8300084	1.3527781
27.20213187660384	1.8354532	1.354789
27.22016465730105	1.787185	1.3368564
27.23819812507487	1.80088	1.3419687
27.256232280450533	1.799685	1.3415234
27.274267123953383	1.8526961	1.3611377
27.292302656108987	1.8385906	1.3559464
27.31033887744306	1.8143843	1.3469908
27.32837578848146	1.8226537	1.3500569
27.34641338975026	1.8862417	1.3734051
27.364451681775673	1.8338882	1.3542113
27.382490665084074	1.8144768	1.3470252
27.400530340202046	1.8044657	1.343304
27.41857070765629	1.8115641	1.3459436
27.436611767973726	1.8015037	1.342201
27.454653521681404	1.7968717	1.3404744
27.472695969306564	1.8358953	1.3549521
27.490739111376627	1.8443379	1.358064
27.508782948419153	1.8405182	1.356657
27.526827480961902	1.832144	1.3535671
27.54487270953279	1.7882915	1.3372701
27.562918634659898	1.7750986	1.3323282
27.580965256871508	1.83157	1.353355
27.599012576696026	1.8771441	1.370089
27.617060594662068	1.8574128	1.3628694
27.63510931129842	1.8562398	1.3624389
27.65315872713401	1.8896589	1.3746487
27.67120884269797	1.9082311	1.3813874
27.68925965851958	1.8583821	1.3632249
27.707311175128307	1.8509458	1.3604947
27.725363393053787	1.8636439	1.3651534
27.74341631282583	1.8757021	1.3695627
27.7614699349744	1.8736798	1.3688242
27.77952426002968	2.0764034	1.440973
27.797579288521973	2.1925075	1.4807118
27.815635020981784	2.659108	1.6306771
27.83369145793979	2.6926117	1.6409179
27.85174859992682	2.5185883	1.5870061
27.869806447473923	2.3325477	1.527268
27.887865001112267	2.0226004	1.4221816
27.905924261373233	1.9357973	1.3913293
27.92398422878836	1.9106913	1.3822776
27.94204490388936	1.8911476	1.37519
27.96010628720813	1.8845292	1.3727815
27.978168379276728	1.8802942	1.3712382
27.9962311806274	1.8871914	1.3737508
28.014294691792568	1.8955386	1.3767856
28.0323589133048	1.94163	1.3934238
28.050423845696887	1.9155449	1.3840321
28.068489489501758	1.9232948	1.386829
28.086555845252523	1.9627274	1.4009738
28.104622913482487	2.001514	1.4147487
28.122690694725115	2.023096	1.4223558
28.14075918951405	1.9566529	1.3988041
28.15882839838312	1.8948698	1.3765427
28.176898321866304	1.871423	1.3679997
28.1949689604978	1.8872442	1.3737701
28.213040314811945	1.907104	1.3809794
28.23111238534327	1.9029436	1.3794723
28.249185172626493	1.9681696	1.4029146
28.267258677196473	2.0204523	1.4214262
28.285332899588294	1.9796981	1.4070175
28.303407840337172	1.9265397	1.3879985
28.321483499978545	1.9274665	1.3883322
28.33955987904799	1.9593989	1.3997853
28.357636978081285	1.9951427	1.4124953
28.37571479761439	1.9997028	1.4141085
28.393793338183425	1.9634734	1.40124
28.41187260032469	1.9681789	1.402918
28.429952584574686	2.0203886	1.4214038
28.448033291470065	2.047491	1.4309057
28.46611472154769	1.994411	1.4122362
28.484196875344566	1.9932568	1.4118274
28.502279753397914	2.0012927	1.4146706
28.52036335624511	1.9883313	1.410082
28.538447684423716	2.035226	1.4266136
28.556532738471482	2.08011	1.4422587
28.574618518926325	2.052014	1.4324853
28.59270502632635	2.041071	1.4286605
28.61079226120985	2.0398567	1.4282355
28.628880224115274	2.081762	1.4428313
28.646968915581287	2.0669956	1.437705
28.66505833614671	2.0314226	1.4252799
28.68314848635055	2.0448055	1.4299669
28.701239366732004	2.073129	1.4398364
28.71933097783044	2.074147	1.44019
28.737423320185403	2.0800102	1.442224
28.75551639433665	2.1181102	1.4553728
28.773610200824074	2.1382048	1.4622601
28.791704740187793	2.1453657	1.4647067
28.80980001296809	2.1467412	1.4651761
28.827896019705413	2.2044947	1.4847541
28.845992760940433	2.1639302	1.4710304
28.86409023721397	2.2245781	1.4915019
28.88218844906704	2.2736418	1.5078601
28.900287397040845	2.3192813	1.5229187
28.918387081676755	2.279649	1.5098506
28.936487503516343	2.26655	1.5055066
28.954588663101365	2.234767	1.4949137
28.97269056097374	2.2871673	1.5123384
28.990793197675597	2.3405542	1.529887
29.00889657374923	2.4128752	1.5533432
29.027000689737125	2.4127417	1.5533003
29.04510554618196	2.4118583	1.5530158
29.06321114362659	2.4368062	1.5610273
29.08131748261405	2.4142492	1.5537854
29.099424563687567	2.4666953	1.5705717
29.11753238739057	2.5854244	1.6079255
29.13564095426663	2.630427	1.6218591
29.15375026485954	2.614746	1.6170176
29.171860319713275	2.6425273	1.6255852
29.18997111937199	2.676854	1.6361094
29.20808266438002	2.6922867	1.640819
29.226194955281898	2.8304513	1.6823945
29.244307992622335	2.9009867	1.7032284
29.26242177694624	2.9168422	1.7078766
29.2805363087987	2.9166696	1.707826
29.29865158872498	2.8822958	1.6977326
29.316767617270557	2.9357421	1.7134007
29.334884394981064	2.998239	1.7315423
29.353001922402367	3.0416408	1.74403
29.37112020008047	3.0182645	1.7373153
29.389239228561596	3.1507456	1.775034
29.407359008392152	3.4007158	1.844103
29.42547954011872	3.7912593	1.9471157
29.44360082428809	4.4376345	2.1065693
29.46172286144722	5.539198	2.35355
29.479845652143283	7.1505585	2.6740527
29.497969196923606	9.082476	3.0137146
29.516093496335728	11.471676	3.3869863
29.5342185509274	14.289213	3.7801075
29.55234436124651	16.621305	4.0769234
29.570470927841175	17.96491	4.2385035
29.588598251259686	17.572487	4.191955
29.60672633205055	16.186579	4.023255
29.624855170762405	14.148068	3.7613919
29.642984767944146	11.5412	3.3972342
29.66111512414481	8.818403	2.9695797
29.67924623991366	6.6205115	2.5730355
29.697378115800138	5.2029805	2.2810042
29.71551075235387	4.299085	2.0734236
29.733644150124675	3.814077	1.9529662
29.751778309662576	3.554595	1.8853633
29.769913231517766	3.4749067	1.8641101
29.78804891624066	3.480429	1.8655908
29.806185364381818	3.4536705	1.8584054
29.82432257649206	3.3553023	1.8317485
29.842460553122333	3.2409885	1.8002746
29.86059929482382	3.2701764	1.808363
29.878738802147872	3.3151011	1.8207419
29.896879075646048	3.2955792	1.8153731
29.915020115870114	3.363569	1.8340036
29.933161923371976	3.3669567	1.8349268
29.951304498703777	3.3193882	1.8219188
29.969447842417857	3.2431123	1.8008643
29.987591955066733	3.2621806	1.8061508
30.005736837203123	3.278892	1.8107711
30.023882489379943	3.2921193	1.8144199
30.04202891215028	3.241129	1.8003136
30.060176106067455	3.1496282	1.7747191
30.078324071684946	3.1448069	1.7733604
30.09647280955646	3.1644118	1.7788794
30.114622320235863	3.1663876	1.7794346
30.132772604277257	3.1747394	1.7817799
30.1509236622349	3.1432118	1.7729106
30.16907549466328	3.0774791	1.7542745
30.18722810211705	3.1594775	1.7774919
30.205381485151097	3.162745	1.7784108
30.22353564432045	3.0915115	1.7582694
30.241690580180403	3.0538557	1.7475284
30.25984629328638	3.0128832	1.7357659
30.278002784194037	2.9690418	1.7230908
30.296160053459246	2.935375	1.7132936
30.314318101638033	2.9895265	1.7290248
30.332476929286646	2.9929497	1.7300143
30.35063653696153	2.936136	1.7135156
30.368796925219307	2.920524	1.708954
30.386958094616844	2.918574	1.7083834
30.40512004571115	2.89413	1.7012143
30.423282779059463	2.8981879	1.7024065
30.441446295219233	2.8900816	1.700024
30.459610594748067	2.8139184	1.6774738
30.47777567820382	2.7763488	1.666238
30.495941546144504	2.84408	1.68644
30.51410819912835	2.9305003	1.7118704
30.532275637713795	2.8735962	1.6951685
30.55044386245946	2.8138635	1.6774575
30.56861287392416	2.8342915	1.6835355
30.586782672666956	2.8889403	1.6996883
30.604953259247047	2.8912063	1.7003547
30.623124634223885	2.8154433	1.6779283
30.641296798157075	2.788426	1.6698581
30.659469751606462	2.7211921	1.6496036
30.677643495132074	2.6608303	1.6312052
30.695818029294152	2.6734838	1.6350791
30.713993354653116	2.7208555	1.6495016
30.73216947176962	2.7348852	1.6537489
30.75034638120448	2.722532	1.6500098
30.768524083518756	2.748813	1.6579545
30.786702579273673	2.8098042	1.676247
30.80488186903069	2.88009	1.6970828
30.82306195335144	2.948931	1.7172452
30.841242832797782	3.0924172	1.758527
30.85942450793176	3.4028304	1.8446763
30.877606979315637	3.7776558	1.9436193
30.895790247511883	4.1672015	2.0413725
30.913974313083134	4.5261917	2.1274848
30.932159176592283	4.818516	2.1951118
30.95034483860237	4.939011	2.2223885
30.968531299676698	4.835081	2.1988819
30.98671856037873	4.509322	2.1235166
31.00490662127215	3.953473	1.9883343
31.023095482920848	3.5173478	1.8754593
31.04128514588892	3.1781256	1.7827299
31.059475610740662	2.8820477	1.6976595
31.07766687804056	2.698179	1.6426134
31.09585894835335	2.6491497	1.6276208
31.11405182224393	2.5871081	1.608449
31.132245500277417	2.5159333	1.5861694
31.15043998301914	2.4531035	1.5662386
31.168635271034628	2.4287734	1.5584522
31.18683136488964	2.4368057	1.5610272
31.20502826515008	2.4254196	1.5573759
31.223225972382135	2.441136	1.5624135
31.241424487152155	2.4328527	1.5597605
31.259623810026692	2.4222338	1.5563527
31.27782394157253	2.4587965	1.568055
31.296024882356644	2.4822824	1.5755261
31.314226632946237	2.459144	1.5681659
31.332429193908684	2.4868515	1.5769755
31.350632565811598	2.499242	1.5808991
31.368836749222787	2.484702	1.5762938
31.387041744710295	2.5041766	1.5824591
31.40524755284232	2.612282	1.6162555
31.423454174187317	2.646136	1.6266948
31.441661609313922	2.5503056	1.5969676
31.459869858791002	2.4668226	1.5706122
31.478078923187628	2.4393802	1.5618515
31.496288803073064	2.4056587	1.5510186
31.514499499016807	2.3373783	1.5288486
31.532711011588546	2.2638888	1.5046225
31.550923341358178	2.2374535	1.4958119
31.56913648889584	2.2768755	1.5089319
31.587350454771844	2.266955	1.505641
31.605565239556732	2.3055336	1.5183984
31.62378084382127	2.2805843	1.5101603
31.641997268136382	2.327496	1.5256133
31.660214513073274	2.3709733	1.5397965
31.67843257920331	2.411325	1.5528442
31.6966514670981	2.4216278	1.5561581
31.71487117732944	2.406313	1.5512295
31.733091710469346	2.353113	1.533986
31.751313067090052	2.362222	1.5369521
31.769535247764008	2.3503938	1.5330994
31.787758253063878	2.3112528	1.5202805
31.805982083562526	2.2957158	1.515162
31.824206739833024	2.2741084	1.5080147
31.84243222244869	2.2203937	1.4900986
31.860658531983013	2.1894038	1.4796634
31.878885669009737	2.1706548	1.4733142
31.897113634102784	2.2869031	1.512251
31.91534242783632	2.3141384	1.5212293
31.933572050784694	2.2490892	1.4996964
31.951802503522508	2.1897764	1.4797893
31.970033786624548	2.2578187	1.502604
31.988265900665834	2.2568552	1.5022833
32.006498846221575	2.3077202	1.5191182
32.02473262386724	2.351865	1.5335791
32.04296723417845	2.274254	1.5080631
32.0612026777311	2.18395	1.4778193
32.07943895510129	2.1257865	1.4580077
32.097676066865304	2.1529703	1.4673003
32.115914013599685	2.1919117	1.4805106
32.13415279588115	2.158028	1.4690228
32.152392414286666	2.0905147	1.4458612
32.1706328693934	2.0774312	1.4413297
32.18887416177875	2.138952	1.4625156
32.20711629202032	2.1349244	1.461138
32.225359260695924	2.0950475	1.4474279
32.243603068383614	2.16866	1.472637
32.26184771566166	2.1541452	1.4677007
32.28009320310852	2.1504402	1.4664379
32.2983395313029	2.1406755	1.4631047
32.31658670082372	2.109011	1.4522434
32.33483471225012	2.084332	1.4437215
32.35308356616143	2.1471121	1.4653027
32.371333263137245	2.1889067	1.4794954
32.38958380375734	2.2143073	1.4880549
32.407835188601744	2.124855	1.4576882
32.42608741825067	2.113429	1.4537637
32.444340493284585	2.1580071	1.4690157
32.46259441428416	2.18609	1.4785432
32.48084918183028	2.1285167	1.4589437
32.49910479650405	2.0560837	1.433905
32.51736125888683	2.0235465	1.4225141
32.53561856956014	2.0821288	1.4429584
32.5538767291058	2.1717317	1.4736797
32.572135738105764	2.141492	1.4633837
32.59039559714228	2.068119	1.4380957
32.608656306797776	2.1102626	1.4526743
32.62691786765491	2.0674155	1.437851
32.645180280296586	2.0170546	1.4202305
32.663443545305896	2.0287368	1.4243374
32.68170766326619	2.0452409	1.4301192
32.69997263476099	2.024024	1.4226819
32.7182384603741	2.0222256	1.4220498
32.7365051406895	2.0925663	1.4465705
32.75477267629144	2.062182	1.4360299
32.77304106776434	1.9333146	1.3904368
32.79131031569289	1.8497068	1.3600392
32.809580420661966	1.9143869	1.3836137
32.827851383256714	2.0750651	1.4405086
32.84612320406245	2.1086671	1.4521251
32.86439588366476	2.039493	1.4281082
32.88266942264945	2.0219717	1.4219605
32.9009438216025	2.0080593	1.4170601
32.9192190811102	2.0606756	1.4355054
32.937495201758985	2.0853932	1.444089
32.95577218413556	2.0630212	1.4363221
32.974050028826866	1.9951777	1.4125077
32.992328736420035	1.961966	1.400702
33.010608307502444	2.0034876	1.415446
33.02888874266169	1.9908438	1.4109726
33.047170042485604	1.9506514	1.3966572
33.06545220756225	1.973363	1.4047644
33.083735238479896	2.0178525	1.4205114
33.10201913582707	2.0490727	1.4314582
33.12030390019248	2.0353336	1.4266512
33.138589532165135	1.991194	1.4110967
33.15687603233419	2.020706	1.4215153
33.17516340128909	1.942828	1.3938537
33.19345163961947	1.9434187	1.3940655
33.211740747915215	1.9801128	1.4071648
33.23003072676643	2.0346437	1.4264094
33.248321576763466	2.0088797	1.4173496
33.266613298496885	1.9145553	1.3836746
33.28490589255747	1.8320298	1.3535249
33.30319935953626	1.815075	1.3472472
33.32149370002451	1.8941313	1.3762745
33.339788914613706	1.9059353	1.3805561
33.358085003895575	1.8940368	1.3762401
33.376381968462034	1.9153281	1.3839538
33.39467980890529	2.0143921	1.4192928
33.41297852581774	1.9942638	1.412184
33.43127811979204	1.9315641	1.3898072
33.44957859142105	1.9647813	1.4017066
33.467879941297866	2.0107858	1.4180218
33.486182170015844	1.934181	1.3907484
33.50448527816853	1.8680462	1.3667649
33.522789266349754	1.9166853	1.384444
33.541094135153514	1.9693388	1.4033313
33.55939988517411	1.9809173	1.4074507
33.57770651700602	1.9584253	1.3994375
33.59601403124398	1.956565	1.3987727
33.61432242848296	2.1193275	1.455791
33.632631709318154	2.1423967	1.4636928
33.650941874344994	2.0274763	1.4238948
33.66925292415916	1.931351	1.3897306
33.68756485935654	1.9298066	1.3891748
33.70587768053328	1.9940078	1.4120934
33.724191388285746	1.9997281	1.4141175
33.74250598321054	1.9225509	1.3865608
33.760821465904506	1.9194136	1.385429
33.77913783696474	1.8907193	1.3750343
33.79745509698852	1.8664278	1.3661727
33.815773246573414	1.8684819	1.3669243
33.8340922863172	1.9154534	1.3839991
33.852412216817896	1.874959	1.3692914
33.87073303867377	1.7611656	1.3270892
33.889054752483304	1.7497551	1.3227831
33.907377358845245	1.8440781	1.3579683
33.92570085835853	1.7842231	1.3357481
33.94402525162239	1.7602365	1.3267391
33.96235053923627	1.8480636	1.3594351
33.980676721799824	1.9215432	1.3861974
33.999003799912984	1.994879	1.4124019
34.01733177417592	1.982054	1.4078544
34.03566064518901	1.9535282	1.3976867
34.0539904135529	1.9441222	1.3943179
34.07232107986846	2.0018673	1.4148736
34.090652644736785	2.036849	1.4271822
34.108985108759235	2.026173	1.4234371
34.12731847253742	1.9583963	1.3994272
34.14565273667313	1.8801868	1.371199
34.16398790176847	1.8467321	1.3589453
34.18232396842574	1.9055427	1.380414
34.20066093724749	1.9503568	1.3965517
34.21899880883651	1.7932369	1.3391179
34.23733758379583	1.7734613	1.3317137
34.25567726272874	1.9309834	1.3895983
34.27401784623872	1.9865341	1.4094446
34.29235933492957	1.9631547	1.4011263
34.31070172940526	1.92509	1.3874761
34.32904503027003	2.0119474	1.4184313
34.347389238128386	2.1214046	1.4565042
34.36573435358502	1.9802011	1.4071962
34.38408037724492	1.9138181	1.3834082
34.402427309713296	1.8705705	1.3676881
34.42077515159559	1.8510618	1.3605373
34.43912390349752	1.7911757	1.3383482
34.45747356602499	1.7989082	1.3412338
34.47582413978423	1.8348624	1.3545709
34.49417562538163	1.8437985	1.3578655
34.51252802342388	1.7011399	1.3042775
34.53088133451789	1.7297229	1.3151892
34.54923555927084	1.9542472	1.397944
34.567590698290104	2.0528574	1.4327796
34.58594675218336	1.9532121	1.3975737
34.6043037215585	1.913651	1.3833477
34.62266160702365	1.970603	1.4037817
34.641020409187234	2.1401486	1.4629247
34.65938012865785	2.2817264	1.5105385
34.677740766044394	2.1949565	1.4815385
34.69610232195598	2.0033305	1.4153906
34.714464797002016	1.8198376	1.3490136
34.73282819179208	1.7855809	1.3362563
34.751192506936064	1.7825282	1.3351135
34.76955774304408	1.8833609	1.3723559
34.7879239007265	1.972989	1.4046313
34.80629098059391	2.0254085	1.4231684
34.824658983257194	1.968987	1.403206
34.843027909327446	1.8732959	1.368684
34.86139775941603	1.9336648	1.3905628
34.879768534134534	1.7934719	1.3392057
34.89814023409483	1.9476434	1.3955799
34.91651285990901	2.0012202	1.414645
34.93488641218944	1.7978139	1.3408258
34.95326089154871	1.6384503	1.2800196
34.97163629859967	1.6718042	1.2929827
34.99001263395542	1.900731	1.37867
35.00838989822934	1.8975073	1.3775004
35.02676809203499	1.7366344	1.3178142
35.04514721598624	1.8745902	1.3691567
35.063527270697215	1.9425645	1.3937591
35.081908256782256	1.933684	1.3905697
35.10029017485597	2.1118279	1.453213
35.11867302553321	2.3127582	1.5207756
35.137056809429104	2.127802	1.4586987
35.155441527159006	1.8008378	1.3419529
35.173827179338524	1.75461	1.3246169
35.19221376658354	1.8227458	1.350091
35.21060128951017	1.8885363	1.3742403
35.2289897487348	1.7052222	1.3058416
35.24737914487405	1.6699742	1.2922748
35.26576947854479	1.7127599	1.3087245
35.28416075036418	1.859653	1.363691
35.30255296094958	2.0001073	1.4142514
35.32094611091867	2.1428018	1.4638312
35.33934020088932	1.9610505	1.4003751
35.35773523147969	1.8282523	1.3521289
35.3761312033082	2.04027	1.4283803
35.394528116993506	2.1110833	1.4529567
35.41292597315452	2.1912196	1.4802768
35.431324772410434	2.1856596	1.4783976
35.449724515380666	2.1005213	1.4493176
35.46812520268491	2.1558678	1.4682873
35.486526834943106	2.0423095	1.429094
35.504929412775454	2.2875583	1.5124676
35.52333293680242	2.4429238	1.5629855
35.54173740764471	2.03428	1.4262819
35.560142825923286	1.654721	1.2863595
35.5785491922594	1.755216	1.3248457
35.59695650727454	1.8051803	1.34357
35.61536477159042	2.2504926	1.5001642
