0.008763373481513119	0.0	0.0
0.026290120649546365	0.0	0.0
0.043816868432600686	0.100263566	0.31664422
0.06134361724069026	0.32028574	0.56593794
0.07887036748382949	0.25928354	0.5091989
0.0963971195720331	0.21437171	0.46300292
0.11392387391531617	0.110188395	0.33194637
0.1314506309236943	0.10278404	0.3205995
0.1489773910071836	0.18797055	0.4335557
0.16650415457580078	0.25837466	0.50830567
0.18403092203956356	0.2900666	0.53857833
0.20155769380849	0.2514129	0.5014109
0.2190844702925996	0.17052208	0.41294318
0.2366112519019124	0.12825716	0.35813007
0.2541380390464497	0.1290904	0.35929152
0.27166483213623416	0.114526175	0.33841717
0.28919163158128947	0.16139188	0.40173608
0.3067184377916406	0.19551396	0.4421696
0.324245251177314	0.19431263	0.44080907
0.34177207214833777	0.2765627	0.52589226
0.3592989011147415	0.307149	0.55421025
0.37682573848655654	0.29553497	0.54363126
0.39435258467381573	0.20686902	0.45482856
0.41187944008655414	0.13331589	0.3651245
0.42940630513480854	0.06327076	0.25153682
0.446933180228618	0.08162286	0.28569716
0.4644600657780234	0.09400433	0.30660126
0.48198696219306775	0.12896281	0.35911393
0.49951386988379676	0.122060396	0.34937143
0.5170407892602581	0.124643505	0.35304886
0.5345677207325025	0.13947135	0.37345862
0.5520946647105822	0.16510446	0.4063305
0.5696216216045534	0.1896985	0.43554392
0.5871485918244737	0.16107443	0.40134078
0.6046755757804043	0.17323637	0.41621673
0.6222025738824094	0.15335138	0.39160106
0.6397295865405557	0.16028275	0.40035328
0.6572566141649129	0.15001404	0.38731647
0.6747836571655547	0.16023722	0.40029642
0.6923107159525568	0.17594671	0.41946003
0.7098377909359992	0.1919198	0.43808654
0.7273648825259653	0.1245456	0.3529102
0.7448919911325411	0.097557	0.31234115
0.762419117165817	0.11483659	0.33887547
0.7799462610358868	0.17060862	0.41304797
0.7974734231528482	0.24213879	0.492076
0.8150006039268024	0.2725907	0.5221022
0.8325278037678551	0.27175996	0.52130604
0.8500550230861152	0.2019811	0.44942307
0.8675822622916969	0.15901615	0.39876828
0.8851095217947171	0.16013436	0.4001679
0.9026368020052984	0.22916603	0.4787129
0.9201641033335665	0.25419185	0.5041744
0.9376914261896523	0.26579946	0.5155574
0.9552187709836915	0.22176507	0.4709194
0.9727461381258234	0.21149173	0.45988232
0.990273528026193	0.22190961	0.47107282
1.0078009410949496	0.24421582	0.49418196
1.0253283777422473	0.26403597	0.5138443
1.0428558383782454	0.26381436	0.5136286
1.0603833234131086	0.27808756	0.52734005
1.0779108332570058	0.3398938	0.5830041
1.0954383683201119	0.3641811	0.6034742
1.112965929012607	0.41766864	0.6462729
1.1304935157446763	0.5728167	0.75684655
1.1480211289265108	0.5869709	0.7661403
1.1655487689683062	1.4372429	1.1988506
1.1830764362802655	1.6877428	1.2991315
1.200604131272596	2.0729043	1.4397584
1.2181318543555117	2.385626	1.5445472
1.235659605939232	2.4185777	1.5551777
1.253187386433982	3.9942706	1.9985671
1.270715196249994	6.371508	2.5241847
1.2882430357975057	12.007861	3.4652362
1.3057709054867608	16.627695	4.0777073
1.3232988057280106	22.419151	4.7348866
1.3408267369315112	26.929342	5.1893487
1.358354699507526	30.692629	5.540093
1.3758826938663256	34.907795	5.908282
1.3934107204181858	37.256737	6.10383
1.410938779573391	37.619316	6.1334586
1.4284668717422309	38.012264	6.1654086
1.4459949973350033	37.087605	6.089959
1.4635231567620117	37.120277	6.0926414
1.4810513504335687	36.564877	6.04689
1.4985795787599925	36.291565	6.024248
1.5161078421516088	35.79223	5.982661
1.5336361410187505	34.797386	5.898931
1.5511644757717598	34.80605	5.8996654
1.5686928468209842	35.54399	5.9618783
1.58622125457678	36.523773	6.04349
1.6037496994495108	38.00164	6.164547
1.621278181849548	38.079628	6.1708694
1.6388067021872719	38.513947	6.2059608
1.6563352608730693	37.721676	6.1417975
1.673863858317336	36.71094	6.0589557
1.6913924949304753	35.959713	5.9966416
1.7089211711228998	35.134285	5.927418
1.7264498873050296	34.419567	5.8668194
1.7439786438872935	33.575123	5.7944045
1.7615074412801288	32.142353	5.6694226
1.779036279893981	31.405813	5.604089
1.796565160139305	30.349644	5.509051
1.814094082426564	29.870647	5.4654045
1.8316230471662298	29.061413	5.390864
1.849152054768784	28.163095	5.3068914
1.8666811056447168	27.584806	5.252124
1.8842102002045273	26.840176	5.1807504
1.901739338858724	26.186708	5.1172953
1.9192685220178245	25.716478	5.0711417
1.9367977500923557	24.973795	4.997379
1.9543270234928547	24.693403	4.969246
1.971856342629867	24.117933	4.911001
1.9893857079139496	23.72943	4.8712864
2.006915119755667	23.460325	4.843586
2.0244445785655945	22.864122	4.7816443
2.0419740847543175	22.14237	4.705568
2.0595036387324317	21.435543	4.6298532
2.0770332409105414	20.982426	4.580658
2.094562891699263	20.728573	4.552864
2.1120925915092217	20.410942	4.517847
2.129622340751053	19.90518	4.461522
2.1471521398354043	187.86353	13.706331
2.1646819891729323	443.8728	21.068289
2.182211889174303	440.01636	20.976566
2.1997418402501974	452.51764	21.272463
2.2172718428113023	432.64777	20.800186
2.234801897268317	320.82166	17.911495
2.2523320040319548	17.317842	4.1614714
2.269862163512935	17.011374	4.1244845
2.287392376121992	16.534548	4.0662694
2.304922642269869	16.190891	4.023791
2.322452962367322	15.895208	3.9868796
2.3399833368251164	15.629652	3.9534354
2.357513766054032	15.330134	3.9153717
2.3750442504648586	15.146181	3.8918095
2.3925747904683963	14.90586	3.8608108
2.410105386475459	14.762247	3.842167
2.4276360388968707	14.382744	3.7924588
2.445166748143469	14.193323	3.7674026
2.4626975146261025	13.811606	3.716397
2.4802283387556323	13.50205	3.6745136
2.4977592209429305	13.307978	3.64801
2.5152901615988825	13.224837	3.636597
2.5328211611343865	13.128038	3.6232636
2.5503522199603523	12.967864	3.601092
2.5678833384877024	12.743726	3.5698354
2.5854145171273712	12.362719	3.5160658
2.6029457562903064	12.1229925	3.481809
2.620477056387469	11.87224	3.4456117
2.6380084178298326	11.732413	3.425261
2.655539841028383	11.578917	3.4027808
2.673071326394119	11.428833	3.3806558
2.6906028743380523	11.125155	3.3354392
2.708134485271211	10.890454	3.3000689
2.7256661596046325	10.791309	3.2850127
2.743197897749369	10.579137	3.2525585
2.760729700116486	10.473197	3.2362318
2.778261567117063	10.318811	3.2122908
2.795793499162193	10.213845	3.1959107
2.8133254966629817	9.993616	3.1612682
2.830857560030551	9.814826	3.1328623
2.8483896896760337	9.572381	3.0939264
2.865921886010578	9.460476	3.0757887
2.883454149445347	9.501749	3.0824907
2.9009864803915177	9.461532	3.0759604
2.91851887926028	9.443117	3.0729656
2.9360513464628384	9.237794	3.0393739
2.953583882410413	9.1642685	3.0272543
2.9711164875142373	9.032721	3.0054486
2.9886491621855606	8.836405	2.972609
3.0061819068356455	8.651346	2.941317
3.023714721875769	8.598852	2.93238
3.041247607717225	8.544067	2.9230237
3.0587805647713213	8.488351	2.9134774
3.0763135934493806	8.358524	2.8911114
3.0938466941627407	8.177055	2.859555
3.1113798673227544	7.994783	2.8275046
3.1289131133407904	7.8605614	2.8036692
3.1464464326282315	7.7051744	2.7758195
3.1639798255964786	7.671837	2.769808
3.1815132926569443	7.5926476	2.755476
3.1990468342210603	7.61571	2.7596576
3.216580450700272	7.5629606	2.7500837
3.2341141425060416	7.4297714	2.7257607
3.251647910049847	7.412385	2.7225695
3.2691817537431813	7.290109	2.7000203
3.286715673997555	7.26527	2.6954165
3.3042496712244938	7.145306	2.6730704
3.32178374583554	6.9874973	2.6433876
3.339317898242251	6.802789	2.6082158
3.3568521288562034	6.621792	2.5732841
3.3743864380889876	6.655632	2.5798512
3.3919208263522127	6.728531	2.5939412
3.4094552940575023	6.718953	2.5920944
3.4269898416164972	6.690373	2.5865755
3.444524469440858	6.5059915	2.5506845
3.4620591779422587	6.489776	2.547504
3.479593967532391	6.52335	2.554085
3.4971288386229658	6.446949	2.5390842
3.5146637916257086	6.52493	2.5543942
3.5321988269523628	6.4641476	2.5424688
3.5497339450146903	6.520866	2.5535986
3.5672691462244708	6.422264	2.5342185
3.5848044309934988	6.412319	2.5322556
3.60233979973359	6.369608	2.5238082
3.619875252856575	6.3330874	2.5165627
3.6374107907743034	6.247282	2.4994564
3.6549464138986427	6.3135	2.512668
3.6724821226414788	6.3660665	2.5231066
3.690017917414714	6.48611	2.5467844
3.7075537986302702	6.550337	2.5593626
3.7250897667000857	6.533723	2.556115
3.7426258220361235	6.5977163	2.568602
3.7601619650503553	6.744253	2.59697
3.777698196154779	7.2477365	2.692162
3.7952345157614067	8.332735	2.8866477
3.8127709242822716	9.13772	3.0228662
3.830307422129425	11.382298	3.3737662
3.847844009714936	30.236423	5.4987655
3.8653806874508954	97.699425	9.884302
3.882917455749409	96.96477	9.847069
3.900454315022606	96.763405	9.836839
3.917991265682631	41.439426	6.4373465
3.9355283081416506	11.140897	3.337798
3.9530654428118495	8.889867	2.981588
3.970602670105433	7.4709435	2.7333026
3.9881399904346244	6.543234	2.5579746
4.005677404211669	6.393917	2.5286195
4.023214911848827	6.363375	2.5225732
4.0407525137583855	6.41887	2.5335488
4.058290210352644	6.5018764	2.5498776
4.075828002043927	6.4559917	2.5408645
4.0933658892445814	6.3858447	2.5270228
4.110903872366966	6.330179	2.5159848
4.128441951823468	6.206856	2.4913561
4.145980128026488	6.1216817	2.4742033
4.163518401388452	6.0929403	2.4683883
4.181056772321807	6.090815	2.4679577
4.1985952412390155	6.1316047	2.4762077
4.216133808552567	6.175921	2.48514
4.233672474674966	6.2858396	2.5071576
4.251211240018741	6.454253	2.5405223
4.268750104996445	6.5948553	2.5680451
4.286289070020643	7.520805	2.7424085
4.303828135503928	9.252623	3.0418124
4.3213673018589125	29.728218	5.4523587
4.3389065694982305	90.906654	9.534498
4.356445938834537	166.13235	12.889234
4.3739854102805085	171.62198	13.100457
4.391524984248844	172.38219	13.129439
4.409064661152262	136.49838	11.683252
4.426604441403504	96.82028	9.839729
4.444144325415337	75.86607	8.710114
4.461684313600543	21.92665	4.68259
4.47922440637193	22.294252	4.721679
4.496764604142329	20.697235	4.5494213
4.5143049073245916	18.928194	4.3506546
4.531845316331589	16.801838	4.0990043
4.5493858315762195	13.849792	3.721531
4.566926453471405	11.437497	3.3819368
4.584467182430081	9.508034	3.08351
4.602008018865218	8.315602	2.8836787
4.619548963189798	7.6201215	2.7604568
4.637090015816834	7.092183	2.6631153
4.654631177159353	6.751301	2.5983264
4.672172447630417	6.416572	2.5330954
4.689713827643102	6.221172	2.4942276
4.7072553176105085	6.040712	2.457786
4.724796917945764	5.8729153	2.42341
4.742338629062015	5.7190704	2.3914578
4.759880451372434	5.72965	2.3936687
4.777422385290215	5.7432404	2.3965058
4.794964431228581	5.7381964	2.3954532
4.812506589600768	5.7606964	2.400145
4.830048860820047	5.731983	2.394156
4.847591245299709	5.7809544	2.4043615
4.8651337434530655	5.6641884	2.3799555
4.882676355693457	5.563479	2.358703
4.900219082434242	5.502904	2.3458269
4.917761924088813	5.4840984	2.3418152
4.935304881070575	5.5402865	2.3537812
4.952847953792969	5.499322	2.3450632
4.970391142669449	5.4581223	2.3362625
4.9879344481135055	5.437182	2.3317766
5.005477870538642	5.4228516	2.3287017
5.023021410358394	5.4570856	2.3360405
5.040565067986324	5.492193	2.3435428
5.05810884383601	5.484321	2.3418627
5.075652738321066	5.4615	2.3369853
5.09319675185512	5.4406967	2.33253
5.110740884851836	5.3752556	2.3184597
5.128285137724894	5.438251	2.3320057
5.145829510888007	5.4107704	2.3261063
5.163374004754908	5.429115	2.3300462
5.1809186197393595	5.418124	2.3276865
5.198463356255145	5.3471584	2.3123925
5.216008214716077	5.401355	2.3240814
5.233553195535998	5.4039655	2.3246431
5.251098299128764	5.40137	2.3240848
5.268643525908272	5.3164015	2.3057323
5.286188876288432	5.208123	2.2821312
5.3037343506831895	5.184793	2.277014
5.32127994950651	5.196328	2.2795455
5.3388256731723915	5.2774844	2.2972777
5.356371522094851	5.2374787	2.288554
5.373917496687938	5.2104793	2.2826474
5.391463597365729	5.241801	2.2894979
5.40900982454232	5.289167	2.299819
5.426556178631843	5.3706627	2.3174691
5.444102660048449	5.3626804	2.3157463
5.4616492692063225	5.3276253	2.3081648
5.479196006519669	5.324663	2.3075233
5.496742872402727	5.293929	2.300854
5.514289867269756	5.2291446	2.2867322
5.531836991535049	5.231939	2.2873433
5.549384245612924	5.215794	2.2838113
5.566931629917724	5.2196107	2.2846467
5.584479144863822	5.1584897	2.271231
5.6020267908656205	5.1901236	2.2781842
5.619574568337545	5.183374	2.2767024
5.637122477694054	5.202201	2.2808335
5.654670519349629	5.1698055	2.2737207
5.672218693718784	5.148538	2.269039
5.689767001216059	5.114761	2.2615838
5.707315442256021	5.106517	2.2597604
5.724864017253266	5.1419716	2.2675915
5.7424127266224225	5.183854	2.2768078
5.75996157077814	5.1824913	2.2765086
5.777510550135105	5.214667	2.2835646
5.795059665108022	5.237399	2.2885365
5.812608916111639	5.2087655	2.282272
5.830158303560715	5.257709	2.2929695
5.847707827870055	5.245121	2.290223
5.86525748945448	5.3737435	2.3181336
5.8828072887288485	5.585461	2.363358
5.900357226108044	5.6675873	2.3806696
5.917907302006979	5.754418	2.3988369
5.9354575168406	6.272311	2.5044582
5.9530078710238765	6.8495603	2.6171665
5.970558364971812	7.3790436	2.7164395
5.988108999099438	7.712818	2.7771962
6.005659773821818	8.282489	2.8779314
6.023210689554039	8.003819	2.8291023
6.040761746711227	8.464727	2.9094205
6.058312945708531	7.8379602	2.7996356
6.075864286961132	7.362678	2.7134256
6.093415770884244	6.640352	2.576888
6.1109673978931065	6.108891	2.471617
6.128519168402993	5.5821357	2.3626544
6.146071082829204	5.452113	2.334976
6.163623141587075	5.345472	2.3120277
6.181175345091969	5.3101645	2.3043795
6.198727693759281	5.239492	2.2889936
6.216280188004435	5.1817045	2.2763357
6.233832828242885	5.1406827	2.2673073
6.251385614890126	5.1633234	2.2722948
6.268938548361669	5.2045264	2.2813432
6.286491629073067	5.1546173	2.270378
6.304044857439898	5.0658913	2.2507534
6.321598233877777	4.9667444	2.2286193
6.339151758802344	4.9189296	2.217866
6.356705432629277	4.936412	2.2218037
6.37425925577428	4.9756894	2.2306254
6.391813228653095	4.9836993	2.23242
6.409367351681486	4.9843993	2.2325768
6.426921625275259	4.9605527	2.2272298
6.44447604985025	4.9138966	2.216731
6.46203062582232	4.872525	2.2073798
6.47958535360737	4.873691	2.2076437
6.497140233621328	5.025632	2.2417922
6.514695266280161	5.0681076	2.2512457
6.532250451999859	5.123519	2.263519
6.549805791196454	5.117828	2.2622616
6.567361284286002	5.068619	2.2513592
6.584916931684597	5.0894194	2.255974
6.602472733808367	5.0472255	2.246603
6.6200286910734665	5.0104046	2.2383933
6.637584803896092	4.9577813	2.2266076
6.655141072692462	4.912907	2.216508
6.672697497878842	4.9432635	2.223345
6.690254079871514	4.9817657	2.231987
6.707810819086808	5.0231805	2.2412453
6.725367715941078	5.037369	2.2444084
6.742924770850719	5.0310736	2.2430055
6.760481984232151	4.966636	2.228595
6.778039356501836	4.9909277	2.2340384
6.795596888076266	5.0311785	2.2430289
6.813154579371963	5.0760293	2.2530046
6.830712430805492	5.0315175	2.2431045
6.84827044279344	5.0587463	2.2491658
6.865828615752445	4.9941807	2.2347662
6.883386950099159	4.9917736	2.2342277
6.900945446250287	4.914195	2.2167983
6.918504104622553	4.982397	2.2321284
6.936062925632727	4.981444	2.2319148
6.953621909697607	4.9558396	2.2261715
6.971181057234028	4.921881	2.2185314
6.988740368658859	4.9946446	2.2348702
7.006299844389007	5.168233	2.2733748
7.023859484841407	5.3307376	2.308839
7.041419290433036	5.482871	2.3415532
7.058979261580902	5.5755186	2.3612535
7.0765393987020495	5.7281103	2.393347
7.094099702213559	6.0494742	2.4595678
7.111660172532549	6.3610063	2.5221035
7.129220810076164	6.7928386	2.6063075
7.146781615261595	7.458154	2.730962
7.16434258850606	7.757528	2.785234
7.181903730226821	8.183262	2.86064
7.1994650408411704	8.209453	2.8652143
7.217026520766437	8.341498	2.8881652
7.234588170419983	8.522794	2.9193823
7.252149990219215	8.544541	2.9231048
7.269711980581568	8.420987	2.9018936
7.2872741419245175	8.205458	2.864517
7.304836474665574	7.8258276	2.7974682
7.322398979222286	7.5343437	2.744876
7.339961656012233	7.3108354	2.7038558
7.357524505453039	6.956636	2.6375434
7.375087527962357	6.639339	2.5766914
7.392650723957886	6.302427	2.5104635
7.410214093857353	5.9151173	2.4321015
7.427777638078528	5.6651855	2.380165
7.445341357039213	5.51381	2.3481503
7.4629052511572525	5.399258	2.3236303
7.480469320850524	5.3444414	2.3118048
7.498033566536948	5.294313	2.3009374
7.5155979886344735	5.252467	2.2918262
7.5331625875610975	5.224302	2.2856731
7.550727363734844	5.154523	2.2703574
7.568292317573788	5.202086	2.2808082
7.585857449496025	5.185439	2.2771559
7.603422759919705	5.2073812	2.2819688
7.620988249263007	5.22943	2.2867947
7.638553917944147	5.2110724	2.2827773
7.656119766381391	5.2258334	2.2860081
7.673685794993023	5.2014494	2.2806687
7.691252004197388	5.208626	2.2822413
7.70881839441285	5.246954	2.290623
7.726384966057826	5.276767	2.2971215
7.743951719550762	5.2531185	2.2919683
7.761518655310149	5.2797737	2.2977757
7.779085773754511	5.290486	2.3001056
7.796653075302419	5.2835917	2.2986064
7.814220560372475	5.248677	2.2909992
7.831788229383323	5.2888484	2.2997496
7.8493560827536495	5.349148	2.3128226
7.866924120902174	5.4218717	2.3284912
7.884492344247663	5.419713	2.3280277
7.9020607532089135	5.3439074	2.3116894
7.919629348204771	5.3302355	2.3087304
7.937198129654115	5.403098	2.3244565
7.954767097975865	5.426787	2.3295465
7.972336253588986	5.4103312	2.326012
7.989905596912472	5.3334813	2.3094332
8.007475128365371	5.359921	2.3151503
8.025044848366756	5.4334707	2.3309805
8.042614757335754	5.5421314	2.3541732
8.060184855691523	5.5916457	2.364666
8.07775514385327	5.776589	2.4034536
8.095325622240228	5.8475037	2.4181612
8.112896291271687	5.903924	2.429799
8.130467151366968	5.8413057	2.4168794
8.148038202945436	5.8851414	2.425931
8.165609446426497	5.9054976	2.4301229
8.183180882229594	5.9870515	2.4468453
8.200752510774217	6.01714	2.452986
8.218324332479893	6.0606713	2.461843
8.235896347766193	6.0003915	2.4495697
8.253468557052724	5.987665	2.4469707
8.27104096075914	5.9930553	2.4480717
8.288613559305137	6.0374484	2.457122
8.306186353110448	6.0809846	2.4659653
8.32375934259485	6.1894503	2.4878607
8.341332528178162	6.2518125	2.5003624
8.358905910280246	6.320123	2.5139856
8.376479489321003	6.32741	2.5154345
8.394053265720377	6.3282137	2.515594
8.411627239898356	6.3203096	2.5140226
8.42920141227497	6.314494	2.5128658
8.44677578327029	6.339438	2.517824
8.464350353304427	6.3289895	2.5157483
8.48192512279754	6.2869477	2.5073786
8.499500092169827	6.177762	2.4855103
8.51707526184153	6.06071	2.461851
8.534650632232934	6.062883	2.4622922
8.552226203764365	6.1489162	2.4797008
8.569801976856192	6.223988	2.4947922
8.587377951928834	6.2200155	2.493996
8.60495412940274	6.315285	2.5130231
8.622530509698416	6.388082	2.5274656
8.6401070932364	6.522476	2.5539138
8.657683880437283	6.532254	2.5558276
8.675260871721695	6.6382327	2.5764768
8.692838067510303	6.819256	2.6113706
8.710415468223834	6.979258	2.6418285
8.727993074283043	7.143098	2.6726575
8.745570886108737	7.1056657	2.6656454
8.763148904121765	7.187715	2.6809914
8.78072712874302	7.215302	2.6861315
8.798305560393441	7.478256	2.7346401
8.815884199494006	7.663052	2.7682219
8.833463046465745	7.923168	2.8148122
8.851042101729728	8.050267	2.8372993
8.86862136570707	8.324377	2.8851995
8.886200838818924	8.438021	2.904827
8.903780521486505	8.451462	2.9071398
8.921360414131055	8.482251	2.9124305
8.938940517173874	8.573118	2.9279888
8.956520831036297	8.737132	2.955864
8.97410135613971	8.995359	2.9992266
8.99168209290554	9.261807	3.0433218
9.009263041755265	9.50737	3.0834024
9.026844203110405	9.730208	3.1193283
9.044425577392525	9.829248	3.1351633
9.062007165023239	9.995455	3.1615589
9.079588966424197	10.284607	3.2069623
9.097170982017108	10.325464	3.213326
9.11475321222372	11.255893	3.3549802
9.132335657465825	12.119789	3.4813488
9.149918318165264	12.31	3.5085611
9.167501194743924	13.0203	3.6083653
9.18508428762374	12.740934	3.5694447
9.202667597226693	12.693987	3.5628622
9.220251123974803	12.296354	3.5066159
9.237834868290143	11.954672	3.457553
9.255418830594836	11.790224	3.4336896
9.273003011311046	11.299613	3.3614898
9.290587410860985	11.142636	3.3380587
9.308172029666911	10.445266	3.2319136
9.32575686815113	10.112483	3.180013
9.343341926735997	8.815027	2.969011
9.360927205843916	8.612649	2.9347315
9.378512705897327	8.468728	2.9101079
9.396098427318728	8.174585	2.8591232
9.413684370530664	8.096347	2.845408
9.431270535955722	7.9507093	2.8197002
9.448856924016539	7.9024043	2.8111215
9.466443535135806	7.738664	2.7818456
9.484030369736251	7.7267923	2.7797108
9.501617428240658	7.7110143	2.7768712
9.519204711071852	7.729983	2.7802846
9.536792218652714	7.7658873	2.786734
9.55437995140617	7.79698	2.7923074
9.571967909755191	7.7886286	2.7908115
9.589556094122802	7.811155	2.7948444
9.60714450493207	7.9109	2.8126323
9.624733142606116	7.9525385	2.8200245
9.642322007568108	7.949135	2.819421
9.659911100241267	7.969105	2.8229604
9.677500421048851	8.036145	2.8348095
9.695089970414175	8.034957	2.8346
9.712679748760609	8.091594	2.8445728
9.730269756511557	8.097235	2.8455641
9.747859994090492	8.098103	2.8457165
9.765450461920915	8.119444	2.8494637
9.78304116042639	8.199854	2.8635387
9.800632090030527	8.228377	2.8685148
9.81822325115699	8.300418	2.8810446
9.835814644229481	8.183712	2.8607187
9.853406269671762	8.213353	2.8658948
9.870998127907646	8.192093	2.8621833
9.888590219360985	8.246981	2.8717556
9.906182544455698	8.25859	2.8737762
9.923775103615734	8.327891	2.8858087
9.941367897265108	8.364742	2.8921864
9.958960925827878	8.440505	2.9052548
9.97655418972816	8.367445	2.8926537
9.994147689390106	8.292851	2.8797312
10.011741425237934	8.201847	2.8638866
10.029335397695904	8.180908	2.8602288
10.04692960718833	8.228809	2.86859
10.06452405413958	8.288639	2.8789997
10.082118738974064	8.41924	2.9015927
10.099713662116246	8.473221	2.9108799
10.117308823990651	8.496612	2.9148948
10.134904225021844	8.428313	2.9031558
10.152499865634445	8.3712225	2.8933065
10.170095746253125	8.307387	2.882254
10.18769186730261	8.244949	2.871402
10.205288229207675	8.165306	2.8575
10.222884832393145	8.036994	2.8349593
10.2404816772839	7.926861	2.815468
10.258078764304868	7.883361	2.8077323
10.275676093881035	7.9983554	2.8281364
10.293273666437438	8.099393	2.8459432
10.310871482399158	8.21873	2.8668327
10.32846954219134	8.18215	2.8604457
10.346067846239173	8.194299	2.8625686
10.363666394967908	8.161475	2.8568296
10.38126518880283	8.116412	2.8489318
10.398864228169298	8.0795	2.842446
10.416463513492713	8.184524	2.8608606
10.434063045198531	8.198522	2.863306
10.451662823712262	8.244084	2.8712513
10.469262849459467	8.194492	2.8626025
10.486863122865758	8.131911	2.8516507
10.504463644356806	8.087571	2.8438656
10.522064414358338	7.9650974	2.8222504
10.539665433296118	7.872993	2.8058853
10.557266701595987	7.848253	2.8014734
10.574868219683818	7.8673105	2.8048728
10.592469987985552	7.875474	2.8063276
10.610072006927185	7.763283	2.7862668
10.627674276934751	7.5570207	2.7490036
10.64527679843435	7.381552	2.7169013
10.662879571852143	7.280061	2.6981587
10.680482597614331	7.2311225	2.6890748
10.698085876147173	7.185384	2.6805565
10.715689407876988	7.068727	2.6587079
10.733293193230146	6.953044	2.6368625
10.750897232633072	6.8285403	2.6131475
10.76850152651225	6.6954484	2.5875564
10.786106075294207	6.6365695	2.576154
10.803710879405534	6.5455585	2.558429
10.821315939272877	6.501267	2.5497582
10.83892125532294	6.406584	2.531123
10.856526827982472	6.3125567	2.5124803
10.874132657678285	6.280523	2.506097
10.891738744837243	6.2231636	2.494627
10.909345089886271	6.2197113	2.4939349
10.926951693252343	6.151212	2.4801638
10.944558555362494	6.1223345	2.4743352
10.96216567664381	6.094225	2.4686484
10.979773057523436	6.0024457	2.4499888
10.997380698428573	5.9261947	2.4343777
11.014988599786477	5.7748795	2.4030979
11.032596762024461	5.699121	2.387283
11.050205185569892	5.5599675	2.3579583
11.067813870850198	5.520916	2.349663
11.085422818292859	5.501303	2.3454857
11.10303202832541	5.5017548	2.345582
11.120641501375454	5.4738216	2.3396199
11.138251237870636	5.402077	2.3242369
11.155861238238671	5.3172007	2.3059056
11.173471502907317	5.22953	2.2868166
11.191082032304402	5.19993	2.2803354
11.208692826857805	5.1319675	2.2653847
11.226303886995465	5.073863	2.2525237
11.243915213145371	5.040269	2.2450542
11.261526805735578	4.9541483	2.2257917
11.279138665194196	4.96431	2.2280731
11.296750791949393	4.888563	2.2110095
11.314363186429393	4.877801	2.2085743
11.331975849062479	4.8127694	2.1938026
11.34958878027699	4.72007	2.1725721
11.36720198050133	4.6651564	2.1598973
11.384815450163948	4.5710797	2.1380084
11.402429189693366	4.501008	2.121558
11.420043199518153	4.5112724	2.1239755
11.437657480066942	63.524307	7.970214
11.455272031768422	85.29182	9.235357
11.472886855051353	107.6505	10.375476
11.490501950344528	99.25965	9.9629135
11.508117318076819	84.582886	9.196896
11.52573295867715	45.950127	6.778652
11.543348872574514	4.2001038	2.0494153
11.560965060197946	4.140577	2.0348408
11.57858152197655	4.0874057	2.0217333
11.59619825833949	4.0480385	2.0119739
11.613815269715985	4.044168	2.0110116
11.631432556535323	38.51588	6.206116
11.649050119226837	83.02411	9.111756
11.666667958219929	93.419106	9.665356
11.68428607394406	107.70723	10.378209
11.701904466828756	82.564644	9.086509
11.719523137303586	65.40429	8.087292
11.737142085798196	4.6169844	2.148717
11.754761312742286	3.748229	1.9360343
11.772380818565619	3.711064	1.9264122
11.790000603698015	3.6677024	1.9151247
11.80762066856935	3.592278	1.8953305
11.825241013609572	3.525542	1.8776426
11.842861639248683	3.5031624	1.8716737
11.860482545916748	3.5010087	1.8710983
11.878103734043883	3.5456853	1.8829991
11.895725204060282	3.5061734	1.8724779
11.91334695639619	3.453358	1.8583213
11.930968991481919	3.393255	1.842079
11.948591309747824	3.396737	1.8430239
11.966213911624347	3.384898	1.8398092
11.98383679754198	3.3161538	1.821031
12.001459967931268	3.2708604	1.808552
12.019083423222835	3.2736785	1.8093309
12.036707163847352	3.3216312	1.8225343
12.05433119023556	3.3456626	1.8291153
12.071955502818259	3.3207493	1.8222923
12.089580102026313	3.2505388	1.8029251
12.107204988290643	3.2360668	1.7989072
12.12483016204224	3.2477756	1.8021586
12.142455623712152	3.2571692	1.804763
12.16008137373149	3.2006938	1.7890483
12.177707412531431	3.1315103	1.7696074
12.19533374054321	3.0945864	1.7591436
12.212960358198126	3.0509398	1.746694
12.230587265927545	3.0447767	1.7449288
12.248214464162889	3.0453422	1.7450908
12.265841953335649	3.0453866	1.7451036
12.283469733877375	3.0722456	1.7527822
12.301097806219685	3.059342	1.7490975
12.31872617079425	3.0291047	1.7404324
12.336354828032825	2.988266	1.7286602
12.353983778367205	2.9724154	1.7240695
12.371613022229262	2.9430146	1.7155217
12.389242560050928	2.9386146	1.7142388
12.406872392264201	2.894378	1.7012872
12.424502519301143	2.853505	1.689232
12.442132941593874	2.8362749	1.6841244
12.459763659574586	2.8426075	1.6860034
12.477394673675532	2.8680806	1.6935408
12.49502598432903	2.876274	1.6959581
12.51265759196746	2.879726	1.6969755
12.530289497023267	2.8449278	1.6866914
12.547921699928967	2.8396661	1.6851308
12.565554201117134	2.7881324	1.6697701
12.583187001020404	2.7711687	1.6646827
12.600820100071486	2.824106	1.6805077
12.618453498703152	2.8566914	1.6901749
12.636087197348235	2.8506901	1.6883987
12.65372119643964	2.8154573	1.6779325
12.671355496410326	2.789373	1.6701416
12.68899009769333	2.8035266	1.6743735
12.706625000721749	2.8293166	1.6820573
12.724260205928752	2.9312832	1.7120991
12.741895713747551	2.9718072	1.723893
12.759531524611454	2.995792	1.7308356
12.777167638953818	2.9641736	1.7216775
12.794804057208072	2.9867551	1.7282231
12.812440779807702	3.0139377	1.7360696
12.830077807186271	3.1617386	1.7781278
12.847715139777405	3.1976118	1.7881868
12.865352778014795	3.4450357	1.8560808
12.882990722332197	3.557531	1.8861419
12.90062897316344	3.6394937	1.9077457
12.918267530942412	3.669152	1.915503
12.935906396103071	3.60241	1.8980016
12.953545569079449	3.781637	1.9446431
12.971185050305628	3.6267793	1.9044105
12.988824840215775	3.606269	1.8990179
13.006464939244115	3.566558	1.8885332
13.024105347824943	3.43726	1.8539848
13.041746066392617	3.529911	1.8788058
13.05938709538157	3.3330636	1.825668
13.077028435226296	3.3056414	1.8181423
13.094670086361363	3.2004569	1.788982
13.112312049221401	3.1661212	1.7793598
13.129954324241112	3.0990472	1.7604111
13.147596911855258	2.9247513	1.7101904
13.165239812498685	2.874767	1.6955138
13.182883026606293	2.8132918	1.677287
13.200526554613058	2.7435732	1.6563735
13.218170396954017	2.682083	1.6377066
13.235814554064284	2.6816807	1.6375839
13.253459026379034	2.6754956	1.6356943
13.271103814333523	2.6473699	1.627074
13.288748918363058	2.6396751	1.6247077
13.306394338903031	2.6421063	1.6254557
13.32404007638889	2.6436694	1.6259365
13.341686131256164	2.7027946	1.6440178
13.359332503940449	2.6856906	1.6388077
13.376979194877402	2.6945052	1.6414949
13.394626204502751	2.6859274	1.6388799
13.412273533252307	2.704166	1.6444348
13.429921181561937	2.7125254	1.6469746
13.447569149867581	2.7355669	1.6539549
13.465217438605247	2.744064	1.6565217
13.482866048211022	2.7370737	1.6544104
13.500514979121052	2.7264576	1.6511989
13.518164231771568	2.6785645	1.6366321
13.535813806598844	2.6807058	1.6372861
13.553463704039254	2.641604	1.6253012
13.571113924529229	2.653339	1.6289073
13.588764468505275	2.6980476	1.6425735
13.606415336403956	2.7619228	1.6619034
13.624066528661917	2.800969	1.6736095
13.641718045715882	2.8365366	1.6842021
13.659369888002635	2.8894951	1.6998515
13.67702205595903	2.9485803	1.717143
13.694674550021993	3.0213137	1.7381927
13.712327370628532	3.0337489	1.741766
13.729980518215713	3.0926247	1.7585859
13.747633993220681	3.2208514	1.7946731
13.765287796080647	3.2964091	1.8156016
13.7829419272329	3.3672326	1.8350021
13.800596387114801	3.3412533	1.8279096
13.818251176163775	3.3107724	1.8195528
13.835906294817324	3.3349392	1.8261817
13.853561743513023	3.4071426	1.8458447
13.871217522688525	3.4906983	1.8683411
13.888873632781538	3.5035896	1.8717878
13.906530074229858	3.5074623	1.872822
13.92418684747135	3.5128489	1.8742596
13.941843952943948	3.5226367	1.8768688
13.959501391085665	3.49398	1.8692191
13.977159162334578	3.413492	1.8475637
13.994817267128846	3.3813288	1.8388389
14.012475705906693	3.2923355	1.8144794
14.030134479106424	3.2124696	1.7923363
14.047793587166414	3.1296976	1.7690952
14.065453030525108	3.101393	1.7610772
14.083112809621026	3.0784822	1.7545604
14.100772924892766	2.9824643	1.7269813
14.118433376778997	2.9234004	1.7097955
14.136094165718458	2.8366387	1.6842324
14.153755292149969	2.797811	1.6726658
14.171416756512416	2.7436829	1.6564066
14.189078559244768	2.698279	1.6426439
14.20674070078606	2.6339831	1.6229551
14.224403181575408	2.5313468	1.5910207
14.242066002051999	2.4517045	1.565792
14.259729162655093	2.4485962	1.5647991
14.277392663824022	2.4386091	1.5616046
14.295056505998208	2.4261258	1.5576025
14.312720689617128	2.4228308	1.5565445
14.330385215120348	2.416255	1.5544307
14.348050082947497	2.409017	1.5521009
14.3657152935383	2.4129717	1.5533743
14.383380847332528	2.4242806	1.5570102
14.401046744770051	2.426049	1.557578
14.418712986290798	2.409333	1.5522026
14.436379572334793	2.4151206	1.5540658
14.454046503342123	2.4271557	1.5579332
14.471713779752946	2.4098938	1.5523833
14.489381402007504	2.3631227	1.5372452
14.507049370546113	2.363348	1.5373185
14.524717685809168	2.379756	1.5426458
14.542386348237134	2.3818011	1.5433085
14.560055358270553	2.3841434	1.5440671
14.577724716350051	2.4070592	1.55147
14.595394422916325	2.448852	1.5648808
14.61306447841015	2.4997277	1.5810528
14.63073488327237	2.4815786	1.5753027
14.648405637943917	2.495292	1.5796493
14.6660767428658	2.4995823	1.5810068
14.683748198479094	2.5249157	1.5889983
14.701420005224954	2.56743	1.6023202
14.719092163544628	2.5753684	1.6047955
14.73676467387942	2.606217	1.6143782
14.754437536670727	2.6391308	1.6245402
14.772110752360014	2.6562893	1.6298127
14.78978432138882	2.6557574	1.6296495
14.807458244198777	2.6802053	1.6371332
14.82513252123159	2.7145526	1.6475899
14.842807152929028	2.75459	1.6596957
14.860482139732962	2.7290673	1.6519889
14.87815748208531	2.676896	1.6361222
14.8958331804281	2.6893892	1.6399357
14.91350923520342	2.6800783	1.6370945
14.931185646853438	2.705019	1.6446942
14.948862415820408	2.690793	1.6403637
14.966539542546656	2.7080183	1.6456058
14.98421702747459	2.612562	1.6163422
15.001894871046696	2.6023262	1.6131727
15.019573073705542	2.5882802	1.6088133
15.037251635893766	2.6386409	1.6243894
15.054930558054092	2.6823945	1.6378018
15.072609840629323	2.7409337	1.6555766
15.090289484062351	2.8875344	1.6992747
15.107969488796124	3.1813097	1.7836226
15.125649855273691	3.586555	1.8938202
15.14333058393817	4.0587726	2.0146396
15.161011675232768	5.041893	2.245416
15.17869312960076	6.3780284	2.525476
15.196374947485506	8.168294	2.8580227
15.214057129330447	11.220161	3.3496509
15.231739675579114	15.894902	3.9868412
15.249422586675102	20.844927	4.565624
15.267105863062092	23.893301	4.8880773
15.284789505183847	24.210653	4.920432
15.302473513484218	22.08431	4.6993947
15.320157888407127	18.569683	4.3092556
15.337842630396578	14.410009	3.7960517
15.355527739896656	11.22432	3.3502717
15.37321321735153	8.720609	2.9530678
15.39089906320545	6.3863115	2.5271153
15.408585277902748	4.81527	2.1943724
15.42627186188783	3.7373552	1.9332241
15.443958815605198	3.2179112	1.7938538
15.461646139499424	2.92865	1.7113298
15.479333834015168	2.8145838	1.6776721
15.497021899597165	2.7673893	1.6635472
15.514710336690234	2.7412899	1.6556841
15.53239914573928	2.660085	1.6309767
15.550088327189297	2.5845237	1.6076454
15.567777881485336	2.519693	1.5873541
15.58546780907256	2.4898937	1.5779397
15.6031581103962	2.44589	1.5639341
15.620848785901568	2.4348423	1.5603981
15.638539836034063	2.4536262	1.5664055
15.656231261239173	2.455833	1.5671097
15.673923061962451	2.4123712	1.5531809
15.691615238649552	2.395922	1.5478766
15.709307791746202	2.413729	1.5536181
15.727000721698221	2.4293509	1.5586375
15.744694028951498	2.4219644	1.5562662
15.76238771395202	2.4205775	1.5558206
15.780081777145844	2.4298146	1.5587863
15.797776218979125	2.4273722	1.5580026
15.815471039898094	2.4308033	1.5591034
15.833166240349064	2.401668	1.5497316
15.850861820778437	2.381377	1.543171
15.868557781632699	2.367497	1.5386673
15.886254123358412	2.3650064	1.5378578
15.903950846402232	2.36696	1.5384928
15.921647951210897	2.3862495	1.544749
15.939345438231225	2.4078581	1.5517274
15.957043307910133	2.427616	1.5580808
15.974741560694602	2.3944204	1.5473915
15.992440197031714	2.3756607	1.5413178
16.01013921736862	2.3622425	1.5369588
16.02783862215259	2.3732533	1.5405368
16.045538411830933	2.386283	1.5447599
16.06323858685107	2.3979208	1.5485221
16.080939147660512	2.4246933	1.5571427
16.09864009470684	2.4337301	1.5600417
16.11634142843774	2.4194949	1.5554726
16.134043149300954	2.3895457	1.5458156
16.15174525774433	2.351023	1.5333046
16.169447754215817	2.3612332	1.5366305
16.18715063916342	2.392191	1.5466709
16.204853913035244	2.4491498	1.564976
16.222557576279478	2.4685888	1.5711744
16.240261629344403	22.431412	4.7361813
16.257966072678386	42.95626	6.5541024
16.275670906729868	38.066563	6.169811
16.293376131947387	2.5332038	1.5916041
16.31108174877957	2.585073	1.6078162
16.328787757675133	2.602646	1.6132718
16.34649415908287	2.596878	1.6114832
16.364200953451657	2.6152437	1.6171715
16.38190814123048	2.6169395	1.6176958
16.39961572286839	2.631149	1.6220818
16.41732369881455	2.6787918	1.6367015
16.43503206951817	2.7455378	1.6569664
16.45274083542859	2.8299143	1.6822349
16.47044999699522	2.8546968	1.6895847
16.488159554667558	2.8390744	1.6849554
16.505869508895184	2.8081183	1.6757442
16.523579860127786	2.848697	1.6878083
16.541290608815117	2.9302292	1.7117913
16.559001755407035	3.012762	1.735731
16.57671330035348	3.041286	1.7439283
16.59442524410448	3.1267805	1.7682705
16.61213758711015	3.2738864	1.8093884
16.629850329820705	3.349398	1.8301361
16.647563472686436	3.42826	1.8515562
16.665277016157724	3.4165204	1.8483832
16.682990960685053	3.453977	1.8584878
16.70070530671898	3.4842222	1.8666071
16.718420054710155	3.5011408	1.8711336
16.736135205109335	3.556647	1.8859075
16.753850758367335	3.5507753	1.8843501
16.771566714935087	3.5767162	1.8912208
16.789283075263597	3.6424603	1.9085231
16.80699983980398	3.7412653	1.9342351
16.82471700900741	3.8655362	1.9660966
16.84243458332518	3.938091	1.9844624
16.860152563208665	4.013394	2.0033457
16.87787094910932	4.1095953	2.0272136
16.89558974147871	4.1858845	2.0459435
16.913308940768466	4.241338	2.0594509
16.931028547430333	4.325477	2.0797782
16.94874856191613	4.361249	2.0883603
16.966468984677785	4.396608	2.096809
16.98418981616729	4.3963337	2.0967436
17.00191105683676	4.4310737	2.1050115
17.019632707138374	4.5017447	2.1217315
17.03735476752442	4.5348287	2.1295137
17.05507723844728	4.5682516	2.1373467
17.072800120359403	4.572179	2.1382654
17.090523413713353	4.591902	2.1428723
17.108247118961785	4.6458445	2.1554222
17.125971236557437	4.691317	2.1659448
17.143695766953133	4.743396	2.177934
17.161420710601806	4.714282	2.1712399
17.179146067956477	4.654412	2.1574085
17.19687183947025	4.6445775	2.1551282
17.21459802559634	4.6712317	2.1613033
17.232324626788028	4.728639	2.1745434
17.25005164349871	4.694004	2.166565
17.267779076181863	4.6395097	2.1539521
17.285506925291074	4.5628433	2.1360812
17.30323519127999	4.5971437	2.1440952
17.320963874602384	4.6050625	2.145941
17.33869297571211	4.6110544	2.1473365
17.356422495063114	4.545892	2.1321096
17.37415243310944	4.5468235	2.1323283
17.391882790305218	4.5459976	2.1321344
17.40961356710468	4.4958987	2.1203535
17.42734476396215	4.493516	2.1197915
17.445076381332044	4.5566044	2.1346204
17.462808419668868	4.638204	2.153649
17.48054087942723	4.77862	2.1860054
17.498273761061835	5.058313	2.2490695
17.51600706502747	5.5684085	2.3597476
17.533740791779024	6.2708154	2.5041597
17.551474941771485	7.6658044	2.768719
17.56920951545993	8.721256	2.9531772
17.586944513299528	10.793651	3.2853692
17.60467993574556	12.436406	3.5265288
17.622415783253373	14.117792	3.757365
17.64015205627843	15.516098	3.9390478
17.657888755276293	16.554003	4.068661
17.675625880702604	17.008022	4.1240783
17.69336343301311	16.808296	4.099792
17.71110141266366	16.000137	4.000017
17.728839820110178	15.053731	3.8799138
17.746578655808705	14.245727	3.7743511
17.764317920215372	12.892544	3.5906188
17.7820576137864	11.3890085	3.3747606
17.79979773697811	9.332462	3.0549078
17.81753829024692	7.453753	2.7301562
17.835279274049356	5.829849	2.4145079
17.85302068884201	4.8330956	2.1984303
17.870762535081607	4.1777573	2.0439563
17.888504813224934	3.8682241	1.9667802
17.90624752372891	3.7247856	1.9299704
17.923990667050536	3.6634526	1.9140148
17.941734243646895	3.5733178	1.8903221
17.959478253975185	3.5645714	1.8880073
17.9772226984927	3.5704486	1.8895631
17.994967577656833	3.5138843	1.8745358
18.01271289192506	3.4400105	1.8547266
18.030458641754965	3.4039984	1.8449928
18.04820482760425	3.4025216	1.8445926
18.06595144993067	3.3491836	1.8300775
18.083698509192125	3.2936454	1.8148403
18.101446005846576	3.232462	1.7979048
18.119193940352105	3.2496915	1.80269
18.136942313166887	3.2205055	1.7945766
18.1546911247492	3.1682553	1.7799593
18.1724403755574	3.1200528	1.7663671
18.19019006604997	3.0791805	1.7547594
18.207940196685467	3.0710104	1.7524298
18.225690767922575	3.080384	1.7551023
18.243441780220046	3.0628114	1.7500889
18.261193234036764	3.0331275	1.7415876
18.278945129831676	3.0564408	1.748268
18.29669746806386	3.0872111	1.7570461
18.314450249192483	3.0914295	1.7582462
18.3322034736768	3.099533	1.7605491
18.349957141976184	3.074086	1.7533071
18.3677112545501	3.073615	1.7531729
18.385465811858108	3.0948932	1.7592309
18.403220814359884	3.1144898	1.7647917
18.420976262515172	3.1363957	1.7709872
18.43873215678387	3.1306956	1.7693772
18.456488497625923	3.1470203	1.7739843
18.474245285501407	3.2034237	1.7898111
18.492002520870486	3.2861834	1.8127834
18.50976020419343	3.4199212	1.8493029
18.527518335930615	3.7312272	1.9316385
18.545276916542516	4.22607	2.0557408
18.563035946489688	4.3002796	2.0737116
18.580795426232832	4.7600727	2.181759
18.598555356232698	4.6917315	2.1660404
18.616315736950185	5.0393763	2.2448554
18.63407656884626	4.688241	2.1652346
18.65183785238201	4.892169	2.211825
18.669599588018617	4.650391	2.1564765
18.68736177621737	4.65787	2.1582098
18.705124417439652	4.7141776	2.1712158
18.72288751214696	4.5638585	2.136319
18.740651060800886	4.703822	2.1688297
18.758415063863115	4.389466	2.0951052
18.77617952179546	4.559576	2.1353164
18.793944435059814	4.3180676	2.077996
18.811709804118184	4.3390317	2.0830343
18.829475629432675	4.294041	2.0722067
18.8472419114655	4.060112	2.014972
18.86500865067897	4.1306148	2.0323913
18.88277584753551	3.7657535	1.940555
18.90054350249763	3.8067994	1.9511021
18.918311616027957	3.5044234	1.8720105
18.936080188589226	3.3897502	1.8411274
18.953849220644265	3.077218	1.7542001
18.971618712656007	2.9000297	1.7029474
18.9893886650875	2.8790612	1.6967796
19.007159078401887	8.011971	2.8305426
19.024929953062408	32.877678	5.733906
19.042701289532435	32.82241	5.7290845
19.060473088275405	25.411007	5.040933
19.07824534975489	2.6938107	1.6412833
19.096018074434568	2.6674762	1.633241
19.113791262778197	2.6115525	1.6160299
19.13156491524966	2.5752661	1.6047636
19.149339032312945	2.539286	1.5935137
19.167113614432136	2.529062	1.5903025
19.184888662071433	2.5468323	1.5958798
19.202664175695123	2.5482094	1.5963112
19.220440155767623	2.5389373	1.5934043
19.238216602753447	2.4850492	1.5764039
19.2559935171172	2.5011919	1.5815157
19.27377089932361	2.5077283	1.5835809
19.291548749837514	2.529029	1.5902921
19.309327069123835	2.5165322	1.5863582
19.32710585764763	2.5250926	1.589054
19.344885115874032	2.513495	1.5854006
19.362664844268313	2.4882102	1.5774062
19.380445043295822	2.4709759	1.5719337
19.39822571342203	2.4631274	1.5694354
19.41600685511252	2.4921877	1.5786664
19.43378846883297	2.5033233	1.5821894
19.451570555049173	2.5390208	1.5934305
19.469353114227037	2.47239	1.5723835
19.48713614683254	2.4253016	1.557338
19.50491965333182	2.4027414	1.5500779
19.52270363419109	2.4287279	1.5584376
19.540488089876686	2.4524837	1.5660408
19.55827302085503	2.478404	1.5742948
19.576058427592674	2.486224	1.5767764
19.593844310556282	2.5390472	1.5934389
19.611630670212598	2.5514598	1.5973289
19.629417507028506	2.5152116	1.5859419
19.64720482147098	2.4518962	1.5658532
19.6649926140071	2.419869	1.5555928
19.682780885104084	2.4359417	1.5607504
19.70056963522921	2.462957	1.569381
19.718358864849908	2.494812	1.5794973
19.7361485744337	2.481994	1.5754346
19.753938764448215	2.4999864	1.5811346
19.771729435361202	2.4963315	1.5799783
19.789520587640506	2.5162587	1.586272
19.807312221754092	2.5241764	1.5887656
19.825104338170043	2.5291548	1.5903317
19.842896937356517	2.504776	1.5826484
19.860690019781824	2.4822154	1.5755048
19.87848358591436	2.4469607	1.5642765
19.896277636222635	2.4843626	1.5761861
19.914072171175278	2.5036747	1.5823004
19.931867191241015	2.536584	1.5926657
19.94966269688869	2.497788	1.5804392
19.967458688587264	2.4842243	1.5761422
19.985255166805807	2.4872906	1.5771147
20.00305213201348	2.552671	1.597708
20.020849584679578	2.5700252	1.6031299
20.038647525273507	2.5473292	1.5960355
20.05644595426477	2.507329	1.5834547
20.07424487212299	2.4727907	1.572511
20.092044279317903	2.4339347	1.5601072
20.109844176319353	2.4306443	1.5590523
20.127644563597304	2.4291875	1.558585
20.145445441621817	2.4285967	1.5583955
20.16324681086307	2.435565	1.5606297
20.181048671791373	2.4429781	1.563003
20.198851024877122	2.4198048	1.5555722
20.216653870590836	2.3934457	1.5470765
20.234457209403146	2.4028332	1.5501075
20.252261041784802	2.3843188	1.544124
20.270065368206662	2.3981974	1.5486114
20.287870189139685	2.3937716	1.5471818
20.305675505054968	2.3994725	1.549023
20.323481316423702	2.434972	1.5604397
20.341287623717207	2.4506674	1.5654608
20.359094427406884	2.436637	1.560973
20.376901727964288	2.3721068	1.5401646
20.39470952586107	2.3526642	1.5338397
20.41251782156899	2.356641	1.5351355
20.430326615559935	2.3783607	1.5421935
20.448135908305886	2.394517	1.5474226
20.465945700278965	2.3984158	1.548682
20.483755991951384	2.3562424	1.5350057
20.50156678379548	2.3001328	1.5166188
20.519378076283708	2.2998395	1.5165222
20.537189869888635	2.3024466	1.5173815
20.55500216508294	2.3524687	1.5337759
20.572814962339415	2.356738	1.5351671
20.59062826213098	2.34444	1.5311564
20.60844206493066	2.3161464	1.5218891
20.626256371211593	2.3109558	1.5201828
20.644071181447032	2.298976	1.5162374
20.66188649611036	2.3054035	1.5183555
20.67970231567506	2.3130307	1.5208651
20.697518640614742	2.3297849	1.5263633
20.715335471403122	2.3355303	1.5282441
20.73315280851404	2.3154917	1.5216739
20.750970652421447	2.2899754	1.5132664
20.768789003599412	2.299832	1.5165198
20.786607862522136	2.3313987	1.5268918
20.8044272296639	2.3347664	1.5279943
20.82224710549913	2.2961457	1.5153039
20.84006749050237	2.273896	1.5079443
20.857888385148268	3.8407617	1.9597862
20.8757097899116	45.942448	6.7780857
20.893531705267254	64.79752	8.049691
20.911354131690224	83.794266	9.153921
20.92917706965566	69.0835	8.311648
20.94700051963877	50.131214	7.08034
20.96482448211493	29.396606	5.4218636
20.982648957559622	4.1551056	2.0384076
21.00047394644843	2.2747908	1.5082409
21.01829944925707	2.26141	1.5037985
21.036125466461375	2.2286882	1.4928792
21.053951998537297	2.2397459	1.4965781
21.071779045960906	2.227864	1.4926031
21.089606609208378	2.2406478	1.4968793
21.10743468875603	2.2356353	1.4952041
21.12526328508028	2.271141	1.5070305
21.143092398657675	2.257982	1.5026584
21.16092202996488	2.2251477	1.4916929
21.17875217947867	2.187325	1.4789608
21.19658284767596	2.159543	1.4695383
21.21441403503377	2.1447976	1.4645127
21.232245742029225	2.157323	1.4687828
21.2500779691396	2.1873772	1.4789784
21.26791071684227	2.2004778	1.4834008
21.28574398561475	2.160255	1.4697806
21.30357777593465	2.1267898	1.4583517
21.321412088279704	2.083838	1.4435505
21.339246923127792	2.126133	1.4581265
21.357082280956888	2.1545017	1.4678221
21.3749181622451	2.1447287	1.4644892
21.392754567470647	2.1227534	1.4569672
21.41059149711187	2.123962	1.4573818
21.42842895164726	2.161988	1.47037
21.446266931555378	2.187099	1.4788843
21.464105437314945	2.2074513	1.4857494
21.481944469404798	2.2026749	1.4841411
21.49978402830388	2.1476865	1.4654987
21.51762411449127	2.1184492	1.4554893
21.53546472844617	2.1192348	1.4557592
21.553305870647876	2.119619	1.4558911
21.571147541575865	2.0900543	1.445702
21.58898974170967	2.104222	1.4505937
21.60683247152899	2.1436186	1.4641101
21.62467573151363	2.1294565	1.4592657
21.642519522143523	2.1213837	1.4564971
21.660363843898722	2.1022892	1.4499273
21.6782086972594	2.081535	1.4427526
21.696054082705864	2.0499222	1.431755
21.713900000718535	2.0526364	1.4327024
21.73174645177795	2.0492725	1.4315281
21.749593436364794	2.0596392	1.4351443
21.767440954959845	2.0406134	1.4285004
21.785289008044032	1.9866072	1.4094706
21.803137596098388	1.9598933	1.399962
21.820986719604086	1.9710596	1.4039443
21.838836379042412	2.0008066	1.4144987
21.85668657489478	2.0155644	1.4197057
21.87453730764273	2.0301242	1.4248242
21.892388577767914	2.0478508	1.4310313
21.91024038575213	2.0333822	1.4259671
21.928092732077285	2.0104392	1.4178996
21.945945617225426	1.9987776	1.4137813
21.963799041678694	2.008753	1.4173049
21.981653005919398	31.33229	5.5975256
21.999507510429943	78.10477	8.83769
22.01736255569286	73.03641	8.546134
22.035218142190818	4.142623	2.0353434
22.05307427040661	2.0051203	1.4160227
22.07093094082315	2.0480063	1.4310857
22.088788153923474	2.053439	1.4329826
22.106645910190746	1.9902488	1.4107618
22.12450421010827	1.946633	1.3952179
22.142363054159464	1.956651	1.3988034
22.16022244282787	2.0006626	1.4144478
22.178082376597164	2.008446	1.4171965
22.195942855951145	2.0389159	1.4279062
22.213803881373742	2.0543349	1.4332951
22.231665453349002	2.0095878	1.4175993
22.24952757236111	1.9834363	1.4083452
22.26739023889438	1.9489715	1.3960557
22.28525345343323	1.9523547	1.3972669
22.30311721646225	1.951374	1.3969159
22.320981528466113	1.9582491	1.3993745
22.33884638992964	1.9326437	1.3901955
22.356711801337788	1.9089735	1.381656
22.37457776317561	1.8794911	1.3709453
22.392444275928337	1.8959991	1.3769528
22.410311340081282	1.9278958	1.3884869
22.428178956119904	1.941395	1.3933395
22.446047124529805	1.91462	1.383698
22.46391584579669	1.8894005	1.3745546
22.481785120406414	1.9219714	1.3863518
22.49965494884496	1.9696307	1.4034353
22.51752533159841	1.9924691	1.4115485
22.53539626915302	1.9797893	1.4070499
22.553267761995137	1.9533192	1.397612
22.571139810611264	1.9315548	1.3898039
22.589012415488025	1.9226868	1.3866098
22.60688557711216	1.9317299	1.3898668
22.624759295970566	1.9549662	1.3982011
22.642633572550263	1.9605805	1.4002073
22.660508407338362	1.9378154	1.3920544
22.67838380082217	1.9183551	1.385047
22.696259753489077	1.9067383	1.380847
22.714136265826614	1.8950257	1.3765993
22.73201333832246	1.8938842	1.3761847
22.74989097146439	1.9168947	1.3845197
22.76776916574035	1.9378184	1.3920555
22.785647921638393	1.9631541	1.401126
22.803527239646712	1.9733917	1.4047745
22.82140712025363	1.9651164	1.4018261
22.839287563947593	1.9424232	1.3937085
22.85716857121719	1.9132001	1.3831848
22.875050142551135	1.9056036	1.3804361
22.892932278438277	1.9550077	1.3982159
22.910814979367604	1.9805865	1.4073331
22.928698245828222	1.9815801	1.4076861
22.946582078309387	1.9171369	1.3846071
22.96446647730047	1.8780938	1.3704356
22.98235144329098	1.8492438	1.359869
23.000236976770562	1.8463051	1.3587881
23.018123078229	1.892669	1.375743
23.03600974815619	1.9387885	1.3924038
23.053896987042194	1.9489565	1.3960503
23.071784795377173	1.9122268	1.3828329
23.08967317365145	1.9102193	1.3821068
23.10756212235546	1.9421699	1.3936175
23.125451641979787	1.9237405	1.3869897
23.143341733015134	1.9052659	1.3803138
23.161232395952357	1.9453354	1.3947529
23.179123631282426	1.989601	1.4105321
23.197015439496468	1.9728767	1.4045913
23.214907821085717	1.9328791	1.3902802
23.23280077654157	1.9487134	1.3959633
23.250694306355538	1.9487858	1.3959892
23.268588411019277	1.9434018	1.3940594
23.28648309102458	1.9466268	1.3952156
23.304378346863356	1.9388498	1.3924259
23.322274179027676	1.956038	1.3985842
23.340170588009723	1.9471714	1.3954109
23.358067574301852	1.9280387	1.3885384
23.37596513839651	1.8916223	1.3753626
23.39386328078629	1.871024	1.3678538
23.411762001963947	1.8884841	1.3742213
23.429661302422353	1.9226104	1.3865823
23.4475611826545	1.9140275	1.3834838
23.46546164315356	1.9320195	1.389971
23.48336268441279	1.9425039	1.3937374
23.501264306925638	1.9773303	1.4061757
23.51916651118564	1.9410273	1.3932076
23.537069297686497	1.923205	1.3867967
23.554972666922037	1.8925608	1.3757038
23.57287661938623	1.8972306	1.3773999
23.59078115557318	1.9364746	1.3915727
23.608686275977128	1.9369273	1.3917353
23.62659198109246	1.928193	1.3885939
23.6444982714137	1.9100317	1.382039
23.66240514743549	1.9494597	1.3962306
23.68031260965263	1.9283504	1.3886505
23.698220658560068	1.8749146	1.3692752
23.716129294652845	1.8043596	1.3432645
23.7340385184262	1.763007	1.3277828
23.75194833037546	1.8274491	1.3518318
23.769858730996123	1.9365289	1.3915923
23.78776972078382	1.9621384	1.4007635
23.80568130023431	1.9343005	1.3907913
23.823593469843495	1.9205904	1.3858536
23.841506230107424	1.9531678	1.3975579
23.859419581522275	1.9612123	1.400433
23.87733352458438	1.9072969	1.3810492
23.89524805979019	1.8952966	1.3766977
23.913163187636318	1.8792887	1.3708715
23.931078908619508	1.8963155	1.3770677
23.948995223236633	1.9151714	1.3838972
23.966912131984735	1.9606439	1.4002299
23.98482963536096	2.014921	1.4194791
24.002747733862616	2.073875	1.4400954
24.020666427987155	2.1015341	1.4496669
24.038585718232156	2.0809093	1.4425358
24.056505605095353	2.0265217	1.4235595
24.074426089074617	1.997369	1.4132831
24.092347170667946	1.9530538	1.397517
24.110268850373515	1.9971694	1.4132124
24.128191128689586	2.0277674	1.423997
24.146114006114626	2.058266	1.4346658
24.164037483147187	2.068449	1.4382104
24.181961560286005	2.0685227	1.438236
24.199886238029926	2.0405004	1.4284608
24.21781151687797	2.017623	1.4204305
24.235737397329274	2.025898	1.4233404
24.253663879883135	2.0517516	1.4323937
24.271590965038975	2.046732	1.4306403
24.289518653296376	2.0164204	1.4200072
24.30744694515505	2.0220842	1.422
24.32537584111486	2.0041807	1.4156909
24.34330534167581	2.0226054	1.4221833
24.361235447338046	2.0137904	1.4190809
24.379166158601876	2.0139296	1.4191298
24.39709747596772	1.984047	1.4085621
24.41502939993615	1.9696244	1.4034331
24.432961931007917	1.9466034	1.3952073
24.450895069683856	1.9266886	1.3880521
24.468828816465	1.9272686	1.388261
24.4867631718525	1.974718	1.4052466
24.504698136347656	2.011918	1.418421
24.52263371045192	2.027854	1.4240273
24.540569894666874	2.0134423	1.4189582
24.558506689494266	1.9775465	1.4062526
24.57644409543597	1.9561749	1.3986332
24.594382112994012	1.9545162	1.3980402
24.61232074267057	1.9577329	1.3991901
24.630259984967953	1.982935	1.4081672
24.64819984038863	2.0146792	1.4193939
24.66614030943522	2.0380182	1.4275918
24.684081392610462	2.025248	1.4231122
24.702023090417274	2.0084798	1.4172084
24.7199654033587	2.0420218	1.4289932
24.737908331937927	2.0420487	1.4290026
24.755851876658305	2.0050156	1.4159857
24.773796038023324	2.0247812	1.4229481
24.79174081653661	2.1007721	1.4494041
24.809686212701962	2.1756735	1.4750165
24.827632227023294	2.148168	1.4656631
24.8455788600047	2.1276462	1.4586453
24.8635261121504	2.112849	1.4535643
24.88147398396475	2.0938811	1.447025
24.899422475952303	2.1031597	1.4502275
24.917371588617698	2.1025085	1.4500029
24.935321322465768	2.1381054	1.4622262
24.953271678001478	2.224389	1.4914386
24.97122265572994	2.4897647	1.5778989
24.989174256156414	2.823788	1.680413
25.00712647978632	3.2387016	1.7996393
25.02507932712521	3.7512288	1.936809
25.043032798678798	4.333715	2.0817575
25.060986894952933	4.9251904	2.219277
25.078941616453637	5.5734854	2.360823
25.096896963687055	6.3711543	2.5241146
25.114852937159508	7.5320215	2.744453
25.132809537377444	8.121501	2.8498247
25.150766764847468	8.340884	2.888059
25.168724620076347	7.8439355	2.8007026
25.186683103570985	6.7638927	2.6007485
25.204642215838426	5.556708	2.3572671
25.222601957385894	4.197552	2.0487928
25.24056232872074	3.23523	1.7986745
25.25852333035048	2.7151556	1.6477729
25.276484962782778	2.3867023	1.5448955
25.294447226525435	2.1562378	1.4684134
25.312410122086423	2.0278258	1.4240175
25.330373649973843	1.9769769	1.4060501
25.348337810695988	1.9858065	1.4091865
25.366302604761245	1.9762716	1.4057993
25.384268032678207	1.9685444	1.4030483
25.40223409495558	1.9427456	1.3938241
25.420200792102257	1.8974367	1.3774748
25.438168124627246	1.8624996	1.3647343
25.45613609303974	1.8841313	1.3726367
25.474104697849057	1.9018235	1.3790662
25.492073939564698	1.8828752	1.372179
25.510043818696285	1.882549	1.3720602
25.528014335753614	1.8900948	1.3748071
25.54598549124664	1.8953316	1.3767104
25.56395728568544	1.8925693	1.3757068
25.58192971958028	1.8964701	1.3771238
25.59990279344156	1.9142702	1.3835715
25.617876507779833	1.939502	1.39266
25.635850863105826	1.8808546	1.3714426
25.653825859930386	1.8675857	1.3665963
25.671801498764548	1.8906461	1.3750076
25.68977778011949	1.8843385	1.3727121
25.707754704506524	1.8713588	1.3679762
25.725732272437153	1.8828273	1.3721615
25.743710484423012	1.8978461	1.3776233
25.761689340975888	1.8509724	1.3605045
25.77966884260774	1.8603282	1.3639385
25.797648989830662	1.8672404	1.3664701
25.815629783156922	1.8528727	1.3612027
25.83361122309895	1.8033454	1.3428869
25.85159331016929	1.8194059	1.3488536
25.869576044880695	1.842211	1.3572807
25.887559427746034	1.8552091	1.3620607
25.90554345927836	1.8532621	1.3613456
25.92352813999086	1.8126683	1.3463538
25.94151347039689	1.8093774	1.345131
25.959499451009965	1.8047804	1.3434211
25.97748608234374	1.8138759	1.3468021
25.995473364912062	1.7764715	1.3328434
26.013461299228904	1.8065544	1.3440813
26.03144988580839	1.8201506	1.3491296
26.04943912516483	1.8093998	1.3451394
26.067429017812675	1.8436189	1.3577993
26.085419564266537	1.906721	1.3808407
26.103410765041186	1.903465	1.3796612
26.12140262065155	1.8473996	1.3591908
26.139395131612723	1.8421187	1.3572468
26.157388298439948	1.8444363	1.3581003
26.17538212164861	1.8831956	1.3722957
26.193376601754295	1.8483542	1.3595419
26.211371739272714	1.8236822	1.3504378
26.229367534719746	1.792809	1.3389581
26.247363988611433	1.8049965	1.3435016
26.26536110146397	1.8300346	1.3527877
26.283358873793727	1.844431	1.3580983
26.301357306117204	1.8449998	1.3583077
26.319356398951104	1.8426317	1.3574357
26.33735615281224	1.8397082	1.3563584
26.35535656821762	1.7950939	1.3398111
26.373357645684404	1.7717084	1.3310554
26.39135938572991	1.7364372	1.3177395
26.409361788871614	1.782783	1.335209
26.427364855627165	1.8310705	1.3531705
26.445368586514352	1.8140502	1.3468668
26.46337298205115	1.7912484	1.3383753
26.48137804275568	1.8497379	1.3600507
26.499383769146217	1.8370817	1.3553898
26.517390161741215	1.825296	1.3510351
26.53539722105928	1.8222288	1.3498995
26.553404947619182	1.783336	1.3354161
26.571413341939856	1.7222106	1.3123302
26.589422404540397	1.7550246	1.3247734
26.60743213594006	1.7644639	1.3283312
26.62544253665827	1.8352206	1.3547032
26.64345360721459	1.882354	1.3719891
26.66146534812879	1.8786905	1.3706533
26.679477759920758	1.8335235	1.3540766
26.69749084311057	1.8000274	1.341651
26.71550459821847	1.8031485	1.3428136
26.733519025764842	1.783687	1.3355474
26.751534126270258	1.782687	1.335173
26.769549900255434	1.8210384	1.3494586
26.787566348241267	1.8471961	1.359116
26.80558347074881	1.8326906	1.3537691
26.823601268299267	1.840896	1.3567963
26.841619741414036	1.8537015	1.361507
26.85963889061465	1.8623651	1.3646849
26.877658716422832	1.8571956	1.3627896
26.89567921936045	1.8330833	1.353914
26.913700399949544	1.8585849	1.3632993
26.93172225871233	1.8178941	1.3482931
26.949744796171174	1.7669697	1.3292742
26.967768012848605	1.7340508	1.3168336
26.98579190926733	1.7189655	1.3110932
27.003816485950225	1.7561023	1.32518
27.021841743420318	1.7801609	1.3342267
27.039867682200814	1.8299263	1.3527477
27.057894302815072	1.8539892	1.3616127
27.07592160578664	1.9050503	1.3802356
27.0939495916392	1.9003767	1.3785415
27.111978260896635	1.8683715	1.3668839
27.13000761408296	1.8475286	1.3592383
27.148037651722397	1.8067142	1.3441406
27.166068374339304	1.7777486	1.3333224
27.184099782458215	1.7888199	1.3374677
27.20213187660384	1.8149774	1.347211
27.22016465730105	1.8078693	1.3445703
27.23819812507487	1.7808448	1.334483
27.256232280450533	1.7614781	1.3272069
27.274267123953383	1.790301	1.3380213
27.292302656108987	1.8133242	1.3465973
27.31033887744306	1.8401057	1.3565049
27.32837578848146	1.8472326	1.3591293
27.34641338975026	1.8001406	1.3416932
27.364451681775673	1.7371056	1.317993
27.382490665084074	1.705222	1.3058414
27.400530340202046	1.7480679	1.3221452
27.41857070765629	1.7590445	1.3262898
27.436611767973726	1.7611489	1.3270829
27.454653521681404	1.7842628	1.335763
27.472695969306564	1.7694075	1.3301908
27.490739111376627	1.7509774	1.323245
27.508782948419153	1.801391	1.342159
27.526827480961902	1.8312634	1.3532418
27.54487270953279	1.8405828	1.3566809
27.562918634659898	1.8374822	1.3555377
27.580965256871508	1.8355325	1.3548182
27.599012576696026	1.8328838	1.3538404
27.617060594662068	1.8160053	1.3475925
27.63510931129842	1.741526	1.3196689
27.65315872713401	1.7533724	1.3241497
27.67120884269797	1.7843924	1.3358115
27.68925965851958	1.8383391	1.3558537
27.707311175128307	1.8140638	1.3468719
27.725363393053787	1.7923936	1.338803
27.74341631282583	1.8286834	1.3522882
27.7614699349744	1.8210241	1.3494532
27.77952426002968	1.9878782	1.4099213
27.797579288521973	2.0692675	1.4384949
27.815635020981784	2.5861263	1.6081438
27.83369145793979	2.6411397	1.6251584
27.85174859992682	2.472131	1.5723011
27.869806447473923	2.3839948	1.5440191
27.887865001112267	2.0504034	1.4319229
27.905924261373233	1.9386482	1.3923535
27.92398422878836	1.9641591	1.4014846
27.94204490388936	1.9299312	1.3892196
27.96010628720813	1.8938717	1.37618
27.978168379276728	1.8996587	1.3782811
27.9962311806274	1.8868617	1.3736309
28.014294691792568	1.8342859	1.3543581
28.0323589133048	1.8373878	1.3555028
28.050423845696887	1.8640065	1.3652862
28.068489489501758	1.8574717	1.362891
28.086555845252523	1.8446486	1.3581784
28.104622913482487	1.7947404	1.3396792
28.122690694725115	1.7680494	1.3296802
28.14075918951405	1.7884752	1.3373388
28.15882839838312	1.8205094	1.3492626
28.176898321866304	1.8563043	1.3624626
28.1949689604978	1.8701535	1.3675356
28.213040314811945	1.9555534	1.398411
28.23111238534327	1.9731842	1.4047008
28.249185172626493	1.9195569	1.3854808
28.267258677196473	1.8765993	1.3698902
28.285332899588294	1.8825464	1.3720592
28.303407840337172	1.9489273	1.3960398
28.321483499978545	1.95734	1.3990496
28.33955987904799	1.9536984	1.3977476
28.357636978081285	1.9193988	1.3854237
28.37571479761439	1.9036921	1.3797435
28.393793338183425	1.9294281	1.3890386
28.41187260032469	1.9629627	1.4010577
28.429952584574686	1.9625447	1.4009085
28.448033291470065	1.9605652	1.4002018
28.46611472154769	1.9726305	1.4045037
28.484196875344566	2.0368307	1.4271758
28.502279753397914	2.0472019	1.4308046
28.52036335624511	1.9833308	1.4083078
28.538447684423716	1.953178	1.3975614
28.556532738471482	1.940547	1.3930352
28.574618518926325	1.9678713	1.4028083
28.59270502632635	1.9506257	1.396648
28.61079226120985	1.9162341	1.384281
28.628880224115274	1.919217	1.3853581
28.646968915581287	1.950421	1.3965747
28.66505833614671	1.9869225	1.4095824
28.68314848635055	2.035699	1.4267792
28.701239366732004	2.029815	1.4247158
28.71933097783044	2.0638902	1.4366246
28.737423320185403	2.0883844	1.4451244
28.75551639433665	2.092201	1.4464443
28.773610200824074	2.1033978	1.4503095
28.791704740187793	2.1436224	1.4641114
28.80980001296809	2.1535046	1.4674824
28.827896019705413	2.1946733	1.4814429
28.845992760940433	2.2027128	1.4841539
28.86409023721397	2.195707	1.4817919
28.88218844906704	2.2015934	1.4837767
28.900287397040845	2.2214892	1.4904661
28.918387081676755	2.2780595	1.5093242
28.936487503516343	2.3316784	1.5269834
28.954588663101365	2.3667793	1.538434
28.97269056097374	2.3283145	1.5258815
28.990793197675597	2.3112187	1.5202693
29.00889657374923	2.3211796	1.5235418
29.027000689737125	2.3683555	1.5389463
29.04510554618196	2.3933382	1.5470418
29.06321114362659	2.4440708	1.5633525
29.08131748261405	2.485293	1.5764812
29.099424563687567	2.5015812	1.5816388
29.11753238739057	2.571349	1.6035426
29.13564095426663	2.554901	1.5984057
29.15375026485954	2.5229483	1.5883791
29.171860319713275	2.58319	1.6072305
29.18997111937199	2.695622	1.641835
29.20808266438002	2.7312918	1.652662
29.226194955281898	2.7105691	1.6463807
29.244307992622335	2.7472298	1.6574769
29.26242177694624	2.8091419	1.6760495
29.2805363087987	2.8479898	1.6875988
29.29865158872498	2.8178263	1.6786382
29.316767617270557	2.8856106	1.6987085
29.334884394981064	2.9180806	1.7082391
29.353001922402367	2.8632329	1.692109
29.37112020008047	2.9201856	1.708855
29.389239228561596	3.0768547	1.7540965
29.407359008392152	3.3073082	1.8186007
29.42547954011872	3.6633964	1.914
29.44360082428809	4.356384	2.0871952
29.46172286144722	5.3647194	2.3161864
29.479845652143283	6.854978	2.6182013
29.497969196923606	8.918416	2.9863718
29.516093496335728	11.442418	3.3826644
29.5342185509274	14.156409	3.7625003
29.55234436124651	16.404465	4.0502424
29.570470927841175	17.839394	4.2236705
29.588598251259686	17.508776	4.184349
29.60672633205055	16.103052	4.012861
29.624855170762405	14.025273	3.7450333
29.642984767944146	11.354931	3.3697078
29.66111512414481	8.605515	2.9335158
29.67924623991366	6.368168	2.5235229
29.697378115800138	4.9385834	2.2222924
29.71551075235387	4.1919904	2.047435
29.733644150124675	3.8347082	1.9582411
29.751778309662576	3.5949545	1.8960365
29.769913231517766	3.417765	1.8487198
29.78804891624066	3.392946	1.8419951
29.806185364381818	3.3959982	1.8428234
29.82432257649206	3.397906	1.843341
29.842460553122333	3.3973277	1.8431841
29.86059929482382	3.3683226	1.835299
29.878738802147872	3.2877414	1.813213
29.896879075646048	3.3177617	1.8214724
29.915020115870114	3.3428395	1.8283434
29.933161923371976	3.2788007	1.810746
29.951304498703777	3.2507646	1.8029877
29.969447842417857	3.2156346	1.7932191
29.987591955066733	3.1861167	1.7849697
30.005736837203123	3.221895	1.7949638
30.023882489379943	3.21356	1.7926406
30.04202891215028	3.168784	1.7801079
30.060176106067455	3.1745362	1.7817228
30.078324071684946	3.1368723	1.7711217
30.09647280955646	3.1219976	1.7669176
30.114622320235863	3.1709936	1.7807283
30.132772604277257	3.0902388	1.7579075
30.1509236622349	3.0427558	1.7443497
30.16907549466328	3.0463464	1.7453786
30.18722810211705	3.1117554	1.7640169
30.205381485151097	3.1265483	1.7682048
30.22353564432045	3.0659976	1.750999
30.241690580180403	3.0014834	1.732479
30.25984629328638	3.0245166	1.7391137
30.278002784194037	3.0297859	1.740628
30.296160053459246	3.0362842	1.7424936
30.314318101638033	3.0104942	1.7350776
30.332476929286646	2.9435835	1.7156875
30.35063653696153	2.8816626	1.697546
30.368796925219307	2.879893	1.6970248
30.386958094616844	2.9217284	1.7093064
30.40512004571115	2.936627	1.7136589
30.423282779059463	2.9288762	1.711396
30.441446295219233	2.918701	1.7084206
30.459610594748067	2.9290338	1.711442
30.47777567820382	2.9274344	1.7109747
30.495941546144504	2.8819187	1.6976215
30.51410819912835	2.871749	1.6946236
30.532275637713795	2.7930427	1.6712399
30.55044386245946	2.7940197	1.6715322
30.56861287392416	2.7845356	1.6686928
30.586782672666956	2.6925766	1.6409073
30.604953259247047	2.690453	1.6402601
30.623124634223885	2.6823797	1.6377972
30.641296798157075	2.6786592	1.6366609
30.659469751606462	2.7068205	1.6452417
30.677643495132074	2.6992743	1.6429468
30.695818029294152	2.7228868	1.6501172
30.713993354653116	2.6976717	1.642459
30.73216947176962	2.6957293	1.6418676
30.75034638120448	2.6605773	1.6311276
30.768524083518756	2.6559913	1.6297213
30.786702579273673	2.6896667	1.6400204
30.80488186903069	2.8141184	1.6775334
30.82306195335144	2.9282413	1.7112105
30.841242832797782	3.0764902	1.7539927
30.85942450793176	3.318796	1.8217562
30.877606979315637	3.6109	1.9002368
30.895790247511883	4.0371466	2.0092652
30.913974313083134	4.5609064	2.135628
30.932159176592283	4.975528	2.2305892
30.95034483860237	4.964462	2.2281072
30.968531299676698	4.6267724	2.1509933
30.98671856037873	4.327387	2.0802372
31.00490662127215	4.0299172	2.0074654
31.023095482920848	3.5485706	1.883765
31.04128514588892	3.0457442	1.745206
31.059475610740662	2.7601871	1.6613811
31.07766687804056	2.6163192	1.617504
31.09585894835335	2.5239842	1.5887052
31.11405182224393	2.5302672	1.5906814
31.132245500277417	2.5282235	1.5900389
31.15043998301914	2.4634912	1.5695512
31.168635271034628	2.3583705	1.5356988
31.18683136488964	2.312127	1.520568
31.20502826515008	2.4066422	1.5513356
31.223225972382135	2.5181012	1.5868527
31.241424487152155	2.5089371	1.5839624
31.259623810026692	2.4254396	1.5573823
31.27782394157253	2.4365897	1.5609579
31.296024882356644	2.4959023	1.5798424
31.314226632946237	2.4912243	1.5783613
31.332429193908684	2.4816377	1.5753214
31.350632565811598	2.5116687	1.5848244
31.368836749222787	2.4234169	1.5567328
31.387041744710295	2.494998	1.5795562
31.40524755284232	2.5797067	1.6061466
31.423454174187317	2.5867167	1.6083273
31.441661609313922	2.504901	1.5826879
31.459869858791002	2.4123306	1.5531679
31.478078923187628	2.3672438	1.538585
31.496288803073064	2.361499	1.5367169
31.514499499016807	2.3939407	1.5472364
31.532711011588546	2.4223568	1.5563923
31.550923341358178	2.3802612	1.5428095
31.56913648889584	2.2631016	1.5043608
31.587350454771844	2.2377496	1.495911
31.605565239556732	2.2697692	1.5065753
31.62378084382127	2.3206484	1.5233674
31.641997268136382	2.2838688	1.5112474
31.660214513073274	2.2833316	1.5110697
31.67843257920331	2.294403	1.5147287
31.6966514670981	2.27048	1.5068111
31.71487117732944	2.3295908	1.5262997
31.733091710469346	2.2734442	1.5077945
31.751313067090052	2.2423859	1.4974598
31.769535247764008	2.2902935	1.5133716
31.787758253063878	2.3115408	1.5203753
31.805982083562526	2.315117	1.5215508
31.824206739833024	2.350883	1.5332589
31.84243222244869	2.323138	1.5241843
31.860658531983013	2.2379897	1.4959912
31.878885669009737	2.1557984	1.4682637
31.897113634102784	2.1630204	1.470721
31.91534242783632	2.1275356	1.4586074
31.933572050784694	2.1514206	1.4667722
31.951802503522508	2.1683528	1.4725327
31.970033786624548	2.2047124	1.4848274
31.988265900665834	2.2658627	1.5052782
32.006498846221575	2.239428	1.4964719
32.02473262386724	2.2075484	1.485782
32.04296723417845	2.2500393	1.5000131
32.0612026777311	2.3031633	1.5176176
32.07943895510129	2.2238524	1.4912586
32.097676066865304	2.212787	1.487544
32.115914013599685	2.1953077	1.4816571
32.13415279588115	2.1964157	1.4820309
32.152392414286666	2.198577	1.48276
32.1706328693934	2.173101	1.4741441
32.18887416177875	2.1353343	1.4612783
32.20711629202032	2.1041791	1.4505789
32.225359260695924	2.115901	1.4546137
32.243603068383614	2.1831458	1.4775472
32.26184771566166	2.208745	1.4861847
32.28009320310852	2.1769772	1.4754583
32.2983395313029	2.1020882	1.449858
32.31658670082372	2.0195081	1.421094
32.33483471225012	1.9966253	1.4130199
32.35308356616143	1.9588422	1.3995864
32.371333263137245	2.0457132	1.4302843
32.38958380375734	2.0969348	1.4480797
32.407835188601744	2.0907717	1.4459502
32.42608741825067	2.0949976	1.4474107
32.444340493284585	2.1295788	1.4593077
32.46259441428416	2.0929732	1.4467112
32.48084918183028	2.0800965	1.442254
32.49910479650405	2.1309767	1.4597865
32.51736125888683	2.1559186	1.4683046
32.53561856956014	2.1838078	1.4777713
32.5538767291058	2.1645935	1.4712558
32.572135738105764	2.1128588	1.4535676
32.59039559714228	2.0320134	1.425487
32.608656306797776	1.9945598	1.4122888
32.62691786765491	1.9356728	1.3912846
32.645180280296586	1.9184377	1.3850768
32.663443545305896	1.9710112	1.4039271
32.68170766326619	2.0447533	1.4299487
32.69997263476099	2.001127	1.4146119
32.7182384603741	1.9574995	1.3991066
32.7365051406895	2.0310194	1.4251384
32.75477267629144	2.0943964	1.4472029
32.77304106776434	2.0705051	1.438925
32.79131031569289	2.0461376	1.4304327
32.809580420661966	2.000877	1.4145236
32.827851383256714	1.9255064	1.3876262
32.84612320406245	1.8726416	1.3684449
32.86439588366476	1.9264491	1.3879658
32.88266942264945	1.9798267	1.4070631
32.9009438216025	1.9838684	1.4084986
32.9192190811102	1.9415721	1.393403
32.937495201758985	1.9640415	1.4014426
32.95577218413556	1.908834	1.3816056
32.974050028826866	1.8438535	1.3578857
32.992328736420035	1.8112516	1.3458275
33.010608307502444	1.8614161	1.3643372
33.02888874266169	1.9192315	1.3853633
33.047170042485604	1.9302667	1.3893404
33.06545220756225	1.9503875	1.3965627
33.083735238479896	2.0474823	1.4309026
33.10201913582707	2.0276766	1.4239651
33.12030390019248	1.9863633	1.409384
33.138589532165135	1.9570519	1.3989466
33.15687603233419	1.9351933	1.3911122
33.17516340128909	1.8816556	1.3717345
33.19345163961947	1.8807101	1.3713899
33.211740747915215	1.8271817	1.3517329
33.23003072676643	1.7875673	1.3369993
33.248321576763466	1.7774005	1.3331919
33.266613298496885	1.8505951	1.3603657
33.28490589255747	1.8856375	1.3731852
33.30319935953626	1.8508055	1.3604431
33.32149370002451	1.8325968	1.3537344
33.339788914613706	1.9365708	1.3916073
33.358085003895575	2.098979	1.4487853
33.376381968462034	2.0974798	1.4482678
33.39467980890529	1.9207475	1.3859104
33.41297852581774	1.937679	1.3920054
33.43127811979204	1.9921062	1.4114199
33.44957859142105	2.020923	1.4215916
33.467879941297866	2.0038712	1.4155816
33.486182170015844	1.937294	1.391867
33.50448527816853	1.8371975	1.3554326
33.522789266349754	1.8600373	1.3638319
33.541094135153514	1.8813943	1.3716393
33.55939988517411	1.9218872	1.3863214
33.57770651700602	2.032384	1.425617
33.59601403124398	2.0015023	1.4147446
33.61432242848296	1.9588398	1.3995856
33.632631709318154	1.9643974	1.4015696
33.650941874344994	1.8912483	1.3752266
33.66925292415916	1.7982694	1.3409957
33.68756485935654	1.734282	1.3169215
33.70587768053328	1.7709396	1.3307666
33.724191388285746	1.8831561	1.3722813
33.74250598321054	1.7846514	1.3359084
33.760821465904506	1.7022598	1.3047068
33.77913783696474	1.8180535	1.3483522
33.79745509698852	1.8672073	1.3664579
33.815773246573414	1.8254443	1.3510901
33.8340922863172	1.8627354	1.3648206
33.852412216817896	1.9730928	1.4046682
33.87073303867377	1.9430879	1.3939469
33.889054752483304	1.9886487	1.4101945
33.907377358845245	2.0683742	1.4381844
33.92570085835853	2.1509948	1.466627
33.94402525162239	2.172544	1.4739553
33.96235053923627	2.0510144	1.4321363
33.980676721799824	1.9103003	1.3821361
33.999003799912984	1.9712477	1.4040112
34.01733177417592	2.0187516	1.4208277
34.03566064518901	2.033668	1.4260674
34.0539904135529	1.9511564	1.396838
34.07232107986846	1.9761765	1.4057654
34.090652644736785	1.9943947	1.4122304
34.108985108759235	1.9480859	1.3957385
34.12731847253742	1.94959	1.3962772
34.14565273667313	1.9738781	1.4049478
34.16398790176847	1.9413289	1.3933158
34.18232396842574	2.003451	1.4154332
34.20066093724749	2.0142405	1.4192394
34.21899880883651	1.8411717	1.3568978
34.23733758379583	1.8076762	1.3444985
34.25567726272874	1.8112289	1.345819
34.27401784623872	1.7755556	1.3324997
34.29235933492957	1.7695225	1.330234
34.31070172940526	1.8074063	1.3443981
34.32904503027003	1.753241	1.3241
34.347389238128386	1.5704967	1.2531946
34.36573435358502	1.7097771	1.3075844
34.38408037724492	1.8769438	1.370016
34.402427309713296	1.9218315	1.3863014
34.42077515159559	1.9237888	1.3870071
34.43912390349752	1.9638221	1.4013643
34.45747356602499	1.9842316	1.4086275
34.47582413978423	2.009335	1.4175102
34.49417562538163	2.0570066	1.4342269
34.51252802342388	2.0013587	1.4146938
34.53088133451789	1.9261861	1.387871
34.54923555927084	1.9246999	1.3873355
34.567590698290104	1.888782	1.3743297
34.58594675218336	1.8270689	1.3516911
34.6043037215585	1.8353589	1.3547542
34.62266160702365	1.9341124	1.3907237
34.641020409187234	2.053244	1.4329145
34.65938012865785	2.1436503	1.464121
34.677740766044394	2.1400425	1.4628885
34.69610232195598	1.977182	1.406123
34.714464797002016	1.9873536	1.4097353
34.73282819179208	1.9222672	1.3864585
34.751192506936064	1.8898352	1.3747128
34.76955774304408	1.9174705	1.3847276
34.7879239007265	2.0079021	1.4170046
34.80629098059391	2.052855	1.4327787
34.824658983257194	2.0951617	1.4474673
34.843027909327446	2.0764627	1.4409937
34.86139775941603	2.058141	1.4346223
34.879768534134534	2.1058726	1.4511625
34.89814023409483	2.1579401	1.468993
34.91651285990901	2.1068256	1.4514908
34.93488641218944	1.9218309	1.3863012
34.95326089154871	2.0403385	1.4284042
34.97163629859967	2.0335293	1.4260187
34.99001263395542	2.0199716	1.421257
35.00838989822934	1.9928522	1.4116842
35.02676809203499	1.9991287	1.4139055
35.04514721598624	2.035498	1.4267088
35.063527270697215	2.0905614	1.4458774
35.081908256782256	2.0142572	1.4192452
35.10029017485597	1.9503323	1.396543
35.11867302553321	1.9089293	1.3816401
35.137056809429104	1.9038179	1.3797891
35.155441527159006	1.8926483	1.3757355
35.173827179338524	2.0313525	1.4252553
35.19221376658354	1.8915167	1.3753242
35.21060128951017	1.745604	1.3212131
35.2289897487348	1.9268903	1.3881247
35.24737914487405	2.1729064	1.4740782
35.26576947854479	1.9905492	1.4108683
35.28416075036418	2.0215635	1.421817
35.30255296094958	2.074445	1.4402934
35.32094611091867	1.8421386	1.357254
35.33934020088932	1.7296314	1.3151546
35.35773523147969	2.112608	1.4534813
35.3761312033082	2.3974829	1.5483807
35.394528116993506	2.2365553	1.4955118
35.41292597315452	2.0561187	1.4339173
35.431324772410434	1.704289	1.3054842
35.449724515380666	1.933811	1.3906153
35.46812520268491	2.3096573	1.5197557
35.486526834943106	1.9729829	1.4046291
35.504929412775454	1.6645994	1.2901936
35.52333293680242	1.6537396	1.2859781
35.54173740764471	1.71654	1.3101679
35.560142825923286	1.9742719	1.4050878
35.5785491922594	1.9525822	1.3973483
35.59695650727454	1.2989696	1.1397235
35.61536477159042	0.8177855	0.90431494
