0.008763373481513119	0.0	0.0
0.026290120649546365	0.0	0.0
0.043816868432600686	0.1672031	0.40890476
0.06134361724069026	0.34122324	0.58414316
0.07887036748382949	0.4254937	0.65229875
0.0963971195720331	0.41641915	0.64530545
0.11392387391531617	0.40272537	0.6346065
0.1314506309236943	0.28006753	0.5292141
0.1489773910071836	0.22901665	0.47855684
0.16650415457580078	0.18495935	0.430069
0.18403092203956356	0.19336058	0.43972784
0.20155769380849	0.18451504	0.42955214
0.2190844702925996	0.16723351	0.40894195
0.2366112519019124	0.21899568	0.46796975
0.2541380390464497	0.23151554	0.4811606
0.27166483213623416	0.2040022	0.45166603
0.28919163158128947	0.1798405	0.42407605
0.3067184377916406	0.1415437	0.37622294
0.324245251177314	0.11808063	0.34362862
0.34177207214833777	0.100241266	0.31660903
0.3592989011147415	0.13381284	0.36580437
0.37682573848655654	0.17879923	0.4228466
0.39435258467381573	0.15612249	0.3951234
0.41187944008655414	0.14169233	0.3764204
0.42940630513480854	0.10683277	0.32685283
0.446933180228618	0.10366978	0.3219779
0.4644600657780234	0.10546892	0.32475978
0.48198696219306775	0.13934623	0.37329108
0.49951386988379676	0.18442684	0.42944947
0.5170407892602581	0.17117347	0.41373116
0.5345677207325025	0.15041576	0.3878347
0.5520946647105822	0.1552129	0.39397067
0.5696216216045534	0.13372639	0.36568618
0.5871485918244737	0.16721968	0.40892503
0.6046755757804043	0.13989832	0.37402984
0.6222025738824094	0.13606687	0.36887243
0.6397295865405557	0.107289664	0.327551
0.6572566141649129	0.1367378	0.36978075
0.6747836571655547	0.17517498	0.4185391
0.6923107159525568	0.17714337	0.42088404
0.7098377909359992	0.17655262	0.42018166
0.7273648825259653	0.15778486	0.39722142
0.7448919911325411	0.16111241	0.4013881
0.762419117165817	0.1813611	0.4258651
0.7799462610358868	0.20831358	0.45641384
0.7974734231528482	0.2286568	0.4781807
0.8150006039268024	0.19539253	0.44203228
0.8325278037678551	0.19085814	0.43687314
0.8500550230861152	0.17642047	0.42002437
0.8675822622916969	0.17278075	0.41566905
0.8851095217947171	0.18767312	0.43321255
0.9026368020052984	0.1887634	0.4344691
0.9201641033335665	0.19120158	0.43726602
0.9376914261896523	0.23009679	0.47968405
0.9552187709836915	0.2620512	0.51190937
0.9727461381258234	0.29422534	0.5424254
0.990273528026193	0.29371408	0.5419539
1.0078009410949496	0.28903463	0.5376194
1.0253283777422473	0.28133988	0.5304148
1.0428558383782454	0.28329787	0.5322573
1.0603833234131086	0.27743587	0.52672184
1.0779108332570058	0.28724498	0.5359524
1.0954383683201119	0.30123913	0.54885256
1.112965929012607	0.33668825	0.5802484
1.1304935157446763	0.49912018	0.7064844
1.1480211289265108	0.52523935	0.724734
1.1655487689683062	1.4312862	1.1963638
1.1830764362802655	1.7035191	1.3051893
1.200604131272596	2.0941207	1.4471077
1.2181318543555117	2.3567631	1.5351753
1.235659605939232	2.3473873	1.5321186
1.253187386433982	3.959265	1.9897902
1.270715196249994	6.2918034	2.5083468
1.2882430357975057	11.682903	3.4180262
1.3057709054867608	16.481098	4.059692
1.3232988057280106	22.567205	4.7504954
1.3408267369315112	27.502165	5.244251
1.358354699507526	31.208067	5.586418
1.3758826938663256	35.081745	5.9229846
1.3934107204181858	36.86123	6.071345
1.410938779573391	37.0133	6.0838556
1.4284668717422309	37.537136	6.1267557
1.4459949973350033	37.109848	6.0917854
1.4635231567620117	37.144253	6.0946083
1.4810513504335687	36.396	6.03291
1.4985795787599925	35.77072	5.980863
1.5161078421516088	35.48371	5.9568205
1.5336361410187505	34.54558	5.877549
1.5511644757717598	34.51372	5.874838
1.5686928468209842	35.528778	5.9606023
1.58622125457678	36.315792	6.0262585
1.6037496994495108	37.502026	6.12389
1.621278181849548	37.43296	6.118248
1.6388067021872719	38.01376	6.1655297
1.6563352608730693	37.49249	6.1231112
1.673863858317336	36.244095	6.020307
1.6913924949304753	35.209003	5.9337177
1.7089211711228998	33.984604	5.8296313
1.7264498873050296	33.50357	5.788227
1.7439786438872935	32.591877	5.7089295
1.7615074412801288	31.823723	5.641252
1.779036279893981	31.115704	5.578145
1.796565160139305	30.068485	5.483474
1.814094082426564	29.525826	5.4337673
1.8316230471662298	28.34095	5.3236217
1.849152054768784	27.564674	5.250207
1.8666811056447168	26.708986	5.1680737
1.8842102002045273	26.10281	5.109091
1.901739338858724	25.941723	5.093302
1.9192685220178245	25.698158	5.069335
1.9367977500923557	25.232187	5.023165
1.9543270234928547	24.672127	4.9671044
1.971856342629867	23.9952	4.8984895
1.9893857079139496	23.474472	4.845046
2.006915119755667	22.9164	4.787108
2.0244445785655945	22.109716	4.702097
2.0419740847543175	21.732582	4.661822
2.0595036387324317	21.31844	4.6171894
2.0770332409105414	20.963799	4.5786242
2.094562891699263	20.753658	4.5556183
2.1120925915092217	20.128384	4.486467
2.129622340751053	19.807318	4.4505415
2.1471521398354043	187.88281	13.707035
2.1646819891729323	444.39685	21.080723
2.182211889174303	440.60327	20.990553
2.1997418402501974	452.8696	21.280733
2.2172718428113023	432.63348	20.799843
2.234801897268317	320.32483	17.897621
2.2523320040319548	16.984917	4.121276
2.269862163512935	16.854006	4.105363
2.287392376121992	16.879782	4.108501
2.304922642269869	16.669317	4.0828075
2.322452962367322	16.295353	4.0367503
2.3399833368251164	15.844502	3.9805152
2.357513766054032	15.40951	3.925495
2.3750442504648586	14.998214	3.8727527
2.3925747904683963	14.781855	3.8447177
2.410105386475459	14.703882	3.8345642
2.4276360388968707	14.534496	3.8124135
2.445166748143469	14.350282	3.7881765
2.4626975146261025	13.884711	3.7262194
2.4802283387556323	13.52532	3.6776786
2.4977592209429305	13.316888	3.6492312
2.5152901615988825	12.976973	3.6023564
2.5328211611343865	12.817974	3.5802197
2.5503522199603523	12.560316	3.5440536
2.5678833384877024	12.491932	3.5343928
2.5854145171273712	12.326625	3.5109293
2.6029457562903064	12.092701	3.477456
2.620477056387469	11.886029	3.447612
2.6380084178298326	11.692465	3.4194245
2.655539841028383	11.590411	3.4044693
2.673071326394119	11.407242	3.377461
2.6906028743380523	11.214354	3.348784
2.708134485271211	10.925453	3.3053672
2.7256661596046325	10.777627	3.2829297
2.743197897749369	10.624843	3.259577
2.760729700116486	10.641868	3.2621875
2.778261567117063	10.33663	3.2150629
2.795793499162193	10.236549	3.1994607
2.8133254966629817	9.925748	3.1505156
2.830857560030551	9.828855	3.1351004
2.8483896896760337	9.714389	3.1167915
2.865921886010578	9.714129	3.1167498
2.883454149445347	9.649626	3.1063848
2.9009864803915177	9.37875	3.0624745
2.91851887926028	9.2520895	3.0417247
2.9360513464628384	9.0877	3.0145812
2.953583882410413	9.046285	3.0077043
2.9711164875142373	8.977555	2.9962568
2.9886491621855606	8.87941	2.9798338
3.0061819068356455	8.622041	2.9363313
3.023714721875769	8.441235	2.9053802
3.041247607717225	8.357617	2.8909545
3.0587805647713213	8.306222	2.8820517
3.0763135934493806	8.323178	2.884992
3.0938466941627407	8.200963	2.8637323
3.1113798673227544	8.119197	2.8494205
3.1289131133407904	8.078385	2.84225
3.1464464326282315	7.972803	2.8236153
3.1639798255964786	7.837486	2.799551
3.1815132926569443	7.798669	2.7926097
3.1990468342210603	7.7037797	2.7755682
3.216580450700272	7.495212	2.7377386
3.2341141425060416	7.3952675	2.719424
3.251647910049847	7.23087	2.6890275
3.2691817537431813	7.1085153	2.66618
3.286715673997555	6.9949536	2.6447976
3.3042496712244938	7.017278	2.6490145
3.32178374583554	7.0537553	2.6558907
3.339317898242251	6.992695	2.6443703
3.3568521288562034	6.9287314	2.6322484
3.3743864380889876	6.831391	2.613693
3.3919208263522127	6.728604	2.5939553
3.4094552940575023	6.639195	2.5766635
3.4269898416164972	6.5675416	2.5627215
3.444524469440858	6.5342927	2.5562263
3.4620591779422587	6.5872025	2.5665545
3.479593967532391	6.555737	2.5604174
3.4971288386229658	6.4490747	2.5395029
3.5146637916257086	6.2882056	2.5076294
3.5321988269523628	6.216496	2.4932902
3.5497339450146903	6.271253	2.504247
3.5672691462244708	6.325791	2.5151124
3.5848044309934988	6.2600017	2.5019996
3.60233979973359	6.262328	2.5024645
3.619875252856575	6.2526517	2.5005302
3.6374107907743034	6.33939	2.5178144
3.6549464138986427	6.34357	2.5186446
3.6724821226414788	6.394168	2.528669
3.690017917414714	6.396336	2.5290978
3.7075537986302702	6.487734	2.547103
3.7250897667000857	6.537235	2.5568016
3.7426258220361235	6.68422	2.5853858
3.7601619650503553	6.9403095	2.6344466
3.777698196154779	7.2968698	2.7012718
3.7952345157614067	8.29773	2.880578
3.8127709242822716	9.078917	3.013124
3.830307422129425	11.484841	3.3889291
3.847844009714936	30.371675	5.51105
3.8653806874508954	97.929436	9.89593
3.882917455749409	97.19029	9.858514
3.900454315022606	96.90116	9.843839
3.917991265682631	41.53513	6.4447756
3.9355283081416506	11.150964	3.3393059
3.9530654428118495	8.905674	2.9842377
3.970602670105433	7.596238	2.7561274
3.9881399904346244	6.6872263	2.5859673
4.005677404211669	6.5455427	2.558426
4.023214911848827	6.513536	2.552163
4.0407525137583855	6.456975	2.5410578
4.058290210352644	6.5138383	2.5522223
4.075828002043927	6.4505615	2.5397956
4.0933658892445814	6.376767	2.525226
4.110903872366966	6.324887	2.5149329
4.128441951823468	6.236996	2.497398
4.145980128026488	6.1399035	2.4778829
4.163518401388452	6.1377277	2.4774437
4.181056772321807	6.094704	2.4687455
4.1985952412390155	6.149091	2.479736
4.216133808552567	6.1934423	2.4886627
4.233672474674966	6.2452126	2.4990423
4.251211240018741	6.4389577	2.5375102
4.268750104996445	6.576544	2.5644772
4.286289070020643	7.4543777	2.7302706
4.303828135503928	9.070319	3.011697
4.3213673018589125	29.412163	5.4232984
4.3389065694982305	90.58468	9.517598
4.356445938834537	165.83395	12.877653
4.3739854102805085	171.59708	13.099506
4.391524984248844	172.44164	13.131703
4.409064661152262	136.49936	11.683294
4.426604441403504	96.76374	9.836856
4.444144325415337	75.51677	8.690039
4.461684313600543	21.54227	4.641365
4.47922440637193	21.8461	4.673981
4.496764604142329	20.249634	4.4999595
4.5143049073245916	18.570599	4.309362
4.531845316331589	16.49815	4.0617914
4.5493858315762195	13.809921	3.7161703
4.566926453471405	11.445926	3.3831828
4.584467182430081	9.437031	3.071975
4.602008018865218	8.177803	2.859686
4.619548963189798	7.4112163	2.722355
4.637090015816834	6.907316	2.6281774
4.654631177159353	6.653492	2.5794363
4.672172447630417	6.358838	2.5216737
4.689713827643102	6.1853786	2.4870422
4.7072553176105085	5.9437356	2.4379778
4.724796917945764	5.813317	2.411082
4.742338629062015	5.7237897	2.3924444
4.759880451372434	5.712856	2.3901582
4.777422385290215	5.6982446	2.3870995
4.794964431228581	5.634485	2.373707
4.812506589600768	5.5413885	2.3540154
4.830048860820047	5.51417	2.348227
4.847591245299709	5.5131874	2.3480177
4.8651337434530655	5.4426875	2.3329568
4.882676355693457	5.528777	2.3513353
4.900219082434242	5.612139	2.3689954
4.917761924088813	5.5994797	2.366322
4.935304881070575	5.5153856	2.3484857
4.952847953792969	5.4340043	2.331095
4.970391142669449	5.432399	2.3307507
4.9879344481135055	5.4503026	2.3345883
5.005477870538642	5.4570985	2.3360434
5.023021410358394	5.5188174	2.3492165
5.040565067986324	5.5699625	2.360077
5.05810884383601	5.5639715	2.3588073
5.075652738321066	5.5430684	2.3543723
5.09319675185512	5.482797	2.3415372
5.110740884851836	5.4829326	2.3415663
5.128285137724894	5.467046	2.3381715
5.145829510888007	5.3400054	2.3108451
5.163374004754908	5.243964	2.2899704
5.1809186197393595	5.251663	2.2916508
5.198463356255145	5.3046007	2.3031719
5.216008214716077	5.3618045	2.315557
5.233553195535998	5.40681	2.3252547
5.251098299128764	5.3874598	2.3210902
5.268643525908272	5.377355	2.3189125
5.286188876288432	5.3107657	2.3045099
5.3037343506831895	5.255104	2.2924013
5.32127994950651	5.192793	2.27877
5.3388256731723915	5.246526	2.2905295
5.356371522094851	5.2493796	2.2911525
5.373917496687938	5.2398643	2.289075
5.391463597365729	5.2147284	2.283578
5.40900982454232	5.2236876	2.285539
5.426556178631843	5.231283	2.2872
5.444102660048449	5.218515	2.284407
5.4616492692063225	5.193718	2.278973
5.479196006519669	5.1381626	2.2667515
5.496742872402727	5.110152	2.2605646
5.514289867269756	5.1783624	2.2756016
5.531836991535049	5.182112	2.2764254
5.549384245612924	5.232406	2.2874453
5.566931629917724	5.2376895	2.2886
5.584479144863822	5.1667576	2.2730503
5.6020267908656205	5.170519	2.2738774
5.619574568337545	5.136335	2.2663484
5.637122477694054	5.1280913	2.264529
5.654670519349629	5.057513	2.2488916
5.672218693718784	5.079069	2.253679
5.689767001216059	5.128378	2.2645922
5.707315442256021	5.2119656	2.282973
5.724864017253266	5.213617	2.2833345
5.7424127266224225	5.2356744	2.2881596
5.75996157077814	5.192969	2.2788086
5.777510550135105	5.160423	2.2716565
5.795059665108022	5.185148	2.277092
5.812608916111639	5.245886	2.2903898
5.830158303560715	5.4033217	2.3245046
5.847707827870055	5.379289	2.3193295
5.86525748945448	5.415202	2.3270588
5.8828072887288485	5.4761977	2.3401277
5.900357226108044	5.515417	2.3484926
5.917907302006979	5.5527463	2.3564265
5.9354575168406	6.122205	2.474309
5.9530078710238765	6.805129	2.6086643
5.970558364971812	7.39855	2.7200277
5.988108999099438	7.666818	2.768902
6.005659773821818	8.088721	2.8440678
6.023210689554039	7.835301	2.7991607
6.040761746711227	8.186954	2.8612852
6.058312945708531	7.6457543	2.7650957
6.075864286961132	7.213905	2.6858714
6.093415770884244	6.564601	2.5621476
6.1109673978931065	6.1165204	2.47316
6.128519168402993	5.564068	2.3588276
6.146071082829204	5.43872	2.3321064
6.163623141587075	5.224553	2.2857282
6.181175345091969	5.1037674	2.259152
6.198727693759281	5.137964	2.2667077
6.216280188004435	5.254486	2.2922666
6.233832828242885	5.3159723	2.3056393
6.251385614890126	5.247786	2.2908046
6.268938548361669	5.1181374	2.26233
6.286491629073067	4.983118	2.2322898
6.304044857439898	5.0039334	2.2369473
6.321598233877777	5.0302773	2.242828
6.339151758802344	5.0898333	2.2560658
6.356705432629277	5.050897	2.24742
6.37425925577428	5.0332813	2.2434976
6.391813228653095	4.994557	2.2348506
6.409367351681486	5.039362	2.2448523
6.426921625275259	5.053892	2.2480862
6.44447604985025	5.085204	2.2550397
6.46203062582232	5.056558	2.2486792
6.47958535360737	5.051231	2.2474945
6.497140233621328	5.0522413	2.247719
6.514695266280161	5.054486	2.2482183
6.532250451999859	5.0102115	2.2383502
6.549805791196454	4.995207	2.2349958
6.567361284286002	4.9707694	2.2295222
6.584916931684597	4.959804	2.2270617
6.602472733808367	4.9452477	2.2237914
6.6200286910734665	4.9117827	2.2162542
6.637584803896092	4.904783	2.2146745
6.655141072692462	4.9268556	2.2196522
6.672697497878842	4.980053	2.2316031
6.690254079871514	4.987512	2.2332737
6.707810819086808	4.9371634	2.221973
6.725367715941078	4.936989	2.2219336
6.742924770850719	4.968671	2.2290516
6.760481984232151	4.9574223	2.226527
6.778039356501836	4.972916	2.2300036
6.795596888076266	5.000932	2.2362764
6.813154579371963	5.0400786	2.245012
6.830712430805492	5.0249114	2.2416315
6.84827044279344	4.9074073	2.215267
6.865828615752445	4.8578653	2.2040565
6.883386950099159	4.8931227	2.2120404
6.900945446250287	4.974509	2.2303607
6.918504104622553	5.0437937	2.245839
6.936062925632727	5.0073137	2.2377028
6.953621909697607	4.950494	2.2249706
6.971181057234028	4.9645762	2.228133
6.988740368658859	5.021972	2.2409756
7.006299844389007	5.114484	2.2615225
7.023859484841407	5.1950707	2.2792697
7.041419290433036	5.304682	2.3031895
7.058979261580902	5.4850025	2.342008
7.0765393987020495	5.779449	2.4040484
7.094099702213559	6.1270447	2.4752867
7.111660172532549	6.525451	2.5544963
7.129220810076164	6.867388	2.6205702
7.146781615261595	7.4344454	2.726618
7.16434258850606	7.6399736	2.7640502
7.181903730226821	8.059196	2.8388724
7.1994650408411704	8.108223	2.8474941
7.217026520766437	8.214525	2.8660994
7.234588170419983	8.493862	2.9144232
7.252149990219215	8.482932	2.9125473
7.269711980581568	8.399818	2.8982441
7.2872741419245175	8.200579	2.8636653
7.304836474665574	7.8338337	2.7988987
7.322398979222286	7.5100865	2.7404537
7.339961656012233	7.2338214	2.6895764
7.357524505453039	6.8665147	2.6204035
7.375087527962357	6.662184	2.5811207
7.392650723957886	6.3942533	2.528686
7.410214093857353	6.0376325	2.4571595
7.427777638078528	5.767993	2.4016647
7.445341357039213	5.6152816	2.3696585
7.4629052511572525	5.5063543	2.3465621
7.480469320850524	5.435413	2.3313973
7.498033566536948	5.3775764	2.3189602
7.5155979886344735	5.290284	2.3000617
7.5331625875610975	5.1889043	2.2779167
7.550727363734844	5.1535397	2.270141
7.568292317573788	5.092958	2.2567582
7.585857449496025	5.1397424	2.2671
7.603422759919705	5.1566515	2.270826
7.620988249263007	5.183941	2.2768269
7.638553917944147	5.237566	2.288573
7.656119766381391	5.208267	2.282163
7.673685794993023	5.2499127	2.2912688
7.691252004197388	5.213462	2.2833006
7.70881839441285	5.20378	2.2811797
7.726384966057826	5.1503835	2.2694457
7.743951719550762	5.0986767	2.258025
7.761518655310149	5.159822	2.2715242
7.779085773754511	5.265643	2.294699
7.796653075302419	5.342116	2.3113017
7.814220560372475	5.4011126	2.3240294
7.831788229383323	5.359874	2.31514
7.8493560827536495	5.3393316	2.3106995
7.866924120902174	5.301129	2.302418
7.884492344247663	5.3430076	2.3114946
7.9020607532089135	5.357717	2.3146744
7.919629348204771	5.30888	2.3041008
7.937198129654115	5.294092	2.3008895
7.954767097975865	5.3267546	2.3079762
7.972336253588986	5.37161	2.3176734
7.989905596912472	5.3733506	2.318049
8.007475128365371	5.3933687	2.3223627
8.025044848366756	5.43023	2.3302853
8.042614757335754	5.581776	2.3625784
8.060184855691523	5.6743174	2.3820825
8.07775514385327	5.8503995	2.4187598
8.095325622240228	5.8494706	2.418568
8.112896291271687	5.9077635	2.4305892
8.130467151366968	5.9282002	2.4347897
8.148038202945436	6.0077925	2.4510798
8.165609446426497	5.976447	2.4446774
8.183180882229594	6.011091	2.4517527
8.200752510774217	5.9543877	2.4401615
8.218324332479893	5.970606	2.4434824
8.235896347766193	5.974245	2.444227
8.253468557052724	6.0188637	2.4533372
8.27104096075914	6.0306673	2.4557416
8.288613559305137	6.0175123	2.4530618
8.306186353110448	6.070641	2.4638672
8.32375934259485	6.1696467	2.4838774
8.341332528178162	6.2544026	2.5008805
8.358905910280246	6.2802157	2.5060358
8.376479489321003	6.239694	2.497938
8.394053265720377	6.2183256	2.493657
8.411627239898356	6.289831	2.5079536
8.42920141227497	6.3159657	2.5131586
8.44677578327029	6.335115	2.5169654
8.464350353304427	6.192149	2.4884028
8.48192512279754	6.0746346	2.4646773
8.499500092169827	6.0746965	2.46469
8.51707526184153	6.1409626	2.4780965
8.534650632232934	6.215587	2.493108
8.552226203764365	6.253125	2.500625
8.569801976856192	6.256254	2.5012505
8.587377951928834	6.2827	2.5065315
8.60495412940274	6.257992	2.501598
8.622530509698416	6.3005924	2.510098
8.6401070932364	6.392448	2.5283291
8.657683880437283	6.482582	2.5460916
8.675260871721695	6.60254	2.5695407
8.692838067510303	6.7779894	2.6034572
8.710415468223834	6.9391265	2.6342223
8.727993074283043	7.0173736	2.6490326
8.745570886108737	7.044113	2.654075
8.763148904121765	7.1086607	2.666207
8.78072712874302	7.1840925	2.6803157
8.798305560393441	7.3831387	2.7171931
8.815884199494006	7.542381	2.7463396
8.833463046465745	7.784078	2.7899961
8.851042101729728	7.9944887	2.8274527
8.86862136570707	8.289929	2.8792238
8.886200838818924	8.3722925	2.8934915
8.903780521486505	8.347333	2.8891752
8.921360414131055	8.4772415	2.9115703
8.938940517173874	8.666952	2.9439688
8.956520831036297	8.905735	2.984248
8.97410135613971	9.160625	3.0266526
8.99168209290554	9.301647	3.0498602
9.009263041755265	9.522731	3.0858922
9.026844203110405	9.76134	3.1243143
9.044425577392525	9.914414	3.1487162
9.062007165023239	9.997373	3.1618621
9.079588966424197	10.198204	3.1934626
9.097170982017108	10.269282	3.2045722
9.11475321222372	11.247234	3.3536897
9.132335657465825	12.112254	3.4802663
9.149918318165264	12.2413025	3.4987574
9.167501194743924	12.817241	3.5801175
9.18508428762374	12.551549	3.5428166
9.202667597226693	12.580562	3.5469089
9.220251123974803	12.230084	3.4971538
9.237834868290143	11.923381	3.4530249
9.255418830594836	11.647293	3.4128132
9.273003011311046	11.080838	3.3287892
9.290587410860985	10.852745	3.2943504
9.308172029666911	10.261632	3.2033782
9.32575686815113	9.951036	3.1545262
9.343341926735997	8.696229	2.948937
9.360927205843916	8.50214	2.915843
9.378512705897327	8.362558	2.8918087
9.396098427318728	8.185386	2.8610113
9.413684370530664	8.0728445	2.8412752
9.431270535955722	7.893568	2.8095493
9.448856924016539	7.7894983	2.7909672
9.466443535135806	7.6392517	2.7639196
9.484030369736251	7.642127	2.7644398
9.501617428240658	7.675873	2.7705367
9.519204711071852	7.7319264	2.7806342
9.536792218652714	7.766943	2.7869236
9.55437995140617	7.773237	2.7880526
9.571967909755191	7.7949343	2.791941
9.589556094122802	7.8162384	2.7957537
9.60714450493207	7.82664	2.7976134
9.624733142606116	7.852754	2.8022766
9.642322007568108	7.939878	2.8177788
9.659911100241267	8.015597	2.831183
9.677500421048851	8.085885	2.843569
9.695089970414175	8.023884	2.8326461
9.712679748760609	7.9888353	2.8264527
9.730269756511557	8.047398	2.8367937
9.747859994090492	8.095904	2.8453302
9.765450461920915	8.148225	2.8545096
9.78304116042639	8.131586	2.8515935
9.800632090030527	8.126255	2.8506587
9.81822325115699	8.160517	2.8566618
9.835814644229481	8.241027	2.870719
9.853406269671762	8.298718	2.8807497
9.870998127907646	8.337898	2.887542
9.888590219360985	8.380229	2.8948624
9.906182544455698	8.405383	2.8992038
9.923775103615734	8.43423	2.9041746
9.941367897265108	8.411142	2.900197
9.958960925827878	8.361347	2.8915994
9.97655418972816	8.333817	2.886835
9.994147689390106	8.340975	2.8880746
10.011741425237934	8.325563	2.8854053
10.029335397695904	8.353846	2.890302
10.04692960718833	8.363441	2.8919616
10.06452405413958	8.323153	2.8849874
10.082118738974064	8.278828	2.8772953
10.099713662116246	8.222625	2.867512
10.117308823990651	8.174818	2.8591638
10.134904225021844	8.136383	2.8524346
10.152499865634445	8.189754	2.8617744
10.170095746253125	8.19966	2.863505
10.18769186730261	8.180972	2.86024
10.205288229207675	8.201475	2.8638217
10.222884832393145	8.232373	2.8692112
10.2404816772839	8.163336	2.857155
10.258078764304868	8.132288	2.8517168
10.275676093881035	8.125517	2.8505292
10.293273666437438	8.173241	2.858888
10.310871482399158	8.181319	2.8603005
10.32846954219134	8.062987	2.83954
10.346067846239173	8.014668	2.831019
10.363666394967908	8.0482025	2.8369355
10.38126518880283	8.123033	2.8500934
10.398864228169298	8.245904	2.8715682
10.416463513492713	8.235596	2.8697727
10.434063045198531	8.202093	2.8639297
10.451662823712262	8.111623	2.8480911
10.469262849459467	8.157279	2.856095
10.486863122865758	8.06705	2.8402553
10.504463644356806	8.105809	2.8470702
10.522064414358338	7.986676	2.8260708
10.539665433296118	7.9613748	2.821591
10.557266701595987	7.928082	2.815685
10.574868219683818	7.9072266	2.811979
10.592469987985552	7.8047233	2.7936935
10.610072006927185	7.6480703	2.7655144
10.627674276934751	7.475044	2.7340527
10.64527679843435	7.3524103	2.7115328
10.662879571852143	7.217075	2.6864614
10.680482597614331	7.0973043	2.6640766
10.698085876147173	7.032209	2.6518312
10.715689407876988	7.027618	2.6509655
10.733293193230146	6.94517	2.635369
10.750897232633072	6.798314	2.6073577
10.76850152651225	6.670046	2.5826433
10.786106075294207	6.631595	2.5751884
10.803710879405534	6.561468	2.5615363
10.821315939272877	6.4366	2.5370455
10.83892125532294	6.2398524	2.4979696
10.856526827982472	6.21255	2.4924989
10.874132657678285	6.23603	2.4972045
10.891738744837243	6.292814	2.5085483
10.909345089886271	6.241678	2.4983351
10.926951693252343	6.134719	2.4768364
10.944558555362494	6.0775876	2.4652765
10.96216567664381	5.9857893	2.4465873
10.979773057523436	5.9446387	2.438163
10.997380698428573	5.907936	2.4306247
11.014988599786477	5.8174562	2.4119403
11.032596762024461	5.727271	2.3931718
11.050205185569892	5.6278377	2.3723063
11.067813870850198	5.6061788	2.367737
11.085422818292859	5.577966	2.3617718
11.10303202832541	5.460033	2.3366714
11.120641501375454	5.396608	2.32306
11.138251237870636	5.2921214	2.300461
11.155861238238671	5.2707105	2.2958028
11.173471502907317	5.18758	2.277626
11.191082032304402	5.1034317	2.2590775
11.208692826857805	5.0483146	2.2468455
11.226303886995465	4.988004	2.2333841
11.243915213145371	4.939521	2.2225032
11.261526805735578	4.923554	2.2189083
11.279138665194196	4.92694	2.2196712
11.296750791949393	4.871208	2.2070813
11.314363186429393	4.810088	2.1931913
11.331975849062479	4.749582	2.1793535
11.34958878027699	4.684615	2.1643972
11.36720198050133	4.6357417	2.1530774
11.384815450163948	4.5709815	2.1379855
11.402429189693366	4.5421467	2.1312313
11.420043199518153	4.490733	2.119135
11.437657480066942	63.38758	7.961632
11.455272031768422	85.09749	9.22483
11.472886855051353	107.508606	10.368636
11.490501950344528	99.16402	9.958113
11.508117318076819	84.54081	9.194608
11.52573295867715	45.92327	6.776671
11.543348872574514	4.1723647	2.0426366
11.560965060197946	4.072667	2.018085
11.57858152197655	4.0161805	2.004041
11.59619825833949	4.0138297	2.0034544
11.613815269715985	4.009786	2.002445
11.631432556535323	38.54138	6.2081704
11.649050119226837	83.07905	9.114771
11.666667958219929	93.45851	9.667395
11.68428607394406	107.7684	10.381156
11.701904466828756	82.57826	9.087258
11.719523137303586	65.39547	8.086746
11.737142085798196	4.6154604	2.1483622
11.754761312742286	3.7123532	1.9267468
11.772380818565619	3.6723197	1.9163297
11.790000603698015	3.640128	1.9079119
11.80762066856935	3.600478	1.8974925
11.825241013609572	3.5334349	1.8797433
11.842861639248683	3.4757755	1.8643432
11.860482545916748	3.4715903	1.8632205
11.878103734043883	3.4958575	1.8697212
11.895725204060282	3.4855788	1.8669705
11.91334695639619	3.424775	1.8506148
11.930968991481919	3.3754594	1.8372424
11.948591309747824	3.3297942	1.8247724
11.966213911624347	3.2940059	1.8149396
11.98383679754198	3.252753	1.803539
12.001459967931268	3.264031	1.8066629
12.019083423222835	3.2572234	1.804778
12.036707163847352	3.247761	1.8021545
12.05433119023556	3.21846	1.7940067
12.071955502818259	3.1819694	1.7838075
12.089580102026313	3.1936488	1.7870783
12.107204988290643	3.1776602	1.7825993
12.12483016204224	3.1452024	1.7734718
12.142455623712152	3.1048295	1.7620527
12.16008137373149	3.1190436	1.7660815
12.177707412531431	3.0996487	1.760582
12.19533374054321	3.072308	1.7528001
12.212960358198126	3.038073	1.743007
12.230587265927545	3.0459766	1.7452726
12.248214464162889	3.0200016	1.7378151
12.265841953335649	2.98684	1.7282476
12.283469733877375	2.9502897	1.7176408
12.301097806219685	2.9264472	1.7106862
12.31872617079425	2.9723127	1.7240397
12.336354828032825	3.001905	1.7326007
12.353983778367205	3.0190682	1.7375466
12.371613022229262	2.9654045	1.722035
12.389242560050928	2.915233	1.7074053
12.406872392264201	2.8895054	1.6998545
12.424502519301143	2.893405	1.7010012
12.442132941593874	2.8672888	1.693307
12.459763659574586	2.8287451	1.6818874
12.477394673675532	2.8407135	1.6854416
12.49502598432903	2.883639	1.6981281
12.51265759196746	2.847065	1.6873248
12.530289497023267	2.7921536	1.6709739
12.547921699928967	2.7401397	1.6553367
12.565554201117134	2.772674	1.6651349
12.583187001020404	2.785686	1.6690375
12.600820100071486	2.785161	1.6688802
12.618453498703152	2.7607512	1.6615509
12.636087197348235	2.7456515	1.6570008
12.65372119643964	2.7680328	1.6637406
12.671355496410326	2.7660658	1.6631494
12.68899009769333	2.7925868	1.6711035
12.706625000721749	2.7986794	1.6729254
12.724260205928752	2.9150047	1.7073385
12.741895713747551	2.9536643	1.7186228
12.759531524611454	3.022322	1.7384827
12.777167638953818	2.9898233	1.7291106
12.794804057208072	2.9756505	1.7250074
12.812440779807702	3.0191941	1.7375828
12.830077807186271	3.2121994	1.792261
12.847715139777405	3.2675784	1.8076444
12.865352778014795	3.5035882	1.8717874
12.882990722332197	3.5932186	1.8955787
12.90062897316344	3.6587684	1.9127908
12.918267530942412	3.6720304	1.9162543
12.935906396103071	3.5484574	1.883735
12.953545569079449	3.706487	1.9252238
12.971185050305628	3.537213	1.880748
12.988824840215775	3.5527658	1.8848782
13.006464939244115	3.5452373	1.8828801
13.024105347824943	3.4198446	1.8492821
13.041746066392617	3.5447254	1.8827441
13.05938709538157	3.38677	1.840318
13.077028435226296	3.3978686	1.8433309
13.094670086361363	3.2655032	1.8070704
13.112312049221401	3.1870942	1.7852435
13.129954324241112	3.0708482	1.7523836
13.147596911855258	2.888612	1.6995918
13.165239812498685	2.8504324	1.6883223
13.182883026606293	2.7773628	1.6665422
13.200526554613058	2.7415478	1.655762
13.218170396954017	2.745441	1.6569372
13.235814554064284	2.7711625	1.664681
13.253459026379034	2.7379012	1.6546605
13.271103814333523	2.6951153	1.6416806
13.288748918363058	2.685304	1.6386898
13.306394338903031	2.6974208	1.6423826
13.32404007638889	2.7123756	1.6469291
13.341686131256164	2.7168481	1.6482865
13.359332503940449	2.6774662	1.6362965
13.376979194877402	2.6681244	1.6334394
13.394626204502751	2.675056	1.6355598
13.412273533252307	2.7086997	1.6458127
13.429921181561937	2.7206638	1.6494435
13.447569149867581	2.7414231	1.6557244
13.465217438605247	2.7406788	1.6554996
13.482866048211022	2.7483249	1.6578072
13.500514979121052	2.7506459	1.6585071
13.518164231771568	2.705159	1.6447368
13.535813806598844	2.675936	1.6358289
13.553463704039254	2.6599562	1.6309372
13.571113924529229	2.7025664	1.6439484
13.588764468505275	2.7296205	1.6521564
13.606415336403956	2.7747416	1.6657556
13.624066528661917	2.7610898	1.6616527
13.641718045715882	2.7921205	1.6709639
13.659369888002635	2.851515	1.688643
13.67702205595903	2.9050252	1.7044134
13.694674550021993	2.9626594	1.7212378
13.712327370628532	2.9836774	1.7273325
13.729980518215713	3.0570831	1.7484516
13.747633993220681	3.1734135	1.7814077
13.765287796080647	3.2423756	1.8006598
13.7829419272329	3.2846625	1.8123637
13.800596387114801	3.2675629	1.8076402
13.818251176163775	3.2512362	1.8031185
13.835906294817324	3.3153465	1.8208092
13.853561743513023	3.3655677	1.8345484
13.871217522688525	3.44876	1.8570838
13.888873632781538	3.4821293	1.8660464
13.906530074229858	3.5075624	1.8728487
13.92418684747135	3.5203798	1.8762676
13.941843952943948	3.4568841	1.8592697
13.959501391085665	3.4278913	1.8514565
13.977159162334578	3.3644252	1.834237
13.994817267128846	3.344728	1.8288598
14.012475705906693	3.276148	1.8100133
14.030134479106424	3.2272525	1.7964555
14.047793587166414	3.1675038	1.7797482
14.065453030525108	3.0866792	1.7568947
14.083112809621026	2.997696	1.7313856
14.100772924892766	2.931148	1.7120596
14.118433376778997	2.9026203	1.7037078
14.136094165718458	2.8409264	1.6855048
14.153755292149969	2.792454	1.6710638
14.171416756512416	2.7302399	1.6523438
14.189078559244768	2.68099	1.6373729
14.20674070078606	2.5618489	1.6005777
14.224403181575408	2.506601	1.5832249
14.242066002051999	2.4667432	1.5705869
14.259729162655093	2.4781175	1.5742037
14.277392663824022	2.4440637	1.5633501
14.295056505998208	2.4290543	1.5585424
14.312720689617128	2.428115	1.558241
14.330385215120348	2.412736	1.5532984
14.348050082947497	2.3979094	1.5485184
14.3657152935383	2.3971522	1.5482739
14.383380847332528	2.409452	1.552241
14.401046744770051	2.4380507	1.5614259
14.418712986290798	2.414433	1.5538446
14.436379572334793	2.424064	1.5569406
14.454046503342123	2.4101982	1.5524813
14.471713779752946	2.3922133	1.5466782
14.489381402007504	2.3815715	1.5432341
14.507049370546113	2.395997	1.5479008
14.524717685809168	2.3997493	1.5491124
14.542386348237134	2.395683	1.5477995
14.560055358270553	2.4074125	1.5515839
14.577724716350051	2.4213104	1.556056
14.595394422916325	2.455308	1.5669422
14.61306447841015	2.4696312	1.571506
14.63073488327237	2.4987533	1.5807445
14.648405637943917	2.4891267	1.5776967
14.6660767428658	2.4888914	1.577622
14.683748198479094	2.5229645	1.5883843
14.701420005224954	2.5790648	1.6059467
14.719092163544628	2.6542175	1.629177
14.73676467387942	2.6840475	1.6383063
14.754437536670727	2.7047727	1.6446193
14.772110752360014	2.7253368	1.6508594
14.78978432138882	2.7048473	1.644642
14.807458244198777	2.6675293	1.6332573
14.82513252123159	2.6562624	1.6298044
14.842807152929028	2.702968	1.6440705
14.860482139732962	2.689262	1.6398969
14.87815748208531	2.6383154	1.6242892
14.8958331804281	2.6436062	1.6259171
14.91350923520342	2.6098852	1.6155139
14.931185646853438	2.6248243	1.6201309
14.948862415820408	2.6503406	1.6279867
14.966539542546656	2.6721275	1.6346643
14.98421702747459	2.6603823	1.6310679
15.001894871046696	2.6131532	1.616525
15.019573073705542	2.614101	1.6168182
15.037251635893766	2.6024146	1.6132001
15.054930558054092	2.6652873	1.6325707
15.072609840629323	2.7552254	1.6598872
15.090289484062351	2.899977	1.7029319
15.107969488796124	3.1827145	1.7840164
15.125649855273691	3.579717	1.892014
15.14333058393817	4.0883236	2.0219603
15.161011675232768	5.112527	2.2610898
15.17869312960076	6.535409	2.5564446
15.196374947485506	8.4371805	2.9046824
15.214057129330447	11.480505	3.3882895
15.231739675579114	16.120716	4.0150614
15.249422586675102	21.073318	4.5905685
15.267105863062092	24.124067	4.911626
15.284789505183847	24.316153	4.931141
15.302473513484218	22.172718	4.7087917
15.320157888407127	18.533382	4.3050413
15.337842630396578	14.356658	3.7890182
15.355527739896656	11.129513	3.3360925
15.37321321735153	8.6869335	2.9473605
15.39089906320545	6.3998666	2.5297956
15.408585277902748	4.869163	2.206618
15.42627186188783	3.8031151	1.9501578
15.443958815605198	3.2324603	1.7979044
15.461646139499424	2.9064164	1.7048215
15.479333834015168	2.7408388	1.6555479
15.497021899597165	2.7066205	1.645181
15.514710336690234	2.6522872	1.6285844
15.53239914573928	2.631354	1.6221449
15.550088327189297	2.5969462	1.6115043
15.567777881485336	2.5567863	1.5989954
15.58546780907256	2.5125887	1.5851147
15.6031581103962	2.4797628	1.5747262
15.620848785901568	2.4612176	1.5688268
15.638539836034063	2.4477906	1.5645417
15.656231261239173	2.4278364	1.5581516
15.673923061962451	2.4391618	1.5617816
15.691615238649552	2.418052	1.5550086
15.709307791746202	2.4107423	1.5526565
15.727000721698221	2.4164598	1.5544966
15.744694028951498	2.4418802	1.5626516
15.76238771395202	2.4151585	1.554078
15.780081777145844	2.393337	1.5470414
15.797776218979125	2.3529568	1.5339351
15.815471039898094	2.3672826	1.5385976
15.833166240349064	2.3381238	1.5290924
15.850861820778437	2.3425014	1.5305233
15.868557781632699	2.3394043	1.5295111
15.886254123358412	2.3616369	1.5367618
15.903950846402232	2.3899643	1.545951
15.921647951210897	2.4224613	1.5564258
15.939345438231225	2.422688	1.5564986
15.957043307910133	2.400142	1.5492392
15.974741560694602	2.3897963	1.5458965
15.992440197031714	2.4106605	1.5526302
16.01013921736862	2.446117	1.5640067
16.02783862215259	2.452063	1.5659065
16.045538411830933	2.4040396	1.5504966
16.06323858685107	2.4034665	1.5503117
16.080939147660512	2.4349277	1.5604255
16.09864009470684	2.44908	1.5649537
16.11634142843774	2.446974	1.5642806
16.134043149300954	2.4195833	1.555501
16.15174525774433	2.4117408	1.552978
16.169447754215817	2.381659	1.5432625
16.18715063916342	2.3685987	1.5390252
16.204853913035244	2.3916094	1.5464829
16.222557576279478	2.4505804	1.5654329
16.240261629344403	22.457777	4.7389636
16.257966072678386	43.023346	6.5592184
16.275670906729868	38.115997	6.1738153
16.293376131947387	2.5656009	1.6017493
16.31108174877957	2.5837495	1.6074046
16.328787757675133	2.621208	1.6190145
16.34649415908287	2.60537	1.6141158
16.364200953451657	2.6201837	1.6186981
16.38190814123048	2.6721654	1.634676
16.39961572286839	2.706313	1.6450875
16.41732369881455	2.7226233	1.6500374
16.43503206951817	2.7329943	1.653177
16.45274083542859	2.7983408	1.6728241
16.47044999699522	2.827188	1.6814244
16.488159554667558	2.8910396	1.7003057
16.505869508895184	2.9047875	1.7043437
16.523579860127786	2.9229631	1.7096676
16.541290608815117	2.9491594	1.7173116
16.559001755407035	2.979721	1.7261869
16.57671330035348	3.0269043	1.7398001
16.59442524410448	3.064198	1.7504851
16.61213758711015	3.1154437	1.765062
16.629850329820705	3.187026	1.7852243
16.647563472686436	3.2890375	1.8135704
16.665277016157724	3.3308442	1.82506
16.682990960685053	3.3610091	1.8333055
16.70070530671898	3.4088967	1.8463198
16.718420054710155	3.4877706	1.8675574
16.736135205109335	3.5643253	1.8879421
16.753850758367335	3.637888	1.9073248
16.771566714935087	3.7061982	1.9251488
16.789283075263597	3.7990546	1.9491163
16.80699983980398	3.8546731	1.9633322
16.82471700900741	3.8790286	1.969525
16.84243458332518	3.8927639	1.9730089
16.860152563208665	3.9192355	1.9797059
16.87787094910932	3.9875782	1.9968921
16.89558974147871	4.0806165	2.0200536
16.913308940768466	4.1751347	2.0433147
16.931028547430333	4.161459	2.0399654
16.94874856191613	4.203311	2.0501978
16.966468984677785	4.27809	2.0683544
16.98418981616729	4.362014	2.0885434
17.00191105683676	4.434907	2.105922
17.019632707138374	4.507354	2.1230528
17.03735476752442	4.563426	2.1362176
17.05507723844728	4.64128	2.1543632
17.072800120359403	4.6010685	2.1450102
17.090523413713353	4.5939116	2.1433413
17.108247118961785	4.6074333	2.1464932
17.125971236557437	4.6746855	2.162102
17.143695766953133	4.7098217	2.1702123
17.161420710601806	4.7228727	2.173217
17.179146067956477	4.7076125	2.1697032
17.19687183947025	4.7340603	2.1757896
17.21459802559634	4.7087355	2.1699622
17.232324626788028	4.663623	2.1595423
17.25005164349871	4.624673	2.1505053
17.267779076181863	4.5426493	2.131349
17.285506925291074	4.559664	2.1353369
17.30323519127999	4.5694475	2.1376266
17.320963874602384	4.6100297	2.147098
17.33869297571211	4.5701056	2.1377804
17.356422495063114	4.566782	2.137003
17.37415243310944	4.5751123	2.1389513
17.391882790305218	4.5438695	2.1316354
17.40961356710468	4.4696984	2.114166
17.42734476396215	4.4635954	2.1127222
17.445076381332044	4.4706726	2.1143966
17.462808419668868	4.5542736	2.1340744
17.48054087942723	4.664116	2.1596565
17.498273761061835	4.9564652	2.226312
17.51600706502747	5.460054	2.336676
17.533740791779024	6.2198625	2.4939651
17.551474941771485	7.700786	2.775029
17.56920951545993	8.873524	2.978846
17.586944513299528	11.038129	3.322368
17.60467993574556	12.665366	3.5588434
17.622415783253373	14.261771	3.7764761
17.64015205627843	15.644525	3.955316
17.657888755276293	16.644552	4.0797734
17.675625880702604	17.024876	4.126121
17.69336343301311	16.748983	4.092552
17.71110141266366	16.018883	4.00236
17.728839820110178	15.216563	3.9008412
17.746578655808705	14.538525	3.8129418
17.764317920215372	13.204231	3.6337626
17.7820576137864	11.641344	3.4119413
17.79979773697811	9.506682	3.0832908
17.81753829024692	7.547335	2.7472413
17.835279274049356	5.866774	2.4221425
17.85302068884201	4.873284	2.2075515
17.870762535081607	4.2535424	2.0624118
17.888504813224934	3.9470415	1.9867163
17.90624752372891	3.7141433	1.9272113
17.923990667050536	3.5612767	1.8871346
17.941734243646895	3.4947703	1.8694304
17.959478253975185	3.495316	1.8695765
17.9772226984927	3.493876	1.8691913
17.994967577656833	3.4520564	1.8579711
18.01271289192506	3.405458	1.8453883
18.030458641754965	3.3481832	1.8298042
18.04820482760425	3.358991	1.832755
18.06595144993067	3.3433633	1.8284866
18.083698509192125	3.292363	1.814487
18.101446005846576	3.2344198	1.7984493
18.119193940352105	3.2016776	1.7893232
18.136942313166887	3.192595	1.7867835
18.1546911247492	3.175793	1.7820754
18.1724403755574	3.1207657	1.7665689
18.19019006604997	3.1107287	1.7637258
18.207940196685467	3.1133015	1.764455
18.225690767922575	3.1374304	1.7712793
18.243441780220046	3.1289306	1.7688783
18.261193234036764	3.1139274	1.7646323
18.278945129831676	3.1314678	1.7695954
18.29669746806386	3.0911283	1.7581605
18.314450249192483	3.0463455	1.7453784
18.3322034736768	2.966611	1.7223853
18.349957141976184	2.9671214	1.7225335
18.3677112545501	2.9865494	1.7281636
18.385465811858108	3.0085282	1.7345109
18.403220814359884	3.026159	1.7395859
18.420976262515172	3.0551877	1.7479095
18.43873215678387	3.1004038	1.7607963
18.456488497625923	3.1620994	1.7782292
18.474245285501407	3.2018108	1.7893604
18.492002520870486	3.2670074	1.8074864
18.50976020419343	3.3536015	1.831284
18.527518335930615	3.6718376	1.916204
18.545276916542516	4.1906276	2.0471022
18.563035946489688	4.346571	2.0848432
18.580795426232832	4.8136888	2.194012
18.598555356232698	4.759946	2.18173
18.616315736950185	5.0710154	2.2518916
18.63407656884626	4.699138	2.1677496
18.65183785238201	4.8280725	2.1972876
18.669599588018617	4.619677	2.1493435
18.68736177621737	4.6449723	2.1552198
18.705124417439652	4.6806297	2.1634762
18.72288751214696	4.4690094	2.1140032
18.740651060800886	4.619489	2.1492996
18.758415063863115	4.3124485	2.0766435
18.77617952179546	4.425159	2.1036062
18.793944435059814	4.166997	2.0413225
18.811709804118184	4.2271066	2.0559928
18.829475629432675	4.212428	2.0524201
18.8472419114655	4.002478	2.0006194
18.86500865067897	4.1012516	2.0251548
18.88277584753551	3.779657	1.944134
18.90054350249763	3.811864	1.9523995
18.918311616027957	3.512737	1.8742297
18.936080188589226	3.4231157	1.8501664
18.953849220644265	3.0748339	1.7535204
18.971618712656007	2.8971703	1.7021075
18.9893886650875	2.8339934	1.6834469
19.007159078401887	8.000659	2.8285437
19.024929953062408	32.872673	5.7334695
19.042701289532435	32.819492	5.72883
19.060473088275405	25.374025	5.037264
19.07824534975489	2.6374378	1.624019
19.096018074434568	2.612894	1.6164448
19.113791262778197	2.5668826	1.6021494
19.13156491524966	2.5393038	1.5935193
19.149339032312945	2.5388372	1.593373
19.167113614432136	2.596014	1.6112151
19.184888662071433	2.6379576	1.624179
19.202664175695123	2.6170774	1.6177384
19.220440155767623	2.610028	1.6155581
19.238216602753447	2.5542028	1.5981873
19.2559935171172	2.533594	1.5917267
19.27377089932361	2.4889908	1.5776535
19.291548749837514	2.4856713	1.5766011
19.309327069123835	2.4815686	1.5752995
19.32710585764763	2.4928384	1.5788726
19.344885115874032	2.485768	1.5766319
19.362664844268313	2.485944	1.5766877
19.380445043295822	2.497458	1.5803348
19.39822571342203	2.4946663	1.5794513
19.41600685511252	2.4965272	1.5800402
19.43378846883297	2.475246	1.5732914
19.451570555049173	2.5252967	1.5891182
19.469353114227037	2.5321567	1.5912752
19.48713614683254	2.5123913	1.5850525
19.50491965333182	2.475068	1.5732349
19.52270363419109	2.4497428	1.5651654
19.540488089876686	2.4693415	1.5714139
19.55827302085503	2.50227	1.5818565
19.576058427592674	2.49791	1.5804778
19.593844310556282	2.4577556	1.567723
19.611630670212598	2.4652998	1.5701274
19.629417507028506	2.4956067	1.5797489
19.64720482147098	2.5026188	1.5819668
19.6649926140071	2.462182	1.5691341
19.682780885104084	2.4465108	1.5641326
19.70056963522921	2.4803345	1.5749078
19.718358864849908	2.5116897	1.5848311
19.7361485744337	2.4888494	1.5776087
19.753938764448215	2.4917696	1.578534
19.771729435361202	2.470781	1.5718719
19.789520587640506	2.4677496	1.5709072
19.807312221754092	2.4301453	1.5588924
19.825104338170043	2.4162908	1.5544423
19.842896937356517	2.4523165	1.5659873
19.860690019781824	2.5090847	1.584009
19.87848358591436	2.5612512	1.6003909
19.896277636222635	2.5642686	1.6013334
19.914072171175278	2.5302808	1.5906856
19.931867191241015	2.4915242	1.5784563
19.94966269688869	2.4866676	1.5769172
19.967458688587264	2.4746625	1.573106
19.985255166805807	2.4619064	1.5690464
20.00305213201348	2.4799178	1.5747755
20.020849584679578	2.5112338	1.5846872
20.038647525273507	2.5147183	1.5857863
20.05644595426477	2.4852362	1.5764632
20.07424487212299	2.4420264	1.5626985
20.092044279317903	2.4297452	1.558764
20.109844176319353	2.4550269	1.5668526
20.127644563597304	2.4685798	1.5711715
20.145445441621817	2.4556544	1.5670527
20.16324681086307	2.4621732	1.5691314
20.181048671791373	2.4530506	1.5662217
20.198851024877122	2.44159	1.5625588
20.216653870590836	2.4320998	1.559519
20.234457209403146	2.4037616	1.5504069
20.252261041784802	2.381945	1.5433551
20.270065368206662	2.394156	1.5473061
20.287870189139685	2.3989995	1.5488703
20.305675505054968	2.3926547	1.5468209
20.323481316423702	2.3681111	1.5388669
20.341287623717207	2.3946185	1.5474555
20.359094427406884	2.3749845	1.5410985
20.376901727964288	2.3474746	1.532147
20.39470952586107	2.3461366	1.5317104
20.41251782156899	2.3514304	1.5334375
20.430326615559935	2.3202088	1.5232232
20.448135908305886	2.3194053	1.5229594
20.465945700278965	2.30107	1.5169278
20.483755991951384	2.3025696	1.5174221
20.50156678379548	2.2937894	1.5145261
20.519378076283708	2.2934706	1.5144209
20.537189869888635	2.2800858	1.5099953
20.55500216508294	2.2843454	1.5114051
20.572814962339415	2.311794	1.5204585
20.59062826213098	2.3477197	1.532227
20.60844206493066	2.3527966	1.5338829
20.626256371211593	2.330974	1.5267528
20.644071181447032	2.2905433	1.5134541
20.66188649611036	2.327847	1.5257283
20.67970231567506	2.33338	1.5275404
20.697518640614742	2.35279	1.5338807
20.715335471403122	2.2994916	1.5164075
20.73315280851404	2.3032587	1.517649
20.750970652421447	2.2854652	1.5117755
20.768789003599412	2.3118875	1.5204892
20.786607862522136	2.2953675	1.5150471
20.8044272296639	2.3108122	1.5201356
20.82224710549913	2.3220458	1.523826
20.84006749050237	2.323589	1.5243323
20.857888385148268	3.8602197	1.9647442
20.8757097899116	45.957043	6.7791624
20.893531705267254	64.81468	8.050756
20.911354131690224	83.83554	9.156175
20.92917706965566	69.05826	8.31013
20.94700051963877	50.10831	7.0787225
20.96482448211493	29.394306	5.421652
20.982648957559622	4.1263485	2.0313416
21.00047394644843	2.1889951	1.4795253
21.01829944925707	2.1780832	1.475833
21.036125466461375	2.1937072	1.4811169
21.053951998537297	2.220203	1.4900346
21.071779045960906	2.243178	1.4977243
21.089606609208378	2.2486932	1.4995643
21.10743468875603	2.2297556	1.4932367
21.12526328508028	2.2342834	1.4947519
21.143092398657675	2.2000263	1.4832486
21.16092202996488	2.1763544	1.4752473
21.17875217947867	2.175985	1.4751221
21.19658284767596	2.213507	1.4877859
21.21441403503377	2.2497823	1.4999274
21.232245742029225	2.2195787	1.4898251
21.2500779691396	2.1789691	1.4761332
21.26791071684227	2.1679773	1.4724053
21.28574398561475	2.178429	1.4759501
21.30357777593465	2.1727254	1.4740168
21.321412088279704	2.134764	1.4610832
21.339246923127792	2.123058	1.4570718
21.357082280956888	2.159714	1.4695965
21.3749181622451	2.1803372	1.4765965
21.392754567470647	2.1536782	1.4675416
21.41059149711187	2.1135273	1.4537976
21.42842895164726	2.0992315	1.4488724
21.446266931555378	2.073173	1.4398518
21.464105437314945	2.077904	1.4414936
21.481944469404798	2.1097898	1.4525115
21.49978402830388	2.1378894	1.4621524
21.51762411449127	2.128817	1.4590466
21.53546472844617	2.0909123	1.4459988
21.553305870647876	2.0643861	1.4367971
21.571147541575865	2.0647197	1.4369133
21.58898974170967	2.05517	1.4335865
21.60683247152899	2.0438538	1.4296341
21.62467573151363	2.0247247	1.4229282
21.642519522143523	2.0225754	1.4221728
21.660363843898722	2.04166	1.4288667
21.6782086972594	2.0717547	1.4393591
21.696054082705864	2.0585983	1.4347817
21.713900000718535	2.0392559	1.4280251
21.73174645177795	2.031548	1.4253238
21.749593436364794	2.0605686	1.4354681
21.767440954959845	2.0538504	1.4331261
21.785289008044032	2.021849	1.4219173
21.803137596098388	1.9816232	1.4077014
21.820986719604086	2.0066624	1.4165671
21.838836379042412	2.023011	1.4223258
21.85668657489478	2.0320318	1.4254935
21.87453730764273	2.0413952	1.428774
21.892388577767914	2.043177	1.4293973
21.91024038575213	2.0179791	1.420556
21.928092732077285	1.9915879	1.4112363
21.945945617225426	2.0250735	1.4230508
21.963799041678694	2.0429938	1.4293333
21.981653005919398	31.354315	5.5994925
21.999507510429943	78.14685	8.840071
22.01736255569286	73.086876	8.549087
22.035218142190818	4.2088146	2.0515397
22.05307427040661	2.036958	1.4272203
22.07093094082315	2.0457006	1.4302799
22.088788153923474	2.0109518	1.4180803
22.106645910190746	1.9919916	1.4113793
22.12450421010827	1.9652287	1.4018662
22.142363054159464	1.9558352	1.3985118
22.16022244282787	1.9562454	1.3986584
22.178082376597164	1.9591461	1.399695
22.195942855951145	1.9609377	1.4003348
22.213803881373742	1.9430116	1.3939195
22.231665453349002	1.956461	1.3987355
22.24952757236111	1.9573241	1.399044
22.26739023889438	1.9451398	1.3946826
22.28525345343323	1.8987848	1.377964
22.30311721646225	1.9305729	1.3894506
22.320981528466113	1.9688983	1.4031744
22.33884638992964	2.025155	1.4230795
22.356711801337788	2.0034518	1.4154334
22.37457776317561	1.987049	1.4096272
22.392444275928337	1.9714237	1.404074
22.410311340081282	2.0041919	1.4156948
22.428178956119904	2.0284977	1.4242533
22.446047124529805	2.0188227	1.4208528
22.46391584579669	1.9327457	1.3902322
22.481785120406414	1.8622735	1.3646514
22.49965494884496	1.8913786	1.3752741
22.51752533159841	1.9247644	1.3873588
22.53539626915302	1.9383868	1.3922596
22.553267761995137	1.9418191	1.3934916
22.571139810611264	1.9036195	1.3797172
22.589012415488025	1.9055591	1.3804199
22.60688557711216	1.8887063	1.3743021
22.624759295970566	1.9188697	1.3852327
22.642633572550263	1.9624437	1.4008725
22.660508407338362	1.9903998	1.4108154
22.67838380082217	2.0153098	1.4196161
22.696259753489077	2.0159888	1.4198552
22.714136265826614	1.998606	1.4137206
22.73201333832246	1.9827598	1.408105
22.74989097146439	1.9649557	1.4017688
22.76776916574035	1.9532748	1.3975961
22.785647921638393	1.9545829	1.398064
22.803527239646712	1.9340262	1.3906927
22.82140712025363	1.9261774	1.3878679
22.839287563947593	1.9008254	1.3787042
22.85716857121719	1.9241674	1.3871436
22.875050142551135	1.961339	1.4004781
22.892932278438277	1.9119991	1.3827505
22.910814979367604	1.875355	1.369436
22.928698245828222	1.9063009	1.3806885
22.946582078309387	1.937303	1.3918703
22.96446647730047	1.9178421	1.3848618
22.98235144329098	1.8853635	1.3730854
23.000236976770562	1.8936102	1.3760852
23.018123078229	1.9116985	1.3826418
23.03600974815619	1.9110913	1.3824222
23.053896987042194	1.91436	1.383604
23.071784795377173	1.9353572	1.3911712
23.08967317365145	1.934971	1.3910323
23.10756212235546	1.9558259	1.3985084
23.125451641979787	1.9442137	1.3943506
23.143341733015134	1.9080093	1.3813071
23.161232395952357	1.8659972	1.3660151
23.179123631282426	1.8832067	1.3722998
23.197015439496468	1.9137022	1.3833662
23.214907821085717	1.9213346	1.3861221
23.23280077654157	1.935546	1.391239
23.250694306355538	1.9527053	1.3973923
23.268588411019277	1.9177965	1.3848453
23.28648309102458	1.9224248	1.3865154
23.304378346863356	1.8857421	1.3732232
23.322274179027676	1.8996893	1.3782922
23.340170588009723	1.9265249	1.3879931
23.358067574301852	1.9506234	1.3966472
23.37596513839651	1.9663796	1.4022766
23.39386328078629	1.9409682	1.3931863
23.411762001963947	1.9152973	1.3839426
23.429661302422353	1.8660581	1.3660374
23.4475611826545	1.8772042	1.370111
23.46546164315356	1.9320778	1.389992
23.48336268441279	1.9699459	1.4035476
23.501264306925638	1.9642417	1.401514
23.51916651118564	1.9569634	1.398915
23.537069297686497	1.9673854	1.4026352
23.554972666922037	1.9663826	1.4022777
23.57287661938623	1.9730284	1.4046453
23.59078115557318	1.9516705	1.397022
23.608686275977128	1.9781258	1.4064586
23.62659198109246	1.9898493	1.4106202
23.6444982714137	1.9796236	1.406991
23.66240514743549	1.9418869	1.3935161
23.68031260965263	1.9051592	1.380275
23.698220658560068	1.8839153	1.372558
23.716129294652845	1.8680512	1.3667667
23.7340385184262	1.9090848	1.3816963
23.75194833037546	1.9343042	1.3907926
23.769858730996123	1.9023268	1.3792486
23.78776972078382	1.8197508	1.3489814
23.80568130023431	1.8098158	1.3452939
23.823593469843495	1.8615189	1.3643749
23.841506230107424	1.9075103	1.3811264
23.859419581522275	1.9557828	1.398493
23.87733352458438	1.9643166	1.4015408
23.89524805979019	1.9451514	1.3946868
23.913163187636318	1.9582999	1.3993927
23.931078908619508	1.9816879	1.4077244
23.948995223236633	2.011146	1.4181489
23.966912131984735	2.0000925	1.4142463
23.98482963536096	2.0102618	1.417837
24.002747733862616	1.9963417	1.4129195
24.020666427987155	2.0267255	1.4236311
24.038585718232156	2.05002	1.431789
24.056505605095353	2.0326989	1.4257275
24.074426089074617	2.0387106	1.4278343
24.092347170667946	2.0305374	1.4249692
24.110268850373515	2.079488	1.4420431
24.128191128689586	2.0857415	1.4442097
24.146114006114626	2.089833	1.4456254
24.164037483147187	2.053166	1.4328873
24.181961560286005	2.0153975	1.419647
24.199886238029926	2.0118964	1.4184133
24.21781151687797	2.0241642	1.4227313
24.235737397329274	2.022255	1.4220601
24.253663879883135	2.000791	1.4144932
24.271590965038975	2.0227704	1.4222413
24.289518653296376	2.0512476	1.4322177
24.30744694515505	2.0203636	1.421395
24.32537584111486	1.9865353	1.409445
24.34330534167581	1.9711126	1.4039632
24.361235447338046	2.0019448	1.414901
24.379166158601876	2.0333426	1.4259533
24.39709747596772	2.0178273	1.4205024
24.41502939993615	2.0055435	1.4161721
24.432961931007917	1.9934251	1.411887
24.450895069683856	2.0438936	1.429648
24.468828816465	2.0368624	1.4271868
24.4867631718525	1.972619	1.4044995
24.504698136347656	1.913812	1.3834059
24.52263371045192	1.9369378	1.3917391
24.540569894666874	1.956923	1.3989006
24.558506689494266	1.955363	1.398343
24.57644409543597	1.9260623	1.3878264
24.594382112994012	1.9029816	1.379486
24.61232074267057	1.9024891	1.3793075
24.630259984967953	1.8812438	1.3715844
24.64819984038863	1.92481	1.3873752
24.66614030943522	1.9764243	1.4058536
24.684081392610462	1.9901601	1.4107304
24.702023090417274	1.940064	1.3928618
24.7199654033587	1.9519339	1.3971163
24.737908331937927	2.0361972	1.4269538
24.755851876658305	2.0700302	1.4387599
24.773796038023324	1.9971902	1.4132198
24.79174081653661	1.9971783	1.4132156
24.809686212701962	2.0445974	1.4298942
24.827632227023294	2.0799782	1.4422129
24.8455788600047	2.0639715	1.4366529
24.8635261121504	2.0976553	1.4483285
24.88147398396475	2.1060028	1.4512074
24.899422475952303	2.113943	1.4539405
24.917371588617698	2.1088736	1.4521961
24.935321322465768	2.171791	1.4736998
24.953271678001478	2.3107958	1.5201302
24.97122265572994	2.5179408	1.586802
24.989174256156414	2.835885	1.6840086
25.00712647978632	3.2664247	1.8073252
25.02507932712521	3.7867787	1.9459647
25.043032798678798	4.2978277	2.0731204
25.060986894952933	4.938834	2.2223487
25.078941616453637	5.641994	2.3752882
25.096896963687055	6.5043607	2.5503647
25.114852937159508	7.6791496	2.771128
25.132809537377444	8.171867	2.8586478
25.150766764847468	8.233098	2.8693376
25.168724620076347	7.566791	2.75078
25.186683103570985	6.604612	2.569944
25.204642215838426	5.4878225	2.3426101
25.222601957385894	4.1611314	2.039885
25.24056232872074	3.1642942	1.7788464
25.25852333035048	2.5876384	1.6086138
25.276484962782778	2.2788699	1.5095927
25.294447226525435	2.0311484	1.4251837
25.312410122086423	1.9324217	1.3901157
25.330373649973843	1.9048923	1.3801783
25.348337810695988	1.9347264	1.3909444
25.366302604761245	1.8711057	1.3678837
25.384268032678207	1.8203818	1.3492153
25.40223409495558	1.8538816	1.3615732
25.420200792102257	1.907508	1.3811257
25.438168124627246	1.9314721	1.3897741
25.45613609303974	1.9119884	1.3827467
25.474104697849057	1.892993	1.3758608
25.492073939564698	1.9194943	1.3854581
25.510043818696285	1.9528692	1.3974509
25.528014335753614	1.8917546	1.3754107
25.54598549124664	1.8352593	1.3547174
25.56395728568544	1.8272213	1.3517475
25.58192971958028	1.8713253	1.3679639
25.59990279344156	1.8695014	1.367297
25.617876507779833	1.884556	1.3727913
25.635850863105826	1.8767226	1.3699353
25.653825859930386	1.889935	1.3747491
25.671801498764548	1.8725226	1.3684015
25.68977778011949	1.8709593	1.3678302
25.707754704506524	1.8745261	1.3691334
25.725732272437153	1.8585746	1.3632956
25.743710484423012	1.8485842	1.3596265
25.761689340975888	1.8437471	1.3578465
25.77966884260774	1.8396415	1.3563339
25.797648989830662	1.8378202	1.3556622
25.815629783156922	1.8022867	1.3424927
25.83361122309895	1.8169719	1.347951
25.85159331016929	1.8426496	1.3574423
25.869576044880695	1.8252265	1.3510095
25.887559427746034	1.8442299	1.3580242
25.90554345927836	1.8576063	1.3629403
25.92352813999086	1.8705598	1.3676841
25.94151347039689	1.8525382	1.3610798
25.959499451009965	1.8551191	1.3620275
25.97748608234374	1.8903823	1.3749118
25.995473364912062	1.8632892	1.3650235
26.013461299228904	1.8205179	1.3492657
26.03144988580839	1.775531	1.3324906
26.04943912516483	1.7558572	1.3250877
26.067429017812675	1.7956319	1.340012
26.085419564266537	1.8139919	1.3468451
26.103410765041186	1.8136616	1.3467225
26.12140262065155	1.8043399	1.3432572
26.139395131612723	1.8175033	1.3481481
26.157388298439948	1.8331043	1.3539218
26.17538212164861	1.8434082	1.3577217
26.193376601754295	1.8156487	1.34746
26.211371739272714	1.7928071	1.3389574
26.229367534719746	1.7851778	1.3361055
26.247363988611433	1.7943218	1.339523
26.26536110146397	1.8000357	1.3416541
26.283358873793727	1.8372205	1.3554411
26.301357306117204	1.8243874	1.3506988
26.319356398951104	1.8022696	1.3424864
26.33735615281224	1.7697976	1.3303374
26.35535656821762	1.7459493	1.3213438
26.373357645684404	1.7425611	1.320061
26.39135938572991	1.8024776	1.3425639
26.409361788871614	1.8345124	1.3544418
26.427364855627165	1.8059313	1.3438494
26.445368586514352	1.7523868	1.3237774
26.46337298205115	1.7378607	1.3182794
26.48137804275568	1.7237562	1.3129189
26.499383769146217	1.7404909	1.3192767
26.517390161741215	1.7841498	1.3357207
26.53539722105928	1.7979851	1.3408897
26.553404947619182	1.8091235	1.3450366
26.571413341939856	1.8071429	1.3443002
26.589422404540397	1.8481711	1.3594745
26.60743213594006	1.8502823	1.3602508
26.62544253665827	1.8499354	1.3601233
26.64345360721459	1.8287991	1.352331
26.66146534812879	1.8472848	1.3591485
26.679477759920758	1.867021	1.3663898
26.69749084311057	1.8461038	1.358714
26.71550459821847	1.840708	1.356727
26.733519025764842	1.8049703	1.3434918
26.751534126270258	1.7623112	1.3275207
26.769549900255434	1.7806312	1.3344029
26.787566348241267	1.7819047	1.33488
26.80558347074881	1.741891	1.3198072
26.823601268299267	1.7495699	1.3227131
26.841619741414036	1.8051829	1.343571
26.85963889061465	1.8448212	1.3582419
26.877658716422832	1.8271865	1.3517346
26.89567921936045	1.7827346	1.3351909
26.913700399949544	1.7652289	1.3286191
26.93172225871233	1.7827593	1.3352001
26.949744796171174	1.7569306	1.3254926
26.967768012848605	1.7765555	1.3328749
26.98579190926733	1.8086622	1.3448651
27.003816485950225	1.8187028	1.3485929
27.021841743420318	1.8012333	1.3421004
27.039867682200814	1.7812003	1.3346162
27.057894302815072	1.770524	1.3306104
27.07592160578664	1.7927703	1.3389437
27.0939495916392	1.8023219	1.3425058
27.111978260896635	1.79281	1.3389585
27.13000761408296	1.7369516	1.3179346
27.148037651722397	1.7794629	1.3339651
27.166068374339304	1.8580141	1.3630899
27.184099782458215	1.8420327	1.357215
27.20213187660384	1.798964	1.3412546
27.22016465730105	1.806756	1.3441563
27.23819812507487	1.8025044	1.3425738
27.256232280450533	1.7947114	1.3396684
27.274267123953383	1.7833847	1.3354343
27.292302656108987	1.7532833	1.324116
27.31033887744306	1.7495354	1.3227
27.32837578848146	1.8268131	1.3515965
27.34641338975026	1.852906	1.3612149
27.364451681775673	1.84551	1.3584955
27.382490665084074	1.8148688	1.3471707
27.400530340202046	1.8209877	1.3494397
27.41857070765629	1.7983925	1.3410416
27.436611767973726	1.7670839	1.3293171
27.454653521681404	1.7359132	1.3175405
27.472695969306564	1.7578514	1.3258399
27.490739111376627	1.7834384	1.3354543
27.508782948419153	1.8251566	1.3509835
27.526827480961902	1.8056525	1.3437457
27.54487270953279	1.7860042	1.3364147
27.562918634659898	1.7696075	1.330266
27.580965256871508	1.7485842	1.3223404
27.599012576696026	1.7648916	1.3284923
27.617060594662068	1.7676407	1.3295265
27.63510931129842	1.7818373	1.3348548
27.65315872713401	1.8060963	1.3439108
27.67120884269797	1.8129029	1.3464408
27.68925965851958	1.7887567	1.3374441
27.707311175128307	1.7686859	1.3299196
27.725363393053787	1.806173	1.3439393
27.74341631282583	1.8569624	1.362704
27.7614699349744	1.8236037	1.3504088
27.77952426002968	1.9528912	1.3974588
27.797579288521973	2.1113105	1.4530349
27.815635020981784	2.6442046	1.626101
27.83369145793979	2.6899295	1.6401005
27.85174859992682	2.5434806	1.5948293
27.869806447473923	2.3786514	1.5422877
27.887865001112267	2.0599792	1.4352628
27.905924261373233	1.8800423	1.3711463
27.92398422878836	1.825109	1.350966
27.94204490388936	1.7871202	1.3368322
27.96010628720813	1.7999974	1.3416399
27.978168379276728	1.8420542	1.357223
27.9962311806274	1.863564	1.3651242
28.014294691792568	1.9068097	1.3808728
28.0323589133048	1.9120048	1.3827527
28.050423845696887	1.9060761	1.3806071
28.068489489501758	1.9024457	1.3792918
28.086555845252523	1.8786924	1.370654
28.104622913482487	1.8519987	1.3608816
28.122690694725115	1.857622	1.362946
28.14075918951405	1.8733577	1.3687066
28.15882839838312	1.865233	1.3657353
28.176898321866304	1.8702954	1.3675874
28.1949689604978	1.8953899	1.3767316
28.213040314811945	1.8815311	1.3716892
28.23111238534327	1.8650851	1.3656812
28.249185172626493	1.8890035	1.3744103
28.267258677196473	1.8866944	1.37357
28.285332899588294	1.8996406	1.3782744
28.303407840337172	1.877404	1.370184
28.321483499978545	1.8616843	1.3644356
28.33955987904799	1.8832887	1.3723297
28.357636978081285	1.9157764	1.3841157
28.37571479761439	1.928496	1.388703
28.393793338183425	1.9006293	1.3786331
28.41187260032469	1.9273074	1.3882749
28.429952584574686	1.9300187	1.3892511
28.448033291470065	1.9545596	1.3980557
28.46611472154769	1.9788178	1.4067045
28.484196875344566	2.0224574	1.4221313
28.502279753397914	1.979428	1.4069215
28.52036335624511	1.9472101	1.3954247
28.538447684423716	1.9544135	1.3980035
28.556532738471482	1.9579275	1.3992596
28.574618518926325	1.9694419	1.403368
28.59270502632635	1.9769655	1.406046
28.61079226120985	2.0208778	1.4215758
28.628880224115274	2.051708	1.4323784
28.646968915581287	2.081483	1.4427345
28.66505833614671	2.10677	1.4514717
28.68314848635055	2.0992954	1.4488945
28.701239366732004	2.097207	1.4481736
28.71933097783044	2.0349002	1.4264992
28.737423320185403	2.0592718	1.4350163
28.75551639433665	2.0956173	1.4476247
28.773610200824074	2.1291988	1.4591775
28.791704740187793	2.1338377	1.4607661
28.80980001296809	2.1188583	1.4556298
28.827896019705413	2.1284351	1.4589157
28.845992760940433	2.1785061	1.4759763
28.86409023721397	2.1769657	1.4754544
28.88218844906704	2.2021077	1.48395
28.900287397040845	2.1973863	1.4823583
28.918387081676755	2.2403622	1.496784
28.936487503516343	2.3055882	1.5184164
28.954588663101365	2.3298821	1.5263952
28.97269056097374	2.296612	1.5154577
28.990793197675597	2.3028412	1.5175115
29.00889657374923	2.3361187	1.5284367
29.027000689737125	2.3785388	1.5422512
29.04510554618196	2.3649032	1.5378242
29.06321114362659	2.339791	1.5296376
29.08131748261405	2.4045928	1.5506749
29.099424563687567	2.4566603	1.5673736
29.11753238739057	2.4410894	1.5623986
29.13564095426663	2.4543061	1.5666225
29.15375026485954	2.5756185	1.6048734
29.171860319713275	2.6187692	1.6182611
29.18997111937199	2.6754653	1.635685
29.20808266438002	2.699668	1.6430666
29.226194955281898	2.7355895	1.6539618
29.244307992622335	2.7792685	1.6671138
29.26242177694624	2.7993152	1.6731154
29.2805363087987	2.825724	1.6809889
29.29865158872498	2.9026992	1.703731
29.316767617270557	2.968308	1.7228779
29.334884394981064	3.037031	1.742708
29.353001922402367	3.0570223	1.7484343
29.37112020008047	3.0336714	1.7417438
29.389239228561596	3.045073	1.7450137
29.407359008392152	3.2728608	1.8091049
29.42547954011872	3.6882849	1.9204907
29.44360082428809	4.386501	2.0943975
29.46172286144722	5.454538	2.3354952
29.479845652143283	7.012297	2.6480742
29.497969196923606	9.053247	3.0088615
29.516093496335728	11.483481	3.3887286
29.5342185509274	14.08024	3.7523646
29.55234436124651	16.402199	4.049963
29.570470927841175	17.79003	4.217823
29.588598251259686	17.460413	4.178566
29.60672633205055	16.001913	4.000239
29.624855170762405	13.98331	3.7394264
29.642984767944146	11.313541	3.363561
29.66111512414481	8.656529	2.942198
29.67924623991366	6.4271865	2.5351896
29.697378115800138	4.974307	2.2303154
29.71551075235387	4.1329575	2.0329676
29.733644150124675	3.6983726	1.9231154
29.751778309662576	3.5164375	1.8752166
29.769913231517766	3.3857064	1.8400289
29.78804891624066	3.3530722	1.8311396
29.806185364381818	3.3890696	1.8409426
29.82432257649206	3.4407744	1.8549324
29.842460553122333	3.352015	1.830851
29.86059929482382	3.2782114	1.8105831
29.878738802147872	3.2152646	1.7931159
29.896879075646048	3.1461198	1.7737305
29.915020115870114	3.1665378	1.7794769
29.933161923371976	3.185317	1.7847457
29.951304498703777	3.2471647	1.8019891
29.969447842417857	3.2775617	1.8104037
29.987591955066733	3.3099499	1.8193268
30.005736837203123	3.2620726	1.8061209
30.023882489379943	3.2507055	1.8029712
30.04202891215028	3.2757168	1.8098941
30.060176106067455	3.1606834	1.7778311
30.078324071684946	3.1146402	1.7648343
30.09647280955646	3.1471496	1.7740208
30.114622320235863	3.119843	1.7663077
30.132772604277257	3.192759	1.7868294
30.1509236622349	3.177812	1.7826419
30.16907549466328	3.108931	1.7632161
30.18722810211705	3.0283804	1.7402242
30.205381485151097	3.0077574	1.7342887
30.22353564432045	3.0120325	1.7355208
30.241690580180403	2.9954057	1.730724
30.25984629328638	3.0402808	1.7436401
30.278002784194037	3.0475304	1.7457178
30.296160053459246	3.0443227	1.7447988
30.314318101638033	2.9715874	1.7238293
30.332476929286646	2.9140904	1.7070707
30.35063653696153	2.9159372	1.7076116
30.368796925219307	2.9438682	1.7157705
30.386958094616844	2.9189568	1.7084955
30.40512004571115	2.86954	1.6939716
30.423282779059463	2.8675714	1.6933905
30.441446295219233	2.8253944	1.6808909
30.459610594748067	2.8497841	1.6881304
30.47777567820382	2.850189	1.6882503
30.495941546144504	2.83462	1.683633
30.51410819912835	2.8521993	1.6888455
30.532275637713795	2.9111674	1.7062143
30.55044386245946	2.799708	1.6732328
30.56861287392416	2.7786467	1.6669273
30.586782672666956	2.8075645	1.6755788
30.604953259247047	2.7518902	1.6588823
30.623124634223885	2.6949775	1.6416386
30.641296798157075	2.6594818	1.6307918
30.659469751606462	2.708817	1.6458484
30.677643495132074	2.77089	1.6645991
30.695818029294152	2.724482	1.6506006
30.713993354653116	2.6841362	1.6383333
30.73216947176962	2.6173942	1.6178362
30.75034638120448	2.565762	1.6017996
30.768524083518756	2.624458	1.6200179
30.786702579273673	2.7918239	1.6708752
30.80488186903069	2.925825	1.7105043
30.82306195335144	3.056846	1.7483838
30.841242832797782	3.2980664	1.8160579
30.85942450793176	3.515828	1.8750541
30.877606979315637	3.742713	1.9346093
30.895790247511883	4.1089563	2.027056
30.913974313083134	4.521787	2.1264493
30.932159176592283	4.8101707	2.1932101
30.95034483860237	4.7791452	2.1861255
30.968531299676698	4.447855	2.1089938
30.98671856037873	4.1418524	2.035154
31.00490662127215	3.7761726	1.9432377
31.023095482920848	3.3259742	1.8237253
31.04128514588892	2.9603453	1.7205654
31.059475610740662	2.6767297	1.6360714
31.07766687804056	2.5568688	1.5990212
31.09585894835335	2.5437074	1.5949004
31.11405182224393	2.5142267	1.5856314
31.132245500277417	2.4294	1.5586532
31.15043998301914	2.4261317	1.5576044
31.168635271034628	2.4052887	1.5508993
31.18683136488964	2.3984692	1.5486991
31.20502826515008	2.3825245	1.5435429
31.223225972382135	2.3839376	1.5440005
31.241424487152155	2.3440385	1.5310253
31.259623810026692	2.3325088	1.5272553
31.27782394157253	2.4310386	1.5591788
31.296024882356644	2.467621	1.5708663
31.314226632946237	2.4723105	1.5723583
31.332429193908684	2.4592998	1.5682155
31.350632565811598	2.431033	1.559177
31.368836749222787	2.452575	1.56607
31.387041744710295	2.4490955	1.5649586
31.40524755284232	2.4878862	1.5773034
31.423454174187317	2.5365481	1.5926545
31.441661609313922	2.5860493	1.6081198
31.459869858791002	2.5307071	1.5908196
31.478078923187628	2.387222	1.5450637
31.496288803073064	2.343273	1.5307753
31.514499499016807	2.3810225	1.5430562
31.532711011588546	2.3438478	1.5309631
31.550923341358178	2.2983785	1.5160404
31.56913648889584	2.3183117	1.5226003
31.587350454771844	2.313617	1.5210578
31.605565239556732	2.301498	1.5170689
31.62378084382127	2.2849076	1.5115911
31.641997268136382	2.2654648	1.5051461
31.660214513073274	2.2284987	1.4928157
31.67843257920331	2.272398	1.5074475
31.6966514670981	2.3743806	1.5409025
31.71487117732944	2.4464169	1.5641025
31.733091710469346	2.4240968	1.5569512
31.751313067090052	2.402572	1.5500232
31.769535247764008	2.3401577	1.5297574
31.787758253063878	2.2586505	1.5028807
31.805982083562526	2.23095	1.4936365
31.824206739833024	2.2474756	1.4991583
31.84243222244869	2.27027	1.5067415
31.860658531983013	2.269055	1.5063382
31.878885669009737	2.2438498	1.4979485
31.897113634102784	2.167925	1.4723874
31.91534242783632	2.1259277	1.4580561
31.933572050784694	2.1214755	1.4565285
31.951802503522508	2.1336112	1.4606886
31.970033786624548	2.1644685	1.4712133
31.988265900665834	2.125873	1.4580374
32.006498846221575	2.1714542	1.4735855
32.02473262386724	2.203316	1.4843571
32.04296723417845	2.2148325	1.4882313
32.0612026777311	2.2147515	1.4882041
32.07943895510129	2.2432508	1.4977486
32.097676066865304	2.1843681	1.4779608
32.115914013599685	2.1806893	1.4767157
32.13415279588115	2.1905885	1.4800637
32.152392414286666	2.1596634	1.4695793
32.1706328693934	2.1087952	1.4521692
32.18887416177875	2.0968378	1.4480462
32.20711629202032	2.1098971	1.4525485
32.225359260695924	2.1270785	1.4584507
32.243603068383614	2.1104267	1.4527308
32.26184771566166	2.1398134	1.4628102
32.28009320310852	2.168077	1.4724392
32.2983395313029	2.2094297	1.486415
32.31658670082372	2.1914783	1.4803642
32.33483471225012	2.1461282	1.464967
32.35308356616143	2.1659622	1.4717208
32.371333263137245	2.1419919	1.4635545
32.38958380375734	2.0493095	1.431541
32.407835188601744	2.0009115	1.4145358
32.42608741825067	2.0078669	1.4169922
32.444340493284585	2.0521703	1.4325398
32.46259441428416	1.9452326	1.394716
32.48084918183028	1.9617989	1.4006423
32.49910479650405	2.0207348	1.4215255
32.51736125888683	2.0119686	1.4184388
32.53561856956014	2.02919	1.4244964
32.5538767291058	2.0976856	1.4483389
32.572135738105764	2.123577	1.4572499
32.59039559714228	2.015035	1.4195193
32.608656306797776	1.9667599	1.4024122
32.62691786765491	1.9780273	1.4064236
32.645180280296586	1.9870307	1.4096208
32.663443545305896	1.9140837	1.3835042
32.68170766326619	1.8852389	1.37304
32.69997263476099	1.9324832	1.3901378
32.7182384603741	1.9599841	1.3999943
32.7365051406895	1.9846144	1.4087634
32.75477267629144	2.0186558	1.420794
32.77304106776434	2.0263088	1.4234847
32.79131031569289	2.0104532	1.4179045
32.809580420661966	2.0230284	1.422332
32.827851383256714	2.0366182	1.4271014
32.84612320406245	2.0204375	1.4214209
32.86439588366476	1.9862853	1.4093564
32.88266942264945	1.9523499	1.3972652
32.9009438216025	1.9420618	1.3935788
32.9192190811102	1.9403523	1.3929653
32.937495201758985	1.9387431	1.3923875
32.95577218413556	2.0012946	1.4146712
32.974050028826866	2.0130537	1.4188212
32.992328736420035	1.9495938	1.3962785
33.010608307502444	1.8929996	1.3758632
33.02888874266169	1.94282	1.3938508
33.047170042485604	1.968302	1.4029619
33.06545220756225	2.0081043	1.417076
33.083735238479896	2.0223286	1.422086
33.10201913582707	2.0057907	1.4162594
33.12030390019248	1.988438	1.4101199
33.138589532165135	1.9811016	1.4075161
33.15687603233419	1.9589121	1.3996115
33.17516340128909	1.900323	1.378522
33.19345163961947	1.9161747	1.3842596
33.211740747915215	1.9466463	1.3952227
33.23003072676643	1.9808915	1.4074415
33.248321576763466	1.9801875	1.4071914
33.266613298496885	2.0283265	1.4241933
33.28490589255747	2.022978	1.4223143
33.30319935953626	2.0195656	1.4211142
33.32149370002451	2.0655673	1.4372082
33.339788914613706	2.011909	1.4184178
33.358085003895575	1.945217	1.3947104
33.376381968462034	1.9730895	1.404667
33.39467980890529	1.9240849	1.3871139
33.41297852581774	1.9256986	1.3876954
33.43127811979204	2.0162349	1.4199419
33.44957859142105	2.1006012	1.4493451
33.467879941297866	2.0872145	1.4447196
33.486182170015844	1.9985479	1.4137001
33.50448527816853	1.9140462	1.3834906
33.522789266349754	1.8993971	1.3781862
33.541094135153514	1.9575262	1.3991163
33.55939988517411	1.9915664	1.4112287
33.57770651700602	1.9667665	1.4024146
33.59601403124398	1.9102772	1.3821278
33.61432242848296	1.8652259	1.3657328
33.632631709318154	1.8288814	1.3523614
33.650941874344994	1.8585725	1.3632947
33.66925292415916	1.9479382	1.3956856
33.68756485935654	1.9881836	1.4100296
33.70587768053328	1.9882683	1.4100597
33.724191388285746	1.9014988	1.3789485
33.74250598321054	1.8316278	1.3533765
33.760821465904506	1.8223512	1.349945
33.77913783696474	1.973894	1.4049534
33.79745509698852	2.1244314	1.4575429
33.815773246573414	2.0163796	1.4199928
33.8340922863172	1.8550504	1.3620024
33.852412216817896	1.8219836	1.3498087
33.87073303867377	1.7935708	1.3392426
33.889054752483304	1.807744	1.3445237
33.907377358845245	1.9377882	1.3920447
33.92570085835853	2.0144906	1.4193275
33.94402525162239	1.8562177	1.3624308
33.96235053923627	1.7836132	1.3355198
33.980676721799824	1.8272394	1.3517542
33.999003799912984	1.9675103	1.4026797
34.01733177417592	1.9720201	1.4042864
34.03566064518901	2.0042098	1.4157012
34.0539904135529	2.0929635	1.4467078
34.07232107986846	2.0982478	1.4485329
34.090652644736785	1.999911	1.4141821
34.108985108759235	2.061022	1.435626
34.12731847253742	2.0856943	1.4441934
34.14565273667313	2.0260437	1.4233916
34.16398790176847	1.9883219	1.4100786
34.18232396842574	1.9447452	1.3945413
34.20066093724749	1.882799	1.3721513
34.21899880883651	1.9137585	1.3833866
34.23733758379583	1.9961481	1.4128511
34.25567726272874	1.9160377	1.3842101
34.27401784623872	1.864767	1.3655647
34.29235933492957	1.9690797	1.403239
34.31070172940526	1.9389143	1.392449
34.32904503027003	1.8453338	1.3584306
34.347389238128386	1.8636479	1.3651549
34.36573435358502	1.9442914	1.3943784
34.38408037724492	1.9199743	1.3856313
34.402427309713296	1.9045264	1.3800458
34.42077515159559	1.9800596	1.4071459
34.43912390349752	1.9973367	1.4132717
34.45747356602499	1.9941874	1.4121569
34.47582413978423	2.0277448	1.423989
34.49417562538163	1.9860686	1.4092795
34.51252802342388	1.953004	1.3974992
34.53088133451789	1.9267087	1.3880594
34.54923555927084	2.0199866	1.4212624
34.567590698290104	2.1614432	1.4701848
34.58594675218336	2.2172987	1.4890597
34.6043037215585	2.002846	1.4152194
34.62266160702365	1.9382601	1.3922141
34.641020409187234	1.9431552	1.393971
34.65938012865785	1.8913012	1.3752458
34.677740766044394	1.8337016	1.3541424
34.69610232195598	1.8692083	1.3671899
34.714464797002016	1.9656993	1.402034
34.73282819179208	2.008928	1.4173666
34.751192506936064	2.013552	1.4189968
34.76955774304408	2.0212362	1.4217019
34.7879239007265	2.0660741	1.4373845
34.80629098059391	1.9378811	1.392078
34.824658983257194	1.8222097	1.3498925
34.843027909327446	1.9604264	1.4001523
34.86139775941603	2.1724625	1.4739276
34.879768534134534	2.144215	1.4643139
34.89814023409483	2.0181522	1.4206169
34.91651285990901	1.8271297	1.3517137
34.93488641218944	1.7220957	1.3122865
34.95326089154871	1.8563011	1.3624614
34.97163629859967	2.1744435	1.4745995
34.99001263395542	2.0925794	1.446575
35.00838989822934	2.0118728	1.418405
35.02676809203499	2.2490132	1.499671
35.04514721598624	2.1620681	1.4703972
35.063527270697215	1.94904	1.3960803
35.081908256782256	1.9764274	1.4058547
35.10029017485597	1.9793532	1.4068949
35.11867302553321	2.060823	1.4355567
35.137056809429104	2.121608	1.4565741
35.155441527159006	2.0846722	1.4438394
35.173827179338524	1.8967265	1.3772169
35.19221376658354	1.7257197	1.3136665
35.21060128951017	1.8225754	1.3500279
35.2289897487348	1.9690682	1.4032348
35.24737914487405	2.0794284	1.4420223
35.26576947854479	2.104579	1.4507167
35.28416075036418	1.7942652	1.3395019
35.30255296094958	1.6622915	1.2892989
35.32094611091867	1.8264248	1.3514528
35.33934020088932	1.9058454	1.3805236
35.35773523147969	2.028008	1.4240814
35.3761312033082	1.7580626	1.3259195
35.394528116993506	1.7056735	1.3060143
35.41292597315452	1.978596	1.4066257
35.431324772410434	2.2931526	1.5143158
35.449724515380666	2.5327156	1.5914508
35.46812520268491	2.6569948	1.6300291
35.486526834943106	2.2481086	1.4993694
35.504929412775454	2.1346815	1.4610549
35.52333293680242	2.4234047	1.5567288
35.54173740764471	1.9510738	1.3968084
35.560142825923286	1.4783968	1.2158934
35.5785491922594	1.278834	1.1308554
35.59695650727454	1.1710773	1.0821632
35.61536477159042	1.7820303	1.3349271
