0.008763373481513119	0.56609195	0.7523908
0.026290120649546365	0.18888974	0.43461448
0.043816868432600686	0.14562035	0.38160235
0.06134361724069026	0.10053836	0.31707785
0.07887036748382949	0.10271965	0.32049906
0.0963971195720331	0.15538627	0.39419064
0.11392387391531617	0.15758325	0.39696756
0.1314506309236943	0.12193236	0.34918815
0.1489773910071836	0.10050698	0.31702837
0.16650415457580078	0.07048455	0.26548925
0.18403092203956356	0.09120414	0.30200022
0.20155769380849	0.12947468	0.3598259
0.2190844702925996	0.1732073	0.4161818
0.2366112519019124	0.18827438	0.43390596
0.2541380390464497	0.15080601	0.3883375
0.27166483213623416	0.16941571	0.4116014
0.28919163158128947	0.18819532	0.43381485
0.3067184377916406	0.17814583	0.42207325
0.324245251177314	0.14853661	0.38540447
0.34177207214833777	0.11980635	0.34613055
0.3592989011147415	0.15460427	0.3931975
0.37682573848655654	0.1356694	0.36833328
0.39435258467381573	0.17928022	0.42341495
0.41187944008655414	0.17478251	0.41807
0.42940630513480854	0.18789479	0.43346834
0.446933180228618	0.16968203	0.41192478
0.4644600657780234	0.14970286	0.38691455
0.48198696219306775	0.107361294	0.32766032
0.49951386988379676	0.0987375	0.31422523
0.5170407892602581	0.14069211	0.37508947
0.5345677207325025	0.1533725	0.391628
0.5520946647105822	0.17580563	0.41929182
0.5696216216045534	0.15233421	0.39030015
0.5871485918244737	0.11303381	0.336205
0.6046755757804043	0.08806561	0.2967585
0.6222025738824094	0.059125707	0.24315777
0.6397295865405557	0.10148192	0.31856227
0.6572566141649129	0.12483346	0.3533178
0.6747836571655547	0.16732918	0.4090589
0.6923107159525568	0.17427403	0.4174614
0.7098377909359992	0.17138149	0.41398248
0.7273648825259653	0.19768278	0.44461533
0.7448919911325411	0.17704011	0.42076135
0.762419117165817	0.20176393	0.4491814
0.7799462610358868	0.19176307	0.4379076
0.7974734231528482	0.18144178	0.42595983
0.8150006039268024	0.16173857	0.40216735
0.8325278037678551	0.18001838	0.42428574
0.8500550230861152	0.15614086	0.39514664
0.8675822622916969	0.16452599	0.40561804
0.8851095217947171	0.16732602	0.40905502
0.9026368020052984	0.22440812	0.47371733
0.9201641033335665	0.23088205	0.48050186
0.9376914261896523	0.20973793	0.45797154
0.9552187709836915	0.20073123	0.44803038
0.9727461381258234	0.23586531	0.48565966
0.990273528026193	0.2396975	0.48958912
1.0078009410949496	0.26394412	0.5137549
1.0253283777422473	0.29356846	0.5418196
1.0428558383782454	0.33025768	0.5746805
1.0603833234131086	0.33225536	0.57641596
1.0779108332570058	0.35115388	0.5925824
1.0954383683201119	0.35263976	0.5938348
1.112965929012607	0.3678375	0.6064961
1.1304935157446763	0.45565268	0.6750205
1.1480211289265108	0.4742521	0.68865967
1.1655487689683062	1.2511774	1.1185604
1.1830764362802655	1.5423174	1.2419007
1.200604131272596	1.994343	1.4122121
1.2181318543555117	2.4751642	1.5732654
1.235659605939232	2.469203	1.5713698
1.253187386433982	3.7603228	1.9391552
1.270715196249994	6.088333	2.4674547
1.2882430357975057	11.35377	3.3695357
1.3057709054867608	16.23983	4.029867
1.3232988057280106	22.104458	4.7015376
1.3408267369315112	27.432613	5.237615
1.358354699507526	31.358809	5.5998936
1.3758826938663256	35.398914	5.9496984
1.3934107204181858	37.113842	6.092113
1.410938779573391	37.16581	6.096377
1.4284668717422309	37.822254	6.14998
1.4459949973350033	37.245766	6.102931
1.4635231567620117	37.570976	6.1295166
1.4810513504335687	36.92371	6.0764885
1.4985795787599925	36.068275	6.0056868
1.5161078421516088	35.71132	5.975895
1.5336361410187505	35.002647	5.9163036
1.5511644757717598	35.21778	5.9344573
1.5686928468209842	36.178196	6.0148315
1.58622125457678	36.711853	6.0590305
1.6037496994495108	37.565063	6.1290345
1.621278181849548	37.064095	6.088029
1.6388067021872719	37.5446	6.127365
1.6563352608730693	37.372242	6.113284
1.673863858317336	36.69474	6.057618
1.6913924949304753	36.074413	6.006198
1.7089211711228998	34.80261	5.8993735
1.7264498873050296	33.861767	5.8190866
1.7439786438872935	32.908802	5.7366195
1.7615074412801288	31.878477	5.646103
1.779036279893981	30.928938	5.561379
1.796565160139305	29.957443	5.473339
1.814094082426564	29.512503	5.432541
1.8316230471662298	29.192663	5.4030237
1.849152054768784	28.25232	5.315291
1.8666811056447168	27.555151	5.2493
1.8842102002045273	26.54654	5.1523333
1.901739338858724	26.313211	5.1296406
1.9192685220178245	25.68941	5.068472
1.9367977500923557	24.842098	4.9841847
1.9543270234928547	24.174654	4.916773
1.971856342629867	23.949999	4.8938737
1.9893857079139496	23.709215	4.8692107
2.006915119755667	23.445797	4.842086
2.0244445785655945	22.673332	4.7616525
2.0419740847543175	22.024176	4.692992
2.0595036387324317	21.501753	4.636998
2.0770332409105414	21.11334	4.5949254
2.094562891699263	20.753115	4.5555587
2.1120925915092217	20.224014	4.497112
2.129622340751053	19.79205	4.448826
2.1471521398354043	187.58092	13.696018
2.1646819891729323	443.89963	21.068926
2.182211889174303	440.14352	20.979597
2.1997418402501974	452.77368	21.278479
2.2172718428113023	432.85178	20.80509
2.234801897268317	320.78973	17.910604
2.2523320040319548	17.145273	4.140685
2.269862163512935	16.618422	4.07657
2.287392376121992	16.28744	4.03577
2.304922642269869	15.978042	3.9972544
2.322452962367322	15.834867	3.9793048
2.3399833368251164	15.663955	3.9577715
2.357513766054032	15.436664	3.928952
2.3750442504648586	15.083859	3.8837945
2.3925747904683963	14.692473	3.8330762
2.410105386475459	14.377099	3.7917144
2.4276360388968707	14.227287	3.7719076
2.445166748143469	14.145929	3.7611074
2.4626975146261025	13.989817	3.7402964
2.4802283387556323	13.707217	3.7023258
2.4977592209429305	13.290794	3.6456542
2.5152901615988825	12.985978	3.6036062
2.5328211611343865	12.845748	3.5840964
2.5503522199603523	12.746759	3.5702605
2.5678833384877024	12.691099	3.5624568
2.5854145171273712	12.490983	3.5342584
2.6029457562903064	12.1160965	3.4808183
2.620477056387469	11.830197	3.4395053
2.6380084178298326	11.65479	3.4139113
2.655539841028383	11.337303	3.3670912
2.673071326394119	11.157187	3.3402376
2.6906028743380523	11.068768	3.3269758
2.708134485271211	11.087898	3.3298495
2.7256661596046325	11.091172	3.330341
2.743197897749369	10.773002	3.2822251
2.760729700116486	10.513623	3.2424717
2.778261567117063	10.369643	3.2201931
2.795793499162193	10.340778	3.215708
2.8133254966629817	10.264813	3.2038748
2.830857560030551	10.041156	3.1687782
2.8483896896760337	9.81928	3.133573
2.865921886010578	9.625711	3.102533
2.883454149445347	9.437031	3.071975
2.9009864803915177	9.379899	3.0626621
2.91851887926028	9.293757	3.0485663
2.9360513464628384	9.275782	3.0456169
2.953583882410413	9.135216	3.0224519
2.9711164875142373	8.946771	2.9911153
2.9886491621855606	8.843325	2.9737728
3.0061819068356455	8.6969385	2.9490573
3.023714721875769	8.739438	2.956254
3.041247607717225	8.544195	2.9230456
3.0587805647713213	8.407656	2.8995957
3.0763135934493806	8.141815	2.8533866
3.0938466941627407	7.997295	2.8279488
3.1113798673227544	7.970089	2.8231347
3.1289131133407904	7.915022	2.813365
3.1464464326282315	7.8474383	2.801328
3.1639798255964786	7.6988673	2.7746832
3.1815132926569443	7.5573215	2.7490582
3.1990468342210603	7.59401	2.755723
3.216580450700272	7.5879116	2.7546165
3.2341141425060416	7.528543	2.743819
3.251647910049847	7.3843255	2.7174115
3.2691817537431813	7.194794	2.6823113
3.286715673997555	7.0408783	2.6534653
3.3042496712244938	6.953631	2.6369739
3.32178374583554	6.902003	2.6271663
3.339317898242251	6.896648	2.626147
3.3568521288562034	6.9340997	2.6332679
3.3743864380889876	6.899642	2.6267169
3.3919208263522127	6.8471255	2.6167014
3.4094552940575023	6.7816653	2.6041632
3.4269898416164972	6.6693587	2.5825102
3.444524469440858	6.5702744	2.5632546
3.4620591779422587	6.4924855	2.5480356
3.479593967532391	6.4409456	2.5379019
3.4971288386229658	6.370768	2.524038
3.5146637916257086	6.3393555	2.5178077
3.5321988269523628	6.3606176	2.5220265
3.5497339450146903	6.328931	2.5157366
3.5672691462244708	6.277339	2.505462
3.5848044309934988	6.199859	2.4899516
3.60233979973359	6.2294235	2.4958813
3.619875252856575	6.323488	2.5146546
3.6374107907743034	6.410178	2.531833
3.6549464138986427	6.360483	2.5219998
3.6724821226414788	6.3837414	2.5266068
3.690017917414714	6.325768	2.5151079
3.7075537986302702	6.3698378	2.5238538
3.7250897667000857	6.3018765	2.5103538
3.7426258220361235	6.4006233	2.5299454
3.7601619650503553	6.62467	2.5738435
3.777698196154779	7.1329684	2.6707618
3.7952345157614067	8.284423	2.8782673
3.8127709242822716	9.224143	3.0371275
3.830307422129425	11.6968	3.4200585
3.847844009714936	30.613827	5.532976
3.8653806874508954	98.01937	9.900474
3.882917455749409	97.00039	9.848878
3.900454315022606	96.5118	9.824042
3.917991265682631	41.02548	6.405113
3.9355283081416506	10.727074	3.275221
3.9530654428118495	8.644949	2.9402294
3.970602670105433	7.471514	2.733407
3.9881399904346244	6.5840235	2.5659351
4.005677404211669	6.4917583	2.5478928
4.023214911848827	6.4018	2.5301778
4.0407525137583855	6.374493	2.5247757
4.058290210352644	6.4011726	2.5300539
4.075828002043927	6.390037	2.5278523
4.0933658892445814	6.286706	2.5073304
4.110903872366966	6.230496	2.4960961
4.128441951823468	6.072671	2.464279
4.145980128026488	6.103805	2.470588
4.163518401388452	6.123142	2.4744983
4.181056772321807	6.1131225	2.472473
4.1985952412390155	6.0553436	2.4607608
4.216133808552567	6.076546	2.4650652
4.233672474674966	6.096737	2.4691572
4.251211240018741	6.373558	2.5245907
4.268750104996445	6.634637	2.575779
4.286289070020643	7.411922	2.7224846
4.303828135503928	8.898778	2.983082
4.3213673018589125	29.292196	5.4122267
4.3389065694982305	90.483376	9.512275
4.356445938834537	165.86609	12.878901
4.3739854102805085	171.0032	13.076819
4.391524984248844	171.88289	13.110412
4.409064661152262	136.07681	11.665196
4.426604441403504	96.54722	9.825845
4.444144325415337	75.79496	8.70603
4.461684313600543	21.798954	4.668935
4.47922440637193	22.38876	4.731676
4.496764604142329	20.689955	4.548621
4.5143049073245916	18.714937	4.3260765
4.531845316331589	16.45245	4.056162
4.5493858315762195	13.443182	3.6664946
4.566926453471405	11.20587	3.347517
4.584467182430081	9.1767845	3.0293207
4.602008018865218	8.042991	2.8360167
4.619548963189798	7.3643813	2.7137394
4.637090015816834	6.875397	2.622098
4.654631177159353	6.633547	2.5755672
4.672172447630417	6.402002	2.5302176
4.689713827643102	6.3063564	2.511246
4.7072553176105085	6.112962	2.4724405
4.724796917945764	5.9303718	2.4352355
4.742338629062015	5.7482038	2.3975413
4.759880451372434	5.6638618	2.3798869
4.777422385290215	5.67786	2.382826
4.794964431228581	5.6668253	2.3805094
4.812506589600768	5.641533	2.3751912
4.830048860820047	5.546655	2.3551338
4.847591245299709	5.518622	2.3491747
4.8651337434530655	5.5150766	2.3484201
4.882676355693457	5.528773	2.3513343
4.900219082434242	5.5648336	2.35899
4.917761924088813	5.577108	2.3615901
4.935304881070575	5.5304413	2.351689
4.952847953792969	5.4913845	2.3433704
4.970391142669449	5.4632072	2.3373504
4.9879344481135055	5.5009823	2.3454173
5.005477870538642	5.512469	2.3478646
5.023021410358394	5.5898147	2.3642788
5.040565067986324	5.5193324	2.349326
5.05810884383601	5.5142627	2.3482468
5.075652738321066	5.486566	2.342342
5.09319675185512	5.4558115	2.3357677
5.110740884851836	5.3761687	2.3186567
5.128285137724894	5.312538	2.3048944
5.145829510888007	5.277717	2.2973282
5.163374004754908	5.311516	2.3046727
5.1809186197393595	5.325455	2.3076947
5.198463356255145	5.2965727	2.3014283
5.216008214716077	5.3501916	2.3130481
5.233553195535998	5.396291	2.3229918
5.251098299128764	5.347779	2.3125265
5.268643525908272	5.263919	2.2943232
5.286188876288432	5.188684	2.2778683
5.3037343506831895	5.142211	2.2676444
5.32127994950651	5.1564975	2.2707922
5.3388256731723915	5.1421413	2.267629
5.356371522094851	5.0991464	2.258129
5.373917496687938	5.0657854	2.25073
5.391463597365729	5.1450167	2.2682629
5.40900982454232	5.2228923	2.2853649
5.426556178631843	5.2584567	2.2931325
5.444102660048449	5.191302	2.2784429
5.4616492692063225	5.170438	2.2738597
5.479196006519669	5.180441	2.2760582
5.496742872402727	5.1172276	2.262129
5.514289867269756	5.0730124	2.2523348
5.531836991535049	5.0734944	2.252442
5.549384245612924	5.0913124	2.2563937
5.566931629917724	5.231833	2.2873201
5.584479144863822	5.29437	2.3009498
5.6020267908656205	5.216235	2.283908
5.619574568337545	5.128307	2.2645764
5.637122477694054	5.0782456	2.2534964
5.654670519349629	5.101327	2.2586117
5.672218693718784	5.1405106	2.2672694
5.689767001216059	5.1247315	2.263787
5.707315442256021	5.1579804	2.2711189
5.724864017253266	5.209841	2.2825077
5.7424127266224225	5.2107735	2.282712
5.75996157077814	5.132783	2.2655647
5.777510550135105	5.124268	2.2636845
5.795059665108022	5.0950384	2.257219
5.812608916111639	5.1022677	2.25882
5.830158303560715	5.2321796	2.2873957
5.847707827870055	5.3775816	2.3189614
5.86525748945448	5.474796	2.3398283
5.8828072887288485	5.5809226	2.3623977
5.900357226108044	5.5559125	2.3570983
5.917907302006979	5.607861	2.3680923
5.9354575168406	6.303046	2.5105867
5.9530078710238765	6.9277425	2.6320605
5.970558364971812	7.4846916	2.7358165
5.988108999099438	7.881842	2.807462
6.005659773821818	8.407867	2.8996322
6.023210689554039	8.216527	2.8664484
6.040761746711227	8.629958	2.937679
6.058312945708531	7.972099	2.8234906
6.075864286961132	7.456141	2.7305934
6.093415770884244	6.753032	2.5986598
6.1109673978931065	6.1322417	2.4763362
6.128519168402993	5.5291843	2.3514218
6.146071082829204	5.3465924	2.31227
6.163623141587075	5.2464724	2.2905178
6.181175345091969	5.1663256	2.2729552
6.198727693759281	5.2375274	2.2885644
6.216280188004435	5.2537985	2.2921166
6.233832828242885	5.2631583	2.2941575
6.251385614890126	5.242913	2.2897408
6.268938548361669	5.2029386	2.2809951
6.286491629073067	5.128062	2.2645223
6.304044857439898	5.0706735	2.2518156
6.321598233877777	4.999254	2.235901
6.339151758802344	4.982682	2.2321923
6.356705432629277	4.964757	2.2281735
6.37425925577428	4.951481	2.2251923
6.391813228653095	4.9012113	2.213868
6.409367351681486	4.925582	2.2193651
6.426921625275259	4.9145193	2.2168715
6.44447604985025	4.994275	2.2347875
6.46203062582232	5.0357747	2.2440531
6.47958535360737	5.063475	2.2502167
6.497140233621328	5.006128	2.2374377
6.514695266280161	5.007108	2.2376568
6.532250451999859	5.051359	2.2475228
6.549805791196454	5.0101	2.2383254
6.567361284286002	4.9333663	2.2211182
6.584916931684597	4.961858	2.2275229
6.602472733808367	4.975635	2.2306132
6.6200286910734665	5.081763	2.2542765
6.637584803896092	5.0817437	2.2542722
6.655141072692462	5.0410566	2.2452297
6.672697497878842	5.0029	2.2367163
6.690254079871514	4.925315	2.219305
6.707810819086808	4.908756	2.2155712
6.725367715941078	4.9488378	2.2245984
6.742924770850719	4.9780016	2.2311435
6.760481984232151	4.9998217	2.2360282
6.778039356501836	4.9211125	2.218358
6.795596888076266	4.9518523	2.2252758
6.813154579371963	4.974354	2.230326
6.830712430805492	4.975885	2.2306693
6.84827044279344	4.9866076	2.2330713
6.865828615752445	4.919355	2.2179618
6.883386950099159	4.956165	2.2262444
6.900945446250287	4.941628	2.2229772
6.918504104622553	4.973772	2.2301955
6.936062925632727	4.9685307	2.22902
6.953621909697607	4.96382	2.2279632
6.971181057234028	5.053827	2.248072
6.988740368658859	5.0946064	2.2571235
7.006299844389007	5.2043486	2.2813041
7.023859484841407	5.281337	2.298116
7.041419290433036	5.362439	2.315694
7.058979261580902	5.4472647	2.3339376
7.0765393987020495	5.664864	2.3800974
7.094099702213559	5.9639688	2.442124
7.111660172532549	6.256024	2.5012045
7.129220810076164	6.5766535	2.5644987
7.146781615261595	7.172339	2.6781223
7.16434258850606	7.4771113	2.7344308
7.181903730226821	7.890621	2.809025
7.1994650408411704	7.96786	2.8227398
7.217026520766437	8.104267	2.8467994
7.234588170419983	8.323779	2.885096
7.252149990219215	8.432942	2.9039528
7.269711980581568	8.367162	2.8926046
7.2872741419245175	8.14644	2.8541968
7.304836474665574	7.747273	2.7833924
7.322398979222286	7.369498	2.7146819
7.339961656012233	7.114783	2.667355
7.357524505453039	6.814607	2.6104803
7.375087527962357	6.595235	2.568119
7.392650723957886	6.3294425	2.5158384
7.410214093857353	5.885001	2.4259021
7.427777638078528	5.566377	2.359317
7.445341357039213	5.368806	2.3170683
7.4629052511572525	5.282544	2.2983787
7.480469320850524	5.335095	2.3097825
7.498033566536948	5.317489	2.305968
7.5155979886344735	5.257507	2.2929254
7.5331625875610975	5.1811285	2.2762094
7.550727363734844	5.21662	2.283992
7.568292317573788	5.2541623	2.292196
7.585857449496025	5.281335	2.2981155
7.603422759919705	5.2451224	2.2902231
7.620988249263007	5.1903043	2.278224
7.638553917944147	5.1762524	2.275138
7.656119766381391	5.1390924	2.2669566
7.673685794993023	5.1105943	2.2606623
7.691252004197388	5.1195135	2.2626343
7.70881839441285	5.2095366	2.282441
7.726384966057826	5.2981086	2.301762
7.743951719550762	5.3417234	2.3112168
7.761518655310149	5.3881593	2.321241
7.779085773754511	5.355143	2.3141181
7.796653075302419	5.329918	2.3086615
7.814220560372475	5.275114	2.2967618
7.831788229383323	5.286414	2.2992203
7.8493560827536495	5.3064647	2.3035765
7.866924120902174	5.3433595	2.311571
7.884492344247663	5.382	2.3199139
7.9020607532089135	5.3744183	2.3182793
7.919629348204771	5.342231	2.3113267
7.937198129654115	5.364263	2.316088
7.954767097975865	5.3436	2.3116229
7.972336253588986	5.348678	2.312721
7.989905596912472	5.355295	2.314151
8.007475128365371	5.350056	2.3130188
8.025044848366756	5.409865	2.3259115
8.042614757335754	5.568989	2.3598704
8.060184855691523	5.6758103	2.382396
8.07775514385327	5.7837443	2.4049416
8.095325622240228	5.8003974	2.4084015
8.112896291271687	5.8582807	2.4203885
8.130467151366968	6.0181723	2.4531963
8.148038202945436	6.0104575	2.4516234
8.165609446426497	5.9383917	2.4368815
8.183180882229594	5.8840976	2.425716
8.200752510774217	5.8705525	2.4229224
8.218324332479893	5.848512	2.4183698
8.235896347766193	5.946767	2.4385993
8.253468557052724	5.9952397	2.4485178
8.27104096075914	6.0627384	2.4622629
8.288613559305137	6.0779257	2.465345
8.306186353110448	6.1055765	2.4709466
8.32375934259485	6.160308	2.4819968
8.341332528178162	6.15895	2.481723
8.358905910280246	6.163792	2.4826984
8.376479489321003	6.1798186	2.485924
8.394053265720377	6.2335563	2.496709
8.411627239898356	6.1991916	2.4898176
8.42920141227497	6.1842017	2.4868054
8.44677578327029	6.2208824	2.4941697
8.464350353304427	6.2241716	2.494829
8.48192512279754	6.201051	2.490191
8.499500092169827	6.1123166	2.47231
8.51707526184153	6.066487	2.463024
8.534650632232934	6.07986	2.4657373
8.552226203764365	6.1398625	2.4778745
8.569801976856192	6.1799383	2.485948
8.587377951928834	6.2513657	2.5002732
8.60495412940274	6.295006	2.508985
8.622530509698416	6.4134536	2.5324798
8.6401070932364	6.5868974	2.5664952
8.657683880437283	6.641223	2.5770571
8.675260871721695	6.769807	2.6018853
8.692838067510303	6.8084726	2.609305
8.710415468223834	6.8749084	2.6220047
8.727993074283043	7.0236692	2.6502206
8.745570886108737	7.080209	2.6608663
8.763148904121765	7.1819835	2.6799223
8.78072712874302	7.217879	2.686611
8.798305560393441	7.378224	2.7162886
8.815884199494006	7.5504103	2.747801
8.833463046465745	7.6829658	2.7718163
8.851042101729728	7.7848835	2.7901404
8.86862136570707	8.068212	2.8404598
8.886200838818924	8.213308	2.865887
8.903780521486505	8.311901	2.8830369
8.921360414131055	8.414164	2.9007177
8.938940517173874	8.597573	2.9321618
8.956520831036297	8.749682	2.957986
8.97410135613971	8.961158	2.9935193
8.99168209290554	9.102113	3.0169709
9.009263041755265	9.362479	3.0598168
9.026844203110405	9.603148	3.0988948
9.044425577392525	9.8238125	3.1342962
9.062007165023239	9.829013	3.1351256
9.079588966424197	10.112182	3.1799657
9.097170982017108	10.149851	3.185883
9.11475321222372	11.293021	3.3605092
9.132335657465825	12.288981	3.5055645
9.149918318165264	12.483917	3.5332587
9.167501194743924	13.088222	3.6177647
9.18508428762374	12.697524	3.5633585
9.202667597226693	12.627627	3.5535374
9.220251123974803	12.367579	3.516757
9.237834868290143	12.067344	3.4738083
9.255418830594836	11.819713	3.437981
9.273003011311046	11.240317	3.3526583
9.290587410860985	11.002238	3.3169622
9.308172029666911	10.384964	3.2225711
9.32575686815113	10.088978	3.176315
9.343341926735997	8.809174	2.9680252
9.360927205843916	8.597061	2.9320745
9.378512705897327	8.430412	2.9035172
9.396098427318728	8.232147	2.8691719
9.413684370530664	8.098647	2.8458123
9.431270535955722	7.955491	2.820548
9.448856924016539	7.8862243	2.8082423
9.466443535135806	7.7395024	2.781996
9.484030369736251	7.7667394	2.786887
9.501617428240658	7.7416186	2.7823765
9.519204711071852	7.7694774	2.7873783
9.536792218652714	7.7067766	2.7761083
9.55437995140617	7.7405148	2.7821782
9.571967909755191	7.803451	2.7934659
9.589556094122802	7.8834376	2.807746
9.60714450493207	7.889778	2.8088748
9.624733142606116	7.881232	2.8073533
9.642322007568108	7.8513284	2.8020222
9.659911100241267	7.945626	2.8187985
9.677500421048851	7.9570746	2.8208287
9.695089970414175	8.015326	2.831135
9.712679748760609	8.008171	2.8298712
9.730269756511557	8.076229	2.8418708
9.747859994090492	8.047773	2.8368597
9.765450461920915	8.059706	2.838962
9.78304116042639	8.05132	2.8374848
9.800632090030527	8.153287	2.855396
9.81822325115699	8.20641	2.8646834
9.835814644229481	8.245905	2.8715684
9.853406269671762	8.261503	2.874283
9.870998127907646	8.313658	2.8833413
9.888590219360985	8.376082	2.8941462
9.906182544455698	8.387689	2.8961506
9.923775103615734	8.364187	2.8920906
9.941367897265108	8.354995	2.8905008
9.958960925827878	8.364135	2.8920815
9.97655418972816	8.381705	2.8951175
9.994147689390106	8.377401	2.8943741
10.011741425237934	8.355096	2.8905182
10.029335397695904	8.342275	2.8882997
10.04692960718833	8.318161	2.8841221
10.06452405413958	8.302802	2.8814583
10.082118738974064	8.32815	2.8858533
10.099713662116246	8.331388	2.8864145
10.117308823990651	8.349698	2.8895843
10.134904225021844	8.339728	2.8878589
10.152499865634445	8.275914	2.8767889
10.170095746253125	8.225327	2.867983
10.18769186730261	8.127029	2.8507946
10.205288229207675	8.1421795	2.8534505
10.222884832393145	8.127328	2.8508468
10.2404816772839	8.116015	2.8488622
10.258078764304868	8.084541	2.8433328
10.275676093881035	8.069867	2.8407512
10.293273666437438	8.105963	2.8470972
10.310871482399158	8.07558	2.8417563
10.32846954219134	8.018594	2.8317122
10.346067846239173	7.999228	2.8282907
10.363666394967908	8.015284	2.8311276
10.38126518880283	8.078451	2.8422616
10.398864228169298	8.233315	2.8693755
10.416463513492713	8.24848	2.8720167
10.434063045198531	8.25346	2.8728836
10.451662823712262	8.19679	2.8630037
10.469262849459467	8.1768465	2.8595185
10.486863122865758	8.086682	2.8437092
10.504463644356806	7.992727	2.827141
10.522064414358338	7.9388914	2.8176038
10.539665433296118	7.9648943	2.8222144
10.557266701595987	7.8993864	2.8105848
10.574868219683818	7.851405	2.8020358
10.592469987985552	7.719787	2.7784505
10.610072006927185	7.658998	2.7674894
10.627674276934751	7.5464005	2.7470713
10.64527679843435	7.371625	2.7150736
10.662879571852143	7.272568	2.69677
10.680482597614331	7.19731	2.6827803
10.698085876147173	7.1354446	2.6712253
10.715689407876988	6.969829	2.6400435
10.733293193230146	6.824752	2.6124227
10.750897232633072	6.7219806	2.5926783
10.76850152651225	6.642515	2.5773077
10.786106075294207	6.6649613	2.5816586
10.803710879405534	6.6195707	2.5728526
10.821315939272877	6.567212	2.562657
10.83892125532294	6.4098897	2.531776
10.856526827982472	6.305475	2.5110705
10.874132657678285	6.294421	2.5088685
10.891738744837243	6.265359	2.5030699
10.909345089886271	6.254509	2.5009017
10.926951693252343	6.169362	2.48382
10.944558555362494	6.1252685	2.474928
10.96216567664381	5.979928	2.445389
10.979773057523436	5.8976684	2.4285116
10.997380698428573	5.7873564	2.4056926
11.014988599786477	5.739861	2.3958006
11.032596762024461	5.6875625	2.384861
11.050205185569892	5.654996	2.3780236
11.067813870850198	5.6151457	2.3696299
11.085422818292859	5.5930185	2.3649564
11.10303202832541	5.5237803	2.3502724
11.120641501375454	5.4699454	2.3387914
11.138251237870636	5.3824844	2.3200183
11.155861238238671	5.308545	2.304028
11.173471502907317	5.226004	2.2860456
11.191082032304402	5.2003784	2.280434
11.208692826857805	5.1412654	2.2674358
11.226303886995465	5.110067	2.2605457
11.243915213145371	5.0329385	2.243421
11.261526805735578	4.978052	2.231155
11.279138665194196	4.918042	2.217666
11.296750791949393	4.816649	2.1946864
11.314363186429393	4.7478895	2.1789653
11.331975849062479	4.6925616	2.166232
11.34958878027699	4.5918484	2.14286
11.36720198050133	4.5890274	2.1422014
11.384815450163948	4.5603924	2.1355076
11.402429189693366	4.548822	2.1327968
11.420043199518153	4.4941726	2.1199465
11.437657480066942	63.459747	7.9661627
11.455272031768422	85.19124	9.22991
11.472886855051353	107.55701	10.37097
11.490501950344528	99.16076	9.95795
11.508117318076819	84.47984	9.191292
11.52573295867715	45.841454	6.770632
11.543348872574514	4.0693903	2.017273
11.560965060197946	4.039905	2.0099516
11.57858152197655	3.9993136	1.9998283
11.59619825833949	4.009916	2.0024774
11.613815269715985	4.034038	2.0084915
11.631432556535323	38.579823	6.2112656
11.649050119226837	83.095055	9.115649
11.666667958219929	93.48119	9.668568
11.68428607394406	107.772316	10.381345
11.701904466828756	82.56421	9.086485
11.719523137303586	65.42689	8.088689
11.737142085798196	4.6299806	2.151739
11.754761312742286	3.760455	1.9391892
11.772380818565619	3.6935573	1.921863
11.790000603698015	3.6801949	1.9183834
11.80762066856935	3.6287737	1.904934
11.825241013609572	3.597936	1.8968226
11.842861639248683	3.5556173	1.8856344
11.860482545916748	3.5089624	1.8732225
11.878103734043883	3.523421	1.8770778
11.895725204060282	3.5156171	1.8749979
11.91334695639619	3.478005	1.864941
11.930968991481919	3.4320438	1.8525776
11.948591309747824	3.3561554	1.8319813
11.966213911624347	3.325883	1.8237003
11.98383679754198	3.2413256	1.8003682
12.001459967931268	3.2426515	1.8007363
12.019083423222835	3.2348533	1.7985698
12.036707163847352	3.247343	1.8020386
12.05433119023556	3.2296658	1.7971271
12.071955502818259	3.1812463	1.7836049
12.089580102026313	3.156003	1.7765143
12.107204988290643	3.17128	1.7808088
12.12483016204224	3.1921268	1.7866524
12.142455623712152	3.2093544	1.7914671
12.16008137373149	3.1883786	1.7856032
12.177707412531431	3.1568468	1.7767518
12.19533374054321	3.1206622	1.7665396
12.212960358198126	3.0691164	1.7518893
12.230587265927545	3.0258567	1.739499
12.248214464162889	3.0293145	1.7404926
12.265841953335649	3.0366406	1.7425959
12.283469733877375	3.0494406	1.7462648
12.301097806219685	3.039429	1.7433958
12.31872617079425	3.0157087	1.7365795
12.336354828032825	2.9570277	1.719601
12.353983778367205	2.9259963	1.7105544
12.371613022229262	2.8831723	1.6979907
12.389242560050928	2.879903	1.6970277
12.406872392264201	2.8860345	1.6988332
12.424502519301143	2.9000518	1.7029538
12.442132941593874	2.8922014	1.7006474
12.459763659574586	2.875281	1.6956654
12.477394673675532	2.871696	1.694608
12.49502598432903	2.8904018	1.7001182
12.51265759196746	2.9034407	1.7039486
12.530289497023267	2.8691244	1.693849
12.547921699928967	2.8373058	1.6844304
12.565554201117134	2.8094122	1.6761302
12.583187001020404	2.7673233	1.6635274
12.600820100071486	2.7381024	1.6547213
12.618453498703152	2.7411044	1.6556281
12.636087197348235	2.766229	1.6631984
12.65372119643964	2.8060398	1.6751238
12.671355496410326	2.8431146	1.6861538
12.68899009769333	2.8435845	1.6862931
12.706625000721749	2.8312764	1.6826397
12.724260205928752	2.8474288	1.6874326
12.741895713747551	2.9229186	1.7096546
12.759531524611454	2.9809823	1.7265521
12.777167638953818	3.0446892	1.7449038
12.794804057208072	3.04617	1.7453281
12.812440779807702	3.0565093	1.7482876
12.830077807186271	3.2372835	1.7992452
12.847715139777405	3.288181	1.8133342
12.865352778014795	3.5012178	1.8711542
12.882990722332197	3.5861733	1.8937194
12.90062897316344	3.6552255	1.9118644
12.918267530942412	3.7893343	1.9466213
12.935906396103071	3.6911764	1.9212434
12.953545569079449	3.8593638	1.9645263
12.971185050305628	3.6277058	1.9046537
12.988824840215775	3.6242087	1.9037354
13.006464939244115	3.6142478	1.9011176
13.024105347824943	3.476202	1.8644576
13.041746066392617	3.608113	1.8995034
13.05938709538157	3.4340944	1.8531309
13.077028435226296	3.4696126	1.8626896
13.094670086361363	3.3044987	1.817828
13.112312049221401	3.1676385	1.7797861
13.129954324241112	3.0506177	1.7466017
13.147596911855258	2.861491	1.6915942
13.165239812498685	2.8731434	1.695035
13.182883026606293	2.795972	1.672116
13.200526554613058	2.7478447	1.6576624
13.218170396954017	2.7228498	1.650106
13.235814554064284	2.719153	1.6489854
13.253459026379034	2.6962326	1.6420208
13.271103814333523	2.6564915	1.6298747
13.288748918363058	2.6823804	1.6377975
13.306394338903031	2.7226787	1.6500541
13.32404007638889	2.7082539	1.6456773
13.341686131256164	2.7249439	1.6507404
13.359332503940449	2.6860387	1.6389139
13.376979194877402	2.6532123	1.6288685
13.394626204502751	2.6749122	1.6355159
13.412273533252307	2.698766	1.6427921
13.429921181561937	2.7095776	1.6460794
13.447569149867581	2.6961892	1.6420077
13.465217438605247	2.6947644	1.6415738
13.482866048211022	2.6521432	1.6285402
13.500514979121052	2.6748261	1.6354896
13.518164231771568	2.648472	1.6274127
13.535813806598844	2.6666331	1.6329829
13.553463704039254	2.6256466	1.6203847
13.571113924529229	2.592805	1.6102189
13.588764468505275	2.5809848	1.6065444
13.606415336403956	2.6255188	1.6203452
13.624066528661917	2.6970417	1.6422672
13.641718045715882	2.7625263	1.6620849
13.659369888002635	2.7988513	1.6729767
13.67702205595903	2.857082	1.6902905
13.694674550021993	2.96984	1.7233224
13.712327370628532	3.055166	1.7479033
13.729980518215713	3.1606863	1.7778319
13.747633993220681	3.2553291	1.8042531
13.765287796080647	3.326371	1.8238342
13.7829419272329	3.3486204	1.8299236
13.800596387114801	3.3336842	1.825838
13.818251176163775	3.3506665	1.8304826
13.835906294817324	3.395742	1.8427539
13.853561743513023	3.416244	1.8483084
13.871217522688525	3.4290535	1.8517704
13.888873632781538	3.479242	1.8652726
13.906530074229858	3.548642	1.8837839
13.92418684747135	3.5806522	1.8922611
13.941843952943948	3.5363123	1.8805085
13.959501391085665	3.4515245	1.8578279
13.977159162334578	3.3891687	1.8409696
13.994817267128846	3.3532276	1.831182
14.012475705906693	3.3042145	1.8177499
14.030134479106424	3.2360864	1.7989125
14.047793587166414	3.156584	1.7766778
14.065453030525108	3.062343	1.749955
14.083112809621026	3.001317	1.7324309
14.100772924892766	2.9434512	1.7156489
14.118433376778997	2.9383485	1.7141612
14.136094165718458	2.8950448	1.7014831
14.153755292149969	2.8147767	1.6777296
14.171416756512416	2.7486086	1.6578928
14.189078559244768	2.664848	1.6324363
14.20674070078606	2.6203797	1.6187587
14.224403181575408	2.5878212	1.6086706
14.242066002051999	2.5766602	1.6051979
14.259729162655093	2.5112596	1.5846955
14.277392663824022	2.4619694	1.5690664
14.295056505998208	2.4246678	1.5571345
14.312720689617128	2.4052203	1.5508772
14.330385215120348	2.433832	1.5600743
14.348050082947497	2.4353166	1.5605501
14.3657152935383	2.4463804	1.564091
14.383380847332528	2.4183013	1.5550889
14.401046744770051	2.3959174	1.5478752
14.418712986290798	2.3995337	1.5490428
14.436379572334793	2.3918095	1.5465477
14.454046503342123	2.4135807	1.5535703
14.471713779752946	2.3861475	1.544716
14.489381402007504	2.3932402	1.5470101
14.507049370546113	2.3723876	1.5402557
14.524717685809168	2.38304	1.5437098
14.542386348237134	2.3741355	1.540823
14.560055358270553	2.390232	1.5460376
14.577724716350051	2.410683	1.5526375
14.595394422916325	2.4240918	1.5569495
14.61306447841015	2.444842	1.5635991
14.63073488327237	2.44795	1.5645926
14.648405637943917	2.4655118	1.5701948
14.6660767428658	2.4280844	1.5582311
14.683748198479094	2.4590483	1.5681353
14.701420005224954	2.5114076	1.5847421
14.719092163544628	2.6166973	1.6176208
14.73676467387942	2.7013652	1.643583
14.754437536670727	2.6879888	1.6395087
14.772110752360014	2.6613038	1.6313503
14.78978432138882	2.62985	1.6216812
14.807458244198777	2.6566932	1.6299366
14.82513252123159	2.647879	1.6272304
14.842807152929028	2.6737783	1.6351691
14.860482139732962	2.631003	1.6220367
14.87815748208531	2.6412675	1.6251976
14.8958331804281	2.6606596	1.6311529
14.91350923520342	2.689222	1.6398848
14.931185646853438	2.7565117	1.6602746
14.948862415820408	2.717704	1.6485461
14.966539542546656	2.7309604	1.6525618
14.98421702747459	2.6542804	1.6291963
15.001894871046696	2.6393025	1.624593
15.019573073705542	2.6146812	1.6169976
15.037251635893766	2.650233	1.6279536
15.054930558054092	2.7185197	1.6487935
15.072609840629323	2.7639704	1.6625193
15.090289484062351	2.862372	1.6918546
15.107969488796124	3.1254163	1.7678847
15.125649855273691	3.5210564	1.8764478
15.14333058393817	3.9947705	1.9986922
15.161011675232768	4.928733	2.220075
15.17869312960076	6.238621	2.497723
15.196374947485506	8.063885	2.839698
15.214057129330447	11.066109	3.3265762
15.231739675579114	15.861876	3.982697
15.249422586675102	21.104193	4.59393
15.267105863062092	24.459257	4.94563
15.284789505183847	24.882254	4.9882116
15.302473513484218	22.8926	4.7846212
15.320157888407127	19.430727	4.40803
15.337842630396578	15.228438	3.902363
15.355527739896656	11.939797	3.4554012
15.37321321735153	9.28236	3.0466967
15.39089906320545	6.720163	2.5923276
15.408585277902748	4.975308	2.2305398
15.42627186188783	3.7692585	1.9414579
15.443958815605198	3.2250977	1.7958556
15.461646139499424	2.9136724	1.7069483
15.479333834015168	2.768346	1.6638347
15.497021899597165	2.7094564	1.6460427
15.514710336690234	2.6718707	1.6345857
15.53239914573928	2.6152864	1.6171848
15.550088327189297	2.542363	1.5944788
15.567777881485336	2.5099247	1.5842742
15.58546780907256	2.5029135	1.5820599
15.6031581103962	2.486468	1.5768539
15.620848785901568	2.4641259	1.5697534
15.638539836034063	2.432208	1.5595537
15.656231261239173	2.4198422	1.5555842
15.673923061962451	2.416618	1.5545475
15.691615238649552	2.412005	1.553063
15.709307791746202	2.4168844	1.5546333
15.727000721698221	2.400703	1.5494202
15.744694028951498	2.3920114	1.5466129
15.76238771395202	2.3975878	1.5484146
15.780081777145844	2.3902178	1.5460329
15.797776218979125	2.3911538	1.5463356
15.815471039898094	2.3544111	1.534409
15.833166240349064	2.3646853	1.5377533
15.850861820778437	2.3584764	1.5357332
15.868557781632699	2.4033093	1.550261
15.886254123358412	2.393505	1.5470957
15.903950846402232	2.4121058	1.5530956
15.921647951210897	2.412966	1.5533725
15.939345438231225	2.4252968	1.5573364
15.957043307910133	2.394334	1.5473636
15.974741560694602	2.409507	1.5522587
15.992440197031714	2.43316	1.559859
16.01013921736862	2.4553518	1.5669563
16.02783862215259	2.4349968	1.5604477
16.045538411830933	2.4504564	1.5653933
16.06323858685107	2.4393115	1.5618296
16.080939147660512	2.4353685	1.5605668
16.09864009470684	2.4012063	1.5495826
16.11634142843774	2.3901389	1.5460074
16.134043149300954	2.4042168	1.5505537
16.15174525774433	2.4262502	1.5576426
16.169447754215817	2.4029675	1.5501508
16.18715063916342	2.4091032	1.5521286
16.204853913035244	2.430967	1.559156
16.222557576279478	2.467694	1.5708896
16.240261629344403	22.422464	4.7352366
16.257966072678386	42.954044	6.5539336
16.275670906729868	38.08121	6.1709976
16.293376131947387	2.560746	1.6002331
16.31108174877957	2.600661	1.6126565
16.328787757675133	2.5822496	1.606938
16.34649415908287	2.5928175	1.6102228
16.364200953451657	2.566742	1.6021055
16.38190814123048	2.5693889	1.6029314
16.39961572286839	2.5755997	1.6048675
16.41732369881455	2.6325037	1.6224992
16.43503206951817	2.6910222	1.6404335
16.45274083542859	2.7199273	1.6492202
16.47044999699522	2.7776754	1.666636
16.488159554667558	2.8359325	1.6840227
16.505869508895184	2.891381	1.7004062
16.523579860127786	2.92446	1.7101053
16.541290608815117	2.9620411	1.7210581
16.559001755407035	3.0115736	1.7353886
16.57671330035348	3.0502322	1.7464914
16.59442524410448	3.105926	1.7623638
16.61213758711015	3.1662917	1.7794077
16.629850329820705	3.2460928	1.8016917
16.647563472686436	3.344074	1.828681
16.665277016157724	3.408208	1.8461332
16.682990960685053	3.4097993	1.8465642
16.70070530671898	3.3967767	1.8430346
16.718420054710155	3.44085	1.8549528
16.736135205109335	3.5341196	1.8799254
16.753850758367335	3.5763888	1.8911343
16.771566714935087	3.610077	1.9000202
16.789283075263597	3.6512823	1.9108329
16.80699983980398	3.6999886	1.9235355
16.82471700900741	3.8127317	1.9526218
16.84243458332518	3.8858411	1.9712538
16.860152563208665	3.9393904	1.9847897
16.87787094910932	3.9578018	1.9894224
16.89558974147871	4.0659056	2.0164092
16.913308940768466	4.1777015	2.0439427
16.931028547430333	4.262784	2.064651
16.94874856191613	4.318376	2.0780702
16.966468984677785	4.3994937	2.097497
16.98418981616729	4.442658	2.1077614
17.00191105683676	4.4878974	2.118466
17.019632707138374	4.521992	2.1264977
17.03735476752442	4.5901184	2.142456
17.05507723844728	4.582104	2.140585
17.072800120359403	4.6219115	2.1498632
17.090523413713353	4.6847	2.1644168
17.108247118961785	4.6703653	2.1611028
17.125971236557437	4.6007	2.1449242
17.143695766953133	4.5832434	2.140851
17.161420710601806	4.654747	2.1574862
17.179146067956477	4.7030687	2.1686559
17.19687183947025	4.7349153	2.175986
17.21459802559634	4.680084	2.1633503
17.232324626788028	4.6190114	2.1491885
17.25005164349871	4.6070795	2.146411
17.267779076181863	4.626578	2.150948
17.285506925291074	4.6204143	2.149515
17.30323519127999	4.568747	2.1374629
17.320963874602384	4.520016	2.126033
17.33869297571211	4.464862	2.113022
17.356422495063114	4.476575	2.1157918
17.37415243310944	4.488167	2.1185293
17.391882790305218	4.476155	2.1156926
17.40961356710468	4.4415255	2.1074927
17.42734476396215	4.4533753	2.1103022
17.445076381332044	4.495375	2.12023
17.462808419668868	4.6051464	2.1459606
17.48054087942723	4.710401	2.1703458
17.498273761061835	4.933709	2.2211955
17.51600706502747	5.282767	2.298427
17.533740791779024	5.9659123	2.4425218
17.551474941771485	7.5049114	2.7395093
17.56920951545993	8.720369	2.9530272
17.586944513299528	11.033811	3.321718
17.60467993574556	12.756	3.5715542
17.622415783253373	14.611069	3.8224428
17.64015205627843	16.091312	4.011398
17.657888755276293	17.27768	4.156643
17.675625880702604	17.826397	4.2221317
17.69336343301311	17.623482	4.198033
17.71110141266366	16.759895	4.093885
17.728839820110178	15.622385	3.9525163
17.746578655808705	14.534571	3.8124232
17.764317920215372	12.910018	3.5930514
17.7820576137864	11.283401	3.3590772
17.79979773697811	9.290488	3.0480301
17.81753829024692	7.3922772	2.7188742
17.835279274049356	5.7949023	2.4072604
17.85302068884201	4.784736	2.187404
17.870762535081607	4.156722	2.038804
17.888504813224934	3.854478	1.9632825
17.90624752372891	3.6798468	1.9182926
17.923990667050536	3.6105678	1.9001495
17.941734243646895	3.556764	1.8859384
17.959478253975185	3.5144358	1.8746829
17.9772226984927	3.4335473	1.8529834
17.994967577656833	3.3656683	1.8345758
18.01271289192506	3.325334	1.8235499
18.030458641754965	3.3195434	1.8219614
18.04820482760425	3.3193262	1.8219018
18.06595144993067	3.333133	1.8256869
18.083698509192125	3.348585	1.8299139
18.101446005846576	3.3063664	1.8183417
18.119193940352105	3.289414	1.8136741
18.136942313166887	3.2292688	1.7970166
18.1546911247492	3.2306874	1.7974113
18.1724403755574	3.1915686	1.7864962
18.19019006604997	3.1886127	1.7856687
18.207940196685467	3.1362073	1.770934
18.225690767922575	3.0970788	1.7598519
18.243441780220046	3.079101	1.7547368
18.261193234036764	3.046564	1.745441
18.278945129831676	3.0374162	1.7428185
18.29669746806386	3.0588884	1.7489678
18.314450249192483	3.0672	1.7513423
18.3322034736768	3.0633824	1.7502521
18.349957141976184	3.047919	1.745829
18.3677112545501	3.027812	1.7400609
18.385465811858108	3.0483663	1.7459571
18.403220814359884	3.0808656	1.7552395
18.420976262515172	3.1271646	1.7683791
18.43873215678387	3.1667237	1.7795291
18.456488497625923	3.1682527	1.7799586
18.474245285501407	3.2053854	1.790359
18.492002520870486	3.2506135	1.8029457
18.50976020419343	3.3479736	1.8297468
18.527518335930615	3.7015917	1.9239521
18.545276916542516	4.2636104	2.0648513
18.563035946489688	4.43089	2.104968
18.580795426232832	4.8411975	2.200272
18.598555356232698	4.701955	2.168399
18.616315736950185	5.023649	2.24135
18.63407656884626	4.6942	2.1666102
18.65183785238201	4.8784385	2.2087188
18.669599588018617	4.6099253	2.1470737
18.68736177621737	4.6028266	2.1454198
18.705124417439652	4.5921865	2.1429389
18.72288751214696	4.42839	2.104374
18.740651060800886	4.5549645	2.1342363
18.758415063863115	4.2815776	2.0691974
18.77617952179546	4.408748	2.099702
18.793944435059814	4.1668935	2.041297
18.811709804118184	4.2209272	2.0544896
18.829475629432675	4.236131	2.0581863
18.8472419114655	4.0291443	2.007273
18.86500865067897	4.067707	2.0168557
18.88277584753551	3.7264924	1.9304125
18.90054350249763	3.7501404	1.936528
18.918311616027957	3.4351914	1.8534269
18.936080188589226	3.3049684	1.8179572
18.953849220644265	3.034631	1.7420192
18.971618712656007	2.9063184	1.7047927
18.9893886650875	2.8560593	1.689988
19.007159078401887	7.998269	2.8281212
19.024929953062408	32.889984	5.734979
19.042701289532435	32.82986	5.729735
19.060473088275405	25.383976	5.0382514
19.07824534975489	2.6386836	1.6244025
19.096018074434568	2.5899272	1.609325
19.113791262778197	2.5513177	1.5972844
19.13156491524966	2.5318966	1.5911934
19.149339032312945	2.5238376	1.588659
19.167113614432136	2.520195	1.5875123
19.184888662071433	2.5296912	1.5905004
19.202664175695123	2.536809	1.5927364
19.220440155767623	2.5337605	1.591779
19.238216602753447	2.5302844	1.5906868
19.2559935171172	2.49901	1.5808258
19.27377089932361	2.494206	1.5793055
19.291548749837514	2.4783616	1.5742813
19.309327069123835	2.4756665	1.573425
19.32710585764763	2.513272	1.5853302
19.344885115874032	2.5262158	1.5894073
19.362664844268313	2.5176294	1.5867039
19.380445043295822	2.5022058	1.5818362
19.39822571342203	2.5123758	1.5850476
19.41600685511252	2.5092776	1.58407
19.43378846883297	2.462908	1.5693655
19.451570555049173	2.4460793	1.5639946
19.469353114227037	2.463774	1.5696414
19.48713614683254	2.497325	1.5802927
19.50491965333182	2.4630675	1.5694163
19.52270363419109	2.4773042	1.5739454
19.540488089876686	2.481125	1.5751587
19.55827302085503	2.513605	1.5854353
19.576058427592674	2.5283666	1.5900838
19.593844310556282	2.5246305	1.5889086
19.611630670212598	2.4773877	1.573972
19.629417507028506	2.4570856	1.5675094
19.64720482147098	2.462859	1.5693499
19.6649926140071	2.4980755	1.5805302
19.682780885104084	2.505831	1.5829817
19.70056963522921	2.5131323	1.5852861
19.718358864849908	2.4957416	1.5797917
19.7361485744337	2.5041692	1.5824567
19.753938764448215	2.4980645	1.5805267
19.771729435361202	2.5345771	1.5920355
19.789520587640506	2.534546	1.5920258
19.807312221754092	2.513064	1.5852646
19.825104338170043	2.5009143	1.5814279
19.842896937356517	2.506992	1.5833484
19.860690019781824	2.5142503	1.5856388
19.87848358591436	2.5061476	1.5830817
19.896277636222635	2.4866192	1.5769018
19.914072171175278	2.5057242	1.582948
19.931867191241015	2.4989316	1.580801
19.94966269688869	2.4969976	1.5801891
19.967458688587264	2.480785	1.5750507
19.985255166805807	2.4680521	1.5710036
20.00305213201348	2.4338522	1.5600809
20.020849584679578	2.398751	1.5487902
20.038647525273507	2.4253855	1.557365
20.05644595426477	2.4720848	1.5722865
20.07424487212299	2.5239577	1.5886968
20.092044279317903	2.4670076	1.5706711
20.109844176319353	2.4277513	1.5581243
20.127644563597304	2.4103138	1.5525186
20.145445441621817	2.410489	1.552575
20.16324681086307	2.4111216	1.5527787
20.181048671791373	2.4086921	1.5519962
20.198851024877122	2.3943064	1.5473547
20.216653870590836	2.3891752	1.5456957
20.234457209403146	2.3917816	1.5465386
20.252261041784802	2.3752768	1.5411932
20.270065368206662	2.3849967	1.5443435
20.287870189139685	2.3945823	1.5474437
20.305675505054968	2.3705473	1.5396582
20.323481316423702	2.3391857	1.5294397
20.341287623717207	2.3177536	1.5224171
20.359094427406884	2.3227992	1.5240732
20.376901727964288	2.328112	1.5258151
20.39470952586107	2.3371587	1.5287769
20.41251782156899	2.3233705	1.5242606
20.430326615559935	2.3441334	1.5310563
20.448135908305886	2.34696	1.5319791
20.465945700278965	2.3531084	1.5339845
20.483755991951384	2.3592808	1.535995
20.50156678379548	2.350918	1.5332704
20.519378076283708	2.3359416	1.5283787
20.537189869888635	2.324272	1.5245563
20.55500216508294	2.3490968	1.5326763
20.572814962339415	2.3240292	1.5244766
20.59062826213098	2.3349402	1.5280511
20.60844206493066	2.3078828	1.5191717
20.626256371211593	2.3214126	1.5236182
20.644071181447032	2.3217385	1.5237252
20.66188649611036	2.3549674	1.5345902
20.67970231567506	2.32073	1.5233942
20.697518640614742	2.2898593	1.513228
20.715335471403122	2.288498	1.5127782
20.73315280851404	2.307753	1.519129
20.750970652421447	2.2931514	1.5143155
20.768789003599412	2.3043823	1.5180192
20.786607862522136	2.3137739	1.5211095
20.8044272296639	2.2969892	1.5155821
20.82224710549913	2.2545292	1.501509
20.84006749050237	2.2595026	1.5031642
20.857888385148268	3.8214025	1.9548408
20.8757097899116	45.93573	6.7775903
20.893531705267254	64.786674	8.049017
20.911354131690224	83.84529	9.156708
20.92917706965566	69.0864	8.311823
20.94700051963877	50.141632	7.0810757
20.96482448211493	29.367435	5.419173
20.982648957559622	4.1366587	2.0338778
21.00047394644843	2.2721317	1.5073591
21.01829944925707	2.2862296	1.5120283
21.036125466461375	2.2650945	1.5050231
21.053951998537297	2.2712219	1.5070573
21.071779045960906	2.3077805	1.5191381
21.089606609208378	2.3002017	1.5166416
21.10743468875603	2.2467492	1.498916
21.12526328508028	2.1989605	1.4828893
21.143092398657675	2.1905487	1.4800502
21.16092202996488	2.2173953	1.4890921
21.17875217947867	2.228785	1.4929116
21.19658284767596	2.251781	1.5005935
21.21441403503377	2.2633681	1.5044495
21.232245742029225	2.2459464	1.4986482
21.2500779691396	2.1959872	1.4818864
21.26791071684227	2.1721084	1.4738075
21.28574398561475	2.1659377	1.4717125
21.30357777593465	2.183338	1.4776123
21.321412088279704	2.1809046	1.4767886
21.339246923127792	2.192986	1.4808733
21.357082280956888	2.1986067	1.48277
21.3749181622451	2.1961446	1.4819394
21.392754567470647	2.1680052	1.4724147
21.41059149711187	2.1566877	1.4685665
21.42842895164726	2.1470618	1.4652855
21.446266931555378	2.1438959	1.4642049
21.464105437314945	2.1285965	1.458971
21.481944469404798	2.1027915	1.4501005
21.49978402830388	2.0911825	1.4460921
21.51762411449127	2.0922816	1.4464722
21.53546472844617	2.08115	1.4426192
21.553305870647876	2.1079571	1.4518806
21.571147541575865	2.1279347	1.4587442
21.58898974170967	2.1290789	1.4591364
21.60683247152899	2.100048	1.4491543
21.62467573151363	2.0565114	1.4340541
21.642519522143523	2.0326746	1.4257189
21.660363843898722	2.0203652	1.4213955
21.6782086972594	2.0356495	1.4267619
21.696054082705864	2.0617828	1.4358909
21.713900000718535	2.0207741	1.4215393
21.73174645177795	2.0119848	1.4184445
21.749593436364794	2.039756	1.4282002
21.767440954959845	2.0808563	1.4425174
21.785289008044032	2.092925	1.4466945
21.803137596098388	2.0670872	1.4377369
21.820986719604086	2.0111332	1.4181442
21.838836379042412	2.012639	1.4186751
21.85668657489478	2.0228014	1.4222522
21.87453730764273	2.0311751	1.4251931
21.892388577767914	2.017711	1.4204615
21.91024038575213	1.9935768	1.4119408
21.928092732077285	1.9867916	1.409536
21.945945617225426	2.0256157	1.4232413
21.963799041678694	2.0158863	1.4198191
21.981653005919398	31.329248	5.597254
21.999507510429943	78.14306	8.839856
22.01736255569286	73.11655	8.550821
22.035218142190818	4.2165375	2.053421
22.05307427040661	2.022827	1.4222612
22.07093094082315	2.0203586	1.4213932
22.088788153923474	2.0004516	1.4143732
22.106645910190746	1.9766526	1.4059348
22.12450421010827	1.9496603	1.3963023
22.142363054159464	1.9543619	1.397985
22.16022244282787	1.9647932	1.4017109
22.178082376597164	1.9748603	1.4052973
22.195942855951145	1.9929796	1.4117293
22.213803881373742	1.9801588	1.4071811
22.231665453349002	1.9843795	1.4086801
22.24952757236111	1.9845393	1.4087367
22.26739023889438	1.9854642	1.409065
22.28525345343323	1.97336	1.4047633
22.30311721646225	1.95407	1.3978806
22.320981528466113	1.9619697	1.4007033
22.33884638992964	1.9730589	1.4046562
22.356711801337788	1.9579039	1.3992512
22.37457776317561	1.9333215	1.3904393
22.392444275928337	1.9369464	1.3917422
22.410311340081282	1.9452341	1.3947165
22.428178956119904	1.9591355	1.3996912
22.446047124529805	1.940582	1.3930478
22.46391584579669	1.9380319	1.3921322
22.481785120406414	1.9614477	1.400517
22.49965494884496	2.0049863	1.4159753
22.51752533159841	1.9629974	1.4010701
22.53539626915302	1.9487548	1.3959781
22.553267761995137	1.936567	1.3916059
22.571139810611264	1.9584365	1.3994415
22.589012415488025	1.9530901	1.39753
22.60688557711216	1.9270812	1.3881935
22.624759295970566	1.8813119	1.3716092
22.642633572550263	1.8954246	1.3767442
22.660508407338362	1.9146043	1.3836923
22.67838380082217	1.9394102	1.3926271
22.696259753489077	1.9291193	1.3889275
22.714136265826614	1.9225476	1.3865596
22.73201333832246	1.8947021	1.3764818
22.74989097146439	1.8779572	1.3703858
22.76776916574035	1.8960243	1.376962
22.785647921638393	1.9330348	1.3903362
22.803527239646712	1.9403914	1.3929794
22.82140712025363	1.9512501	1.3968716
22.839287563947593	1.9577074	1.399181
22.85716857121719	1.9581773	1.3993489
22.875050142551135	1.926833	1.3881041
22.892932278438277	1.9255209	1.3876314
22.910814979367604	1.9132595	1.3832062
22.928698245828222	1.8846561	1.3728278
22.946582078309387	1.8719023	1.3681748
22.96446647730047	1.857711	1.3629787
22.98235144329098	1.8532729	1.3613497
23.000236976770562	1.8694555	1.3672804
23.018123078229	1.9088773	1.3816212
23.03600974815619	1.9481443	1.3957595
23.053896987042194	1.90116	1.3788255
23.071784795377173	1.8645474	1.3654844
23.08967317365145	1.8418965	1.3571649
23.10756212235546	1.8690999	1.3671503
23.125451641979787	1.8821856	1.3719277
23.143341733015134	1.8789573	1.3707507
23.161232395952357	1.8613077	1.3642975
23.179123631282426	1.8731678	1.3686372
23.197015439496468	1.9301772	1.3893082
23.214907821085717	1.961382	1.4004935
23.23280077654157	1.9413874	1.3933368
23.250694306355538	1.9163737	1.3843315
23.268588411019277	1.9035901	1.3797065
23.28648309102458	1.8998916	1.3783655
23.304378346863356	1.9280185	1.3885311
23.322274179027676	1.9634044	1.4012153
23.340170588009723	1.9236605	1.3869609
23.358067574301852	1.9043982	1.3799994
23.37596513839651	1.9421663	1.3936163
23.39386328078629	1.9703043	1.4036753
23.411762001963947	1.9764025	1.4058459
23.429661302422353	1.9534553	1.3976606
23.4475611826545	1.9597502	1.3999108
23.46546164315356	1.9428031	1.3938447
23.48336268441279	1.924954	1.3874271
23.501264306925638	1.9007869	1.3786902
23.51916651118564	1.867806	1.3666769
23.537069297686497	1.8913603	1.3752674
23.554972666922037	1.9597307	1.3999039
23.57287661938623	1.9489664	1.3960539
23.59078115557318	1.9227421	1.3866298
23.608686275977128	1.9131006	1.3831488
23.62659198109246	1.943307	1.3940254
23.6444982714137	1.9664209	1.4022913
23.66240514743549	1.9536483	1.3977298
23.68031260965263	1.9374093	1.3919085
23.698220658560068	1.9070854	1.3809726
23.716129294652845	1.8774046	1.3701842
23.7340385184262	1.8784811	1.370577
23.75194833037546	1.8727623	1.368489
23.769858730996123	1.8637261	1.3651836
23.78776972078382	1.881326	1.3716143
23.80568130023431	1.9352869	1.391146
23.823593469843495	1.9385465	1.3923169
23.841506230107424	1.931852	1.3899108
23.859419581522275	1.9345199	1.3908702
23.87733352458438	1.9243534	1.3872106
23.89524805979019	1.8771849	1.370104
23.913163187636318	1.8749065	1.3692722
23.931078908619508	1.9110278	1.3823993
23.948995223236633	1.9647102	1.4016812
23.966912131984735	1.9735198	1.4048202
23.98482963536096	2.029386	1.4245652
24.002747733862616	2.0081244	1.417083
24.020666427987155	2.0215538	1.4218135
24.038585718232156	2.0240638	1.422696
24.056505605095353	2.0438695	1.4296397
24.074426089074617	2.0402467	1.428372
24.092347170667946	2.0084784	1.417208
24.110268850373515	2.0422938	1.4290885
24.128191128689586	2.0702794	1.4388466
24.146114006114626	2.0694268	1.4385502
24.164037483147187	2.0310063	1.4251338
24.181961560286005	2.0512478	1.4322178
24.199886238029926	2.0711877	1.4391621
24.21781151687797	2.1225362	1.4568926
24.235737397329274	2.0978947	1.4484111
24.253663879883135	2.0356407	1.4267588
24.271590965038975	2.018857	1.4208648
24.289518653296376	2.0312123	1.4252061
24.30744694515505	2.0322793	1.4255803
24.32537584111486	2.0083463	1.4171613
24.34330534167581	2.0126755	1.4186879
24.361235447338046	2.0451312	1.4300809
24.379166158601876	2.0366325	1.4271064
24.39709747596772	2.067981	1.4380476
24.41502939993615	2.0618844	1.4359263
24.432961931007917	2.0475678	1.4309325
24.450895069683856	2.002736	1.4151806
24.468828816465	1.9870107	1.4096137
24.4867631718525	1.9910643	1.4110508
24.504698136347656	1.995501	1.4126221
24.52263371045192	1.9748553	1.4052955
24.540569894666874	2.0036678	1.4155097
24.558506689494266	2.002123	1.414964
24.57644409543597	1.9763036	1.4058106
24.594382112994012	1.958929	1.3996174
24.61232074267057	1.9498155	1.3963579
24.630259984967953	1.9700866	1.4035977
24.64819984038863	1.9733657	1.4047654
24.66614030943522	1.9927069	1.4116327
24.684081392610462	1.9471142	1.3953904
24.702023090417274	1.9349809	1.3910359
24.7199654033587	1.9583278	1.3994026
24.737908331937927	1.992266	1.4114766
24.755851876658305	2.0392203	1.4280127
24.773796038023324	2.0663006	1.4374633
24.79174081653661	2.099703	1.4490352
24.809686212701962	2.1078317	1.4518373
24.827632227023294	2.0847478	1.4438655
24.8455788600047	2.0527406	1.4327388
24.8635261121504	2.0774624	1.4413404
24.88147398396475	2.067509	1.4378835
24.899422475952303	2.0541062	1.4332154
24.917371588617698	2.0901747	1.4457437
24.935321322465768	2.1668737	1.4720305
24.953271678001478	2.267566	1.505844
24.97122265572994	2.413186	1.5534433
24.989174256156414	2.7022147	1.6438415
25.00712647978632	3.139274	1.7717996
25.02507932712521	3.7861962	1.9458151
25.043032798678798	4.4292755	2.1045845
25.060986894952933	5.1592827	2.2714055
25.078941616453637	5.901931	2.429389
25.096896963687055	6.811521	2.609889
25.114852937159508	7.9427943	2.8182964
25.132809537377444	8.495363	2.9146807
25.150766764847468	8.559487	2.9256601
25.168724620076347	7.989182	2.826514
25.186683103570985	6.8671346	2.6205218
25.204642215838426	5.620642	2.3707893
25.222601957385894	4.2241554	2.055275
25.24056232872074	3.180567	1.7834145
25.25852333035048	2.593602	1.6104664
25.276484962782778	2.2768497	1.5089234
25.294447226525435	2.0974138	1.448245
25.312410122086423	2.0018609	1.4148713
25.330373649973843	1.9762441	1.4057895
25.348337810695988	1.9665924	1.4023525
25.366302604761245	1.9292855	1.3889872
25.384268032678207	1.9043345	1.3799763
25.40223409495558	1.9201504	1.3856949
25.420200792102257	1.9258633	1.3877548
25.438168124627246	1.8837188	1.3724864
25.45613609303974	1.8924788	1.375674
25.474104697849057	1.8684211	1.366902
25.492073939564698	1.8801807	1.3711969
25.510043818696285	1.8809549	1.371479
25.528014335753614	1.8371279	1.3554069
25.54598549124664	1.8359365	1.3549674
25.56395728568544	1.8897665	1.3746878
25.58192971958028	1.9071212	1.3809856
25.59990279344156	1.8989469	1.3780228
25.617876507779833	1.8535577	1.3614542
25.635850863105826	1.8384477	1.3558937
25.653825859930386	1.8636436	1.3651533
25.671801498764548	1.8806188	1.3713566
25.68977778011949	1.8787684	1.3706818
25.707754704506524	1.8580103	1.3630885
25.725732272437153	1.8516167	1.3607413
25.743710484423012	1.841584	1.3570497
25.761689340975888	1.8496641	1.3600236
25.77966884260774	1.8548815	1.3619404
25.797648989830662	1.8436742	1.3578197
25.815629783156922	1.814235	1.3469354
25.83361122309895	1.8154981	1.3474042
25.85159331016929	1.8352963	1.3547311
25.869576044880695	1.8563845	1.362492
25.887559427746034	1.8206258	1.3493056
25.90554345927836	1.7786478	1.3336595
25.92352813999086	1.7790359	1.3338051
25.94151347039689	1.8337461	1.3541588
25.959499451009965	1.8493388	1.3599039
25.97748608234374	1.8378853	1.3556863
25.995473364912062	1.845718	1.358572
26.013461299228904	1.8819588	1.371845
26.03144988580839	1.9065673	1.380785
26.04943912516483	1.9018552	1.3790777
26.067429017812675	1.8910443	1.3751525
26.085419564266537	1.8583485	1.3632126
26.103410765041186	1.8337626	1.354165
26.12140262065155	1.852541	1.3610808
26.139395131612723	1.8384159	1.3558819
26.157388298439948	1.8554072	1.3621334
26.17538212164861	1.8655584	1.3658545
26.193376601754295	1.8403846	1.3566078
26.211371739272714	1.7949028	1.3397398
26.229367534719746	1.7788858	1.3337488
26.247363988611433	1.8247914	1.3508484
26.26536110146397	1.8242828	1.3506601
26.283358873793727	1.7795421	1.3339947
26.301357306117204	1.780358	1.3343005
26.319356398951104	1.811809	1.3460345
26.33735615281224	1.7838598	1.3356122
26.35535656821762	1.766623	1.3291438
26.373357645684404	1.805041	1.3435181
26.39135938572991	1.8360343	1.3550035
26.409361788871614	1.8643745	1.365421
26.427364855627165	1.8352249	1.3547047
26.445368586514352	1.8051935	1.3435749
26.46337298205115	1.7621336	1.3274539
26.48137804275568	1.7596911	1.3265336
26.499383769146217	1.8147509	1.347127
26.517390161741215	1.886083	1.3733474
26.53539722105928	1.9085243	1.3814934
26.553404947619182	1.8477511	1.35932
26.571413341939856	1.7801796	1.3342338
26.589422404540397	1.8064703	1.3440499
26.60743213594006	1.8186973	1.3485909
26.62544253665827	1.815799	1.3475158
26.64345360721459	1.7988605	1.3412161
26.66146534812879	1.8327672	1.3537973
26.679477759920758	1.8519727	1.360872
26.69749084311057	1.8913708	1.3752712
26.71550459821847	1.8890103	1.3744127
26.733519025764842	1.8729168	1.3685455
26.751534126270258	1.8310294	1.3531554
26.769549900255434	1.8162596	1.3476868
26.787566348241267	1.774838	1.3322304
26.80558347074881	1.7765732	1.3328816
26.823601268299267	1.8051699	1.3435662
26.841619741414036	1.8765534	1.3698735
26.85963889061465	1.9009719	1.3787574
26.877658716422832	1.8412142	1.3569134
26.89567921936045	1.8266531	1.3515373
26.913700399949544	1.8326476	1.3537531
26.93172225871233	1.8392084	1.3561741
26.949744796171174	1.7527508	1.3239149
26.967768012848605	1.7436848	1.3204865
26.98579190926733	1.7667346	1.3291857
27.003816485950225	1.7995257	1.341464
27.021841743420318	1.8423823	1.3573438
27.039867682200814	1.8156049	1.3474438
27.057894302815072	1.7880608	1.337184
27.07592160578664	1.7612721	1.3271292
27.0939495916392	1.7819695	1.3349043
27.111978260896635	1.7999649	1.3416277
27.13000761408296	1.8072729	1.3443485
27.148037651722397	1.8538337	1.3615556
27.166068374339304	1.8507397	1.3604189
27.184099782458215	1.8276058	1.3518897
27.20213187660384	1.8293203	1.3525237
27.22016465730105	1.84518	1.358374
27.23819812507487	1.8063761	1.3440149
27.256232280450533	1.8089534	1.3449733
27.274267123953383	1.8499527	1.3601297
27.292302656108987	1.9002923	1.3785108
27.31033887744306	1.8767979	1.3699627
27.32837578848146	1.855183	1.362051
27.34641338975026	1.8089789	1.3449829
27.364451681775673	1.7715616	1.3310002
27.382490665084074	1.7590419	1.3262888
27.400530340202046	1.8080488	1.344637
27.41857070765629	1.8388731	1.3560506
27.436611767973726	1.8403541	1.3565965
27.454653521681404	1.8062942	1.3439845
27.472695969306564	1.759521	1.3264694
27.490739111376627	1.7967415	1.3404258
27.508782948419153	1.8452455	1.3583981
27.526827480961902	1.827571	1.3518769
27.54487270953279	1.7772464	1.333134
27.562918634659898	1.7921447	1.3387101
27.580965256871508	1.8283805	1.3521762
27.599012576696026	1.8281169	1.3520787
27.617060594662068	1.7711456	1.3308439
27.63510931129842	1.752321	1.3237526
27.65315872713401	1.8023908	1.3425314
27.67120884269797	1.8202033	1.3491491
27.68925965851958	1.8139212	1.3468189
27.707311175128307	1.8002812	1.3417456
27.725363393053787	1.8042159	1.343211
27.74341631282583	1.8472806	1.3591471
27.7614699349744	1.872834	1.3685153
27.77952426002968	2.0377402	1.4274944
27.797579288521973	2.0653045	1.4371167
27.815635020981784	2.4296951	1.5587479
27.83369145793979	2.5010245	1.5814627
27.85174859992682	2.3800938	1.5427552
27.869806447473923	2.231023	1.4936609
27.887865001112267	1.9858686	1.4092085
27.905924261373233	1.9053807	1.3803552
27.92398422878836	1.9052078	1.3802927
27.94204490388936	1.8914733	1.3753084
27.96010628720813	1.8504254	1.3603034
27.978168379276728	1.8217796	1.3497331
27.9962311806274	1.8470832	1.3590744
28.014294691792568	1.8850409	1.372968
28.0323589133048	1.8527414	1.3611544
28.050423845696887	1.7901313	1.3379579
28.068489489501758	1.8296409	1.3526422
28.086555845252523	1.8701217	1.3675239
28.104622913482487	1.8308941	1.3531053
28.122690694725115	1.8015109	1.3422037
28.14075918951405	1.8686819	1.3669974
28.15882839838312	1.9506104	1.3966426
28.176898321866304	1.9533702	1.3976302
28.1949689604978	1.9160833	1.3842266
28.213040314811945	1.9025699	1.3793367
28.23111238534327	1.8349668	1.3546095
28.249185172626493	1.8263834	1.3514376
28.267258677196473	1.8929169	1.3758332
28.285332899588294	1.9328598	1.3902733
28.303407840337172	1.9469072	1.3953161
28.321483499978545	1.9500574	1.3964446
28.33955987904799	1.8931954	1.3759344
28.357636978081285	1.8515596	1.3607203
28.37571479761439	1.8486711	1.3596585
28.393793338183425	1.8390824	1.3561277
28.41187260032469	1.8880506	1.3740635
28.429952584574686	1.9151192	1.3838784
28.448033291470065	1.8728971	1.3685384
28.46611472154769	1.8644823	1.3654605
28.484196875344566	1.876457	1.3698384
28.502279753397914	1.9111937	1.3824593
28.52036335624511	1.9473143	1.395462
28.538447684423716	1.9627402	1.4009783
28.556532738471482	1.985528	1.4090877
28.574618518926325	1.9934486	1.4118954
28.59270502632635	1.9900099	1.4106771
28.61079226120985	1.999798	1.4141421
28.628880224115274	1.9877541	1.4098773
28.646968915581287	2.0572546	1.4343133
28.66505833614671	2.0461094	1.4304228
28.68314848635055	2.030879	1.4250891
28.701239366732004	2.0583444	1.4346931
28.71933097783044	2.113548	1.4538047
28.737423320185403	2.1495473	1.4661335
28.75551639433665	2.1231806	1.4571137
28.773610200824074	2.1007056	1.4493811
28.791704740187793	2.085184	1.4440167
28.80980001296809	2.1134388	1.4537672
28.827896019705413	2.1634927	1.4708816
28.845992760940433	2.1964424	1.4820399
28.86409023721397	2.1551852	1.4680549
28.88218844906704	2.178378	1.475933
28.900287397040845	2.247636	1.4992118
28.918387081676755	2.2840533	1.5113084
28.936487503516343	2.2402976	1.4967624
28.954588663101365	2.2117944	1.4872103
28.97269056097374	2.266446	1.5054721
28.990793197675597	2.3193617	1.522945
29.00889657374923	2.3604634	1.5363799
29.027000689737125	2.37994	1.5427054
29.04510554618196	2.405868	1.5510861
29.06321114362659	2.4683657	1.5711033
29.08131748261405	2.5130498	1.5852602
29.099424563687567	2.5217211	1.5879928
29.11753238739057	2.5535998	1.5979987
29.13564095426663	2.5607877	1.6002461
29.15375026485954	2.5514214	1.597317
29.171860319713275	2.6195223	1.6184938
29.18997111937199	2.709635	1.646097
29.20808266438002	2.7532852	1.6593026
29.226194955281898	2.76011	1.6613579
29.244307992622335	2.868867	1.693773
29.26242177694624	2.8785794	1.6966376
29.2805363087987	2.9136016	1.7069275
29.29865158872498	2.9537346	1.7186433
29.316767617270557	2.9771805	1.7254508
29.334884394981064	2.9219346	1.7093667
29.353001922402367	2.904546	1.7042729
29.37112020008047	2.9873528	1.728396
29.389239228561596	3.0868487	1.756943
29.407359008392152	3.271447	1.8087142
29.42547954011872	3.6637242	1.9140857
29.44360082428809	4.3353944	2.082161
29.46172286144722	5.4061646	2.3251162
29.479845652143283	6.9856787	2.6430435
29.497969196923606	9.168741	3.027993
29.516093496335728	11.830126	3.439495
29.5342185509274	14.815924	3.849146
29.55234436124651	17.33985	4.1641145
29.570470927841175	18.900408	4.34746
29.588598251259686	18.8762	4.344675
29.60672633205055	17.563976	4.19094
29.624855170762405	15.271806	3.9079158
29.642984767944146	12.363145	3.5161264
29.66111512414481	9.303585	3.0501778
29.67924623991366	6.783319	2.6044805
29.697378115800138	5.1445823	2.2681673
29.71551075235387	4.255855	2.0629723
29.733644150124675	3.8634028	1.9655541
29.751778309662576	3.606017	1.8989515
29.769913231517766	3.5184436	1.8757515
29.78804891624066	3.4025629	1.8446037
29.806185364381818	3.3077931	1.8187339
29.82432257649206	3.321142	1.8224001
29.842460553122333	3.3385613	1.827173
29.86059929482382	3.390293	1.8412749
29.878738802147872	3.392234	1.8418019
29.896879075646048	3.32548	1.8235899
29.915020115870114	3.2787168	1.8107227
29.933161923371976	3.2347183	1.7985322
29.951304498703777	3.2506618	1.8029592
29.969447842417857	3.2503102	1.8028617
29.987591955066733	3.22939	1.7970504
30.005736837203123	3.2512622	1.8031256
30.023882489379943	3.2743487	1.8095162
30.04202891215028	3.2137535	1.7926944
30.060176106067455	3.1474597	1.7741082
30.078324071684946	3.1191037	1.7660984
30.09647280955646	3.0947278	1.7591839
30.114622320235863	3.0582063	1.7487729
30.132772604277257	3.0728288	1.7529486
30.1509236622349	3.1491938	1.7745968
30.16907549466328	3.1868396	1.7851721
30.18722810211705	3.1949525	1.787443
30.205381485151097	3.1418312	1.7725211
30.22353564432045	3.0280917	1.7401413
30.241690580180403	2.9670262	1.7225058
30.25984629328638	3.0542192	1.7476325
30.278002784194037	3.020417	1.7379347
30.296160053459246	2.9232852	1.7097617
30.314318101638033	2.9069006	1.7049636
30.332476929286646	2.870747	1.694328
30.35063653696153	2.8581684	1.6906118
30.368796925219307	2.8746157	1.6954691
30.386958094616844	2.8918679	1.7005492
30.40512004571115	2.8476992	1.6875128
30.423282779059463	2.9185927	1.7083889
30.441446295219233	2.8947184	1.7013872
30.459610594748067	2.8143659	1.6776072
30.47777567820382	2.8638968	1.6923052
30.495941546144504	2.856126	1.6900077
30.51410819912835	2.777342	1.666536
30.532275637713795	2.7929475	1.6712114
30.55044386245946	2.8359425	1.6840256
30.56861287392416	2.8268363	1.6813198
30.586782672666956	2.7765775	1.6663065
30.604953259247047	2.8004725	1.6734612
30.623124634223885	2.8061302	1.6751508
30.641296798157075	2.73311	1.653212
30.659469751606462	2.6687596	1.6336339
30.677643495132074	2.7155411	1.6478899
30.695818029294152	2.7502372	1.658384
30.713993354653116	2.7228506	1.6501062
30.73216947176962	2.733654	1.6533766
30.75034638120448	2.7411525	1.6556426
30.768524083518756	2.727729	1.6515838
30.786702579273673	2.797539	1.6725845
30.80488186903069	2.8870447	1.6991305
30.82306195335144	2.872458	1.6948327
30.841242832797782	3.015627	1.736556
30.85942450793176	3.3962681	1.8428967
30.877606979315637	3.8203986	1.954584
30.895790247511883	4.1770234	2.0437768
30.913974313083134	4.5173974	2.125417
30.932159176592283	4.860233	2.2045937
30.95034483860237	5.0151486	2.2394528
30.968531299676698	4.8385377	2.1996677
30.98671856037873	4.4729686	2.1149395
31.00490662127215	4.0882325	2.0219378
31.023095482920848	3.642436	1.9085168
31.04128514588892	3.1552014	1.7762886
31.059475610740662	2.785107	1.668864
31.07766687804056	2.6516926	1.6284019
31.09585894835335	2.5700462	1.6031363
31.11405182224393	2.5276387	1.589855
31.132245500277417	2.4768636	1.5738055
31.15043998301914	2.478425	1.5743015
31.168635271034628	2.4856412	1.5765916
31.18683136488964	2.498456	1.5806504
31.20502826515008	2.4769235	1.5738245
31.223225972382135	2.520112	1.587486
31.241424487152155	2.5698588	1.6030779
31.259623810026692	2.528547	1.5901406
31.27782394157253	2.4274461	1.5580263
31.296024882356644	2.3432055	1.5307533
31.314226632946237	2.3410985	1.530065
31.332429193908684	2.4447954	1.5635841
31.350632565811598	2.5172174	1.5865741
31.368836749222787	2.4820812	1.5754622
31.387041744710295	2.491179	1.578347
31.40524755284232	2.5510535	1.5972018
31.423454174187317	2.5562847	1.5988386
31.441661609313922	2.5125792	1.5851117
31.459869858791002	2.4067152	1.5513592
31.478078923187628	2.3741152	1.5408164
31.496288803073064	2.4327614	1.5597312
31.514499499016807	2.4698372	1.5715716
31.532711011588546	2.3902628	1.5460474
31.550923341358178	2.3515725	1.5334837
31.56913648889584	2.347305	1.5320917
31.587350454771844	2.3282738	1.5258682
31.605565239556732	2.3279665	1.5257674
31.62378084382127	2.3615484	1.536733
31.641997268136382	2.2996526	1.5164605
31.660214513073274	2.3128352	1.5208008
31.67843257920331	2.3593612	1.5360212
31.6966514670981	2.3741612	1.5408313
31.71487117732944	2.317059	1.5221889
31.733091710469346	2.238648	1.4962112
31.751313067090052	2.2604992	1.5034957
31.769535247764008	2.312967	1.5208442
31.787758253063878	2.296085	1.5152837
31.805982083562526	2.2909908	1.5136019
31.824206739833024	2.218155	1.4893471
31.84243222244869	2.1614666	1.4701927
31.860658531983013	2.2151728	1.4883456
31.878885669009737	2.3238976	1.5244335
31.897113634102784	2.3327	1.5273179
31.91534242783632	2.339481	1.5295362
31.933572050784694	2.3429468	1.5306687
31.951802503522508	2.3617861	1.5368104
31.970033786624548	2.3347905	1.5280021
31.988265900665834	2.3333986	1.5275466
32.006498846221575	2.2769568	1.5089588
32.02473262386724	2.2500546	1.5000182
32.04296723417845	2.248252	1.4994172
32.0612026777311	2.2818146	1.5105677
32.07943895510129	2.2453108	1.4984361
32.097676066865304	2.187305	1.478954
32.115914013599685	2.2185738	1.4894878
32.13415279588115	2.1870236	1.478859
32.152392414286666	2.148661	1.4658312
32.1706328693934	2.0360217	1.4268923
32.18887416177875	2.0511072	1.4321687
32.20711629202032	2.1248288	1.4576793
32.225359260695924	2.107153	1.4516035
32.243603068383614	2.1433034	1.4640025
32.26184771566166	2.1897244	1.4797717
32.28009320310852	2.1838725	1.4777931
32.2983395313029	2.1817174	1.4770638
32.31658670082372	2.2233891	1.4911033
32.33483471225012	2.207774	1.485858
32.35308356616143	2.1591659	1.4694101
32.371333263137245	2.106316	1.4513153
32.38958380375734	2.0999372	1.449116
32.407835188601744	2.074719	1.4403884
32.42608741825067	2.0291805	1.4244931
32.444340493284585	2.0014715	1.4147338
32.46259441428416	2.0733638	1.4399179
32.48084918183028	2.0608702	1.4355731
32.49910479650405	2.082304	1.443019
32.51736125888683	2.016668	1.4200944
32.53561856956014	1.9663864	1.402279
32.5538767291058	1.8922654	1.3755964
32.572135738105764	1.9311357	1.3896531
32.59039559714228	2.0450149	1.4300401
32.608656306797776	2.1098084	1.452518
32.62691786765491	2.0731552	1.4398456
32.645180280296586	1.9500537	1.3964432
32.663443545305896	1.8850573	1.3729739
32.68170766326619	1.9248097	1.3873751
32.69997263476099	2.0075433	1.416878
32.7182384603741	2.0598366	1.4352131
32.7365051406895	2.0508168	1.4320673
32.75477267629144	2.0281572	1.4241339
32.77304106776434	2.027633	1.4239497
32.79131031569289	1.9833794	1.4083251
32.809580420661966	2.000806	1.4144986
32.827851383256714	2.026355	1.423501
32.84612320406245	2.0195947	1.4211245
32.86439588366476	2.040868	1.4285896
32.88266942264945	1.9916368	1.4112536
32.9009438216025	1.9395506	1.3926775
32.9192190811102	1.9379355	1.3920975
32.937495201758985	1.9217073	1.3862566
32.95577218413556	1.972997	1.4046341
32.974050028826866	2.0124733	1.4186167
32.992328736420035	1.966509	1.4023228
33.010608307502444	1.9197664	1.3855563
33.02888874266169	1.9035515	1.3796926
33.047170042485604	1.9888618	1.4102701
33.06545220756225	2.1089497	1.4522223
33.083735238479896	2.062473	1.4361312
33.10201913582707	1.926529	1.3879946
33.12030390019248	1.9039195	1.3798258
33.138589532165135	1.9870597	1.409631
33.15687603233419	1.9334811	1.3904967
33.17516340128909	1.839263	1.3561943
33.19345163961947	1.8533175	1.361366
33.211740747915215	1.9444226	1.3944255
33.23003072676643	1.94215	1.3936105
33.248321576763466	1.9913914	1.4111667
33.266613298496885	2.0225713	1.4221714
33.28490589255747	2.0200438	1.4212824
33.30319935953626	2.0003412	1.4143342
33.32149370002451	1.9658602	1.4020914
33.339788914613706	1.9819939	1.4078331
33.358085003895575	1.900608	1.3786254
33.376381968462034	1.7796912	1.3340507
33.39467980890529	1.775026	1.332301
33.41297852581774	1.8436612	1.3578149
33.43127811979204	1.8071566	1.3443053
33.44957859142105	1.8752332	1.3693916
33.467879941297866	1.9629261	1.4010446
33.486182170015844	2.0335302	1.4260191
33.50448527816853	2.1009538	1.4494667
33.522789266349754	2.0658402	1.4373031
33.541094135153514	1.9763099	1.4058129
33.55939988517411	1.946943	1.395329
33.57770651700602	1.9046563	1.3800929
33.59601403124398	1.8940184	1.3762335
33.61432242848296	1.9297013	1.3891369
33.632631709318154	1.9308829	1.3895621
33.650941874344994	1.9223977	1.3865056
33.66925292415916	1.9278079	1.3884553
33.68756485935654	1.9004325	1.3785617
33.70587768053328	1.9414799	1.39337
33.724191388285746	2.0268352	1.4236696
33.74250598321054	2.0016124	1.4147835
33.760821465904506	1.9122658	1.382847
33.77913783696474	1.8741854	1.3690089
33.79745509698852	1.919918	1.385611
33.815773246573414	1.965851	1.402088
33.8340922863172	1.9222895	1.3864665
33.852412216817896	1.850722	1.3604125
33.87073303867377	1.8875462	1.37388
33.889054752483304	1.984264	1.4086391
33.907377358845245	2.0254502	1.4231831
33.92570085835853	2.0936563	1.4469472
33.94402525162239	2.0005476	1.4144071
33.96235053923627	1.8669403	1.3663602
33.980676721799824	1.7913382	1.3384088
33.999003799912984	1.8196679	1.3489506
34.01733177417592	1.8134326	1.3466375
34.03566064518901	1.84721	1.3591211
34.0539904135529	1.9482945	1.3958132
34.07232107986846	2.0185244	1.4207479
34.090652644736785	1.9694896	1.403385
34.108985108759235	1.8785828	1.370614
34.12731847253742	1.8725805	1.3684226
34.14565273667313	1.8421775	1.3572685
34.16398790176847	1.9719853	1.404274
34.18232396842574	2.0044124	1.4157727
34.20066093724749	1.9627972	1.4009986
34.21899880883651	1.9719137	1.4042485
34.23733758379583	2.028336	1.4241966
34.25567726272874	1.9867971	1.4095379
34.27401784623872	1.9512675	1.3968778
34.29235933492957	2.0158663	1.4198121
34.31070172940526	2.0851622	1.4440091
34.32904503027003	2.1215146	1.456542
34.347389238128386	2.0096283	1.4176136
34.36573435358502	2.0095994	1.4176034
34.38408037724492	2.161603	1.470239
34.402427309713296	2.2491586	1.4997195
34.42077515159559	2.024169	1.422733
34.43912390349752	1.8462989	1.3587859
34.45747356602499	1.8962514	1.3770444
34.47582413978423	1.9878277	1.4099034
34.49417562538163	2.1088045	1.4521723
34.51252802342388	2.0554187	1.4336731
34.53088133451789	2.0883934	1.4451275
34.54923555927084	2.106856	1.4515014
34.567590698290104	2.073876	1.4400958
34.58594675218336	2.0562444	1.433961
34.6043037215585	2.057732	1.4344797
34.62266160702365	2.0604782	1.4354366
34.641020409187234	1.9505092	1.3966063
34.65938012865785	1.9905648	1.4108738
34.677740766044394	2.1000547	1.4491565
34.69610232195598	2.1423118	1.4636638
34.714464797002016	2.0357451	1.4267954
34.73282819179208	1.787728	1.3370595
34.751192506936064	1.7468586	1.3216878
34.76955774304408	1.7505442	1.3230814
34.7879239007265	1.828274	1.3521369
34.80629098059391	1.8899668	1.3747606
34.824658983257194	1.9331154	1.3903652
34.843027909327446	1.9929026	1.411702
34.86139775941603	1.967551	1.4026942
34.879768534134534	1.886841	1.3736234
34.89814023409483	1.9379194	1.3920918
34.91651285990901	2.0401568	1.4283406
34.93488641218944	2.067114	1.4377462
34.95326089154871	2.026255	1.4234658
34.97163629859967	1.8512924	1.360622
34.99001263395542	1.8512237	1.3605968
35.00838989822934	2.044699	1.4299297
35.02676809203499	2.1314013	1.459932
35.04514721598624	2.0723865	1.4395785
35.063527270697215	2.080267	1.4423131
35.081908256782256	2.2897484	1.5131915
35.10029017485597	2.283346	1.5110744
35.11867302553321	2.1026306	1.450045
35.137056809429104	2.0814252	1.4427146
35.155441527159006	2.1732628	1.474199
35.173827179338524	2.1702833	1.4731882
35.19221376658354	2.082158	1.4429685
35.21060128951017	2.1006277	1.4493542
35.2289897487348	2.1499646	1.4662757
35.24737914487405	2.1068068	1.4514843
35.26576947854479	2.0494921	1.4316047
35.28416075036418	2.0898705	1.4456384
35.30255296094958	2.312293	1.5206226
35.32094611091867	2.2946947	1.514825
35.33934020088932	2.003455	1.4154345
35.35773523147969	1.8204147	1.3492274
35.3761312033082	1.8875471	1.3738803
35.394528116993506	1.9155	1.3840159
35.41292597315452	2.083122	1.4433025
35.431324772410434	1.8906897	1.3750235
35.449724515380666	1.4983137	1.2240562
35.46812520268491	1.3965088	1.1817397
35.486526834943106	1.6475797	1.2835808
35.504929412775454	1.8317589	1.3534249
35.52333293680242	2.025578	1.423228
35.54173740764471	2.238899	1.4962951
35.560142825923286	2.040958	1.4286209
35.5785491922594	1.6325998	1.2777323
35.59695650727454	1.4926279	1.2217315
35.61536477159042	1.4857981	1.2189332
