0.008763373481513119	0.56609195	0.7523908
0.026290120649546365	0.18888974	0.43461448
0.043816868432600686	0.0908709	0.30144802
0.06134361724069026	0.051598623	0.2271533
0.07887036748382949	0.22052813	0.46960422
0.0963971195720331	0.18232931	0.42700037
0.11392387391531617	0.2198925	0.46892697
0.1314506309236943	0.12730731	0.3568015
0.1489773910071836	0.12712024	0.35653925
0.16650415457580078	0.083069354	0.28821754
0.18403092203956356	0.07887031	0.28083858
0.20155769380849	0.10181825	0.3190897
0.2190844702925996	0.09602062	0.30987194
0.2366112519019124	0.094502114	0.30741197
0.2541380390464497	0.094502345	0.30741233
0.27166483213623416	0.1574941	0.39685526
0.28919163158128947	0.17505233	0.41839257
0.3067184377916406	0.1916633	0.43779367
0.324245251177314	0.1678223	0.4096612
0.34177207214833777	0.16996314	0.41226587
0.3592989011147415	0.20421311	0.45189944
0.37682573848655654	0.21133566	0.4597126
0.39435258467381573	0.20385917	0.45150766
0.41187944008655414	0.2242756	0.47357744
0.42940630513480854	0.1885655	0.4342413
0.446933180228618	0.2349433	0.4847095
0.4644600657780234	0.19887371	0.4459526
0.48198696219306775	0.15724008	0.3965351
0.49951386988379676	0.1201659	0.34664953
0.5170407892602581	0.10811411	0.3288071
0.5345677207325025	0.13365044	0.36558232
0.5520946647105822	0.13761479	0.37096468
0.5696216216045534	0.17352922	0.4165684
0.5871485918244737	0.15086189	0.38840944
0.6046755757804043	0.14050163	0.37483546
0.6222025738824094	0.10514574	0.32426184
0.6397295865405557	0.11074394	0.33278212
0.6572566141649129	0.13847134	0.37211737
0.6747836571655547	0.20495185	0.45271608
0.6923107159525568	0.20294344	0.45049244
0.7098377909359992	0.18417633	0.4291577
0.7273648825259653	0.15575519	0.39465833
0.7448919911325411	0.13067453	0.36148933
0.762419117165817	0.15386227	0.3922528
0.7799462610358868	0.154273	0.392776
0.7974734231528482	0.1631204	0.40388167
0.8150006039268024	0.18119659	0.42567194
0.8325278037678551	0.19228177	0.43849945
0.8500550230861152	0.2145482	0.46319348
0.8675822622916969	0.2515355	0.50153315
0.8851095217947171	0.22672257	0.47615394
0.9026368020052984	0.22800688	0.47750068
0.9201641033335665	0.20844062	0.45655298
0.9376914261896523	0.25223923	0.5022342
0.9552187709836915	0.22776532	0.47724766
0.9727461381258234	0.25038975	0.5003896
0.990273528026193	0.22244665	0.4716425
1.0078009410949496	0.2386713	0.48853996
1.0253283777422473	0.2790983	0.52829754
1.0428558383782454	0.2593479	0.5092621
1.0603833234131086	0.26577917	0.51553774
1.0779108332570058	0.3371972	0.58068687
1.0954383683201119	0.3865045	0.62169486
1.112965929012607	0.4583093	0.67698544
1.1304935157446763	0.518792	0.7202721
1.1480211289265108	0.5533228	0.7438567
1.1655487689683062	1.384135	1.1764927
1.1830764362802655	1.6722239	1.293145
1.200604131272596	2.1029494	1.4501549
1.2181318543555117	2.3683352	1.5389396
1.235659605939232	2.385717	1.5445766
1.253187386433982	3.9798887	1.9949658
1.270715196249994	6.612497	2.5714777
1.2882430357975057	12.066326	3.4736617
1.3057709054867608	16.877043	4.1081676
1.3232988057280106	22.665508	4.7608304
1.3408267369315112	27.656988	5.2589912
1.358354699507526	31.36354	5.600316
1.3758826938663256	35.769863	5.980791
1.3934107204181858	37.832314	6.150798
1.410938779573391	38.047455	6.168262
1.4284668717422309	38.162056	6.1775446
1.4459949973350033	37.33465	6.1102085
1.4635231567620117	37.702366	6.1402254
1.4810513504335687	37.256317	6.1037955
1.4985795787599925	36.458267	6.0380683
1.5161078421516088	36.124264	6.0103464
1.5336361410187505	35.261734	5.938159
1.5511644757717598	35.27524	5.9392962
1.5686928468209842	35.714336	5.976147
1.58622125457678	36.34043	6.0283027
1.6037496994495108	37.158558	6.095782
1.621278181849548	36.721138	6.059797
1.6388067021872719	37.622894	6.1337504
1.6563352608730693	37.139126	6.0941877
1.673863858317336	36.321083	6.0266976
1.6913924949304753	35.87342	5.9894423
1.7089211711228998	34.837345	5.902317
1.7264498873050296	34.054043	5.835584
1.7439786438872935	33.13379	5.7561955
1.7615074412801288	31.925684	5.650282
1.779036279893981	31.234842	5.5888143
1.796565160139305	30.422403	5.5156507
1.814094082426564	29.84429	5.4629927
1.8316230471662298	29.35678	5.4181895
1.849152054768784	28.460135	5.334804
1.8666811056447168	27.889313	5.2810335
1.8842102002045273	27.00856	5.196976
1.901739338858724	26.250961	5.123569
1.9192685220178245	25.553661	5.055063
1.9367977500923557	24.895304	4.9895196
1.9543270234928547	24.607677	4.960613
1.971856342629867	24.193419	4.9186807
1.9893857079139496	23.48064	4.8456826
2.006915119755667	22.921001	4.787588
2.0244445785655945	22.447094	4.7378364
2.0419740847543175	21.93834	4.683838
2.0595036387324317	21.436853	4.629995
2.0770332409105414	21.107304	4.594269
2.094562891699263	20.868341	4.568188
2.1120925915092217	20.383516	4.5148106
2.129622340751053	19.887323	4.4595203
2.1471521398354043	188.01678	13.711922
2.1646819891729323	444.34058	21.079388
2.182211889174303	440.65222	20.991718
2.1997418402501974	452.96246	21.282915
2.2172718428113023	432.9878	20.80836
2.234801897268317	320.96863	17.915598
2.2523320040319548	17.160515	4.142525
2.269862163512935	16.941952	4.1160603
2.287392376121992	16.54143	4.067116
2.304922642269869	16.435472	4.0540686
2.322452962367322	16.24013	4.0299044
2.3399833368251164	15.741033	3.967497
2.357513766054032	15.357993	3.9189274
2.3750442504648586	15.07012	3.8820252
2.3925747904683963	14.841063	3.85241
2.410105386475459	14.790963	3.8459022
2.4276360388968707	14.567018	3.8166761
2.445166748143469	14.345667	3.7875674
2.4626975146261025	13.92109	3.7310977
2.4802283387556323	13.537242	3.679299
2.4977592209429305	13.080146	3.6166484
2.5152901615988825	12.715494	3.565879
2.5328211611343865	12.560494	3.5440788
2.5503522199603523	12.467477	3.5309315
2.5678833384877024	12.398772	3.521189
2.5854145171273712	12.343849	3.5133815
2.6029457562903064	12.097806	3.47819
2.620477056387469	11.813211	3.4370353
2.6380084178298326	11.478109	3.3879359
2.655539841028383	11.332108	3.3663197
2.673071326394119	11.26758	3.3567216
2.6906028743380523	11.131854	3.3364434
2.708134485271211	10.956636	3.310081
2.7256661596046325	10.828676	3.2906954
2.743197897749369	10.571604	3.2514002
2.760729700116486	10.484046	3.2379076
2.778261567117063	10.393088	3.2238314
2.795793499162193	10.220024	3.1968772
2.8133254966629817	10.082256	3.175257
2.830857560030551	9.903213	3.146937
2.8483896896760337	9.895613	3.1457293
2.865921886010578	9.827069	3.1348157
2.883454149445347	9.724687	3.118443
2.9009864803915177	9.507698	3.0834556
2.91851887926028	9.266671	3.0441208
2.9360513464628384	9.182423	3.0302513
2.953583882410413	9.003943	3.000657
2.9711164875142373	8.903	2.9837894
2.9886491621855606	8.85521	2.9757705
3.0061819068356455	8.792871	2.9652777
3.023714721875769	8.717033	2.9524622
3.041247607717225	8.504942	2.9163234
3.0587805647713213	8.3717165	2.8933918
3.0763135934493806	8.258359	2.8737361
3.0938466941627407	8.101143	2.8462508
3.1113798673227544	7.9546595	2.8204005
3.1289131133407904	7.771767	2.7877889
3.1464464326282315	7.6822834	2.7716932
3.1639798255964786	7.730031	2.7802932
3.1815132926569443	7.8203163	2.7964828
3.1990468342210603	7.7886205	2.79081
3.216580450700272	7.5246315	2.7431061
3.2341141425060416	7.3548822	2.7119887
3.251647910049847	7.3545394	2.7119255
3.2691817537431813	7.365799	2.7140005
3.286715673997555	7.3182425	2.705225
3.3042496712244938	7.180969	2.679733
3.32178374583554	7.0421643	2.6537077
3.339317898242251	6.880117	2.6229978
3.3568521288562034	6.7963443	2.6069798
3.3743864380889876	6.767848	2.6015089
3.3919208263522127	6.834723	2.6143303
3.4094552940575023	6.77522	2.6029253
3.4269898416164972	6.751563	2.598377
3.444524469440858	6.7129726	2.5909405
3.4620591779422587	6.6130033	2.571576
3.479593967532391	6.477616	2.5451162
3.4971288386229658	6.45921	2.5414975
3.5146637916257086	6.346406	2.5192075
3.5321988269523628	6.3692164	2.5237308
3.5497339450146903	6.3825045	2.526362
3.5672691462244708	6.4747405	2.5445511
3.5848044309934988	6.4322243	2.536183
3.60233979973359	6.256936	2.501387
3.619875252856575	6.229135	2.4958236
3.6374107907743034	6.1797934	2.485919
3.6549464138986427	6.252472	2.5004942
3.6724821226414788	6.25022	2.5000439
3.690017917414714	6.2485805	2.499716
3.7075537986302702	6.346354	2.519197
3.7250897667000857	6.364098	2.5227165
3.7426258220361235	6.577641	2.5646913
3.7601619650503553	6.8968916	2.6261933
3.777698196154779	7.4304605	2.725887
3.7952345157614067	8.49353	2.9143662
3.8127709242822716	9.277637	3.0459213
3.830307422129425	11.485003	3.3889532
3.847844009714936	30.267836	5.5016212
3.8653806874508954	97.66042	9.882329
3.882917455749409	96.86024	9.84176
3.900454315022606	96.59436	9.828243
3.917991265682631	41.207848	6.419334
3.9355283081416506	10.860086	3.2954645
3.9530654428118495	8.602072	2.9329288
3.970602670105433	7.3939667	2.7191849
3.9881399904346244	6.6127853	2.5715337
4.005677404211669	6.685147	2.585565
4.023214911848827	6.648479	2.5784645
4.0407525137583855	6.5465207	2.5586169
4.058290210352644	6.518036	2.5530443
4.075828002043927	6.424698	2.5346987
4.0933658892445814	6.3441973	2.518769
4.110903872366966	6.1858945	2.487146
4.128441951823468	6.0852876	2.4668376
4.145980128026488	6.117548	2.4733677
4.163518401388452	6.1532855	2.4805818
4.181056772321807	6.1447473	2.4788601
4.1985952412390155	6.206569	2.4912987
4.216133808552567	6.257715	2.5015426
4.233672474674966	6.3924966	2.5283387
4.251211240018741	6.560119	2.5612729
4.268750104996445	6.7914553	2.6060421
4.286289070020643	7.6763787	2.770628
4.303828135503928	9.3334465	3.055069
4.3213673018589125	29.578379	5.438601
4.3389065694982305	90.73123	9.525294
4.356445938834537	165.94983	12.882152
4.3739854102805085	171.26245	13.086728
4.391524984248844	172.10716	13.118962
4.409064661152262	136.08704	11.665635
4.426604441403504	96.42858	9.819805
4.444144325415337	75.60775	8.6952715
4.461684313600543	21.763803	4.6651692
4.47922440637193	22.157656	4.707192
4.496764604142329	20.320093	4.5077815
4.5143049073245916	18.323713	4.2806206
4.531845316331589	16.236609	4.0294676
4.5493858315762195	13.417595	3.6630034
4.566926453471405	11.09288	3.3305976
4.584467182430081	9.123559	3.020523
4.602008018865218	8.050804	2.837394
4.619548963189798	7.4107084	2.7222617
4.637090015816834	6.98715	2.6433218
4.654631177159353	6.7051783	2.5894358
4.672172447630417	6.4865522	2.5468712
4.689713827643102	6.2852163	2.5070333
4.7072553176105085	6.011604	2.4518573
4.724796917945764	5.737633	2.3953357
4.742338629062015	5.625195	2.3717494
4.759880451372434	5.573471	2.36082
4.777422385290215	5.579462	2.3620884
4.794964431228581	5.582428	2.3627162
4.812506589600768	5.599163	2.366255
4.830048860820047	5.637358	2.3743122
4.847591245299709	5.6506615	2.377112
4.8651337434530655	5.6002374	2.366482
4.882676355693457	5.502401	2.3457196
4.900219082434242	5.499715	2.3451471
4.917761924088813	5.492427	2.3435926
4.935304881070575	5.5370684	2.3530977
4.952847953792969	5.554963	2.3568969
4.970391142669449	5.517212	2.3488746
4.9879344481135055	5.489836	2.34304
5.005477870538642	5.392293	2.3221312
5.023021410358394	5.416531	2.3273442
5.040565067986324	5.488094	2.342668
5.05810884383601	5.470718	2.3389566
5.075652738321066	5.442463	2.3329086
5.09319675185512	5.3460436	2.3121512
5.110740884851836	5.3171086	2.3058856
5.128285137724894	5.2942233	2.3009179
5.145829510888007	5.287299	2.2994127
5.163374004754908	5.2660756	2.2947931
5.1809186197393595	5.296614	2.3014374
5.198463356255145	5.3237376	2.3073225
5.216008214716077	5.241119	2.289349
5.233553195535998	5.185566	2.2771838
5.251098299128764	5.2289085	2.2866807
5.268643525908272	5.2224073	2.2852588
5.286188876288432	5.2787757	2.2975585
5.3037343506831895	5.319328	2.306367
5.32127994950651	5.2922397	2.3004868
5.3388256731723915	5.26269	2.2940555
5.356371522094851	5.159596	2.2714744
5.373917496687938	5.19407	2.27905
5.391463597365729	5.2985387	2.3018556
5.40900982454232	5.3868146	2.3209512
5.426556178631843	5.378017	2.319055
5.444102660048449	5.349014	2.3127935
5.4616492692063225	5.299629	2.3020923
5.479196006519669	5.240647	2.2892458
5.496742872402727	5.166214	2.2729306
5.514289867269756	5.1582546	2.2711792
5.531836991535049	5.2201757	2.2847705
5.549384245612924	5.245228	2.2902462
5.566931629917724	5.266075	2.2947931
5.584479144863822	5.31764	2.306001
5.6020267908656205	5.3303614	2.3087575
5.619574568337545	5.322099	2.3069675
5.637122477694054	5.283	2.2984776
5.654670519349629	5.1881223	2.277745
5.672218693718784	5.1402802	2.2672186
5.689767001216059	5.102053	2.2587724
5.707315442256021	5.0983706	2.2579572
5.724864017253266	5.10612	2.2596726
5.7424127266224225	5.1461983	2.2685235
5.75996157077814	5.1624618	2.2721052
5.777510550135105	5.1537056	2.2701774
5.795059665108022	5.1718264	2.274165
5.812608916111639	5.2095346	2.2824404
5.830158303560715	5.3018684	2.3025787
5.847707827870055	5.253332	2.2920148
5.86525748945448	5.3346453	2.309685
5.8828072887288485	5.4609556	2.3368688
5.900357226108044	5.5396767	2.3536518
5.917907302006979	5.596089	2.3656054
5.9354575168406	6.2139993	2.4927895
5.9530078710238765	6.844939	2.6162834
5.970558364971812	7.522927	2.7427955
5.988108999099438	7.902424	2.811125
6.005659773821818	8.502459	2.9158976
6.023210689554039	8.205422	2.8645108
6.040761746711227	8.549616	2.9239726
6.058312945708531	7.8369465	2.7994547
6.075864286961132	7.3662333	2.7140806
6.093415770884244	6.7868133	2.6051512
6.1109673978931065	6.2544937	2.5008986
6.128519168402993	5.6365976	2.374152
6.146071082829204	5.423221	2.3287811
6.163623141587075	5.2120814	2.2829983
6.181175345091969	5.0768075	2.2531772
6.198727693759281	4.9643474	2.2280815
6.216280188004435	4.950829	2.225046
6.233832828242885	4.9002404	2.2136486
6.251385614890126	4.956088	2.2262273
6.268938548361669	4.965753	2.228397
6.286491629073067	4.9786897	2.2312977
6.304044857439898	4.9459605	2.2239516
6.321598233877777	4.8703074	2.2068772
6.339151758802344	4.8735046	2.2076015
6.356705432629277	4.918454	2.217759
6.37425925577428	4.993494	2.2346127
6.391813228653095	4.973812	2.2302046
6.409367351681486	4.995705	2.2351074
6.426921625275259	5.0575285	2.248895
6.44447604985025	5.0944705	2.2570934
6.46203062582232	5.131025	2.2651765
6.47958535360737	5.002227	2.2365658
6.497140233621328	4.9597783	2.227056
6.514695266280161	4.9072857	2.2152395
6.532250451999859	4.9864664	2.2330396
6.549805791196454	5.0597944	2.2493987
6.567361284286002	5.0457134	2.2462666
6.584916931684597	5.029075	2.24256
6.602472733808367	4.962708	2.2277136
6.6200286910734665	4.9844937	2.232598
6.637584803896092	4.992951	2.234491
6.655141072692462	4.935155	2.221521
6.672697497878842	4.924987	2.2192311
6.690254079871514	4.9074755	2.2152822
6.707810819086808	4.9900737	2.2338474
6.725367715941078	5.038033	2.2445562
6.742924770850719	5.045017	2.2461114
6.760481984232151	5.0298376	2.24273
6.778039356501836	4.952736	2.2254744
6.795596888076266	4.9032316	2.2143242
6.813154579371963	4.9215326	2.2184527
6.830712430805492	4.9703846	2.229436
6.84827044279344	5.052622	2.2478037
6.865828615752445	5.043344	2.245739
6.883386950099159	5.0208287	2.2407205
6.900945446250287	5.0228806	2.2411783
6.918504104622553	5.092844	2.256733
6.936062925632727	5.106475	2.259751
6.953621909697607	5.1007223	2.258478
6.971181057234028	5.112251	2.2610288
6.988740368658859	5.104632	2.2593431
7.006299844389007	5.187664	2.2776444
7.023859484841407	5.2542744	2.2922204
7.041419290433036	5.351495	2.3133297
7.058979261580902	5.5298867	2.351571
7.0765393987020495	5.7132564	2.3902419
7.094099702213559	6.03822	2.457279
7.111660172532549	6.3607235	2.5220475
7.129220810076164	6.6903367	2.5865686
7.146781615261595	7.274874	2.6971974
7.16434258850606	7.471383	2.7333832
7.181903730226821	7.9156265	2.8134723
7.1994650408411704	8.092941	2.8448095
7.217026520766437	8.303973	2.8816614
7.234588170419983	8.521702	2.9191954
7.252149990219215	8.628184	2.9373772
7.269711980581568	8.579184	2.9290245
7.2872741419245175	8.347921	2.889277
7.304836474665574	7.884869	2.8080008
7.322398979222286	7.490188	2.7368207
7.339961656012233	7.214579	2.6859968
7.357524505453039	6.861297	2.619408
7.375087527962357	6.6052876	2.5700755
7.392650723957886	6.316288	2.5132227
7.410214093857353	5.9817066	2.4457529
7.427777638078528	5.7436466	2.3965907
7.445341357039213	5.556921	2.3573122
7.4629052511572525	5.460271	2.3367221
7.480469320850524	5.3851886	2.320601
7.498033566536948	5.312421	2.304869
7.5155979886344735	5.1926446	2.2787375
7.5331625875610975	5.1740656	2.2746572
7.550727363734844	5.125617	2.2639825
7.568292317573788	5.1367445	2.2664387
7.585857449496025	5.1255994	2.2639787
7.603422759919705	5.139987	2.267154
7.620988249263007	5.1390004	2.2669363
7.638553917944147	5.2249403	2.2858129
7.656119766381391	5.237411	2.2885392
7.673685794993023	5.282476	2.2983637
7.691252004197388	5.241184	2.2893634
7.70881839441285	5.2996564	2.3020983
7.726384966057826	5.260336	2.2935421
7.743951719550762	5.30136	2.3024683
7.761518655310149	5.269091	2.2954502
7.779085773754511	5.208926	2.2823071
7.796653075302419	5.183645	2.276762
7.814220560372475	5.188318	2.277788
7.831788229383323	5.262882	2.2940972
7.8493560827536495	5.308503	2.304019
7.866924120902174	5.3399763	2.310839
7.884492344247663	5.3219986	2.3069458
7.9020607532089135	5.3006997	2.3023248
7.919629348204771	5.2638717	2.294313
7.937198129654115	5.345788	2.312096
7.954767097975865	5.380329	2.3195536
7.972336253588986	5.4670143	2.3381648
7.989905596912472	5.5090876	2.3471446
8.007475128365371	5.500187	2.3452477
8.025044848366756	5.5118923	2.347742
8.042614757335754	5.56773	2.359604
8.060184855691523	5.622195	2.3711169
8.07775514385327	5.753682	2.3986833
8.095325622240228	5.7579994	2.399583
8.112896291271687	5.8321342	2.4149811
8.130467151366968	5.877229	2.4242997
8.148038202945436	5.907301	2.430494
8.165609446426497	5.9122143	2.4315045
8.183180882229594	5.9540715	2.4400966
8.200752510774217	5.9805484	2.4455159
8.218324332479893	5.929123	2.434979
8.235896347766193	5.9064403	2.430317
8.253468557052724	5.8976946	2.4285169
8.27104096075914	5.89696	2.4283657
8.288613559305137	6.0344076	2.4565032
8.306186353110448	6.0986543	2.4695454
8.32375934259485	6.1852493	2.4870162
8.341332528178162	6.179194	2.4857984
8.358905910280246	6.2546687	2.5009336
8.376479489321003	6.27657	2.5053084
8.394053265720377	6.309029	2.511778
8.411627239898356	6.3626013	2.5224197
8.42920141227497	6.357198	2.5213485
8.44677578327029	6.335412	2.5170245
8.464350353304427	6.2140603	2.4928017
8.48192512279754	6.17156	2.4842625
8.499500092169827	6.1316934	2.4762256
8.51707526184153	6.1727595	2.484504
8.534650632232934	6.152083	2.4803393
8.552226203764365	6.1415534	2.4782157
8.569801976856192	6.1583724	2.4816067
8.587377951928834	6.1916	2.4882925
8.60495412940274	6.2168884	2.4933689
8.622530509698416	6.251986	2.5003972
8.6401070932364	6.4247704	2.534713
8.657683880437283	6.6061387	2.570241
8.675260871721695	6.766057	2.6011646
8.692838067510303	6.877672	2.6225317
8.710415468223834	6.9255366	2.6316414
8.727993074283043	7.066938	2.6583712
8.745570886108737	7.116767	2.667727
8.763148904121765	7.1972847	2.6827755
8.78072712874302	7.197335	2.6827848
8.798305560393441	7.379813	2.716581
8.815884199494006	7.484033	2.735696
8.833463046465745	7.720778	2.7786288
8.851042101729728	7.8534503	2.8024008
8.86862136570707	8.178353	2.859782
8.886200838818924	8.357834	2.890992
8.903780521486505	8.447862	2.9065206
8.921360414131055	8.489477	2.9136708
8.938940517173874	8.533988	2.921299
8.956520831036297	8.694351	2.9486184
8.97410135613971	9.043307	3.0072093
8.99168209290554	9.303622	3.050184
9.009263041755265	9.590283	3.0968182
9.026844203110405	9.75029	3.1225455
9.044425577392525	9.895301	3.1456797
9.062007165023239	10.023899	3.1660542
9.079588966424197	10.312333	3.2112823
9.097170982017108	10.3698015	3.2202177
9.11475321222372	11.249541	3.3540335
9.132335657465825	12.137636	3.483911
9.149918318165264	12.318894	3.5098283
9.167501194743924	13.070707	3.6153433
9.18508428762374	12.857315	3.5857098
9.202667597226693	12.779204	3.5748012
9.220251123974803	12.25166	3.5002372
9.237834868290143	11.803777	3.4356625
9.255418830594836	11.68059	3.4176877
9.273003011311046	11.168928	3.3419945
9.290587410860985	10.937431	3.3071787
9.308172029666911	10.359274	3.2185826
9.32575686815113	10.150991	3.186062
9.343341926735997	8.928818	2.9881127
9.360927205843916	8.68735	2.947431
9.378512705897327	8.410428	2.9000738
9.396098427318728	8.130666	2.8514323
9.413684370530664	8.015739	2.8312082
9.431270535955722	7.9438505	2.8184838
9.448856924016539	7.930009	2.8160272
9.466443535135806	7.8049035	2.7937257
9.484030369736251	7.7556148	2.7848904
9.501617428240658	7.730569	2.78039
9.519204711071852	7.7305784	2.7803917
9.536792218652714	7.7704477	2.7875524
9.55437995140617	7.7943363	2.7918339
9.571967909755191	7.842805	2.8005009
9.589556094122802	7.8902974	2.8089674
9.60714450493207	7.961213	2.8215623
9.624733142606116	8.0000305	2.8284326
9.642322007568108	7.9789352	2.8247008
9.659911100241267	7.8844833	2.8079321
9.677500421048851	7.900294	2.8107462
9.695089970414175	7.9559255	2.820625
9.712679748760609	8.05903	2.838843
9.730269756511557	8.175268	2.8592427
9.747859994090492	8.207084	2.864801
9.765450461920915	8.22403	2.8677568
9.78304116042639	8.166898	2.8577785
9.800632090030527	8.193006	2.8623426
9.81822325115699	8.304471	2.881748
9.835814644229481	8.400265	2.898321
9.853406269671762	8.409654	2.8999403
9.870998127907646	8.301013	2.8811479
9.888590219360985	8.217253	2.866575
9.906182544455698	8.135726	2.8523195
9.923775103615734	8.138072	2.8527305
9.941367897265108	8.161485	2.8568313
9.958960925827878	8.202559	2.864011
9.97655418972816	8.171711	2.8586204
9.994147689390106	8.254797	2.8731163
10.011741425237934	8.214619	2.8661156
10.029335397695904	8.252176	2.8726602
10.04692960718833	8.232714	2.8692706
10.06452405413958	8.337117	2.8874066
10.082118738974064	8.304406	2.8817368
10.099713662116246	8.343789	2.8885617
10.117308823990651	8.332415	2.8865921
10.134904225021844	8.300777	2.881107
10.152499865634445	8.269222	2.8756256
10.170095746253125	8.220083	2.8670688
10.18769186730261	8.229953	2.8687894
10.205288229207675	8.226356	2.8681624
10.222884832393145	8.165441	2.8575234
10.2404816772839	8.092471	2.8447268
10.258078764304868	8.033054	2.8342643
10.275676093881035	8.1074295	2.847355
10.293273666437438	8.096527	2.8454397
10.310871482399158	8.153954	2.8555129
10.32846954219134	8.1443405	2.8538291
10.346067846239173	8.203535	2.8641813
10.363666394967908	8.190276	2.8618658
10.38126518880283	8.248784	2.8720696
10.398864228169298	8.169222	2.858185
10.416463513492713	8.241347	2.8707747
10.434063045198531	8.256786	2.8734624
10.451662823712262	8.304758	2.8817978
10.469262849459467	8.257337	2.8735583
10.486863122865758	8.147415	2.8543677
10.504463644356806	8.160597	2.8566759
10.522064414358338	8.081023	2.842714
10.539665433296118	8.028574	2.833474
10.557266701595987	7.997035	2.827903
10.574868219683818	7.891957	2.8092628
10.592469987985552	7.837901	2.7996252
10.610072006927185	7.7187114	2.778257
10.627674276934751	7.5264354	2.743435
10.64527679843435	7.405221	2.7212536
10.662879571852143	7.2413797	2.6909811
10.680482597614331	7.1520805	2.6743374
10.698085876147173	7.03959	2.6532226
10.715689407876988	6.9810815	2.6421735
10.733293193230146	6.858268	2.6188295
10.750897232633072	6.7894154	2.6056507
10.76850152651225	6.704954	2.5893927
10.786106075294207	6.670629	2.582756
10.803710879405534	6.587695	2.5666506
10.821315939272877	6.493342	2.5482037
10.83892125532294	6.3739185	2.524662
10.856526827982472	6.2319937	2.496396
10.874132657678285	6.1675687	2.483459
10.891738744837243	6.1289897	2.4756796
10.909345089886271	6.113547	2.4725587
10.926951693252343	6.0827985	2.466333
10.944558555362494	6.1000752	2.4698331
10.96216567664381	6.0400395	2.4576492
10.979773057523436	5.931216	2.4354088
10.997380698428573	5.783419	2.404874
11.014988599786477	5.711587	2.3898926
11.032596762024461	5.6816278	2.3836164
11.050205185569892	5.6128616	2.3691478
11.067813870850198	5.6041737	2.3673136
11.085422818292859	5.538903	2.3534875
11.10303202832541	5.556473	2.357217
11.120641501375454	5.4813128	2.3412204
11.138251237870636	5.407834	2.325475
11.155861238238671	5.3573875	2.314603
11.173471502907317	5.259895	2.293446
11.191082032304402	5.2250676	2.2858407
11.208692826857805	5.1776333	2.2754414
11.226303886995465	5.0777264	2.253381
11.243915213145371	4.9947186	2.2348866
11.261526805735578	4.9074287	2.2152717
11.279138665194196	4.8706985	2.206966
11.296750791949393	4.850485	2.2023816
11.314363186429393	4.8233004	2.1962013
11.331975849062479	4.767384	2.183434
11.34958878027699	4.700067	2.1679637
11.36720198050133	4.634257	2.1527324
11.384815450163948	4.614744	2.1481955
11.402429189693366	4.5909276	2.142645
11.420043199518153	4.5196753	2.1259527
11.437657480066942	63.42427	7.963936
11.455272031768422	85.110374	9.225529
11.472886855051353	107.50391	10.368409
11.490501950344528	99.09099	9.954446
11.508117318076819	84.44019	9.189135
11.52573295867715	45.85808	6.7718596
11.543348872574514	4.1459894	2.0361702
11.560965060197946	4.1361985	2.0337646
11.57858152197655	4.0776143	2.0193102
11.59619825833949	4.028373	2.0070806
11.613815269715985	3.9801369	1.995028
11.631432556535323	38.540455	6.208096
11.649050119226837	83.09396	9.115589
11.666667958219929	93.49402	9.66923
11.68428607394406	107.75003	10.380271
11.701904466828756	82.52618	9.084392
11.719523137303586	65.37276	8.085342
11.737142085798196	4.600619	2.1449053
11.754761312742286	3.7319279	1.9318198
11.772380818565619	3.6586037	1.9127476
11.790000603698015	3.6117103	1.90045
11.80762066856935	3.5584605	1.8863882
11.825241013609572	3.572877	1.8902055
11.842861639248683	3.5578818	1.8862349
11.860482545916748	3.5474722	1.8834734
11.878103734043883	3.4646258	1.8613505
11.895725204060282	3.4404454	1.8548437
11.91334695639619	3.4194252	1.8491688
11.930968991481919	3.416189	1.8482935
11.948591309747824	3.4055629	1.8454167
11.966213911624347	3.3969321	1.8430768
11.98383679754198	3.4034224	1.8448367
12.001459967931268	3.3958766	1.8427905
12.019083423222835	3.331191	1.825155
12.036707163847352	3.315245	1.8207814
12.05433119023556	3.2977476	1.8159702
12.071955502818259	3.2286944	1.7968569
12.089580102026313	3.1855183	1.7848021
12.107204988290643	3.126005	1.7680511
12.12483016204224	3.122797	1.7671437
12.142455623712152	3.1310203	1.7694689
12.16008137373149	3.0747004	1.7534823
12.177707412531431	3.0554292	1.7479786
12.19533374054321	3.0260873	1.7395653
12.212960358198126	3.0370238	1.7427058
12.230587265927545	3.008464	1.7344924
12.248214464162889	2.9595656	1.7203388
12.265841953335649	2.9406633	1.7148362
12.283469733877375	2.9589977	1.7201737
12.301097806219685	2.9897923	1.7291017
12.31872617079425	2.937193	1.713824
12.336354828032825	2.8934245	1.7010069
12.353983778367205	2.9040275	1.7041208
12.371613022229262	2.9376094	1.7139456
12.389242560050928	2.9502428	1.717627
12.406872392264201	2.9505935	1.7177292
12.424502519301143	2.9442215	1.7158734
12.442132941593874	2.9081652	1.7053343
12.459763659574586	2.8385143	1.6847891
12.477394673675532	2.8074863	1.6755555
12.49502598432903	2.8230228	1.6801853
12.51265759196746	2.8290324	1.6819727
12.530289497023267	2.8394141	1.6850561
12.547921699928967	2.779305	1.6671247
12.565554201117134	2.755536	1.6599808
12.583187001020404	2.7555208	1.6599761
12.600820100071486	2.7982156	1.6727868
12.618453498703152	2.7983518	1.6728275
12.636087197348235	2.7718835	1.6648974
12.65372119643964	2.7415743	1.65577
12.671355496410326	2.7614908	1.6617734
12.68899009769333	2.8226852	1.680085
12.706625000721749	2.8665462	1.6930878
12.724260205928752	2.9402692	1.7147213
12.741895713747551	2.9353583	1.7132888
12.759531524611454	2.9573023	1.7196809
12.777167638953818	2.9703434	1.7234684
12.794804057208072	3.0138078	1.7360322
12.812440779807702	3.1026769	1.7614417
12.830077807186271	3.2825468	1.81178
12.847715139777405	3.3093915	1.8191733
12.865352778014795	3.4501686	1.857463
12.882990722332197	3.571905	1.8899484
12.90062897316344	3.6416476	1.9083102
12.918267530942412	3.7798312	1.9441788
12.935906396103071	3.6906142	1.9210972
12.953545569079449	3.8250558	1.955775
12.971185050305628	3.5965102	1.8964467
12.988824840215775	3.5963717	1.8964102
13.006464939244115	3.6234126	1.9035263
13.024105347824943	3.5179005	1.8756067
13.041746066392617	3.5876465	1.8941084
13.05938709538157	3.3892803	1.8409998
13.077028435226296	3.383285	1.8393708
13.094670086361363	3.3077242	1.818715
13.112312049221401	3.2142467	1.792832
13.129954324241112	3.1168196	1.7654517
13.147596911855258	2.9414587	1.7150681
13.165239812498685	2.9079037	1.7052577
13.182883026606293	2.8247871	1.6807103
13.200526554613058	2.7517793	1.6588488
13.218170396954017	2.7514284	1.658743
13.235814554064284	2.7314303	1.6527039
13.253459026379034	2.7622383	1.6619983
13.271103814333523	2.6978374	1.6425095
13.288748918363058	2.6864257	1.6390319
13.306394338903031	2.6755831	1.635721
13.32404007638889	2.6848598	1.6385542
13.341686131256164	2.6995163	1.6430205
13.359332503940449	2.6775248	1.6363144
13.376979194877402	2.6370292	1.6238933
13.394626204502751	2.668016	1.6334063
13.412273533252307	2.743578	1.6563749
13.429921181561937	2.7812583	1.6677105
13.447569149867581	2.7752967	1.6659222
13.465217438605247	2.7332668	1.6532595
13.482866048211022	2.6859512	1.6388872
13.500514979121052	2.7134073	1.6472423
13.518164231771568	2.706313	1.6450875
13.535813806598844	2.7045338	1.6445467
13.553463704039254	2.6518598	1.6284531
13.571113924529229	2.6468585	1.6269169
13.588764468505275	2.6402247	1.6248769
13.606415336403956	2.6638188	1.632121
13.624066528661917	2.6754773	1.6356887
13.641718045715882	2.7414167	1.6557224
13.659369888002635	2.8723946	1.694814
13.67702205595903	2.9617724	1.72098
13.694674550021993	3.0525026	1.7471412
13.712327370628532	3.093489	1.7588317
13.729980518215713	3.1594288	1.7774782
13.747633993220681	3.2024314	1.7895339
13.765287796080647	3.218222	1.7939403
13.7829419272329	3.2649767	1.8069247
13.800596387114801	3.2863517	1.8128297
13.818251176163775	3.2925594	1.8145411
13.835906294817324	3.361945	1.8335607
13.853561743513023	3.425121	1.8507082
13.871217522688525	3.4594507	1.8599598
13.888873632781538	3.5032132	1.8716873
13.906530074229858	3.5678115	1.8888651
13.92418684747135	3.6029491	1.8981436
13.941843952943948	3.5382345	1.8810195
13.959501391085665	3.4540555	1.858509
13.977159162334578	3.353907	1.8313675
13.994817267128846	3.3258028	1.8236784
14.012475705906693	3.2289495	1.7969278
14.030134479106424	3.1738052	1.7815176
14.047793587166414	3.078644	1.7546065
14.065453030525108	3.0503979	1.7465389
14.083112809621026	3.0131595	1.7358454
14.100772924892766	2.9807673	1.7264899
14.118433376778997	2.9060078	1.7047017
14.136094165718458	2.802911	1.6741897
14.153755292149969	2.7364502	1.6542219
14.171416756512416	2.6913285	1.6405269
14.189078559244768	2.6638634	1.6321347
14.20674070078606	2.6119027	1.6161382
14.224403181575408	2.5723794	1.6038638
14.242066002051999	2.5326874	1.591442
14.259729162655093	2.5266695	1.5895501
14.277392663824022	2.5046213	1.5825995
14.295056505998208	2.4464946	1.5641274
14.312720689617128	2.407101	1.5514835
14.330385215120348	2.374105	1.5408131
14.348050082947497	2.3935432	1.547108
14.3657152935383	2.4115756	1.5529249
14.383380847332528	2.4396222	1.561929
14.401046744770051	2.4374516	1.561234
14.418712986290798	2.4620924	1.5691056
14.436379572334793	2.4634173	1.5695277
14.454046503342123	2.430168	1.5588996
14.471713779752946	2.3987122	1.5487776
14.489381402007504	2.3692765	1.5392455
14.507049370546113	2.332724	1.5273257
14.524717685809168	2.3106704	1.5200889
14.542386348237134	2.348829	1.532589
14.560055358270553	2.3783479	1.5421894
14.577724716350051	2.415267	1.5541129
14.595394422916325	2.420181	1.5556931
14.61306447841015	2.433931	1.5601062
14.63073488327237	2.4607663	1.568683
14.648405637943917	2.4671223	1.5707076
14.6660767428658	2.5087574	1.5839057
14.683748198479094	2.5276294	1.589852
14.701420005224954	2.5581458	1.5994204
14.719092163544628	2.620429	1.6187739
14.73676467387942	2.6673384	1.6331989
14.754437536670727	2.671292	1.6344088
14.772110752360014	2.6446862	1.6262491
14.78978432138882	2.6596289	1.6308368
14.807458244198777	2.7136288	1.6473095
14.82513252123159	2.7245688	1.6506268
14.842807152929028	2.7543726	1.6596303
14.860482139732962	2.711624	1.6467009
14.87815748208531	2.6783679	1.636572
14.8958331804281	2.658567	1.6305113
14.91350923520342	2.6045473	1.613861
14.931185646853438	2.6418674	1.6253822
14.948862415820408	2.6285396	1.6212771
14.966539542546656	2.678787	1.6367
14.98421702747459	2.6307764	1.6219668
15.001894871046696	2.6322205	1.622412
15.019573073705542	2.6121895	1.6162269
15.037251635893766	2.6063323	1.614414
15.054930558054092	2.6424973	1.625576
15.072609840629323	2.7318978	1.6528454
15.090289484062351	2.8897407	1.6999238
15.107969488796124	3.172697	1.7812066
15.125649855273691	3.559054	1.8865455
15.14333058393817	4.033381	2.008328
15.161011675232768	4.936508	2.2218254
15.17869312960076	6.273629	2.5047214
15.196374947485506	8.092029	2.844649
15.214057129330447	11.180744	3.343762
15.231739675579114	15.899564	3.9874258
15.249422586675102	21.084246	4.5917583
15.267105863062092	24.379696	4.93758
15.284789505183847	24.843428	4.9843183
15.302473513484218	22.879042	4.783204
15.320157888407127	19.27913	4.390801
15.337842630396578	15.064671	3.8813233
15.355527739896656	11.726459	3.4243917
15.37321321735153	9.127405	3.0211596
15.39089906320545	6.629823	2.5748444
15.408585277902748	4.9834146	2.2323563
15.42627186188783	3.8139956	1.9529454
15.443958815605198	3.2619426	1.8060849
15.461646139499424	2.9411385	1.7149748
15.479333834015168	2.7674031	1.6635513
15.497021899597165	2.6796558	1.6369654
15.514710336690234	2.6130726	1.6165001
15.53239914573928	2.5601094	1.6000342
15.550088327189297	2.5326605	1.5914335
15.567777881485336	2.5189002	1.5871043
15.58546780907256	2.525452	1.589167
15.6031581103962	2.5103784	1.5844173
15.620848785901568	2.5064442	1.5831753
15.638539836034063	2.4820557	1.5754541
15.656231261239173	2.4410388	1.5623825
15.673923061962451	2.4192662	1.5553991
15.691615238649552	2.4095104	1.5522598
15.709307791746202	2.3662117	1.5382495
15.727000721698221	2.3889377	1.5456189
15.744694028951498	2.3641658	1.5375844
15.76238771395202	2.361108	1.5365897
15.780081777145844	2.3634086	1.5373381
15.797776218979125	2.34476	1.5312608
15.815471039898094	2.3481967	1.5323827
15.833166240349064	2.326349	1.5252373
15.850861820778437	2.333481	1.5275736
15.868557781632699	2.3905702	1.5461469
15.886254123358412	2.4115589	1.5529195
15.903950846402232	2.3903968	1.5460908
15.921647951210897	2.3563561	1.5350428
15.939345438231225	2.3710368	1.5398171
15.957043307910133	2.3636744	1.5374246
15.974741560694602	2.3521404	1.533669
15.992440197031714	2.3257022	1.5250252
16.01013921736862	2.3433406	1.5307974
16.02783862215259	2.3591466	1.5359514
16.045538411830933	2.3712964	1.5399014
16.06323858685107	2.3739288	1.5407559
16.080939147660512	2.366573	1.538367
16.09864009470684	2.3922954	1.5467046
16.11634142843774	2.39919	1.5489318
16.134043149300954	2.3832018	1.5437622
16.15174525774433	2.3717613	1.5400524
16.169447754215817	2.4001064	1.5492277
16.18715063916342	2.4970863	1.5802171
16.204853913035244	2.5552454	1.5985135
16.222557576279478	2.5222485	1.5881588
16.240261629344403	22.457933	4.7389803
16.257966072678386	42.948536	6.553513
16.275670906729868	38.091373	6.171821
16.293376131947387	2.5034559	1.5822313
16.31108174877957	2.5232344	1.5884691
16.328787757675133	2.5279176	1.5899427
16.34649415908287	2.5504074	1.5969995
16.364200953451657	2.5931036	1.6103116
16.38190814123048	2.616761	1.6176406
16.39961572286839	2.6350355	1.6232792
16.41732369881455	2.6759694	1.635839
16.43503206951817	2.687046	1.6392212
16.45274083542859	2.7172763	1.6484163
16.47044999699522	2.7576704	1.6606236
16.488159554667558	2.8528717	1.6890446
16.505869508895184	2.92494	1.7102456
16.523579860127786	2.9728837	1.7242053
16.541290608815117	3.001319	1.7324315
16.559001755407035	2.999084	1.7317864
16.57671330035348	3.0712128	1.7524875
16.59442524410448	3.1045976	1.7619869
16.61213758711015	3.185774	1.7848737
16.629850329820705	3.2467577	1.8018762
16.647563472686436	3.3440247	1.8286674
16.665277016157724	3.423456	1.8502584
16.682990960685053	3.4961872	1.8698094
16.70070530671898	3.53426	1.8799628
16.718420054710155	3.563316	1.8876748
16.736135205109335	3.5649111	1.8880972
16.753850758367335	3.571624	1.8898741
16.771566714935087	3.5939631	1.8957751
16.789283075263597	3.6445143	1.9090611
16.80699983980398	3.7363343	1.93296
16.82471700900741	3.8159118	1.9534359
16.84243458332518	3.924208	1.9809613
16.860152563208665	3.9473727	1.9867996
16.87787094910932	3.9870496	1.9967598
16.89558974147871	4.0579667	2.0144396
16.913308940768466	4.139778	2.0346444
16.931028547430333	4.189308	2.0467799
16.94874856191613	4.2311397	2.0569735
16.966468984677785	4.317684	2.0779037
16.98418981616729	4.4159164	2.1014082
17.00191105683676	4.4220757	2.1028733
17.019632707138374	4.4263906	2.103899
17.03735476752442	4.4783216	2.1162045
17.05507723844728	4.527396	2.1277678
17.072800120359403	4.617517	2.148841
17.090523413713353	4.680402	2.1634235
17.108247118961785	4.7123923	2.1708045
17.125971236557437	4.704809	2.1690571
17.143695766953133	4.6720376	2.1614897
17.161420710601806	4.6726184	2.161624
17.179146067956477	4.7127438	2.1708856
17.19687183947025	4.7481284	2.1790202
17.21459802559634	4.758953	2.1815026
17.232324626788028	4.677014	2.1626406
17.25005164349871	4.67787	2.1628385
17.267779076181863	4.692861	2.1663013
17.285506925291074	4.6843624	2.1643388
17.30323519127999	4.654524	2.1574345
17.320963874602384	4.5891714	2.142235
17.33869297571211	4.5550933	2.1342664
17.356422495063114	4.504847	2.1224625
17.37415243310944	4.513146	2.1244166
17.391882790305218	4.4563265	2.1110013
17.40961356710468	4.483567	2.1174436
17.42734476396215	4.5079813	2.1232007
17.445076381332044	4.505014	2.1225019
17.462808419668868	4.563132	2.136149
17.48054087942723	4.6928315	2.1662943
17.498273761061835	4.991277	2.2341166
17.51600706502747	5.4073687	2.3253748
17.533740791779024	6.1550026	2.4809277
17.551474941771485	7.576685	2.7525778
17.56920951545993	8.758857	2.9595366
17.586944513299528	10.999555	3.3165576
17.60467993574556	12.724121	3.5670886
17.622415783253373	14.493888	3.8070838
17.64015205627843	15.877598	3.9846704
17.657888755276293	16.972872	4.1198144
17.675625880702604	17.502676	4.18362
17.69336343301311	17.422836	4.174067
17.71110141266366	16.641415	4.079389
17.728839820110178	15.511291	3.9384375
17.746578655808705	14.445509	3.8007247
17.764317920215372	12.866202	3.5869489
17.7820576137864	11.249693	3.3540561
17.79979773697811	9.1898	3.0314684
17.81753829024692	7.295996	2.7011101
17.835279274049356	5.745104	2.3968947
17.85302068884201	4.764707	2.1828208
17.870762535081607	4.201091	2.0496562
17.888504813224934	3.862361	1.965289
17.90624752372891	3.6726396	1.9164132
17.923990667050536	3.5999277	1.8973476
17.941734243646895	3.5718818	1.8899423
17.959478253975185	3.540577	1.8816421
17.9772226984927	3.4622943	1.8607241
17.994967577656833	3.3943446	1.8423747
18.01271289192506	3.342903	1.8283607
18.030458641754965	3.3498938	1.8302715
18.04820482760425	3.3499205	1.8302788
18.06595144993067	3.3452928	1.8290142
18.083698509192125	3.3108919	1.8195857
18.101446005846576	3.2406301	1.8001751
18.119193940352105	3.1627362	1.7784083
18.136942313166887	3.1210916	1.7666612
18.1546911247492	3.1473646	1.7740813
18.1724403755574	3.229153	1.7969844
18.19019006604997	3.2307904	1.7974399
18.207940196685467	3.18299	1.7840936
18.225690767922575	3.1753623	1.7819546
18.243441780220046	3.1543977	1.7760624
18.261193234036764	3.1382074	1.7714987
18.278945129831676	3.0894763	1.7576907
18.29669746806386	3.0694969	1.751998
18.314450249192483	3.0747633	1.7535003
18.3322034736768	3.0742376	1.7533504
18.349957141976184	3.0773637	1.7542416
18.3677112545501	3.0748851	1.753535
18.385465811858108	3.0575469	1.7485843
18.403220814359884	3.032158	1.7413093
18.420976262515172	3.0815473	1.7554337
18.43873215678387	3.1217775	1.7668552
18.456488497625923	3.1266215	1.7682256
18.474245285501407	3.1675868	1.7797716
18.492002520870486	3.220483	1.7945704
18.50976020419343	3.3427727	1.8283252
18.527518335930615	3.7098763	1.926104
18.545276916542516	4.33857	2.0829234
18.563035946489688	4.518846	2.1257577
18.580795426232832	4.945762	2.223907
18.598555356232698	4.8047614	2.1919765
18.616315736950185	5.1391134	2.2669613
18.63407656884626	4.7540073	2.1803687
18.65183785238201	4.963237	2.2278323
18.669599588018617	4.719112	2.1723516
18.68736177621737	4.7341847	2.1758182
18.705124417439652	4.7003217	2.1680226
18.72288751214696	4.510522	2.1237988
18.740651060800886	4.6685295	2.160678
18.758415063863115	4.3480372	2.0851948
18.77617952179546	4.511285	2.1239786
18.793944435059814	4.2527385	2.062217
18.811709804118184	4.2304473	2.0568051
18.829475629432675	4.1779575	2.0440052
18.8472419114655	3.979285	1.9948145
18.86500865067897	4.090054	2.0223882
18.88277584753551	3.7767124	1.9433765
18.90054350249763	3.79446	1.9479374
18.918311616027957	3.533298	1.8797069
18.936080188589226	3.426073	1.8509655
18.953849220644265	3.0694108	1.7519734
18.971618712656007	2.8652318	1.6926996
18.9893886650875	2.8587437	1.690782
19.007159078401887	8.054753	2.8380897
19.024929953062408	32.94961	5.7401752
19.042701289532435	32.90709	5.73647
19.060473088275405	25.448254	5.044626
19.07824534975489	2.673136	1.6349728
19.096018074434568	2.6196394	1.61853
19.113791262778197	2.5864966	1.6082588
19.13156491524966	2.5876424	1.608615
19.149339032312945	2.5805619	1.6064128
19.167113614432136	2.560587	1.6001834
19.184888662071433	2.5623846	1.600745
19.202664175695123	2.5058873	1.5829995
19.220440155767623	2.4870844	1.5770493
19.238216602753447	2.491282	1.5783795
19.2559935171172	2.5195723	1.587316
19.27377089932361	2.544128	1.5950322
19.291548749837514	2.5341535	1.5919025
19.309327069123835	2.5488162	1.5965012
19.32710585764763	2.567806	1.6024375
19.344885115874032	2.5766675	1.6052002
19.362664844268313	2.55135	1.5972946
19.380445043295822	2.5347733	1.5920972
19.39822571342203	2.4867647	1.5769479
19.41600685511252	2.486307	1.5768027
19.43378846883297	2.5120554	1.5849465
19.451570555049173	2.5396187	1.5936182
19.469353114227037	2.5190666	1.5871568
19.48713614683254	2.493699	1.5791451
19.50491965333182	2.4483125	1.5647085
19.52270363419109	2.4275484	1.5580592
19.540488089876686	2.4416757	1.5625862
19.55827302085503	2.456476	1.5673149
19.576058427592674	2.4823725	1.5755547
19.593844310556282	2.485949	1.5766892
19.611630670212598	2.4976835	1.5804061
19.629417507028506	2.521583	1.5879493
19.64720482147098	2.5148938	1.5858417
19.6649926140071	2.5098991	1.5842661
19.682780885104084	2.475028	1.5732222
19.70056963522921	2.4652684	1.5701174
19.718358864849908	2.477015	1.5738536
19.7361485744337	2.4904704	1.5781224
19.753938764448215	2.5053232	1.5828212
19.771729435361202	2.5193748	1.5872539
19.789520587640506	2.4778461	1.5741175
19.807312221754092	2.475714	1.5734402
19.825104338170043	2.4935055	1.5790838
19.842896937356517	2.5362396	1.5925575
19.860690019781824	2.52933	1.5903867
19.87848358591436	2.4987955	1.5807579
19.896277636222635	2.4632623	1.5694784
19.914072171175278	2.4466875	1.5641891
19.931867191241015	2.4768727	1.5738083
19.94966269688869	2.4960582	1.5798918
19.967458688587264	2.517524	1.5866708
19.985255166805807	2.5001414	1.5811836
20.00305213201348	2.486965	1.5770113
20.020849584679578	2.472612	1.5724541
20.038647525273507	2.4908962	1.5782573
20.05644595426477	2.4603102	1.5685376
20.07424487212299	2.436394	1.5608952
20.092044279317903	2.4101446	1.552464
20.109844176319353	2.423564	1.55678
20.127644563597304	2.4513702	1.5656853
20.145445441621817	2.4529202	1.5661801
20.16324681086307	2.4593983	1.5682468
20.181048671791373	2.4117594	1.552984
20.198851024877122	2.3874433	1.5451354
20.216653870590836	2.3675058	1.5386702
20.234457209403146	2.3561375	1.5349715
20.252261041784802	2.3679626	1.5388186
20.270065368206662	2.3442671	1.5310999
20.287870189139685	2.3576536	1.5354652
20.305675505054968	2.36462	1.5377321
20.323481316423702	2.3558438	1.5348759
20.341287623717207	2.3291938	1.5261697
20.359094427406884	2.3330872	1.5274447
20.376901727964288	2.3538964	1.5342413
20.39470952586107	2.3487022	1.5325476
20.41251782156899	2.3601882	1.5362904
20.430326615559935	2.3824124	1.5435065
20.448135908305886	2.3757577	1.5413493
20.465945700278965	2.3596494	1.536115
20.483755991951384	2.370352	1.5395948
20.50156678379548	2.3749022	1.5410718
20.519378076283708	2.3507302	1.5332091
20.537189869888635	2.3302417	1.5265129
20.55500216508294	2.3311603	1.5268137
20.572814962339415	2.3311884	1.526823
20.59062826213098	2.3351655	1.5281248
20.60844206493066	2.313409	1.5209895
20.626256371211593	2.311482	1.5203558
20.644071181447032	2.3210382	1.5234954
20.66188649611036	2.351977	1.5336157
20.67970231567506	2.3719802	1.5401235
20.697518640614742	2.368572	1.5390166
20.715335471403122	2.3703864	1.5396059
20.73315280851404	2.3903387	1.546072
20.750970652421447	2.3718925	1.540095
20.768789003599412	2.3555715	1.5347872
20.786607862522136	2.3233938	1.5242683
20.8044272296639	2.3377829	1.528981
20.82224710549913	2.343525	1.5308576
20.84006749050237	2.333612	1.5276164
20.857888385148268	3.8355727	1.9584619
20.8757097899116	45.91002	6.7756934
20.893531705267254	64.76473	8.047654
20.911354131690224	83.84037	9.156439
20.92917706965566	69.11344	8.31345
20.94700051963877	50.153584	7.0819197
20.96482448211493	29.410437	5.423139
20.982648957559622	4.136428	2.033821
21.00047394644843	2.254609	1.5015355
21.01829944925707	2.2458482	1.4986154
21.036125466461375	2.2326903	1.494219
21.053951998537297	2.2355902	1.4951891
21.071779045960906	2.2329626	1.49431
21.089606609208378	2.2180386	1.4893081
21.10743468875603	2.2204823	1.4901283
21.12526328508028	2.2446148	1.4982039
21.143092398657675	2.2360907	1.4953563
21.16092202996488	2.2018108	1.48385
21.17875217947867	2.1739748	1.4744405
21.19658284767596	2.1614082	1.4701729
21.21441403503377	2.178202	1.4758732
21.232245742029225	2.177152	1.4755175
21.2500779691396	2.183295	1.4775977
21.26791071684227	2.1886759	1.4794174
21.28574398561475	2.208205	1.486003
21.30357777593465	2.2011485	1.4836268
21.321412088279704	2.183526	1.4776759
21.339246923127792	2.1606412	1.4699119
21.357082280956888	2.152309	1.467075
21.3749181622451	2.1562495	1.4684174
21.392754567470647	2.141799	1.4634886
21.41059149711187	2.1058416	1.4511518
21.42842895164726	2.1146379	1.4541794
21.446266931555378	2.144374	1.4643681
21.464105437314945	2.1374893	1.4620155
21.481944469404798	2.1292307	1.4591883
21.49978402830388	2.104348	1.4506371
21.51762411449127	2.1057365	1.4511156
21.53546472844617	2.085505	1.4441278
21.553305870647876	2.0647507	1.436924
21.571147541575865	2.0612562	1.4357076
21.58898974170967	2.0835793	1.4434608
21.60683247152899	2.1170595	1.4550118
21.62467573151363	2.1071053	1.4515872
21.642519522143523	2.0630412	1.4363291
21.660363843898722	2.0402503	1.4283733
21.6782086972594	2.07134	1.4392151
21.696054082705864	2.0761657	1.4408906
21.713900000718535	2.0636837	1.4365528
21.73174645177795	2.059296	1.4350247
21.749593436364794	2.0458014	1.4303151
21.767440954959845	2.0198376	1.4212099
21.785289008044032	1.9936872	1.4119799
21.803137596098388	1.984835	1.4088417
21.820986719604086	2.0113492	1.4182204
21.838836379042412	2.043688	1.4295762
21.85668657489478	2.0460732	1.4304101
21.87453730764273	2.0235853	1.4225278
21.892388577767914	2.0174215	1.4203596
21.91024038575213	2.0009475	1.4145485
21.928092732077285	1.9784328	1.4065677
21.945945617225426	1.9556136	1.3984326
21.963799041678694	1.9611355	1.4004055
21.981653005919398	31.332	5.5974994
21.999507510429943	78.17338	8.841571
22.01736255569286	73.11903	8.550967
22.035218142190818	4.228743	2.0563908
22.05307427040661	2.0343137	1.4262937
22.07093094082315	2.0256395	1.4232496
22.088788153923474	2.0032015	1.415345
22.106645910190746	1.9907932	1.4109547
22.12450421010827	1.9618733	1.4006689
22.142363054159464	1.9737942	1.4049178
22.16022244282787	1.985273	1.4089972
22.178082376597164	2.0070426	1.4167013
22.195942855951145	1.9837557	1.4084586
22.213803881373742	1.9894732	1.4104868
22.231665453349002	2.0047793	1.4159023
22.24952757236111	2.0116024	1.4183097
22.26739023889438	1.9918448	1.4113274
22.28525345343323	1.9471143	1.3953904
22.30311721646225	1.9524097	1.3972865
22.320981528466113	1.9485239	1.3958954
22.33884638992964	1.9535856	1.3977072
22.356711801337788	1.9717032	1.4041735
22.37457776317561	1.988088	1.4099958
22.392444275928337	1.9745102	1.4051727
22.410311340081282	1.9420384	1.3935704
22.428178956119904	1.9490639	1.3960888
22.446047124529805	1.9692694	1.4033066
22.46391584579669	1.9463302	1.3951094
22.481785120406414	1.9476364	1.3955774
22.49965494884496	1.988488	1.4101375
22.51752533159841	1.9902179	1.4107509
22.53539626915302	2.0007331	1.4144727
22.553267761995137	2.0169334	1.4201878
22.571139810611264	1.989543	1.4105116
22.589012415488025	1.9448621	1.3945831
22.60688557711216	1.9479697	1.3956969
22.624759295970566	1.9512612	1.3968755
22.642633572550263	1.9573327	1.3990471
22.660508407338362	1.9177133	1.3848152
22.67838380082217	1.9564254	1.3987228
22.696259753489077	1.9650884	1.4018161
22.714136265826614	1.9206848	1.3858877
22.73201333832246	1.9140571	1.3834945
22.74989097146439	1.9338809	1.3906405
22.76776916574035	1.9342091	1.3907585
22.785647921638393	1.9017291	1.3790319
22.803527239646712	1.9241251	1.3871284
22.82140712025363	1.9320344	1.3899764
22.839287563947593	1.9487442	1.3959743
22.85716857121719	1.9436908	1.3941631
22.875050142551135	1.9458798	1.394948
22.892932278438277	1.9277018	1.388417
22.910814979367604	1.9128494	1.383058
22.928698245828222	1.8589118	1.3634192
22.946582078309387	1.8504374	1.3603078
22.96446647730047	1.8572937	1.3628256
22.98235144329098	1.857255	1.3628114
23.000236976770562	1.8646759	1.3655313
23.018123078229	1.8919325	1.3754754
23.03600974815619	1.936296	1.3915086
23.053896987042194	1.9229033	1.3866879
23.071784795377173	1.9291806	1.3889495
23.08967317365145	1.9253105	1.3875556
23.10756212235546	1.9041636	1.3799144
23.125451641979787	1.8802639	1.3712271
23.143341733015134	1.901453	1.3789319
23.161232395952357	1.9126544	1.3829875
23.179123631282426	1.900269	1.3785025
23.197015439496468	1.9274443	1.3883243
23.214907821085717	1.9587184	1.3995422
23.23280077654157	1.972813	1.4045687
23.250694306355538	1.9384809	1.3922933
23.268588411019277	1.9434907	1.3940914
23.28648309102458	1.9691414	1.403261
23.304378346863356	1.9787339	1.4066747
23.322274179027676	1.9514744	1.3969518
23.340170588009723	1.9174291	1.3847127
23.358067574301852	1.901589	1.3789811
23.37596513839651	1.9289566	1.3888688
23.39386328078629	1.9509748	1.396773
23.411762001963947	1.9621053	1.4007517
23.429661302422353	1.9686835	1.4030979
23.4475611826545	1.9557644	1.3984865
23.46546164315356	1.924582	1.3872931
23.48336268441279	1.897844	1.3776226
23.501264306925638	1.8874885	1.3738589
23.51916651118564	1.9311321	1.3896518
23.537069297686497	1.9567242	1.3988296
23.554972666922037	1.9978094	1.4134389
23.57287661938623	1.9508724	1.3967364
23.59078115557318	1.9334846	1.3904979
23.608686275977128	1.8982201	1.3777591
23.62659198109246	1.9338148	1.3906167
23.6444982714137	1.9276884	1.3884121
23.66240514743549	1.9155012	1.3840164
23.68031260965263	1.9043623	1.3799864
23.698220658560068	1.8610935	1.3642191
23.716129294652845	1.8493121	1.3598942
23.7340385184262	1.8477575	1.3593224
23.75194833037546	1.8892612	1.374504
23.769858730996123	1.9398632	1.3927897
23.78776972078382	1.9831605	1.4082474
23.80568130023431	1.9516929	1.39703
23.823593469843495	1.8826241	1.3720875
23.841506230107424	1.8297408	1.3526791
23.859419581522275	1.8496248	1.3600091
23.87733352458438	1.8299491	1.3527561
23.89524805979019	1.8792415	1.3708543
23.913163187636318	1.9143999	1.3836184
23.931078908619508	1.9595176	1.3998277
23.948995223236633	1.9379923	1.392118
23.966912131984735	1.9601059	1.4000378
23.98482963536096	2.00037	1.4143444
24.002747733862616	1.9816575	1.4077135
24.020666427987155	1.991834	1.4113235
24.038585718232156	2.0330536	1.425852
24.056505605095353	2.0689516	1.438385
24.074426089074617	2.112733	1.4535244
24.092347170667946	2.1227868	1.4569787
24.110268850373515	2.1011925	1.4495491
24.128191128689586	2.0503252	1.4318956
24.146114006114626	2.0520635	1.4325025
24.164037483147187	2.0319593	1.4254681
24.181961560286005	1.994318	1.4122032
24.199886238029926	1.9927801	1.4116586
24.21781151687797	2.0315194	1.4253138
24.235737397329274	2.005833	1.4162743
24.253663879883135	2.0433524	1.4294587
24.271590965038975	2.0662007	1.4374285
24.289518653296376	2.10088	1.4494412
24.30744694515505	2.06412	1.4367046
24.32537584111486	2.0552769	1.4336237
24.34330534167581	2.0623875	1.4361014
24.361235447338046	2.0487385	1.4313415
24.379166158601876	2.0299792	1.4247735
24.39709747596772	2.0264351	1.4235291
24.41502939993615	2.0326016	1.4256934
24.432961931007917	2.0385742	1.4277865
24.450895069683856	2.0354528	1.426693
24.468828816465	2.0073552	1.4168116
24.4867631718525	2.0278304	1.4240191
24.504698136347656	2.013809	1.4190874
24.52263371045192	1.9727502	1.4045463
24.540569894666874	1.97521	1.4054216
24.558506689494266	1.9472128	1.3954257
24.57644409543597	1.9438	1.3942022
24.594382112994012	1.9108927	1.3823504
24.61232074267057	1.9285566	1.3887248
24.630259984967953	1.9327027	1.3902167
24.64819984038863	1.9486144	1.3959278
24.66614030943522	1.9675549	1.4026955
24.684081392610462	1.985069	1.4089248
24.702023090417274	2.01434	1.4192744
24.7199654033587	2.0280273	1.4240882
24.737908331937927	2.0159307	1.4198347
24.755851876658305	2.033934	1.4261606
24.773796038023324	2.026772	1.4236474
24.79174081653661	2.064688	1.4369022
24.809686212701962	2.1150665	1.4543269
24.827632227023294	2.1375558	1.4620383
24.8455788600047	2.076905	1.4411471
24.8635261121504	2.075754	1.4407477
24.88147398396475	2.0889137	1.4453075
24.899422475952303	2.0636053	1.4365255
24.917371588617698	2.0636551	1.4365427
24.935321322465768	2.2003944	1.4833727
24.953271678001478	2.3618522	1.5368319
24.97122265572994	2.5350158	1.5921733
24.989174256156414	2.7940905	1.6715534
25.00712647978632	3.2146215	1.7929366
25.02507932712521	3.7839453	1.9452366
25.043032798678798	4.27406	2.06738
25.060986894952933	4.945082	2.2237542
25.078941616453637	5.7508273	2.3980882
25.096896963687055	6.7328544	2.5947745
25.114852937159508	7.970621	2.8232288
25.132809537377444	8.493568	2.9143727
25.150766764847468	8.498455	2.915211
25.168724620076347	7.7994547	2.7927504
25.186683103570985	6.7013	2.588687
25.204642215838426	5.5706344	2.3602192
25.222601957385894	4.223768	2.0551808
25.24056232872074	3.2356937	1.7988034
25.25852333035048	2.5913942	1.6097808
25.276484962782778	2.248739	1.4995797
25.294447226525435	2.067459	1.4378662
25.312410122086423	1.9818931	1.4077972
25.330373649973843	1.9004129	1.3785547
25.348337810695988	1.9028491	1.3794379
25.366302604761245	1.8894268	1.3745643
25.384268032678207	1.8870912	1.3737143
25.40223409495558	1.8882567	1.3741385
25.420200792102257	1.9091882	1.3817338
25.438168124627246	1.9037783	1.3797747
25.45613609303974	1.9267517	1.3880749
25.474104697849057	1.9370121	1.3917658
25.492073939564698	1.9368829	1.3917193
25.510043818696285	1.9163041	1.3843063
25.528014335753614	1.8557652	1.3622648
25.54598549124664	1.8062085	1.3439525
25.56395728568544	1.8137006	1.346737
25.58192971958028	1.8656237	1.3658783
25.59990279344156	1.8444028	1.3580879
25.617876507779833	1.8159263	1.3475631
25.635850863105826	1.8433235	1.3576905
25.653825859930386	1.9046819	1.3801022
25.671801498764548	1.956863	1.3988792
25.68977778011949	1.9287348	1.3887889
25.707754704506524	1.8442725	1.35804
25.725732272437153	1.7942184	1.3394843
25.743710484423012	1.8308164	1.3530767
25.761689340975888	1.8776094	1.3702589
25.77966884260774	1.9177213	1.3848181
25.797648989830662	1.8998382	1.3783462
25.815629783156922	1.898408	1.3778273
25.83361122309895	1.8400162	1.356472
25.85159331016929	1.8259476	1.3512763
25.869576044880695	1.8016121	1.3422414
25.887559427746034	1.816189	1.3476605
25.90554345927836	1.848176	1.3594763
25.92352813999086	1.8630502	1.364936
25.94151347039689	1.8403606	1.356599
25.959499451009965	1.8219335	1.3497902
25.97748608234374	1.8320496	1.3535323
25.995473364912062	1.8257022	1.3511854
26.013461299228904	1.8752719	1.3694056
26.03144988580839	1.880488	1.3713089
26.04943912516483	1.8569672	1.3627058
26.067429017812675	1.8130648	1.346501
26.085419564266537	1.8255186	1.3511175
26.103410765041186	1.8075688	1.3444586
26.12140262065155	1.8390026	1.3560983
26.139395131612723	1.8735493	1.3687766
26.157388298439948	1.8554721	1.3621571
26.17538212164861	1.8006108	1.3418684
26.193376601754295	1.78779	1.3370826
26.211371739272714	1.8067119	1.3441398
26.229367534719746	1.8018486	1.3423295
26.247363988611433	1.7750324	1.3323034
26.26536110146397	1.7436259	1.3204643
26.283358873793727	1.7509893	1.3232496
26.301357306117204	1.8223461	1.349943
26.319356398951104	1.81559	1.3474383
26.33735615281224	1.8557678	1.3622657
26.35535656821762	1.8980774	1.3777072
26.373357645684404	1.8776734	1.3702822
26.39135938572991	1.8292022	1.35248
26.409361788871614	1.8022916	1.3424946
26.427364855627165	1.8017434	1.3422904
26.445368586514352	1.7704216	1.3305719
26.46337298205115	1.7677563	1.3295699
26.48137804275568	1.7942235	1.3394862
26.499383769146217	1.8521926	1.3609529
26.517390161741215	1.8758477	1.3696159
26.53539722105928	1.8612267	1.3642678
26.553404947619182	1.8434502	1.3577372
26.571413341939856	1.8730148	1.3685813
26.589422404540397	1.8942776	1.3763275
26.60743213594006	1.8561147	1.362393
26.62544253665827	1.8385563	1.3559338
26.64345360721459	1.8059115	1.343842
26.66146534812879	1.8034297	1.3429184
26.679477759920758	1.8118289	1.3460419
26.69749084311057	1.8504516	1.360313
26.71550459821847	1.8506912	1.3604012
26.733519025764842	1.8789661	1.3707539
26.751534126270258	1.8398612	1.3564148
26.769549900255434	1.8252608	1.3510221
26.787566348241267	1.804651	1.3433731
26.80558347074881	1.8382748	1.35583
26.823601268299267	1.8702213	1.3675604
26.841619741414036	1.8877025	1.3739369
26.85963889061465	1.8420044	1.3572047
26.877658716422832	1.8434563	1.3577394
26.89567921936045	1.8367516	1.3552681
26.913700399949544	1.8332752	1.353985
26.93172225871233	1.8569708	1.3627071
26.949744796171174	1.8856248	1.3731805
26.967768012848605	1.912642	1.382983
26.98579190926733	1.8685448	1.3669473
27.003816485950225	1.7968361	1.3404611
27.021841743420318	1.7503883	1.3230224
27.039867682200814	1.7793069	1.3339067
27.057894302815072	1.8580548	1.3631048
27.07592160578664	1.8942193	1.3763064
27.0939495916392	1.8677944	1.3666728
27.111978260896635	1.8568918	1.3626782
27.13000761408296	1.8154584	1.3473895
27.148037651722397	1.7761664	1.332729
27.166068374339304	1.8218036	1.349742
27.184099782458215	1.8100352	1.3453755
27.20213187660384	1.7699008	1.3303761
27.22016465730105	1.7704554	1.3305846
27.23819812507487	1.861969	1.3645399
27.256232280450533	1.8627068	1.3648101
27.274267123953383	1.8009162	1.3419822
27.292302656108987	1.8119584	1.3460901
27.31033887744306	1.8513622	1.3606477
27.32837578848146	1.8475021	1.3592285
27.34641338975026	1.8432782	1.3576738
27.364451681775673	1.8537169	1.3615127
27.382490665084074	1.8536294	1.3614806
27.400530340202046	1.8416201	1.357063
27.41857070765629	1.8479012	1.3593754
27.436611767973726	1.8603519	1.3639472
27.454653521681404	1.8678839	1.3667055
27.472695969306564	1.8740976	1.3689768
27.490739111376627	1.877618	1.370262
27.508782948419153	1.8503932	1.3602916
27.526827480961902	1.8012317	1.3420998
27.54487270953279	1.8020711	1.3424125
27.562918634659898	1.7866144	1.336643
27.580965256871508	1.7644607	1.32833
27.599012576696026	1.7918217	1.3385894
27.617060594662068	1.8188276	1.3486391
27.63510931129842	1.809864	1.3453119
27.65315872713401	1.7999094	1.341607
27.67120884269797	1.7929224	1.3390005
27.68925965851958	1.8069059	1.3442119
27.707311175128307	1.8298616	1.3527238
27.725363393053787	1.8700235	1.367488
27.74341631282583	1.8659978	1.3660153
27.7614699349744	1.8408513	1.3567798
27.77952426002968	2.0198448	1.4212124
27.797579288521973	2.1413953	1.4633508
27.815635020981784	2.5371861	1.5928547
27.83369145793979	2.5802453	1.6063142
27.85174859992682	2.4152765	1.554116
27.869806447473923	2.3174374	1.5223131
27.887865001112267	2.0627193	1.4362171
27.905924261373233	2.0153732	1.4196384
27.92398422878836	1.9478438	1.3956517
27.94204490388936	1.8670151	1.3663876
27.96010628720813	1.8836058	1.3724452
27.978168379276728	1.9227957	1.3866491
27.9962311806274	1.8946472	1.3764619
28.014294691792568	1.8695481	1.3673142
28.0323589133048	1.8316085	1.3533694
28.050423845696887	1.8065376	1.344075
28.068489489501758	1.7928711	1.3389814
28.086555845252523	1.8113717	1.345872
28.104622913482487	1.8339744	1.354243
28.122690694725115	1.830857	1.3530917
28.14075918951405	1.8917038	1.3753922
28.15882839838312	1.9830035	1.4081916
28.176898321866304	1.9834768	1.4083596
28.1949689604978	1.9251032	1.3874809
28.213040314811945	1.8881081	1.3740845
28.23111238534327	1.8673122	1.3664963
28.249185172626493	1.8906813	1.3750205
28.267258677196473	1.9413981	1.3933406
28.285332899588294	1.9659874	1.4021367
28.303407840337172	1.9624703	1.400882
28.321483499978545	1.9311692	1.3896651
28.33955987904799	1.9529983	1.3974972
28.357636978081285	1.9636488	1.4013026
28.37571479761439	1.9351149	1.3910841
28.393793338183425	1.9313172	1.3897184
28.41187260032469	1.946152	1.3950455
28.429952584574686	1.9496013	1.3962812
28.448033291470065	1.9721742	1.4043412
28.46611472154769	1.9505373	1.3966163
28.484196875344566	1.9474251	1.3955017
28.502279753397914	1.9677073	1.4027499
28.52036335624511	2.012161	1.4185066
28.538447684423716	2.0467002	1.4306294
28.556532738471482	2.043843	1.4296304
28.574618518926325	1.9926041	1.4115963
28.59270502632635	2.0040216	1.4156348
28.61079226120985	1.9943922	1.4122295
28.628880224115274	2.0059214	1.4163055
28.646968915581287	1.9844276	1.4086971
28.66505833614671	1.9762195	1.4057808
28.68314848635055	1.9844203	1.4086945
28.701239366732004	1.9891521	1.410373
28.71933097783044	2.0453324	1.4301512
28.737423320185403	2.060074	1.4352958
28.75551639433665	2.0618565	1.4359167
28.773610200824074	2.108085	1.4519246
28.791704740187793	2.1887066	1.4794278
28.80980001296809	2.2079492	1.485917
28.827896019705413	2.1241026	1.4574301
28.845992760940433	2.084586	1.4438095
28.86409023721397	2.1292357	1.4591901
28.88218844906704	2.1858501	1.4784621
28.900287397040845	2.1738906	1.474412
28.918387081676755	2.2440464	1.4980142
28.936487503516343	2.2759264	1.5086174
28.954588663101365	2.293207	1.5143338
28.97269056097374	2.2970269	1.5155946
28.990793197675597	2.3024492	1.5173824
29.00889657374923	2.3198886	1.523118
29.027000689737125	2.2993975	1.5163764
29.04510554618196	2.369918	1.5394539
29.06321114362659	2.472288	1.5723511
29.08131748261405	2.5039792	1.5823966
29.099424563687567	2.5034263	1.582222
29.11753238739057	2.47247	1.572409
29.13564095426663	2.4618328	1.5690229
29.15375026485954	2.5262384	1.5894145
29.171860319713275	2.6002994	1.6125444
29.18997111937199	2.5840297	1.6074917
29.20808266438002	2.6229477	1.6195517
29.226194955281898	2.6794467	1.6369015
29.244307992622335	2.7778	1.6666733
29.26242177694624	2.825763	1.6810006
29.2805363087987	2.8328016	1.6830928
29.29865158872498	2.846985	1.6873012
29.316767617270557	2.896345	1.7018651
29.334884394981064	3.0067859	1.7340087
29.353001922402367	3.0156646	1.7365669
29.37112020008047	2.9924486	1.7298695
29.389239228561596	3.0912938	1.7582076
29.407359008392152	3.3209434	1.8223456
29.42547954011872	3.6503088	1.9105781
29.44360082428809	4.270027	2.0664043
29.46172286144722	5.2526894	2.2918746
29.479845652143283	6.867581	2.620607
29.497969196923606	9.005037	3.0008395
29.516093496335728	11.577316	3.4025455
29.5342185509274	14.379649	3.7920508
29.55234436124651	16.792816	4.0979037
29.570470927841175	18.38379	4.287632
29.588598251259686	18.206602	4.2669196
29.60672633205055	16.873238	4.1077046
29.624855170762405	14.693008	3.833146
29.642984767944146	12.057269	3.4723577
29.66111512414481	9.194715	3.0322788
29.67924623991366	6.747787	2.5976503
29.697378115800138	5.097072	2.2576697
29.71551075235387	4.138558	2.0343447
29.733644150124675	3.7191336	1.9285055
29.751778309662576	3.6009576	1.8976189
29.769913231517766	3.4569974	1.8593003
29.78804891624066	3.3506534	1.830479
29.806185364381818	3.3538194	1.8313437
29.82432257649206	3.3208697	1.8223253
29.842460553122333	3.2913015	1.8141944
29.86059929482382	3.2205598	1.7945918
29.878738802147872	3.1715384	1.7808813
29.896879075646048	3.2280486	1.7966771
29.915020115870114	3.3019383	1.8171237
29.933161923371976	3.3376071	1.8269119
29.951304498703777	3.3377292	1.8269453
29.969447842417857	3.2792215	1.8108621
29.987591955066733	3.2511628	1.8030981
30.005736837203123	3.1610243	1.7779269
30.023882489379943	3.2018995	1.7893852
30.04202891215028	3.24253	1.8007027
30.060176106067455	3.1760473	1.7821468
30.078324071684946	3.0686069	1.7517439
30.09647280955646	3.050737	1.7466359
30.114622320235863	3.0609074	1.7495449
30.132772604277257	3.1189737	1.7660617
30.1509236622349	3.124987	1.7677633
30.16907549466328	3.0722687	1.7527889
30.18722810211705	3.0544116	1.7476875
30.205381485151097	2.992505	1.7298858
30.22353564432045	2.985217	1.7277781
30.241690580180403	3.0058603	1.7337418
30.25984629328638	2.9779153	1.7256638
30.278002784194037	2.962717	1.7212545
30.296160053459246	2.9462726	1.716471
30.314318101638033	2.9408712	1.7148969
30.332476929286646	2.9291728	1.7114826
30.35063653696153	2.9052715	1.7044857
30.368796925219307	2.8955164	1.7016217
30.386958094616844	2.8639438	1.692319
30.40512004571115	2.8824039	1.6977644
30.423282779059463	2.8875062	1.6992664
30.441446295219233	2.8209054	1.6795552
30.459610594748067	2.8205779	1.6794577
30.47777567820382	2.788953	1.6700159
30.495941546144504	2.7500596	1.6583303
30.51410819912835	2.7353013	1.6538746
30.532275637713795	2.691777	1.6406636
30.55044386245946	2.7599616	1.6613132
30.56861287392416	2.8479104	1.6875753
30.586782672666956	2.7858803	1.6690956
30.604953259247047	2.786495	1.6692798
30.623124634223885	2.8129873	1.6771963
30.641296798157075	2.8510196	1.6884962
30.659469751606462	2.835546	1.683908
30.677643495132074	2.7692964	1.6641203
30.695818029294152	2.6865513	1.6390703
30.713993354653116	2.6858165	1.638846
30.73216947176962	2.6776967	1.636367
30.75034638120448	2.6050215	1.614008
30.768524083518756	2.6543937	1.629231
30.786702579273673	2.811652	1.6767981
30.80488186903069	2.9233267	1.7097739
30.82306195335144	2.9902155	1.729224
30.841242832797782	3.147719	1.7741812
30.85942450793176	3.4155385	1.8481176
30.877606979315637	3.7802172	1.944278
30.895790247511883	4.2054014	2.0507076
30.913974313083134	4.631531	2.1520991
30.932159176592283	4.960558	2.227231
30.95034483860237	5.0461354	2.2463605
30.968531299676698	4.82887	2.197469
30.98671856037873	4.4140115	2.100955
31.00490662127215	3.992667	1.9981658
31.023095482920848	3.5358107	1.8803751
31.04128514588892	3.0193508	1.7376279
31.059475610740662	2.7617035	1.6618373
31.07766687804056	2.6191874	1.6183903
31.09585894835335	2.5168016	1.5864431
31.11405182224393	2.5073812	1.5834713
31.132245500277417	2.5267017	1.5895603
31.15043998301914	2.4927413	1.5788418
31.168635271034628	2.4385238	1.5615773
31.18683136488964	2.468855	1.571259
31.20502826515008	2.4530246	1.5662135
31.223225972382135	2.3724885	1.5402884
31.241424487152155	2.3965435	1.5480773
31.259623810026692	2.4263446	1.5576729
31.27782394157253	2.3796	1.5425953
31.296024882356644	2.3352635	1.5281569
31.314226632946237	2.4336064	1.5600021
31.332429193908684	2.500846	1.5814064
31.350632565811598	2.4944506	1.579383
31.368836749222787	2.4229276	1.5565757
31.387041744710295	2.4194188	1.555448
31.40524755284232	2.4451756	1.5637057
31.423454174187317	2.449764	1.5651722
31.441661609313922	2.4234705	1.5567499
31.459869858791002	2.4279885	1.5582004
31.478078923187628	2.416357	1.5544636
31.496288803073064	2.4025881	1.5500284
31.514499499016807	2.3512785	1.5333879
31.532711011588546	2.3621106	1.5369159
31.550923341358178	2.3694005	1.5392857
31.56913648889584	2.348986	1.5326402
31.587350454771844	2.3649316	1.5378335
31.605565239556732	2.380864	1.5430049
31.62378084382127	2.3652177	1.5379264
31.641997268136382	2.326973	1.5254419
31.660214513073274	2.2936957	1.5144951
31.67843257920331	2.286022	1.5119597
31.6966514670981	2.237409	1.4957972
31.71487117732944	2.2152894	1.4883848
31.733091710469346	2.2087948	1.4862015
31.751313067090052	2.231823	1.4939287
31.769535247764008	2.2027931	1.4841809
31.787758253063878	2.2016218	1.4837863
31.805982083562526	2.2573016	1.5024319
31.824206739833024	2.3121684	1.5205816
31.84243222244869	2.3586946	1.5358042
31.860658531983013	2.4049604	1.5507935
31.878885669009737	2.3279426	1.5257597
31.897113634102784	2.1995647	1.4830929
31.91534242783632	2.1826692	1.4773859
31.933572050784694	2.1728153	1.4740473
31.951802503522508	2.1750605	1.4748087
31.970033786624548	2.2651112	1.5050286
31.988265900665834	2.3164961	1.522004
32.006498846221575	2.2870436	1.5122974
32.02473262386724	2.2356224	1.4951998
32.04296723417845	2.179167	1.4762002
32.0612026777311	2.1384704	1.462351
32.07943895510129	2.165912	1.4717038
32.097676066865304	2.1773963	1.4756004
32.115914013599685	2.1785343	1.4759859
32.13415279588115	2.1535897	1.4675114
32.152392414286666	2.12225	1.4567945
32.1706328693934	2.1340876	1.4608517
32.18887416177875	2.093731	1.446973
32.20711629202032	2.1038787	1.4504753
32.225359260695924	2.1635284	1.4708937
32.243603068383614	2.1571527	1.4687248
32.26184771566166	2.1137328	1.4538683
32.28009320310852	2.1420138	1.463562
32.2983395313029	2.0822515	1.4430009
32.31658670082372	2.1046665	1.4507469
32.33483471225012	2.1257145	1.457983
32.35308356616143	2.1042671	1.4506092
32.371333263137245	2.1168094	1.4549259
32.38958380375734	2.1189878	1.4556743
32.407835188601744	2.1556144	1.468201
32.42608741825067	2.0682838	1.4381529
32.444340493284585	2.0140178	1.419161
32.46259441428416	2.1027262	1.450078
32.48084918183028	2.1527925	1.4672397
32.49910479650405	2.1077607	1.4518129
32.51736125888683	2.1082432	1.451979
32.53561856956014	2.1184986	1.4555063
32.5538767291058	2.0870636	1.4446673
32.572135738105764	2.0290785	1.4244573
32.59039559714228	2.0089426	1.4173717
32.608656306797776	2.0300236	1.424789
32.62691786765491	1.971861	1.4042296
32.645180280296586	1.9966985	1.4130458
32.663443545305896	2.0306036	1.4249926
32.68170766326619	1.9903951	1.4108136
32.69997263476099	1.9041433	1.379907
32.7182384603741	1.9570534	1.3989472
32.7365051406895	1.930655	1.3894801
32.75477267629144	1.848631	1.3596437
32.77304106776434	2.012394	1.4185888
32.79131031569289	2.0420876	1.4290162
32.809580420661966	1.9723511	1.4044042
32.827851383256714	1.9073809	1.3810797
32.84612320406245	2.0040066	1.4156294
32.86439588366476	2.0297992	1.4247103
32.88266942264945	2.0141704	1.4192147
32.9009438216025	1.9366605	1.3916395
32.9192190811102	1.9186692	1.3851603
32.937495201758985	1.9900559	1.4106934
32.95577218413556	1.944073	1.3943002
32.974050028826866	1.9037789	1.3797749
32.992328736420035	1.8988471	1.3779867
33.010608307502444	1.9669621	1.4024843
33.02888874266169	2.0309935	1.4251293
33.047170042485604	2.0462582	1.4304749
33.06545220756225	1.9855858	1.4091082
33.083735238479896	1.9038584	1.3798038
33.10201913582707	1.9352306	1.3911257
33.12030390019248	1.8192145	1.3487825
33.138589532165135	1.788218	1.3372427
33.15687603233419	1.913881	1.3834308
33.17516340128909	2.0602307	1.4353504
33.19345163961947	2.0817611	1.4428309
33.211740747915215	1.9760273	1.4057124
33.23003072676643	1.8491572	1.3598372
33.248321576763466	1.7811643	1.3346027
33.266613298496885	1.822801	1.3501115
33.28490589255747	1.8602098	1.363895
33.30319935953626	1.8755015	1.3694896
33.32149370002451	1.8900965	1.3748078
33.339788914613706	1.8684943	1.3669288
33.358085003895575	1.8563153	1.3624666
33.376381968462034	1.8471359	1.3590938
33.39467980890529	1.8782742	1.3705014
33.41297852581774	1.8050088	1.3435061
33.43127811979204	1.7954425	1.3399413
33.44957859142105	1.8188916	1.3486629
33.467879941297866	1.8812661	1.3715925
33.486182170015844	1.8543353	1.3617398
33.50448527816853	1.8836209	1.3724507
33.522789266349754	1.9494071	1.3962117
33.541094135153514	1.9398713	1.3927926
33.55939988517411	1.8881159	1.3740873
33.57770651700602	1.8307364	1.3530471
33.59601403124398	1.878362	1.3705335
33.61432242848296	1.8683085	1.3668609
33.632631709318154	1.8446044	1.3581622
33.650941874344994	1.9055736	1.3804251
33.66925292415916	1.9061673	1.3806401
33.68756485935654	1.9100817	1.3820571
33.70587768053328	1.9118285	1.3826889
33.724191388285746	1.8683093	1.3668611
33.74250598321054	1.787326	1.336909
33.760821465904506	1.8752757	1.369407
33.77913783696474	1.9061528	1.3806349
33.79745509698852	1.8290111	1.3524094
33.815773246573414	1.9199889	1.3856367
33.8340922863172	2.0322797	1.4255805
33.852412216817896	2.0396013	1.4281461
33.87073303867377	1.9457546	1.3949031
33.889054752483304	1.8795705	1.3709743
33.907377358845245	1.9846988	1.4087933
33.92570085835853	2.110682	1.4528186
33.94402525162239	1.9964685	1.4129645
33.96235053923627	1.9962281	1.4128793
33.980676721799824	2.0639913	1.4366598
33.999003799912984	2.1214068	1.456505
34.01733177417592	2.1070447	1.4515663
34.03566064518901	1.988508	1.4101447
34.0539904135529	1.8163857	1.3477336
34.07232107986846	1.7118423	1.3083739
34.090652644736785	1.7316135	1.3159078
34.108985108759235	1.9006603	1.3786443
34.12731847253742	1.9025	1.3793114
34.14565273667313	1.8770458	1.3700532
34.16398790176847	1.8807769	1.3714142
34.18232396842574	1.949175	1.3961285
34.20066093724749	1.9862182	1.4093325
34.21899880883651	1.919386	1.3854191
34.23733758379583	1.8522029	1.3609567
34.25567726272874	1.9389225	1.392452
34.27401784623872	2.0124884	1.418622
34.29235933492957	2.0557137	1.433776
34.31070172940526	2.1536853	1.467544
34.32904503027003	2.211818	1.4872183
34.347389238128386	2.144427	1.4643862
34.36573435358502	2.15217	1.4670275
34.38408037724492	2.0396428	1.4281607
34.402427309713296	1.9186015	1.3851359
34.42077515159559	1.9657235	1.4020426
34.43912390349752	1.9807342	1.4073856
34.45747356602499	1.9243724	1.3872175
34.47582413978423	1.891232	1.3752207
34.49417562538163	1.9033996	1.3796375
34.51252802342388	1.8687553	1.3670243
34.53088133451789	1.8809905	1.371492
34.54923555927084	1.9946256	1.4123122
34.567590698290104	2.0681915	1.4381208
34.58594675218336	2.055948	1.4338578
34.6043037215585	2.0337193	1.4260854
34.62266160702365	1.9820204	1.4078424
34.641020409187234	2.0097096	1.4176422
34.65938012865785	2.1004524	1.4492937
34.677740766044394	1.9653214	1.4018992
34.69610232195598	1.737434	1.3181176
34.714464797002016	1.8102221	1.3454449
34.73282819179208	1.8645126	1.3654716
34.751192506936064	1.9055408	1.3804133
34.76955774304408	1.9134185	1.3832637
34.7879239007265	1.899057	1.3780627
34.80629098059391	2.0346775	1.4264212
34.824658983257194	2.2028615	1.484204
34.843027909327446	2.119414	1.4558208
34.86139775941603	1.9218714	1.3863158
34.879768534134534	1.9420612	1.3935785
34.89814023409483	1.9724523	1.4044402
34.91651285990901	1.9255041	1.3876253
34.93488641218944	1.9034493	1.3796555
34.95326089154871	1.8221174	1.3498583
34.97163629859967	1.7268764	1.3141067
34.99001263395542	1.8225635	1.3500235
35.00838989822934	2.0781133	1.4415662
35.02676809203499	2.0229635	1.4223093
35.04514721598624	1.8159	1.3475534
35.063527270697215	1.7845039	1.3358532
35.081908256782256	1.7469819	1.3217344
35.10029017485597	1.7838069	1.3355924
35.11867302553321	1.803084	1.3427896
35.137056809429104	1.8776352	1.3702683
35.155441527159006	1.8463278	1.3587965
35.173827179338524	1.8893275	1.3745282
35.19221376658354	1.8970997	1.3773525
35.21060128951017	1.932222	1.3900439
35.2289897487348	2.1689773	1.4727448
35.24737914487405	2.038562	1.4277822
35.26576947854479	1.7461015	1.3214014
35.28416075036418	1.6865199	1.2986608
35.30255296094958	1.5561515	1.247458
35.32094611091867	1.5867751	1.2596726
35.33934020088932	1.8469564	1.3590277
35.35773523147969	1.9122053	1.3828251
35.3761312033082	2.1531534	1.4673628
35.394528116993506	2.3688378	1.5391029
35.41292597315452	2.3449144	1.5313114
35.431324772410434	2.4166732	1.5545653
35.449724515380666	2.2697878	1.5065815
35.46812520268491	1.778453	1.3335866
35.486526834943106	1.704543	1.3055815
35.504929412775454	1.9420805	1.3935854
35.52333293680242	2.0641809	1.4367257
35.54173740764471	2.2711778	1.5070428
35.560142825923286	1.7660596	1.3289318
35.5785491922594	1.4241914	1.1933949
35.59695650727454	2.0157208	1.4197608
35.61536477159042	2.6747022	1.6354517
