0.008763373481513119	0.3822274	0.6182454
0.026290120649546365	0.3681276	0.6067352
0.043816868432600686	0.25180787	0.5018046
0.06134361724069026	0.09818891	0.3133511
0.07887036748382949	0.039364357	0.19840452
0.0963971195720331	0.055701267	0.23601116
0.11392387391531617	0.09596853	0.30978787
0.1314506309236943	0.124378644	0.35267356
0.1489773910071836	0.17646499	0.42007735
0.16650415457580078	0.11873299	0.34457654
0.18403092203956356	0.118560985	0.34432685
0.20155769380849	0.06890804	0.26250342
0.2190844702925996	0.10340422	0.32156527
0.2366112519019124	0.10061964	0.317206
0.2541380390464497	0.12908691	0.35928667
0.27166483213623416	0.13297348	0.3646553
0.28919163158128947	0.14128107	0.37587374
0.3067184377916406	0.20173135	0.44914514
0.324245251177314	0.19003147	0.435926
0.34177207214833777	0.14654249	0.3828087
0.3592989011147415	0.12589869	0.35482204
0.37682573848655654	0.09013873	0.30023113
0.39435258467381573	0.08394459	0.28973192
0.41187944008655414	0.05084743	0.22549374
0.42940630513480854	0.06875116	0.2622044
0.446933180228618	0.09193758	0.3032121
0.4644600657780234	0.123200215	0.35099888
0.48198696219306775	0.12611452	0.35512605
0.49951386988379676	0.1262007	0.35524738
0.5170407892602581	0.10427615	0.32291818
0.5345677207325025	0.100088485	0.31636766
0.5520946647105822	0.1285668	0.35856214
0.5696216216045534	0.15773506	0.39715874
0.5871485918244737	0.1814839	0.42600927
0.6046755757804043	0.16532594	0.40660292
0.6222025738824094	0.17924663	0.42337528
0.6397295865405557	0.18917659	0.43494436
0.6572566141649129	0.18676198	0.43215966
0.6747836571655547	0.19445835	0.44097432
0.6923107159525568	0.17367092	0.41673842
0.7098377909359992	0.17054886	0.4129756
0.7273648825259653	0.13986227	0.37398165
0.7448919911325411	0.14649038	0.38274062
0.762419117165817	0.20388468	0.4515359
0.7799462610358868	0.21831505	0.46724197
0.7974734231528482	0.21341924	0.46197322
0.8150006039268024	0.17253855	0.4153776
0.8325278037678551	0.15955627	0.39944494
0.8500550230861152	0.19028112	0.43621224
0.8675822622916969	0.22244981	0.47164586
0.8851095217947171	0.23732048	0.4871555
0.9026368020052984	0.23340243	0.4831174
0.9201641033335665	0.22780831	0.4772927
0.9376914261896523	0.24705032	0.49704155
0.9552187709836915	0.24317208	0.4931248
0.9727461381258234	0.19486345	0.4414334
0.990273528026193	0.15009023	0.3874148
1.0078009410949496	0.15883511	0.39854124
1.0253283777422473	0.19700466	0.44385207
1.0428558383782454	0.25147033	0.5014682
1.0603833234131086	0.22959466	0.47916037
1.0779108332570058	0.27644402	0.5257794
1.0954383683201119	0.27200592	0.5215419
1.112965929012607	0.31821427	0.56410486
1.1304935157446763	0.4592859	0.67770636
1.1480211289265108	0.51222473	0.7156988
1.1655487689683062	1.377588	1.173707
1.1830764362802655	1.7334613	1.3166097
1.200604131272596	2.1816902	1.4770546
1.2181318543555117	2.475865	1.5734881
1.235659605939232	2.4156923	1.5542498
1.253187386433982	3.8536994	1.9630842
1.270715196249994	6.243026	2.4986048
1.2882430357975057	11.916632	3.4520473
1.3057709054867608	16.789608	4.0975122
1.3232988057280106	22.80134	4.775075
1.3408267369315112	27.72542	5.2654934
1.358354699507526	31.658943	5.626628
1.3758826938663256	35.876945	5.9897366
1.3934107204181858	38.16786	6.1780143
1.410938779573391	37.95565	6.1608157
1.4284668717422309	38.12385	6.1744514
1.4459949973350033	37.40697	6.1161237
1.4635231567620117	37.293194	6.1068153
1.4810513504335687	36.87452	6.072439
1.4985795787599925	36.12588	6.010481
1.5161078421516088	35.836643	5.9863715
1.5336361410187505	35.04401	5.9197984
1.5511644757717598	35.26429	5.9383745
1.5686928468209842	35.747597	5.9789295
1.58622125457678	36.35307	6.0293508
1.6037496994495108	37.460533	6.120501
1.621278181849548	37.54025	6.12701
1.6388067021872719	38.326286	6.1908226
1.6563352608730693	37.65231	6.136148
1.673863858317336	36.44005	6.036559
1.6913924949304753	35.515186	5.9594617
1.7089211711228998	34.37989	5.8634367
1.7264498873050296	33.81162	5.814776
1.7439786438872935	32.82029	5.7288995
1.7615074412801288	32.01577	5.658248
1.779036279893981	31.415712	5.604972
1.796565160139305	30.252203	5.5002003
1.814094082426564	29.64263	5.4445047
1.8316230471662298	28.705101	5.357714
1.849152054768784	28.042393	5.295507
1.8666811056447168	27.530226	5.2469254
1.8842102002045273	26.929325	5.1893473
1.901739338858724	26.389774	5.137098
1.9192685220178245	25.826992	5.0820265
1.9367977500923557	25.0253	5.002529
1.9543270234928547	24.625885	4.9624476
1.971856342629867	24.08096	4.9072356
1.9893857079139496	23.573456	4.8552504
2.006915119755667	22.846594	4.779811
2.0244445785655945	22.380545	4.7308083
2.0419740847543175	21.928577	4.682796
2.0595036387324317	21.59229	4.6467505
2.0770332409105414	21.241713	4.6088734
2.094562891699263	20.982468	4.5806623
2.1120925915092217	20.240654	4.4989614
2.129622340751053	19.784048	4.447926
2.1471521398354043	187.67773	13.699553
2.1646819891729323	444.28018	21.077955
2.182211889174303	440.6951	20.992739
2.1997418402501974	453.24274	21.289497
2.2172718428113023	433.16635	20.812649
2.234801897268317	320.90518	17.913826
2.2523320040319548	17.301497	4.159507
2.269862163512935	17.042074	4.128205
2.287392376121992	16.907434	4.111865
2.304922642269869	16.77955	4.096285
2.322452962367322	16.443333	4.055038
2.3399833368251164	16.009127	4.0011406
2.357513766054032	15.623756	3.95269
2.3750442504648586	15.074239	3.8825557
2.3925747904683963	14.853437	3.8540158
2.410105386475459	14.757465	3.8415446
2.4276360388968707	14.645672	3.8269663
2.445166748143469	14.411218	3.796211
2.4626975146261025	13.784871	3.7127984
2.4802283387556323	13.372004	3.656775
2.4977592209429305	13.270287	3.6428404
2.5152901615988825	13.19192	3.6320684
2.5328211611343865	13.171816	3.6292996
2.5503522199603523	12.894202	3.5908499
2.5678833384877024	12.599315	3.5495512
2.5854145171273712	12.362196	3.5159914
2.6029457562903064	11.953428	3.4573731
2.620477056387469	11.681907	3.4178805
2.6380084178298326	11.515015	3.393378
2.655539841028383	11.336234	3.3669324
2.673071326394119	11.26323	3.3560736
2.6906028743380523	10.998044	3.31633
2.708134485271211	10.863954	3.2960513
2.7256661596046325	10.719782	3.2741077
2.743197897749369	10.51888	3.2432823
2.760729700116486	10.501808	3.2406495
2.778261567117063	10.383432	3.2223334
2.795793499162193	10.283957	3.2068608
2.8133254966629817	9.984713	3.1598597
2.830857560030551	9.741863	3.1211958
2.8483896896760337	9.796228	3.1298928
2.865921886010578	9.822299	3.1340547
2.883454149445347	9.670933	3.1098123
2.9009864803915177	9.316535	3.0523
2.91851887926028	9.167128	3.0277264
2.9360513464628384	9.055037	3.0091588
2.953583882410413	9.025948	3.0043216
2.9711164875142373	8.917155	2.9861605
2.9886491621855606	8.860297	2.9766252
3.0061819068356455	8.727613	2.9542534
3.023714721875769	8.530001	2.9206164
3.041247607717225	8.35957	2.891292
3.0587805647713213	8.360723	2.8914914
3.0763135934493806	8.386567	2.895957
3.0938466941627407	8.348945	2.8894541
3.1113798673227544	8.240953	2.870706
3.1289131133407904	7.9945946	2.8274715
3.1464464326282315	7.8525825	2.8022459
3.1639798255964786	7.6780543	2.7709303
3.1815132926569443	7.545389	2.7468872
3.1990468342210603	7.456191	2.7306027
3.216580450700272	7.3972225	2.7197835
3.2341141425060416	7.3811584	2.7168288
3.251647910049847	7.425332	2.7249463
3.2691817537431813	7.4106426	2.7222495
3.286715673997555	7.2506614	2.6927052
3.3042496712244938	7.1975164	2.6828187
3.32178374583554	7.1103325	2.6665206
3.339317898242251	7.0579104	2.6566727
3.3568521288562034	6.969614	2.6400027
3.3743864380889876	6.8804946	2.6230698
3.3919208263522127	6.7936077	2.606455
3.4094552940575023	6.696035	2.5876698
3.4269898416164972	6.6489344	2.5785527
3.444524469440858	6.563544	2.5619414
3.4620591779422587	6.5905085	2.5671985
3.479593967532391	6.527884	2.5549724
3.4971288386229658	6.400133	2.5298483
3.5146637916257086	6.4129834	2.532387
3.5321988269523628	6.314504	2.5128677
3.5497339450146903	6.283015	2.5065942
3.5672691462244708	6.1615787	2.4822528
3.5848044309934988	6.086412	2.4670656
3.60233979973359	6.1502795	2.4799757
3.619875252856575	6.2038717	2.4907572
3.6374107907743034	6.2270317	2.495402
3.6549464138986427	6.262945	2.5025878
3.6724821226414788	6.202126	2.4904068
3.690017917414714	6.263846	2.5027676
3.7075537986302702	6.2433224	2.4986641
3.7250897667000857	6.2420716	2.4984138
3.7426258220361235	6.3763633	2.5251462
3.7601619650503553	6.609696	2.5709329
3.777698196154779	7.117398	2.6678452
3.7952345157614067	8.210349	2.8653708
3.8127709242822716	9.158742	3.0263414
3.830307422129425	11.492178	3.3900115
3.847844009714936	30.386583	5.5124025
3.8653806874508954	97.821655	9.890483
3.882917455749409	96.94344	9.845986
3.900454315022606	96.73335	9.835312
3.917991265682631	41.1908	6.418006
3.9355283081416506	10.80383	3.286918
3.9530654428118495	8.629435	2.93759
3.970602670105433	7.4827585	2.7354631
3.9881399904346244	6.7386236	2.595886
4.005677404211669	6.7423573	2.596605
4.023214911848827	6.6611614	2.5809226
4.0407525137583855	6.6102757	2.5710456
4.058290210352644	6.6035047	2.5697286
4.075828002043927	6.487696	2.5470955
4.0933658892445814	6.4241796	2.5345964
4.110903872366966	6.2961593	2.5092149
4.128441951823468	6.159683	2.481871
4.145980128026488	6.1634574	2.4826312
4.163518401388452	6.2699685	2.5039904
4.181056772321807	6.3470216	2.5193295
4.1985952412390155	6.341363	2.5182064
4.216133808552567	6.32084	2.514128
4.233672474674966	6.342388	2.5184097
4.251211240018741	6.514519	2.5523555
4.268750104996445	6.78947	2.6056612
4.286289070020643	7.8109927	2.7948153
4.303828135503928	9.544905	3.089483
4.3213673018589125	29.765608	5.4557867
4.3389065694982305	90.75721	9.526658
4.356445938834537	165.86731	12.878948
4.3739854102805085	171.6579	13.101828
4.391524984248844	172.51222	13.134391
4.409064661152262	136.72237	11.692834
4.426604441403504	97.08743	9.853295
4.444144325415337	76.03274	8.719675
4.461684313600543	22.02284	4.69285
4.47922440637193	22.193764	4.7110257
4.496764604142329	20.435469	4.5205607
4.5143049073245916	18.835964	4.340042
4.531845316331589	16.794983	4.0981684
4.5493858315762195	14.011497	3.7431934
4.566926453471405	11.600372	3.405932
4.584467182430081	9.597048	3.0979102
4.602008018865218	8.405828	2.8992808
4.619548963189798	7.697948	2.7745175
4.637090015816834	7.119134	2.6681705
4.654631177159353	6.783451	2.604506
4.672172447630417	6.4522843	2.5401347
4.689713827643102	6.275854	2.5051656
4.7072553176105085	5.98999	2.4474456
4.724796917945764	5.842372	2.4171
4.742338629062015	5.8036103	2.4090683
4.759880451372434	5.7752533	2.4031756
4.777422385290215	5.676445	2.382529
4.794964431228581	5.633478	2.3734949
4.812506589600768	5.641403	2.3751638
4.830048860820047	5.707734	2.3890865
4.847591245299709	5.733994	2.394576
4.8651337434530655	5.707225	2.38898
4.882676355693457	5.684307	2.3841784
4.900219082434242	5.6994605	2.3873544
4.917761924088813	5.6862445	2.3845847
4.935304881070575	5.7495685	2.3978257
4.952847953792969	5.695457	2.3865156
4.970391142669449	5.552722	2.3564215
4.9879344481135055	5.4238725	2.3289208
5.005477870538642	5.317558	2.305983
5.023021410358394	5.439439	2.3322604
5.040565067986324	5.50236	2.345711
5.05810884383601	5.4301057	2.3302586
5.075652738321066	5.3534126	2.3137443
5.09319675185512	5.307413	2.3037825
5.110740884851836	5.2936616	2.3007958
5.128285137724894	5.3157916	2.3056002
5.145829510888007	5.2482657	2.2909093
5.163374004754908	5.2595816	2.2933779
5.1809186197393595	5.279017	2.2976112
5.198463356255145	5.3891172	2.3214471
5.216008214716077	5.3923836	2.3221507
5.233553195535998	5.339267	2.3106854
5.251098299128764	5.2705355	2.2957647
5.268643525908272	5.315678	2.3055754
5.286188876288432	5.37313	2.3180013
5.3037343506831895	5.375938	2.3186069
5.32127994950651	5.3282247	2.3082948
5.3388256731723915	5.2375693	2.2885737
5.356371522094851	5.2266774	2.286193
5.373917496687938	5.2739964	2.2965183
5.391463597365729	5.3233943	2.307248
5.40900982454232	5.3300104	2.3086815
5.426556178631843	5.2407675	2.2892723
5.444102660048449	5.1236653	2.2635515
5.4616492692063225	5.127545	2.2644083
5.479196006519669	5.087495	2.2555475
5.496742872402727	5.1186633	2.2624464
5.514289867269756	5.1567335	2.2708442
5.531836991535049	5.151265	2.26964
5.549384245612924	5.1967244	2.2796326
5.566931629917724	5.222889	2.2853642
5.584479144863822	5.1864333	2.2773743
5.6020267908656205	5.1821446	2.2764325
5.619574568337545	5.117655	2.2622235
5.637122477694054	5.0929055	2.2567468
5.654670519349629	5.103357	2.259061
5.672218693718784	5.096827	2.2576153
5.689767001216059	5.0891194	2.2559078
5.707315442256021	5.1279306	2.2644935
5.724864017253266	5.1573787	2.2709863
5.7424127266224225	5.2448153	2.2901561
5.75996157077814	5.1634855	2.2723305
5.777510550135105	5.1465154	2.2685933
5.795059665108022	5.159029	2.2713497
5.812608916111639	5.2433195	2.2898295
5.830158303560715	5.3806577	2.3196244
5.847707827870055	5.3997445	2.323735
5.86525748945448	5.4587727	2.3364017
5.8828072887288485	5.582723	2.3627787
5.900357226108044	5.55623	2.3571656
5.917907302006979	5.535655	2.3527973
5.9354575168406	6.1273913	2.4753568
5.9530078710238765	6.7342052	2.5950348
5.970558364971812	7.3983355	2.719988
5.988108999099438	7.6410522	2.7642453
6.005659773821818	8.132274	2.8517141
6.023210689554039	7.817272	2.7959385
6.040761746711227	8.188101	2.8614857
6.058312945708531	7.5999537	2.7568014
6.075864286961132	7.2092476	2.6850042
6.093415770884244	6.6952424	2.5875165
6.1109673978931065	6.1258855	2.4750526
6.128519168402993	5.554586	2.356817
6.146071082829204	5.3782077	2.3190963
6.163623141587075	5.2807927	2.2979975
6.181175345091969	5.276155	2.2969882
6.198727693759281	5.221739	2.2851124
6.216280188004435	5.246164	2.2904506
6.233832828242885	5.1854568	2.2771597
6.251385614890126	5.2366447	2.2883716
6.268938548361669	5.246878	2.2906065
6.286491629073067	5.2106	2.2826738
6.304044857439898	5.150463	2.269463
6.321598233877777	5.094627	2.257128
6.339151758802344	5.0698047	2.2516227
6.356705432629277	5.0690618	2.2514577
6.37425925577428	5.066005	2.250779
6.391813228653095	5.0380745	2.2445655
6.409367351681486	5.0545654	2.2482362
6.426921625275259	4.954779	2.2259333
6.44447604985025	4.942975	2.2232802
6.46203062582232	4.9919906	2.2342763
6.47958535360737	4.9857197	2.2328725
6.497140233621328	4.9587836	2.2268326
6.514695266280161	4.9951296	2.2349787
6.532250451999859	5.040251	2.2450502
6.549805791196454	5.139276	2.266997
6.567361284286002	5.089308	2.2559495
6.584916931684597	5.044249	2.2459407
6.602472733808367	5.0657125	2.2507138
6.6200286910734665	5.0862746	2.2552772
6.637584803896092	5.111306	2.26082
6.655141072692462	5.115252	2.2616923
6.672697497878842	5.0999475	2.2583063
6.690254079871514	5.0316544	2.243135
6.707810819086808	4.962361	2.2276356
6.725367715941078	4.922214	2.2186062
6.742924770850719	4.910999	2.2160773
6.760481984232151	4.9873996	2.2332487
6.778039356501836	5.028278	2.2423823
6.795596888076266	5.03973	2.2449343
6.813154579371963	4.98134	2.2318916
6.830712430805492	4.9513197	2.225156
6.84827044279344	4.90865	2.2155473
6.865828615752445	4.8719516	2.2072499
6.883386950099159	4.9248686	2.2192044
6.900945446250287	4.9852896	2.2327762
6.918504104622553	5.050194	2.2472637
6.936062925632727	5.0652585	2.250613
6.953621909697607	5.0860405	2.2552252
6.971181057234028	5.132844	2.265578
6.988740368658859	5.1708555	2.2739515
7.006299844389007	5.1990094	2.2801337
7.023859484841407	5.2482734	2.290911
7.041419290433036	5.3199677	2.3065054
7.058979261580902	5.474926	2.339856
7.0765393987020495	5.6857085	2.3844724
7.094099702213559	6.077743	2.465308
7.111660172532549	6.4225774	2.5342805
7.129220810076164	6.833182	2.6140356
7.146781615261595	7.522106	2.7426457
7.16434258850606	7.7155256	2.7776835
7.181903730226821	8.182969	2.860589
7.1994650408411704	8.225381	2.8679924
7.217026520766437	8.39935	2.8981633
7.234588170419983	8.651779	2.9413908
7.252149990219215	8.666197	2.9438405
7.269711980581568	8.562136	2.9261127
7.2872741419245175	8.272744	2.8762379
7.304836474665574	7.828958	2.7980275
7.322398979222286	7.502199	2.7390144
7.339961656012233	7.2841053	2.698908
7.357524505453039	6.9723067	2.6405127
7.375087527962357	6.7575293	2.5995247
7.392650723957886	6.418371	2.5334504
7.410214093857353	6.007284	2.4509761
7.427777638078528	5.7146873	2.3905413
7.445341357039213	5.566657	2.3593764
7.4629052511572525	5.471745	2.3391762
7.480469320850524	5.39986	2.3237598
7.498033566536948	5.292557	2.3005557
7.5155979886344735	5.2528634	2.2919126
7.5331625875610975	5.2235928	2.2855182
7.550727363734844	5.239519	2.2889996
7.568292317573788	5.2163496	2.283933
7.585857449496025	5.243777	2.2899294
7.603422759919705	5.2445583	2.2901
7.620988249263007	5.2952375	2.3011384
7.638553917944147	5.279479	2.2977116
7.656119766381391	5.20019	2.2803924
7.673685794993023	5.220002	2.2847323
7.691252004197388	5.203979	2.281223
7.70881839441285	5.229251	2.2867556
7.726384966057826	5.161741	2.2719464
7.743951719550762	5.116645	2.262
7.761518655310149	5.1926293	2.2787342
7.779085773754511	5.2738543	2.2964873
7.796653075302419	5.3463244	2.312212
7.814220560372475	5.2837324	2.2986372
7.831788229383323	5.2184434	2.2843912
7.8493560827536495	5.194739	2.279197
7.866924120902174	5.2237425	2.2855508
7.884492344247663	5.3038664	2.3030124
7.9020607532089135	5.318411	2.306168
7.919629348204771	5.361067	2.3153977
7.937198129654115	5.428985	2.3300183
7.954767097975865	5.4467473	2.3338268
7.972336253588986	5.4229326	2.3287191
7.989905596912472	5.362726	2.315756
8.007475128365371	5.3853307	2.3206315
8.025044848366756	5.412733	2.326528
8.042614757335754	5.534134	2.352474
8.060184855691523	5.6348844	2.3737912
8.07775514385327	5.875607	2.4239652
8.095325622240228	5.8987775	2.4287398
8.112896291271687	5.848699	2.4184084
8.130467151366968	5.8894854	2.4268262
8.148038202945436	5.9640346	2.4421372
8.165609446426497	6.007995	2.451121
8.183180882229594	6.053212	2.4603276
8.200752510774217	6.012732	2.4520872
8.218324332479893	6.1250873	2.4748914
8.235896347766193	6.05349	2.4603841
8.253468557052724	6.0540166	2.4604912
8.27104096075914	5.9718466	2.443736
8.288613559305137	6.0664773	2.463022
8.306186353110448	6.1726894	2.4844897
8.32375934259485	6.243276	2.4986548
8.341332528178162	6.259777	2.5019546
8.358905910280246	6.2539897	2.5007977
8.376479489321003	6.220797	2.4941525
8.394053265720377	6.3201313	2.513987
8.411627239898356	6.35857	2.5216205
8.42920141227497	6.3115244	2.5122747
8.44677578327029	6.2567616	2.5013518
8.464350353304427	6.191536	2.4882798
8.48192512279754	6.160893	2.4821146
8.499500092169827	6.1402264	2.477948
8.51707526184153	6.1157966	2.4730136
8.534650632232934	6.169138	2.483775
8.552226203764365	6.181697	2.486302
8.569801976856192	6.152267	2.4803765
8.587377951928834	6.199231	2.4898255
8.60495412940274	6.269797	2.5039563
8.622530509698416	6.346075	2.5191417
8.6401070932364	6.464972	2.542631
8.657683880437283	6.577014	2.564569
8.675260871721695	6.7302494	2.5942724
8.692838067510303	6.9435782	2.635067
8.710415468223834	7.0339375	2.652157
8.727993074283043	7.1590734	2.6756444
8.745570886108737	7.1416445	2.6723855
8.763148904121765	7.2387094	2.690485
8.78072712874302	7.287309	2.6995018
8.798305560393441	7.5715594	2.7516468
8.815884199494006	7.712501	2.777139
8.833463046465745	7.840452	2.8000808
8.851042101729728	7.950545	2.8196712
8.86862136570707	8.158508	2.8563104
8.886200838818924	8.259244	2.87389
8.903780521486505	8.348908	2.8894477
8.921360414131055	8.465692	2.9095862
8.938940517173874	8.608065	2.9339504
8.956520831036297	8.682156	2.94655
8.97410135613971	8.958564	2.993086
8.99168209290554	9.274824	3.0454595
9.009263041755265	9.580777	3.095283
9.026844203110405	9.910732	3.1481316
9.044425577392525	9.923353	3.1501355
9.062007165023239	9.935588	3.1520767
9.079588966424197	10.124272	3.1818662
9.097170982017108	10.277107	3.2057927
9.11475321222372	11.2176285	3.3492727
9.132335657465825	12.075315	3.4749556
9.149918318165264	12.208552	3.4940739
9.167501194743924	12.743702	3.569832
9.18508428762374	12.471445	3.5314934
9.202667597226693	12.551453	3.542803
9.220251123974803	12.250338	3.5000482
9.237834868290143	11.941374	3.4556293
9.255418830594836	11.588232	3.4041493
9.273003011311046	11.08402	3.329267
9.290587410860985	10.945782	3.308441
9.308172029666911	10.382391	3.2221718
9.32575686815113	10.172968	3.1895092
9.343341926735997	8.937784	2.9896128
9.360927205843916	8.702785	2.9500482
9.378512705897327	8.418074	2.9013917
9.396098427318728	8.188038	2.8614748
9.413684370530664	8.125943	2.850604
9.431270535955722	8.055918	2.838295
9.448856924016539	8.052221	2.8376436
9.466443535135806	7.88288	2.8076468
9.484030369736251	7.814461	2.7954357
9.501617428240658	7.7194633	2.7783923
9.519204711071852	7.702074	2.7752612
9.536792218652714	7.7377	2.7816722
9.55437995140617	7.793638	2.791709
9.571967909755191	7.860239	2.8036118
9.589556094122802	7.85413	2.802522
9.60714450493207	7.9244323	2.8150368
9.624733142606116	7.944722	2.8186383
9.642322007568108	7.9981465	2.8280995
9.659911100241267	8.041762	2.8358002
9.677500421048851	8.10679	2.8472424
9.695089970414175	8.197758	2.8631728
9.712679748760609	8.235969	2.8698378
9.730269756511557	8.214836	2.8661535
9.747859994090492	8.096557	2.845445
9.765450461920915	8.070529	2.8408678
9.78304116042639	8.064874	2.8398721
9.800632090030527	8.138644	2.852831
9.81822325115699	8.27245	2.8761868
9.835814644229481	8.374506	2.893874
9.853406269671762	8.471484	2.9105814
9.870998127907646	8.558462	2.925485
9.888590219360985	8.564096	2.9264479
9.906182544455698	8.509764	2.91715
9.923775103615734	8.49855	2.9152274
9.941367897265108	8.474218	2.911051
9.958960925827878	8.549954	2.9240305
9.97655418972816	8.498158	2.9151602
9.994147689390106	8.412318	2.9003997
10.011741425237934	8.295599	2.8802083
10.029335397695904	8.257255	2.873544
10.04692960718833	8.259713	2.8739717
10.06452405413958	8.332178	2.8865511
10.082118738974064	8.299137	2.8808222
10.099713662116246	8.281006	2.8776736
10.117308823990651	8.232124	2.8691678
10.134904225021844	8.2091875	2.8651679
10.152499865634445	8.228864	2.8685997
10.170095746253125	8.230485	2.8688822
10.18769186730261	8.203448	2.8641663
10.205288229207675	8.170463	2.858402
10.222884832393145	8.120937	2.8497257
10.2404816772839	8.1877365	2.861422
10.258078764304868	8.174751	2.859152
10.275676093881035	8.173292	2.858897
10.293273666437438	8.11737	2.8490999
10.310871482399158	8.099204	2.84591
10.32846954219134	8.097304	2.8455763
10.346067846239173	8.1179495	2.8492014
10.363666394967908	8.106289	2.8471546
10.38126518880283	8.204403	2.864333
10.398864228169298	8.256595	2.873429
10.416463513492713	8.256045	2.8733335
10.434063045198531	8.143569	2.853694
10.451662823712262	8.174487	2.859106
10.469262849459467	8.253753	2.8729346
10.486863122865758	8.221345	2.8672888
10.504463644356806	8.191581	2.8620937
10.522064414358338	8.07299	2.8413007
10.539665433296118	7.9493914	2.8194666
10.557266701595987	7.8445444	2.8008113
10.574868219683818	7.773279	2.7880602
10.592469987985552	7.7535686	2.784523
10.610072006927185	7.6086545	2.758379
10.627674276934751	7.524663	2.7431118
10.64527679843435	7.382663	2.7171056
10.662879571852143	7.2840433	2.6988966
10.680482597614331	7.217257	2.6864953
10.698085876147173	7.119705	2.6682775
10.715689407876988	6.98857	2.6435905
10.733293193230146	6.9175615	2.6301258
10.750897232633072	6.7612324	2.600237
10.76850152651225	6.687278	2.585977
10.786106075294207	6.5638437	2.562
10.803710879405534	6.5072513	2.5509315
10.821315939272877	6.449314	2.53955
10.83892125532294	6.3608975	2.522082
10.856526827982472	6.3137894	2.5127256
10.874132657678285	6.26698	2.5033937
10.891738744837243	6.2108936	2.4921665
10.909345089886271	6.15746	2.4814231
10.926951693252343	6.0843005	2.4666376
10.944558555362494	6.071066	2.4639533
10.96216567664381	5.976504	2.4446888
10.979773057523436	5.925793	2.4342952
10.997380698428573	5.8058944	2.4095423
11.014988599786477	5.763653	2.400761
11.032596762024461	5.732526	2.3942695
11.050205185569892	5.6695786	2.3810878
11.067813870850198	5.5712667	2.360353
11.085422818292859	5.4846916	2.3419418
11.10303202832541	5.42289	2.32871
11.120641501375454	5.405957	2.3250713
11.138251237870636	5.2809324	2.298028
11.155861238238671	5.2050257	2.2814524
11.173471502907317	5.106232	2.2596974
11.191082032304402	5.1334023	2.2657013
11.208692826857805	5.1513557	2.2696598
11.226303886995465	5.110776	2.2607026
11.243915213145371	5.011919	2.2387316
11.261526805735578	4.942505	2.2231746
11.279138665194196	4.8815346	2.2094195
11.296750791949393	4.8332562	2.1984668
11.314363186429393	4.814727	2.1942487
11.331975849062479	4.760501	2.181857
11.34958878027699	4.7055726	2.169233
11.36720198050133	4.66058	2.1588378
11.384815450163948	4.6641707	2.1596692
11.402429189693366	4.579341	2.1399395
11.420043199518153	4.508685	2.1233664
11.437657480066942	63.441383	7.96501
11.455272031768422	85.15533	9.227964
11.472886855051353	107.57005	10.371598
11.490501950344528	99.14317	9.957067
11.508117318076819	84.46297	9.190373
11.52573295867715	45.86757	6.77256
11.543348872574514	4.202023	2.0498836
11.560965060197946	4.199948	2.0493774
11.57858152197655	4.161445	2.039962
11.59619825833949	4.0761657	2.0189517
11.613815269715985	4.043581	2.0108657
11.631432556535323	38.559402	6.209622
11.649050119226837	83.09379	9.11558
11.666667958219929	93.485085	9.668769
11.68428607394406	107.696304	10.377683
11.701904466828756	82.49181	9.0825
11.719523137303586	65.31038	8.081484
11.737142085798196	4.572837	2.1384192
11.754761312742286	3.7057302	1.9250274
11.772380818565619	3.695429	1.9223499
11.790000603698015	3.6454525	1.9093068
11.80762066856935	3.6206026	1.9027882
11.825241013609572	3.5841703	1.8931905
11.842861639248683	3.5904658	1.8948524
11.860482545916748	3.5705492	1.8895897
11.878103734043883	3.535811	1.8803753
11.895725204060282	3.5332415	1.8796918
11.91334695639619	3.4418097	1.8552115
11.930968991481919	3.397114	1.8431262
11.948591309747824	3.319301	1.8218949
11.966213911624347	3.3238628	1.8231463
11.98383679754198	3.3204427	1.8222082
12.001459967931268	3.3225791	1.8227943
12.019083423222835	3.2990878	1.8163391
12.036707163847352	3.292079	1.8144087
12.05433119023556	3.259109	1.8053002
12.071955502818259	3.251447	1.8031769
12.089580102026313	3.2680213	1.8077669
12.107204988290643	3.2624817	1.8062341
12.12483016204224	3.2465937	1.8018306
12.142455623712152	3.1807601	1.7834686
12.16008137373149	3.150474	1.7749575
12.177707412531431	3.1440766	1.7731544
12.19533374054321	3.1105466	1.7636741
12.212960358198126	3.0751271	1.753604
12.230587265927545	3.0459812	1.745274
12.248214464162889	3.0131135	1.7358322
12.265841953335649	2.9959962	1.7308947
12.283469733877375	2.9924338	1.7298652
12.301097806219685	2.9795516	1.7261378
12.31872617079425	2.9961543	1.7309403
12.336354828032825	2.9903839	1.7292726
12.353983778367205	2.9515595	1.7180103
12.371613022229262	2.9060786	1.7047224
12.389242560050928	2.8750198	1.6955884
12.406872392264201	2.9148839	1.707303
12.424502519301143	2.9331753	1.7126515
12.442132941593874	2.8907454	1.7002193
12.459763659574586	2.8818207	1.6975926
12.477394673675532	2.8743124	1.6953797
12.49502598432903	2.858119	1.6905972
12.51265759196746	2.8449013	1.6866835
12.530289497023267	2.8059113	1.6750854
12.547921699928967	2.8212838	1.6796677
12.565554201117134	2.7858098	1.6690745
12.583187001020404	2.765476	1.6629721
12.600820100071486	2.7425597	1.6560675
12.618453498703152	2.7748225	1.6657798
12.636087197348235	2.7998054	1.6732619
12.65372119643964	2.854448	1.6895112
12.671355496410326	2.8540971	1.6894073
12.68899009769333	2.9219234	1.7093635
12.706625000721749	2.915756	1.7075585
12.724260205928752	2.9648428	1.7218719
12.741895713747551	2.9329174	1.7125763
12.759531524611454	2.9688663	1.7230399
12.777167638953818	2.9498093	1.7175009
12.794804057208072	2.9764051	1.7252262
12.812440779807702	3.0228968	1.7386479
12.830077807186271	3.1720016	1.7810113
12.847715139777405	3.2453494	1.8014853
12.865352778014795	3.4338598	1.8530676
12.882990722332197	3.5687027	1.889101
12.90062897316344	3.627007	1.9044703
12.918267530942412	3.733157	1.932138
12.935906396103071	3.63039	1.9053582
12.953545569079449	3.7854254	1.945617
12.971185050305628	3.5980525	1.8968533
12.988824840215775	3.5584629	1.8863889
13.006464939244115	3.5687869	1.8891233
13.024105347824943	3.4189715	1.8490461
13.041746066392617	3.535311	1.8802422
13.05938709538157	3.3111608	1.8196595
13.077028435226296	3.3378973	1.8269913
13.094670086361363	3.2650757	1.806952
13.112312049221401	3.2059221	1.7905089
13.129954324241112	3.1011567	1.7610102
13.147596911855258	2.889308	1.6997964
13.165239812498685	2.818215	1.678754
13.182883026606293	2.75141	1.6587374
13.200526554613058	2.6980948	1.6425879
13.218170396954017	2.6687129	1.6336195
13.235814554064284	2.670726	1.6342356
13.253459026379034	2.7065833	1.6451697
13.271103814333523	2.7494566	1.6581485
13.288748918363058	2.7326882	1.6530844
13.306394338903031	2.7279396	1.6516476
13.32404007638889	2.6956334	1.6418384
13.341686131256164	2.6996007	1.6430461
13.359332503940449	2.6621501	1.6316097
13.376979194877402	2.6573884	1.6301498
13.394626204502751	2.7095063	1.6460578
13.412273533252307	2.752014	1.6589195
13.429921181561937	2.7524369	1.659047
13.447569149867581	2.7486784	1.6579139
13.465217438605247	2.7409568	1.6555835
13.482866048211022	2.7304318	1.6524018
13.500514979121052	2.7117138	1.6467282
13.518164231771568	2.6843765	1.6384066
13.535813806598844	2.687315	1.6393032
13.553463704039254	2.6717741	1.6345563
13.571113924529229	2.7038188	1.6443293
13.588764468505275	2.7276495	1.6515597
13.606415336403956	2.7931707	1.6712781
13.624066528661917	2.776828	1.6663817
13.641718045715882	2.7883775	1.6698436
13.659369888002635	2.7950041	1.6718266
13.67702205595903	2.8903296	1.700097
13.694674550021993	3.00463	1.7333869
13.712327370628532	3.101208	1.7610247
13.729980518215713	3.19672	1.7879373
13.747633993220681	3.239337	1.7998158
13.765287796080647	3.2994854	1.8164486
13.7829419272329	3.3571696	1.8322581
13.800596387114801	3.3937871	1.8422234
13.818251176163775	3.3843822	1.8396691
13.835906294817324	3.4011185	1.8442122
13.853561743513023	3.4164345	1.84836
13.871217522688525	3.466566	1.8618717
13.888873632781538	3.458713	1.8597616
13.906530074229858	3.4749777	1.8641292
13.92418684747135	3.505615	1.8723288
13.941843952943948	3.489224	1.8679465
13.959501391085665	3.451635	1.8578576
13.977159162334578	3.381296	1.83883
13.994817267128846	3.3477006	1.8296722
14.012475705906693	3.2448852	1.8013564
14.030134479106424	3.1663775	1.7794318
14.047793587166414	3.0949552	1.7592485
14.065453030525108	3.0830767	1.7558693
14.083112809621026	3.040639	1.7437428
14.100772924892766	3.0114348	1.7353486
14.118433376778997	2.947202	1.7167417
14.136094165718458	2.867996	1.6935159
14.153755292149969	2.78241	1.6680558
14.171416756512416	2.6998894	1.643134
14.189078559244768	2.6143436	1.6168932
14.20674070078606	2.5603435	1.6001073
14.224403181575408	2.5608885	1.6002777
14.242066002051999	2.5798728	1.6061983
14.259729162655093	2.536996	1.592795
14.277392663824022	2.4743283	1.5729997
14.295056505998208	2.4392903	1.5618228
14.312720689617128	2.4354203	1.5605834
14.330385215120348	2.4301748	1.5589018
14.348050082947497	2.423151	1.5566474
14.3657152935383	2.4148586	1.5539815
14.383380847332528	2.3861713	1.5447237
14.401046744770051	2.3400846	1.5297335
14.418712986290798	2.3274899	1.5256113
14.436379572334793	2.3184693	1.522652
14.454046503342123	2.3332264	1.5274903
14.471713779752946	2.33462	1.5279464
14.489381402007504	2.341009	1.5300356
14.507049370546113	2.359113	1.5359404
14.524717685809168	2.3660674	1.5382026
14.542386348237134	2.398379	1.54867
14.560055358270553	2.4141161	1.5537426
14.577724716350051	2.4426978	1.5629132
14.595394422916325	2.4190958	1.5553442
14.61306447841015	2.437349	1.5612012
14.63073488327237	2.4547694	1.5667703
14.648405637943917	2.5352402	1.5922438
14.6660767428658	2.5320058	1.5912278
14.683748198479094	2.5753179	1.6047797
14.701420005224954	2.5839705	1.6074734
14.719092163544628	2.646519	1.6268125
14.73676467387942	2.6691566	1.6337553
14.754437536670727	2.6829631	1.6379753
14.772110752360014	2.6656976	1.6326964
14.78978432138882	2.6807373	1.6372957
14.807458244198777	2.7081006	1.6456307
14.82513252123159	2.6948423	1.6415975
14.842807152929028	2.655116	1.6294527
14.860482139732962	2.6330247	1.6226598
14.87815748208531	2.6345358	1.6231253
14.8958331804281	2.6625893	1.6317443
14.91350923520342	2.6414192	1.6252444
14.931185646853438	2.6865911	1.6390824
14.948862415820408	2.6970046	1.6422559
14.966539542546656	2.7176495	1.6485295
14.98421702747459	2.6946142	1.641528
15.001894871046696	2.674268	1.6353189
15.019573073705542	2.7238631	1.650413
15.037251635893766	2.7201018	1.6492732
15.054930558054092	2.730858	1.6525308
15.072609840629323	2.7658575	1.6630868
15.090289484062351	2.866864	1.6931816
15.107969488796124	3.1262832	1.7681298
15.125649855273691	3.5417986	1.8819667
15.14333058393817	4.103479	2.0257046
15.161011675232768	5.249332	2.291142
15.17869312960076	6.8020744	2.6080787
15.196374947485506	8.962754	2.9937859
15.214057129330447	12.281488	3.5044954
15.231739675579114	17.12842	4.1386495
15.249422586675102	21.905659	4.680348
15.267105863062092	24.436413	4.94332
15.284789505183847	24.023018	4.901328
15.302473513484218	21.346687	4.6202474
15.320157888407127	17.637638	4.199719
15.337842630396578	13.512953	3.6759968
15.355527739896656	10.543798	3.2471216
15.37321321735153	8.255329	2.8732088
15.39089906320545	6.135816	2.477058
15.408585277902748	4.6525307	2.1569726
15.42627186188783	3.6242695	1.9037514
15.443958815605198	3.1270728	1.7683531
15.461646139499424	2.8931937	1.700939
15.479333834015168	2.7940853	1.6715517
15.497021899597165	2.7265038	1.6512128
15.514710336690234	2.702919	1.6440556
15.53239914573928	2.639163	1.6245501
15.550088327189297	2.5846848	1.6076955
15.567777881485336	2.5496092	1.5967495
15.58546780907256	2.5439315	1.5949707
15.6031581103962	2.5483992	1.5963706
15.620848785901568	2.5302558	1.5906777
15.638539836034063	2.4775994	1.5740392
15.656231261239173	2.464065	1.5697341
15.673923061962451	2.441684	1.5625889
15.691615238649552	2.462932	1.5693731
15.709307791746202	2.4619536	1.5690614
15.727000721698221	2.4695039	1.5714655
15.744694028951498	2.4476943	1.564511
15.76238771395202	2.4206269	1.5558364
15.780081777145844	2.3785567	1.5422571
15.797776218979125	2.3473961	1.5321214
15.815471039898094	2.344583	1.5312032
15.833166240349064	2.3310404	1.5267745
15.850861820778437	2.329879	1.5263941
15.868557781632699	2.3363438	1.5285103
15.886254123358412	2.3422937	1.5304554
15.903950846402232	2.3613558	1.5366703
15.921647951210897	2.3639612	1.5375179
15.939345438231225	2.391617	1.5464854
15.957043307910133	2.4018698	1.5497967
15.974741560694602	2.4159954	1.5543473
15.992440197031714	2.4596744	1.5683349
16.01013921736862	2.4617276	1.5689894
16.02783862215259	2.4219043	1.5562469
16.045538411830933	2.3755352	1.5412772
16.06323858685107	2.3676562	1.538719
16.080939147660512	2.4179425	1.5549735
16.09864009470684	2.4347637	1.560373
16.11634142843774	2.4565663	1.5673437
16.134043149300954	2.4135685	1.5535663
16.15174525774433	2.3534272	1.5340884
16.169447754215817	2.3473234	1.5320977
16.18715063916342	2.3865159	1.5448352
16.204853913035244	2.4305763	1.5590305
16.222557576279478	2.4538696	1.5664831
16.240261629344403	22.442493	4.737351
16.257966072678386	43.012093	6.5583606
16.275670906729868	38.10786	6.1731563
16.293376131947387	2.5414248	1.5941846
16.31108174877957	2.5286264	1.5901655
16.328787757675133	2.5428388	1.5946281
16.34649415908287	2.5368888	1.5927614
16.364200953451657	2.5446532	1.595197
16.38190814123048	2.5962281	1.6112815
16.39961572286839	2.6538014	1.6290493
16.41732369881455	2.728418	1.6517924
16.43503206951817	2.7594008	1.6611445
16.45274083542859	2.7797422	1.6672559
16.47044999699522	2.7799017	1.6673037
16.488159554667558	2.8449821	1.6867075
16.505869508895184	2.8712978	1.6944904
16.523579860127786	2.9059005	1.7046702
16.541290608815117	2.9174879	1.7080655
16.559001755407035	2.9736848	1.7244375
16.57671330035348	3.0159185	1.73664
16.59442524410448	3.1000974	1.7607094
16.61213758711015	3.1963296	1.7878282
16.629850329820705	3.2798798	1.8110439
16.647563472686436	3.3729935	1.8365711
16.665277016157724	3.4459686	1.8563321
16.682990960685053	3.481635	1.865914
16.70070530671898	3.513954	1.8745543
16.718420054710155	3.5187008	1.87582
16.736135205109335	3.5691297	1.889214
16.753850758367335	3.6213183	1.9029762
16.771566714935087	3.6704092	1.9158312
16.789283075263597	3.7162242	1.9277511
16.80699983980398	3.7652712	1.9404306
16.82471700900741	3.857448	1.9640387
16.84243458332518	3.904881	1.9760772
16.860152563208665	3.956237	1.9890292
16.87787094910932	4.0341315	2.0085146
16.89558974147871	4.105384	2.0261748
16.913308940768466	4.1760583	2.0435407
16.931028547430333	4.284073	2.0698001
16.94874856191613	4.3431463	2.0840216
16.966468984677785	4.3329334	2.08157
16.98418981616729	4.3565273	2.0872295
17.00191105683676	4.363089	2.088801
17.019632707138374	4.4362087	2.106231
17.03735476752442	4.487263	2.1183162
17.05507723844728	4.5428824	2.131404
17.072800120359403	4.5170975	2.1253464
17.090523413713353	4.5574927	2.1348286
17.108247118961785	4.595113	2.1436214
17.125971236557437	4.642275	2.154594
17.143695766953133	4.672999	2.161712
17.161420710601806	4.7009215	2.168161
17.179146067956477	4.7112737	2.1705468
17.19687183947025	4.6647496	2.1598032
17.21459802559634	4.651741	2.1567895
17.232324626788028	4.6173377	2.1487992
17.25005164349871	4.5945177	2.1434827
17.267779076181863	4.6056867	2.1460865
17.285506925291074	4.6158442	2.1484516
17.30323519127999	4.5605893	2.1355536
17.320963874602384	4.553111	2.133802
17.33869297571211	4.541157	2.130999
17.356422495063114	4.514486	2.124732
17.37415243310944	4.465324	2.1131313
17.391882790305218	4.459557	2.1117663
17.40961356710468	4.491164	2.1192367
17.42734476396215	4.5326233	2.128996
17.445076381332044	4.5930033	2.1431293
17.462808419668868	4.68874	2.1653497
17.48054087942723	4.823175	2.1961727
17.498273761061835	5.191666	2.2785227
17.51600706502747	5.766995	2.4014568
17.533740791779024	6.5748997	2.5641568
17.551474941771485	8.183246	2.8606372
17.56920951545993	9.417992	3.0688746
17.586944513299528	11.535925	3.3964577
17.60467993574556	13.178138	3.6301706
17.622415783253373	14.873548	3.856624
17.64015205627843	16.087824	4.010963
17.657888755276293	16.85058	4.1049457
17.675625880702604	17.07525	4.132221
17.69336343301311	16.809994	4.0999994
17.71110141266366	16.116898	4.0145855
17.728839820110178	15.434154	3.9286325
17.746578655808705	14.836533	3.851822
17.764317920215372	13.362308	3.655449
17.7820576137864	11.611574	3.407576
17.79979773697811	9.259849	3.043
17.81753829024692	7.208576	2.684879
17.835279274049356	5.609444	2.3684266
17.85302068884201	4.7554917	2.180709
17.870762535081607	4.211965	2.0523074
17.888504813224934	3.8580558	1.9641935
17.90624752372891	3.6670187	1.9149461
17.923990667050536	3.6133695	1.9008865
17.941734243646895	3.5777302	1.8914889
17.959478253975185	3.5019815	1.8713582
17.9772226984927	3.4518387	1.8579124
17.994967577656833	3.406042	1.8455466
18.01271289192506	3.4012592	1.8442503
18.030458641754965	3.3952606	1.8426232
18.04820482760425	3.4128194	1.8473817
18.06595144993067	3.4002733	1.843983
18.083698509192125	3.3676512	1.8351161
18.101446005846576	3.3276126	1.8241745
18.119193940352105	3.2913063	1.8141958
18.136942313166887	3.2521477	1.8033712
18.1546911247492	3.1874323	1.7853382
18.1724403755574	3.1347668	1.7705272
18.19019006604997	3.1147425	1.7648634
18.207940196685467	3.0986345	1.7602938
18.225690767922575	3.1041572	1.7618618
18.243441780220046	3.0895128	1.757701
18.261193234036764	3.0658286	1.7509508
18.278945129831676	3.0397782	1.743496
18.29669746806386	3.0327852	1.7414894
18.314450249192483	3.050299	1.7465105
18.3322034736768	3.0475864	1.7457337
18.349957141976184	3.059855	1.7492441
18.3677112545501	3.0326436	1.7414486
18.385465811858108	3.0595477	1.7491562
18.403220814359884	3.0446444	1.7448909
18.420976262515172	3.052923	1.7472615
18.43873215678387	3.0984428	1.7602394
18.456488497625923	3.138965	1.7717124
18.474245285501407	3.1895611	1.7859342
18.492002520870486	3.2074084	1.790924
18.50976020419343	3.2589593	1.8052588
18.527518335930615	3.6138399	1.9010103
18.545276916542516	4.2349114	2.05789
18.563035946489688	4.4165077	2.101549
18.580795426232832	4.82927	2.19756
18.598555356232698	4.7174683	2.1719735
18.616315736950185	5.029968	2.242759
18.63407656884626	4.7156367	2.1715517
18.65183785238201	4.93574	2.2216525
18.669599588018617	4.6975536	2.1673841
18.68736177621737	4.682967	2.1640165
18.705124417439652	4.650534	2.1565096
18.72288751214696	4.4737816	2.1151316
18.740651060800886	4.600106	2.1447856
18.758415063863115	4.299793	2.073594
18.77617952179546	4.4324327	2.1053343
18.793944435059814	4.238117	2.0586689
18.811709804118184	4.2567525	2.06319
18.829475629432675	4.2108994	2.0520475
18.8472419114655	3.9851701	1.9962891
18.86500865067897	4.0896726	2.0222938
18.88277584753551	3.8102942	1.9519975
18.90054350249763	3.829814	1.9569911
18.918311616027957	3.4903123	1.8682377
18.936080188589226	3.358899	1.8327299
18.953849220644265	3.0604804	1.7494229
18.971618712656007	2.862143	1.6917869
18.9893886650875	2.792833	1.6711771
19.007159078401887	7.9701753	2.82315
19.024929953062408	32.880077	5.734115
19.042701289532435	32.831245	5.7298555
19.060473088275405	25.413433	5.041174
19.07824534975489	2.6664388	1.6329234
19.096018074434568	2.645678	1.626554
19.113791262778197	2.6172092	1.6177791
19.13156491524966	2.6268265	1.6207488
19.149339032312945	2.632739	1.6225717
19.167113614432136	2.614406	1.6169125
19.184888662071433	2.5494432	1.5966976
19.202664175695123	2.5197837	1.5873827
19.220440155767623	2.491529	1.5784578
19.238216602753447	2.4991038	1.5808554
19.2559935171172	2.4792652	1.5745683
19.27377089932361	2.4819036	1.5754058
19.291548749837514	2.4843607	1.5761855
19.309327069123835	2.5206819	1.5876656
19.32710585764763	2.530787	1.5908448
19.344885115874032	2.5265586	1.5895152
19.362664844268313	2.5217366	1.5879977
19.380445043295822	2.5087388	1.5838999
19.39822571342203	2.5256164	1.5892189
19.41600685511252	2.530309	1.5906945
19.43378846883297	2.4942021	1.5793043
19.451570555049173	2.4628258	1.5693393
19.469353114227037	2.4446743	1.5635455
19.48713614683254	2.457351	1.567594
19.50491965333182	2.468922	1.5712804
19.52270363419109	2.4940104	1.5792437
19.540488089876686	2.4973717	1.5803075
19.55827302085503	2.5033329	1.5821924
19.576058427592674	2.4882355	1.5774142
19.593844310556282	2.4746573	1.5731044
19.611630670212598	2.492471	1.5787561
19.629417507028506	2.4822936	1.5755296
19.64720482147098	2.4736962	1.5727988
19.6649926140071	2.4559343	1.5671421
19.682780885104084	2.4580245	1.5678089
19.70056963522921	2.498045	1.5805205
19.718358864849908	2.5324175	1.5913571
19.7361485744337	2.515133	1.585917
19.753938764448215	2.5153396	1.5859822
19.771729435361202	2.5375497	1.5929688
19.789520587640506	2.5521116	1.597533
19.807312221754092	2.5418737	1.5943254
19.825104338170043	2.526905	1.5896242
19.842896937356517	2.545309	1.5954025
19.860690019781824	2.5164242	1.5863241
19.87848358591436	2.4882236	1.5774103
19.896277636222635	2.4867692	1.5769494
19.914072171175278	2.5248256	1.58897
19.931867191241015	2.5232	1.5884584
19.94966269688869	2.5020442	1.5817851
19.967458688587264	2.4860609	1.5767248
19.985255166805807	2.4998817	1.5811014
20.00305213201348	2.5031712	1.5821413
20.020849584679578	2.5139785	1.585553
20.038647525273507	2.5029328	1.5820659
20.05644595426477	2.484253	1.5761513
20.07424487212299	2.4736066	1.5727704
20.092044279317903	2.4907603	1.5782143
20.109844176319353	2.4988232	1.5807667
20.127644563597304	2.4801292	1.5748426
20.145445441621817	2.4674945	1.570826
20.16324681086307	2.4572396	1.5675585
20.181048671791373	2.4297187	1.5587555
20.198851024877122	2.4206266	1.5558363
20.216653870590836	2.4014597	1.5496644
20.234457209403146	2.4343312	1.5602343
20.252261041784802	2.4513645	1.5656834
20.270065368206662	2.4444027	1.5634586
20.287870189139685	2.4155293	1.5541973
20.305675505054968	2.4129627	1.5533714
20.323481316423702	2.3846366	1.5442269
20.341287623717207	2.3803248	1.5428301
20.359094427406884	2.3528504	1.5339004
20.376901727964288	2.3663106	1.5382817
20.39470952586107	2.3435082	1.5308521
20.41251782156899	2.3605752	1.5364163
20.430326615559935	2.3682284	1.5389049
20.448135908305886	2.347756	1.5322388
20.465945700278965	2.311145	1.5202451
20.483755991951384	2.309359	1.5196575
20.50156678379548	2.3344202	1.5278809
20.519378076283708	2.3710291	1.5398146
20.537189869888635	2.3349197	1.5280443
20.55500216508294	2.2968879	1.5155487
20.572814962339415	2.2759714	1.5086323
20.59062826213098	2.3210135	1.5234872
20.60844206493066	2.3521593	1.5336751
20.626256371211593	2.3780594	1.5420958
20.644071181447032	2.3588502	1.5358549
20.66188649611036	2.318844	1.5227752
20.67970231567506	2.2821243	1.5106702
20.697518640614742	2.3365808	1.5285878
20.715335471403122	2.3423817	1.5304842
20.73315280851404	2.317743	1.5224136
20.750970652421447	2.2648776	1.504951
20.768789003599412	2.236244	1.4954076
20.786607862522136	2.2574534	1.5024824
20.8044272296639	2.2673967	1.5057877
20.82224710549913	2.300376	1.5166991
20.84006749050237	2.3025513	1.517416
20.857888385148268	3.8896184	1.9722116
20.8757097899116	45.98609	6.7813044
20.893531705267254	64.82815	8.051593
20.911354131690224	83.810905	9.15483
20.92917706965566	69.08062	8.311475
20.94700051963877	50.171494	7.083184
20.96482448211493	29.449041	5.4266973
20.982648957559622	4.1311955	2.0325344
21.00047394644843	2.1874678	1.479009
21.01829944925707	2.1846604	1.4780596
21.036125466461375	2.2126224	1.4874886
21.053951998537297	2.2352827	1.4950862
21.071779045960906	2.2699335	1.5066298
21.089606609208378	2.260464	1.5034839
21.10743468875603	2.2292666	1.4930729
21.12526328508028	2.203639	1.484466
21.143092398657675	2.2147996	1.4882203
21.16092202996488	2.2075276	1.4857751
21.17875217947867	2.1903305	1.4799765
21.19658284767596	2.2113805	1.4870712
21.21441403503377	2.2280657	1.4926707
21.232245742029225	2.216228	1.4887002
21.2500779691396	2.186795	1.4787816
21.26791071684227	2.1690269	1.4727616
21.28574398561475	2.1555567	1.4681814
21.30357777593465	2.1196177	1.4558907
21.321412088279704	2.1359735	1.461497
21.339246923127792	2.1335344	1.4606624
21.357082280956888	2.155526	1.468171
21.3749181622451	2.1649094	1.4713631
21.392754567470647	2.1661944	1.4717997
21.41059149711187	2.1390922	1.4625635
21.42842895164726	2.1096947	1.4524788
21.446266931555378	2.106799	1.4514816
21.464105437314945	2.1210797	1.4563926
21.481944469404798	2.1447272	1.4644887
21.49978402830388	2.1457903	1.4648516
21.51762411449127	2.151215	1.4667021
21.53546472844617	2.130364	1.4595766
21.553305870647876	2.1198423	1.4559678
21.571147541575865	2.0988197	1.4487303
21.58898974170967	2.1179159	1.455306
21.60683247152899	2.1028838	1.4501324
21.62467573151363	2.0956178	1.4476249
21.642519522143523	2.0472357	1.4308164
21.660363843898722	2.039905	1.4282525
21.6782086972594	2.0317795	1.425405
21.696054082705864	2.037295	1.4273385
21.713900000718535	2.0231028	1.4223582
21.73174645177795	2.0468001	1.4306642
21.749593436364794	2.0923839	1.4465075
21.767440954959845	2.0880861	1.4450212
21.785289008044032	2.065819	1.4372957
21.803137596098388	2.0521858	1.4325452
21.820986719604086	2.0355067	1.4267119
21.838836379042412	2.0298398	1.4247245
21.85668657489478	2.0277631	1.4239955
21.87453730764273	1.9867309	1.4095144
21.892388577767914	1.9728825	1.4045933
21.91024038575213	2.0034747	1.4154415
21.928092732077285	2.024841	1.4229691
21.945945617225426	2.0451536	1.4300886
21.963799041678694	2.0386667	1.4278189
21.981653005919398	31.325008	5.5968747
21.999507510429943	78.093025	8.837026
22.01736255569286	73.06025	8.547529
22.035218142190818	4.1964045	2.0485127
22.05307427040661	2.0484762	1.4312499
22.07093094082315	2.0543997	1.4333178
22.088788153923474	2.0388432	1.4278806
22.106645910190746	2.0215132	1.4217993
22.12450421010827	2.0345476	1.4263756
22.142363054159464	2.0457463	1.430296
22.16022244282787	2.0358396	1.4268285
22.178082376597164	2.0464559	1.4305439
22.195942855951145	2.048603	1.4312942
22.213803881373742	2.023538	1.4225112
22.231665453349002	1.9897842	1.4105971
22.24952757236111	1.9696996	1.4034599
22.26739023889438	1.9712815	1.4040233
22.28525345343323	1.9584795	1.3994569
22.30311721646225	1.9695915	1.4034214
22.320981528466113	1.970466	1.4037329
22.33884638992964	1.9803977	1.407266
22.356711801337788	1.9609996	1.400357
22.37457776317561	1.9664887	1.4023155
22.392444275928337	1.9708936	1.4038852
22.410311340081282	1.9741788	1.4050547
22.428178956119904	1.9684025	1.4029977
22.446047124529805	1.9757177	1.4056022
22.46391584579669	1.9464958	1.3951688
22.481785120406414	1.9464352	1.395147
22.49965494884496	1.9576178	1.399149
22.51752533159841	1.9905444	1.4108665
22.53539626915302	1.9516066	1.3969991
22.553267761995137	1.9416953	1.3934473
22.571139810611264	1.9370799	1.3917902
22.589012415488025	1.9605635	1.4002012
22.60688557711216	1.9157414	1.3841031
22.624759295970566	1.9026579	1.3793687
22.642633572550263	1.9101405	1.3820783
22.660508407338362	1.9804437	1.4072824
22.67838380082217	2.002356	1.4150463
22.696259753489077	2.019522	1.4210988
22.714136265826614	2.0042865	1.4157282
22.73201333832246	1.9658014	1.4020704
22.74989097146439	1.907262	1.3810365
22.76776916574035	1.9040272	1.3798649
22.785647921638393	1.9070069	1.3809441
22.803527239646712	1.9102279	1.38211
22.82140712025363	1.8911203	1.3751801
22.839287563947593	1.8522909	1.360989
22.85716857121719	1.8480799	1.359441
22.875050142551135	1.8846631	1.3728303
22.892932278438277	1.9098741	1.381982
22.910814979367604	1.8692467	1.367204
22.928698245828222	1.8822763	1.3719608
22.946582078309387	1.9243525	1.3872104
22.96446647730047	1.9197294	1.385543
22.98235144329098	1.9262135	1.3878809
23.000236976770562	1.9035789	1.3797024
23.018123078229	1.9393216	1.3925953
23.03600974815619	1.9244516	1.387246
23.053896987042194	1.9632281	1.4011524
23.071784795377173	1.9597769	1.3999203
23.08967317365145	1.9742945	1.4050959
23.10756212235546	1.9356583	1.3912793
23.125451641979787	1.9180132	1.3849236
23.143341733015134	1.9085189	1.3814915
23.161232395952357	1.8895644	1.3746142
23.179123631282426	1.9154797	1.3840085
23.197015439496468	1.9565943	1.3987832
23.214907821085717	1.9660165	1.4021472
23.23280077654157	1.9398028	1.392768
23.250694306355538	1.934139	1.3907332
23.268588411019277	1.9285018	1.3887051
23.28648309102458	1.9499607	1.39641
23.304378346863356	1.9617448	1.400623
23.322274179027676	1.9497678	1.3963408
23.340170588009723	1.8873289	1.3738009
23.358067574301852	1.8640642	1.3653073
23.37596513839651	1.8835101	1.3724103
23.39386328078629	1.9324911	1.3901407
23.411762001963947	1.9545947	1.3980682
23.429661302422353	1.9622602	1.400807
23.4475611826545	1.9665725	1.4023454
23.46546164315356	1.985234	1.4089833
23.48336268441279	1.9658827	1.4020994
23.501264306925638	1.9472842	1.3954513
23.51916651118564	1.9383376	1.392242
23.537069297686497	1.9632678	1.4011666
23.554972666922037	1.9766163	1.4059218
23.57287661938623	1.9654282	1.4019374
23.59078115557318	1.9602273	1.4000812
23.608686275977128	1.9786767	1.4066545
23.62659198109246	1.960301	1.4001075
23.6444982714137	1.9483123	1.3958195
23.66240514743549	1.896286	1.377057
23.68031260965263	1.8934908	1.3760418
23.698220658560068	1.8918942	1.3754615
23.716129294652845	1.9038005	1.3797828
23.7340385184262	1.8760484	1.3696892
23.75194833037546	1.8539615	1.3616025
23.769858730996123	1.8397726	1.3563821
23.78776972078382	1.8870547	1.3737011
23.80568130023431	1.8784498	1.3705655
23.823593469843495	1.8745105	1.3691276
23.841506230107424	1.8391762	1.3561623
23.859419581522275	1.8322879	1.3536203
23.87733352458438	1.8552762	1.3620852
23.89524805979019	1.8592639	1.3635483
23.913163187636318	1.8432034	1.3576462
23.931078908619508	1.8840375	1.3726025
23.948995223236633	1.9579171	1.3992559
23.966912131984735	2.0021741	1.4149821
23.98482963536096	2.043774	1.4296062
24.002747733862616	2.0441136	1.429725
24.020666427987155	2.0600836	1.4352992
24.038585718232156	2.0451055	1.4300718
24.056505605095353	2.0630252	1.4363235
24.074426089074617	2.0756888	1.4407251
24.092347170667946	2.0813763	1.4426975
24.110268850373515	2.0699666	1.4387379
24.128191128689586	2.0670955	1.4377397
24.146114006114626	2.0120425	1.4184649
24.164037483147187	1.9968767	1.4131088
24.181961560286005	2.0416884	1.4288766
24.199886238029926	2.0675154	1.4378858
24.21781151687797	2.0455928	1.4302422
24.235737397329274	2.0317214	1.4253846
24.253663879883135	2.024077	1.4227005
24.271590965038975	2.0326302	1.4257034
24.289518653296376	2.0249438	1.4230052
24.30744694515505	2.0359068	1.4268521
24.32537584111486	2.0094814	1.4175618
24.34330534167581	1.9963429	1.41292
24.361235447338046	2.014473	1.4193213
24.379166158601876	2.0030918	1.4153062
24.39709747596772	1.9861417	1.4093053
24.41502939993615	1.9507648	1.3966978
24.432961931007917	1.990779	1.4109497
24.450895069683856	2.0022697	1.4150158
24.468828816465	2.0353858	1.4266695
24.4867631718525	2.04724	1.430818
24.504698136347656	2.0116565	1.4183288
24.52263371045192	1.9941574	1.4121464
24.540569894666874	1.966954	1.4024813
24.558506689494266	1.9275875	1.3883759
24.57644409543597	1.9130884	1.3831444
24.594382112994012	1.9029968	1.3794914
24.61232074267057	1.9030077	1.3794955
24.630259984967953	1.9397199	1.3927382
24.64819984038863	1.9177043	1.384812
24.66614030943522	1.9380566	1.392141
24.684081392610462	1.927983	1.3885183
24.702023090417274	1.9718919	1.4042407
24.7199654033587	1.9668552	1.4024462
24.737908331937927	2.0000954	1.4142473
24.755851876658305	2.0625594	1.4361613
24.773796038023324	2.1157062	1.4545467
24.79174081653661	2.1527524	1.4672261
24.809686212701962	2.1391938	1.4625983
24.827632227023294	2.0805836	1.4424229
24.8455788600047	2.0128486	1.418749
24.8635261121504	2.0093508	1.4175158
24.88147398396475	2.0782783	1.4416234
24.899422475952303	2.1299233	1.4594257
24.917371588617698	2.1837265	1.4777437
24.935321322465768	2.2181723	1.489353
24.953271678001478	2.3178756	1.5224571
24.97122265572994	2.5355427	1.5923388
24.989174256156414	2.9525306	1.718293
25.00712647978632	3.417705	1.8487036
25.02507932712521	3.950373	1.9875546
25.043032798678798	4.446752	2.1087322
25.060986894952933	5.165279	2.272725
25.078941616453637	5.950551	2.4393752
25.096896963687055	6.855205	2.6182446
25.114852937159508	7.856677	2.8029764
25.132809537377444	8.161703	2.8568695
25.150766764847468	8.02154	2.8322322
25.168724620076347	7.261828	2.694778
25.186683103570985	6.132161	2.47632
25.204642215838426	5.000796	2.2362459
25.222601957385894	3.730034	1.9313296
25.24056232872074	2.8999825	1.7029334
25.25852333035048	2.4671855	1.5707277
25.276484962782778	2.1776133	1.4756738
25.294447226525435	2.0165663	1.4200585
25.312410122086423	1.960794	1.4002836
25.330373649973843	1.9898132	1.4106073
25.348337810695988	1.9735317	1.4048245
25.366302604761245	1.9527336	1.3974024
25.384268032678207	1.9464691	1.3951591
25.40223409495558	1.944163	1.3943324
25.420200792102257	1.9214123	1.3861502
25.438168124627246	1.9397856	1.3927618
25.45613609303974	1.8939514	1.376209
25.474104697849057	1.8381429	1.3557813
25.492073939564698	1.8617353	1.3644543
25.510043818696285	1.8915079	1.375321
25.528014335753614	1.9064125	1.380729
25.54598549124664	1.876557	1.3698748
25.56395728568544	1.8783975	1.3705465
25.58192971958028	1.8597966	1.3637437
25.59990279344156	1.8525234	1.3610743
25.617876507779833	1.8926932	1.3757519
25.635850863105826	1.9073822	1.3810802
25.653825859930386	1.9242305	1.3871664
25.671801498764548	1.9050081	1.3802203
25.68977778011949	1.8707386	1.3677495
25.707754704506524	1.8470283	1.3590542
25.725732272437153	1.8388844	1.3560547
25.743710484423012	1.8606597	1.36406
25.761689340975888	1.8388176	1.3560301
25.77966884260774	1.866159	1.3660743
25.797648989830662	1.8809171	1.3714653
25.815629783156922	1.8776902	1.3702884
25.83361122309895	1.8514088	1.3606648
25.85159331016929	1.8600365	1.3638315
25.869576044880695	1.8702347	1.3675653
25.887559427746034	1.8543277	1.361737
25.90554345927836	1.8199824	1.3490672
25.92352813999086	1.7653382	1.3286602
25.94151347039689	1.8133343	1.346601
25.959499451009965	1.8867688	1.373597
25.97748608234374	1.9384421	1.3922795
25.995473364912062	1.8955965	1.3768066
26.013461299228904	1.8291215	1.3524501
26.03144988580839	1.7789497	1.3337728
26.04943912516483	1.8288941	1.3523661
26.067429017812675	1.8684812	1.3669239
26.085419564266537	1.9034151	1.3796431
26.103410765041186	1.848189	1.3594811
26.12140262065155	1.8537928	1.3615406
26.139395131612723	1.8722745	1.3683108
26.157388298439948	1.8765718	1.3698802
26.17538212164861	1.8127958	1.3464011
26.193376601754295	1.7813649	1.3346778
26.211371739272714	1.7743198	1.3320359
26.229367534719746	1.8568084	1.3626475
26.247363988611433	1.8849542	1.3729364
26.26536110146397	1.893581	1.3760746
26.283358873793727	1.8731711	1.3686384
26.301357306117204	1.8527876	1.3611714
26.319356398951104	1.8456689	1.358554
26.33735615281224	1.8704948	1.3676604
26.35535656821762	1.8536737	1.3614968
26.373357645684404	1.7989776	1.3412597
26.39135938572991	1.7824504	1.3350844
26.409361788871614	1.8085417	1.3448203
26.427364855627165	1.8462349	1.3587623
26.445368586514352	1.8701099	1.3675196
26.46337298205115	1.7961133	1.3401915
26.48137804275568	1.7693386	1.3301649
26.499383769146217	1.7933174	1.339148
26.517390161741215	1.8684338	1.3669066
26.53539722105928	1.8953799	1.3767279
26.553404947619182	1.8676953	1.3666365
26.571413341939856	1.8438376	1.3578799
26.589422404540397	1.8317026	1.353404
26.60743213594006	1.7850386	1.3360534
26.62544253665827	1.7524564	1.3238038
26.64345360721459	1.7432096	1.3203067
26.66146534812879	1.7694143	1.3301933
26.679477759920758	1.765749	1.3288149
26.69749084311057	1.7858084	1.3363414
26.71550459821847	1.7859331	1.3363881
26.733519025764842	1.7651423	1.3285866
26.751534126270258	1.7756052	1.3325183
26.769549900255434	1.769255	1.3301334
26.787566348241267	1.7629306	1.327754
26.80558347074881	1.8016821	1.3422675
26.823601268299267	1.7871497	1.3368431
26.841619741414036	1.7896287	1.3377701
26.85963889061465	1.7986689	1.3411446
26.877658716422832	1.8432658	1.3576692
26.89567921936045	1.8164023	1.3477397
26.913700399949544	1.7745862	1.3321359
26.93172225871233	1.7621106	1.3274451
26.949744796171174	1.7946	1.3396268
26.967768012848605	1.8118571	1.3460524
26.98579190926733	1.7565905	1.3253642
27.003816485950225	1.7384288	1.3184949
27.021841743420318	1.7452198	1.3210677
27.039867682200814	1.7681851	1.3297312
27.057894302815072	1.7978469	1.3408382
27.07592160578664	1.8013177	1.3421317
27.0939495916392	1.7809259	1.3345133
27.111978260896635	1.8029877	1.3427538
27.13000761408296	1.8327483	1.3537904
27.148037651722397	1.7893237	1.337656
27.166068374339304	1.738533	1.3185344
27.184099782458215	1.7382985	1.3184454
27.20213187660384	1.7597038	1.3265382
27.22016465730105	1.818309	1.3484468
27.23819812507487	1.8640882	1.3653162
27.256232280450533	1.8309172	1.3531139
27.274267123953383	1.7871819	1.3368552
27.292302656108987	1.8042831	1.3432361
27.31033887744306	1.8186648	1.3485788
27.32837578848146	1.8116201	1.3459644
27.34641338975026	1.8206172	1.3493025
27.364451681775673	1.8090698	1.3450166
27.382490665084074	1.775689	1.3325498
27.400530340202046	1.801847	1.3423289
27.41857070765629	1.7698724	1.3303655
27.436611767973726	1.7683283	1.3297851
27.454653521681404	1.7923235	1.3387768
27.472695969306564	1.8647616	1.3655628
27.490739111376627	1.9120563	1.3827713
27.508782948419153	1.8738723	1.3688946
27.526827480961902	1.825518	1.3511174
27.54487270953279	1.8055731	1.3437161
27.562918634659898	1.8133459	1.3466053
27.580965256871508	1.8653685	1.3657849
27.599012576696026	1.8904004	1.3749183
27.617060594662068	1.8671355	1.3664317
27.63510931129842	1.8173715	1.3480992
27.65315872713401	1.79982	1.3415737
27.67120884269797	1.8053374	1.3436284
27.68925965851958	1.8163434	1.3477179
27.707311175128307	1.7674536	1.3294561
27.725363393053787	1.721118	1.3119138
27.74341631282583	1.7160865	1.3099948
27.7614699349744	1.7995927	1.341489
27.77952426002968	2.0409586	1.4286213
27.797579288521973	2.1421156	1.4635968
27.815635020981784	2.5184815	1.5869725
27.83369145793979	2.6173968	1.6178371
27.85174859992682	2.5312824	1.5910004
27.869806447473923	2.3787115	1.5423071
27.887865001112267	2.0394235	1.4280839
27.905924261373233	1.9592239	1.3997228
27.92398422878836	1.9104394	1.3821864
27.94204490388936	1.8459966	1.3586745
27.96010628720813	1.8307279	1.3530439
27.978168379276728	1.8680472	1.3667653
27.9962311806274	1.876956	1.3700204
28.014294691792568	1.8390038	1.3560988
28.0323589133048	1.8645941	1.3655014
28.050423845696887	1.8979094	1.3776463
28.068489489501758	1.9435171	1.3941008
28.086555845252523	1.9260563	1.3878243
28.104622913482487	1.9251069	1.3874822
28.122690694725115	1.8892965	1.3745168
28.14075918951405	1.9073291	1.3810608
28.15882839838312	1.9070976	1.380977
28.176898321866304	1.9224398	1.3865207
28.1949689604978	1.9440333	1.3942859
28.213040314811945	1.9822333	1.4079181
28.23111238534327	1.9966054	1.4130129
28.249185172626493	1.9425131	1.3937407
28.267258677196473	1.8982975	1.3777872
28.285332899588294	1.8838565	1.3725365
28.303407840337172	1.8882265	1.3741275
28.321483499978545	1.917238	1.3846437
28.33955987904799	1.9314194	1.3897551
28.357636978081285	1.912228	1.3828334
28.37571479761439	1.9039186	1.3798256
28.393793338183425	1.9120815	1.3827803
28.41187260032469	1.924307	1.3871939
28.429952584574686	1.9152844	1.383938
28.448033291470065	1.9114369	1.3825473
28.46611472154769	1.9432784	1.3940152
28.484196875344566	1.9477649	1.3956234
28.502279753397914	1.9492092	1.3961408
28.52036335624511	1.9874452	1.4097677
28.538447684423716	1.9727006	1.4045286
28.556532738471482	1.974112	1.405031
28.574618518926325	1.9594638	1.3998085
28.59270502632635	1.955616	1.3984334
28.61079226120985	1.9355803	1.3912513
28.628880224115274	1.9133624	1.3832434
28.646968915581287	1.9601914	1.4000684
28.66505833614671	2.0168777	1.4201682
28.68314848635055	2.0123699	1.4185802
28.701239366732004	1.9852533	1.4089901
28.71933097783044	1.9661219	1.4021847
28.737423320185403	2.0238419	1.4226179
28.75551639433665	2.1254385	1.4578884
28.773610200824074	2.1828816	1.4774578
28.791704740187793	2.164858	1.4713457
28.80980001296809	2.1457553	1.4648397
28.827896019705413	2.207499	1.4857655
28.845992760940433	2.2508059	1.5002686
28.86409023721397	2.2692559	1.506405
28.88218844906704	2.2258968	1.491944
28.900287397040845	2.2286837	1.4928776
28.918387081676755	2.2812254	1.5103726
28.936487503516343	2.3455114	1.5315063
28.954588663101365	2.376356	1.5415434
28.97269056097374	2.369939	1.5394607
28.990793197675597	2.342963	1.530674
29.00889657374923	2.3304675	1.5265869
29.027000689737125	2.2892683	1.5130328
29.04510554618196	2.3006594	1.5167925
29.06321114362659	2.3736641	1.54067
29.08131748261405	2.468931	1.5712832
29.099424563687567	2.474194	1.5729572
29.11753238739057	2.4980266	1.5805147
29.13564095426663	2.5913224	1.6097585
29.15375026485954	2.6581132	1.6303722
29.171860319713275	2.6342957	1.6230514
29.18997111937199	2.6597724	1.6308808
29.20808266438002	2.7273827	1.6514789
29.226194955281898	2.846439	1.6871393
29.244307992622335	2.8827279	1.6978598
29.26242177694624	2.8851063	1.6985601
29.2805363087987	2.8890076	1.6997081
29.29865158872498	2.9229126	1.7096528
29.316767617270557	2.9504652	1.7176918
29.334884394981064	2.934385	1.7130047
29.353001922402367	3.0081646	1.7344061
29.37112020008047	3.143348	1.772949
29.389239228561596	3.3010411	1.8168768
29.407359008392152	3.4780557	1.8649546
29.42547954011872	3.8783722	1.9693583
29.44360082428809	4.6970396	2.1672654
29.46172286144722	5.915568	2.432194
29.479845652143283	7.621871	2.7607737
29.497969196923606	9.879161	3.1431131
29.516093496335728	12.496685	3.5350652
29.5342185509274	15.223161	3.901687
29.55234436124651	17.101847	4.135438
29.570470927841175	17.740658	4.211966
29.588598251259686	16.726198	4.0897675
29.60672633205055	15.113974	3.8876693
29.624855170762405	12.960149	3.6000206
29.642984767944146	10.216837	3.1963787
29.66111512414481	7.63712	2.7635338
29.67924623991366	5.663333	2.3797758
29.697378115800138	4.4302206	2.1048088
29.71551075235387	3.819906	1.954458
29.733644150124675	3.6447687	1.9091277
29.751778309662576	3.5876522	1.8941098
29.769913231517766	3.4714653	1.8631868
29.78804891624066	3.4484076	1.8569889
29.806185364381818	3.4066372	1.8457078
29.82432257649206	3.3594558	1.8328818
29.842460553122333	3.276672	1.810158
29.86059929482382	3.2325194	1.7979208
29.878738802147872	3.220733	1.7946401
29.896879075646048	3.2381225	1.7994784
29.915020115870114	3.2297113	1.7971398
29.933161923371976	3.2222931	1.7950747
29.951304498703777	3.2789805	1.8107955
29.969447842417857	3.2170448	1.7936122
29.987591955066733	3.18064	1.7834349
30.005736837203123	3.1923535	1.7867159
30.023882489379943	3.2248178	1.7957778
30.04202891215028	3.2095451	1.7915204
30.060176106067455	3.1984024	1.7884078
30.078324071684946	3.2198362	1.7943902
30.09647280955646	3.1855745	1.7848178
30.114622320235863	3.1510687	1.775125
30.132772604277257	3.091287	1.7582055
30.1509236622349	3.0531087	1.7473147
30.16907549466328	3.040738	1.7437712
30.18722810211705	3.0259666	1.7395306
30.205381485151097	3.02154	1.7382578
30.22353564432045	3.0905917	1.7580079
30.241690580180403	3.100629	1.7608603
30.25984629328638	3.010961	1.7352121
30.278002784194037	3.0089192	1.7346237
30.296160053459246	3.016813	1.7368976
30.314318101638033	2.9258218	1.7105033
30.332476929286646	2.9023879	1.7036396
30.35063653696153	2.9045186	1.7042649
30.368796925219307	2.8683174	1.6936108
30.386958094616844	2.8691885	1.6938679
30.40512004571115	2.9088392	1.705532
30.423282779059463	2.927233	1.7109158
30.441446295219233	2.883644	1.6981295
30.459610594748067	2.813101	1.6772301
30.47777567820382	2.7802563	1.66741
30.495941546144504	2.8125334	1.677061
30.51410819912835	2.834161	1.6834967
30.532275637713795	2.8544724	1.6895185
30.55044386245946	2.823183	1.680233
30.56861287392416	2.8547559	1.6896023
30.586782672666956	2.8936338	1.7010684
30.604953259247047	2.8798687	1.6970176
30.623124634223885	2.7985473	1.6728859
30.641296798157075	2.7547624	1.6597477
30.659469751606462	2.775874	1.6660954
30.677643495132074	2.8328722	1.6831138
30.695818029294152	2.7825718	1.6681043
30.713993354653116	2.7481093	1.6577423
30.73216947176962	2.7332587	1.653257
30.75034638120448	2.7106795	1.6464142
30.768524083518756	2.7460325	1.6571157
30.786702579273673	2.825799	1.6810113
30.80488186903069	2.9435682	1.715683
30.82306195335144	3.0553582	1.7479583
30.841242832797782	3.2759686	1.8099637
30.85942450793176	3.5908246	1.8949472
30.877606979315637	3.9389262	1.9846728
30.895790247511883	4.171066	2.0423188
30.913974313083134	4.466394	2.1133845
30.932159176592283	4.7029314	2.1686244
30.95034483860237	4.646054	2.1554706
30.968531299676698	4.42756	2.1041768
30.98671856037873	4.077246	2.0192192
31.00490662127215	3.7196095	1.9286289
31.023095482920848	3.3601503	1.8330712
31.04128514588892	2.9711628	1.7237061
31.059475610740662	2.6702104	1.6340778
31.07766687804056	2.514396	1.5856847
31.09585894835335	2.4531996	1.5662693
31.11405182224393	2.4602022	1.5685031
31.132245500277417	2.523319	1.5884959
31.15043998301914	2.4957411	1.5797914
31.168635271034628	2.4438136	1.5632701
31.18683136488964	2.4340296	1.5601376
31.20502826515008	2.3878841	1.5452781
31.223225972382135	2.4097126	1.5523249
31.241424487152155	2.3923833	1.5467331
31.259623810026692	2.397136	1.5482687
31.27782394157253	2.473276	1.5726652
31.296024882356644	2.4597023	1.5683438
31.314226632946237	2.4371235	1.561129
31.332429193908684	2.3756022	1.5412989
31.350632565811598	2.3931344	1.5469759
31.368836749222787	2.4725115	1.5724221
31.387041744710295	2.5465772	1.5957999
31.40524755284232	2.530059	1.590616
31.423454174187317	2.5078945	1.5836333
31.441661609313922	2.5237448	1.5886298
31.459869858791002	2.5302129	1.5906643
31.478078923187628	2.530179	1.5906537
31.496288803073064	2.4549868	1.5668397
31.514499499016807	2.432088	1.5595152
31.532711011588546	2.439627	1.5619305
31.550923341358178	2.3737042	1.540683
31.56913648889584	2.2530227	1.5010072
31.587350454771844	2.2061172	1.4853003
31.605565239556732	2.2503772	1.5001258
31.62378084382127	2.3086598	1.5194274
31.641997268136382	2.28581	1.5118896
31.660214513073274	2.289885	1.5132366
31.67843257920331	2.2592914	1.503094
31.6966514670981	2.2566173	1.5022042
31.71487117732944	2.247586	1.4991951
31.733091710469346	2.2887053	1.5128468
31.751313067090052	2.3181958	1.5225623
31.769535247764008	2.2272573	1.4923998
31.787758253063878	2.239721	1.4965698
31.805982083562526	2.340019	1.5297121
31.824206739833024	2.364206	1.5375975
31.84243222244869	2.2976437	1.515798
31.860658531983013	2.2682524	1.5060718
31.878885669009737	2.1734004	1.4742457
31.897113634102784	2.1446996	1.4644793
31.91534242783632	2.158351	1.4691327
31.933572050784694	2.1162217	1.454724
31.951802503522508	2.091082	1.4460574
31.970033786624548	2.160416	1.4698353
31.988265900665834	2.2035751	1.4844444
32.006498846221575	2.1410854	1.4632448
32.02473262386724	2.166167	1.4717904
32.04296723417845	2.2262046	1.4920471
32.0612026777311	2.275881	1.5086024
32.07943895510129	2.2765315	1.5088179
32.097676066865304	2.2425535	1.4975158
32.115914013599685	2.1869087	1.4788201
32.13415279588115	2.1877468	1.4791033
32.152392414286666	2.2255523	1.4918286
32.1706328693934	2.1685185	1.472589
32.18887416177875	2.1134171	1.4537597
32.20711629202032	2.1455925	1.4647841
32.225359260695924	2.2345254	1.4948329
32.243603068383614	2.2308152	1.4935913
32.26184771566166	2.133535	1.4606625
32.28009320310852	2.1087263	1.4521455
32.2983395313029	2.2238863	1.4912701
32.31658670082372	2.2215493	1.4904863
32.33483471225012	2.184424	1.4779797
32.35308356616143	2.142927	1.463874
32.371333263137245	2.0955048	1.4475858
32.38958380375734	2.1226175	1.4569205
32.407835188601744	2.2058675	1.4852164
32.42608741825067	2.163172	1.4707726
32.444340493284585	2.0985312	1.4486308
32.46259441428416	2.0930028	1.4467214
32.48084918183028	2.044168	1.429744
32.49910479650405	2.0256891	1.423267
32.51736125888683	2.0238225	1.4226111
32.53561856956014	2.0779903	1.4415236
32.5538767291058	2.1759112	1.4750971
32.572135738105764	2.1370387	1.4618614
32.59039559714228	2.0978205	1.4483855
32.608656306797776	2.150925	1.4666032
32.62691786765491	2.1362507	1.4615918
32.645180280296586	1.9543306	1.3979738
32.663443545305896	1.9452142	1.3947093
32.68170766326619	2.0184493	1.4207214
32.69997263476099	2.0984764	1.4486119
32.7182384603741	2.0980825	1.448476
32.7365051406895	2.0853226	1.4440646
32.75477267629144	2.0471318	1.4307802
32.77304106776434	1.9515039	1.3969624
32.79131031569289	1.8988163	1.3779755
32.809580420661966	2.049864	1.4317347
32.827851383256714	2.1670523	1.4720911
32.84612320406245	2.1371658	1.4619049
32.86439588366476	2.0791247	1.4419171
32.88266942264945	2.0052729	1.4160765
32.9009438216025	1.9530967	1.3975323
32.9192190811102	1.9447314	1.3945363
32.937495201758985	1.9658128	1.4020745
32.95577218413556	1.9332078	1.3903984
32.974050028826866	1.9035048	1.3796756
32.992328736420035	1.9355984	1.3912579
33.010608307502444	1.8977149	1.3775758
33.02888874266169	1.9417783	1.3934771
33.047170042485604	2.0476317	1.4309548
33.06545220756225	2.0880992	1.4450257
33.083735238479896	2.0010862	1.4145975
33.10201913582707	1.9222354	1.3864471
33.12030390019248	1.9664612	1.4023057
33.138589532165135	2.0323913	1.4256196
33.15687603233419	1.9593248	1.3997588
33.17516340128909	1.917185	1.3846245
33.19345163961947	1.9662046	1.4022142
33.211740747915215	1.9605902	1.4002107
33.23003072676643	1.9150438	1.383851
33.248321576763466	1.9239715	1.387073
33.266613298496885	2.029643	1.4246554
33.28490589255747	2.0281749	1.4241401
33.30319935953626	1.9707488	1.4038336
33.32149370002451	1.8689015	1.3670777
33.339788914613706	1.856964	1.3627046
33.358085003895575	1.9071056	1.3809799
33.376381968462034	1.905333	1.3803381
33.39467980890529	1.8532506	1.3613415
33.41297852581774	1.9271059	1.3882024
33.43127811979204	1.9054102	1.380366
33.44957859142105	1.9643288	1.4015452
33.467879941297866	1.9915199	1.4112122
33.486182170015844	1.986121	1.4092981
33.50448527816853	2.0015137	1.4147487
33.522789266349754	1.9880385	1.4099782
33.541094135153514	1.9817303	1.4077394
33.55939988517411	2.094276	1.4471613
33.57770651700602	2.0560503	1.4338934
33.59601403124398	1.9813471	1.4076033
33.61432242848296	1.9059368	1.3805567
33.632631709318154	1.9527837	1.3974204
33.650941874344994	2.0278022	1.4240092
33.66925292415916	2.0128176	1.418738
33.68756485935654	2.0039134	1.4155965
33.70587768053328	2.023392	1.4224598
33.724191388285746	2.010552	1.4179393
33.74250598321054	1.9223993	1.3865062
33.760821465904506	1.8664314	1.366174
33.77913783696474	1.8939378	1.3762041
33.79745509698852	1.9694659	1.4033766
33.815773246573414	1.897608	1.3775369
33.8340922863172	1.8964363	1.3771116
33.852412216817896	1.9149835	1.3838292
33.87073303867377	1.964654	1.4016612
33.889054752483304	1.8813958	1.3716398
33.907377358845245	1.8726629	1.3684528
33.92570085835853	1.9114125	1.3825384
33.94402525162239	1.9197662	1.3855562
33.96235053923627	1.9586647	1.399523
33.980676721799824	1.9653921	1.4019245
33.999003799912984	1.9511627	1.3968402
34.01733177417592	2.0148926	1.4194691
34.03566064518901	1.968957	1.4031953
34.0539904135529	1.992325	1.4114974
34.07232107986846	1.961324	1.4004728
34.090652644736785	1.9291104	1.3889242
34.108985108759235	1.8798637	1.3710812
34.12731847253742	1.9028606	1.3794421
34.14565273667313	1.8521646	1.3609426
34.16398790176847	1.9164587	1.3843622
34.18232396842574	1.8785216	1.3705916
34.20066093724749	1.9168528	1.3845046
34.21899880883651	1.9497476	1.3963336
34.23733758379583	1.9138371	1.383415
34.25567726272874	1.9747671	1.405264
34.27401784623872	2.0188713	1.42087
34.29235933492957	2.027689	1.4239694
34.31070172940526	2.0332563	1.425923
34.32904503027003	2.0095973	1.4176027
34.347389238128386	1.9627756	1.400991
34.36573435358502	2.0684545	1.4382123
34.38408037724492	2.180424	1.4766259
34.402427309713296	2.1035504	1.4503622
34.42077515159559	1.9624572	1.4008772
34.43912390349752	1.8276747	1.3519152
34.45747356602499	2.0198953	1.4212302
34.47582413978423	2.1026394	1.4500481
34.49417562538163	2.0056777	1.4162195
34.51252802342388	1.9507717	1.3967003
34.53088133451789	1.9194837	1.3854543
34.54923555927084	1.9039813	1.3798482
34.567590698290104	1.8293524	1.3525355
34.58594675218336	1.7307731	1.3155885
34.6043037215585	1.7146764	1.3094565
34.62266160702365	1.8332804	1.3539869
34.641020409187234	1.8865851	1.3735301
34.65938012865785	1.9123687	1.3828841
34.677740766044394	2.0859797	1.4442921
34.69610232195598	2.141001	1.463216
34.714464797002016	1.9880136	1.4099693
34.73282819179208	1.914583	1.3836845
34.751192506936064	1.9509708	1.3967716
34.76955774304408	1.8897597	1.3746853
34.7879239007265	1.8998603	1.3783542
34.80629098059391	1.9287672	1.3888006
34.824658983257194	2.0494442	1.431588
34.843027909327446	2.0584004	1.4347126
34.86139775941603	2.0751355	1.440533
34.879768534134534	2.1426702	1.4637862
34.89814023409483	2.0291622	1.4244866
34.91651285990901	1.958384	1.3994228
34.93488641218944	1.9548571	1.398162
34.95326089154871	1.84504	1.3583225
34.97163629859967	1.805268	1.3436027
34.99001263395542	1.8518188	1.3608155
35.00838989822934	2.0052395	1.4160647
35.02676809203499	2.024524	1.4228576
35.04514721598624	1.8719819	1.3682039
35.063527270697215	1.9161313	1.384244
35.081908256782256	2.153735	1.4675609
35.10029017485597	2.228389	1.492779
35.11867302553321	1.9923397	1.4115026
35.137056809429104	1.9747977	1.405275
35.155441527159006	2.0650718	1.4370358
35.173827179338524	2.0898302	1.4456245
35.19221376658354	1.9722025	1.4043512
35.21060128951017	1.837265	1.3554575
35.2289897487348	1.759716	1.3265429
35.24737914487405	1.883299	1.3723334
35.26576947854479	1.9500014	1.3964245
35.28416075036418	1.6487889	1.2840518
35.30255296094958	1.6211406	1.2732402
35.32094611091867	1.8884944	1.374225
35.33934020088932	2.104196	1.4505848
35.35773523147969	2.3322806	1.5271807
35.3761312033082	2.345461	1.5314897
35.394528116993506	2.180538	1.4766644
35.41292597315452	2.3061175	1.5185907
35.431324772410434	2.65948	1.6307913
35.449724515380666	2.5784097	1.6057427
35.46812520268491	2.2209034	1.4902695
35.486526834943106	2.4706836	1.5718409
35.504929412775454	2.221889	1.4906002
35.52333293680242	1.7202214	1.3115721
35.54173740764471	1.8574425	1.3628802
35.560142825923286	2.1789796	1.4761367
35.5785491922594	2.2301629	1.493373
35.59695650727454	2.162995	1.4707124
35.61536477159042	1.8569168	1.3626873
