0.008763373481513119	0.3822274	0.6182454
0.026290120649546365	0.19633481	0.44309685
0.043816868432600686	0.31820583	0.56409734
0.06134361724069026	0.2150503	0.46373516
0.07887036748382949	0.2021298	0.44958848
0.0963971195720331	0.12851037	0.35848343
0.11392387391531617	0.09060968	0.30101442
0.1314506309236943	0.11130164	0.333619
0.1489773910071836	0.11821648	0.34382623
0.16650415457580078	0.13694514	0.370061
0.18403092203956356	0.11182369	0.3344005
0.20155769380849	0.11438142	0.33820322
0.2190844702925996	0.13242954	0.3639087
0.2366112519019124	0.18522532	0.4303781
0.2541380390464497	0.17465107	0.41791275
0.27166483213623416	0.24960268	0.49960253
0.28919163158128947	0.18968225	0.43552524
0.3067184377916406	0.18229684	0.42696235
0.324245251177314	0.12760636	0.35722032
0.34177207214833777	0.12454744	0.35291278
0.3592989011147415	0.115365006	0.33965424
0.37682573848655654	0.13077301	0.36162552
0.39435258467381573	0.10255842	0.32024744
0.41187944008655414	0.08581168	0.29293633
0.42940630513480854	0.0659508	0.25680888
0.446933180228618	0.08455065	0.29077595
0.4644600657780234	0.11779083	0.3432067
0.48198696219306775	0.17404166	0.417183
0.49951386988379676	0.17143679	0.41404927
0.5170407892602581	0.16328837	0.40408957
0.5345677207325025	0.122392446	0.3498463
0.5520946647105822	0.18802293	0.4336161
0.5696216216045534	0.24287209	0.49282053
0.5871485918244737	0.2662562	0.5160002
0.6046755757804043	0.22454715	0.47386405
0.6222025738824094	0.1633974	0.40422446
0.6397295865405557	0.1405504	0.37490052
0.6572566141649129	0.15144219	0.38915575
0.6747836571655547	0.13185062	0.3631124
0.6923107159525568	0.14347313	0.3787785
0.7098377909359992	0.17363676	0.41669744
0.7273648825259653	0.20476072	0.45250493
0.7448919911325411	0.18125226	0.42573732
0.762419117165817	0.14906976	0.38609552
0.7799462610358868	0.12169268	0.34884477
0.7974734231528482	0.1680399	0.4099267
0.8150006039268024	0.17847978	0.42246866
0.8325278037678551	0.18228458	0.42694798
0.8500550230861152	0.15315555	0.39135092
0.8675822622916969	0.14678639	0.38312712
0.8851095217947171	0.1900936	0.43599725
0.9026368020052984	0.26585177	0.51560813
0.9201641033335665	0.2655704	0.51533526
0.9376914261896523	0.23755617	0.48739734
0.9552187709836915	0.19245377	0.43869552
0.9727461381258234	0.20035818	0.44761387
0.990273528026193	0.22495104	0.47429004
1.0078009410949496	0.2500279	0.5000279
1.0253283777422473	0.2682041	0.51788425
1.0428558383782454	0.27652338	0.5258549
1.0603833234131086	0.27201107	0.5215468
1.0779108332570058	0.2699164	0.51953477
1.0954383683201119	0.27343017	0.5229055
1.112965929012607	0.32793328	0.5726546
1.1304935157446763	0.41003394	0.6403389
1.1480211289265108	0.48700583	0.69785804
1.1655487689683062	1.3522542	1.1628647
1.1830764362802655	1.6464875	1.2831553
1.200604131272596	2.0576215	1.4344412
1.2181318543555117	2.4056387	1.5510122
1.235659605939232	2.4594524	1.5682641
1.253187386433982	4.012334	2.003081
1.270715196249994	6.350734	2.5200663
1.2882430357975057	11.546894	3.398072
1.3057709054867608	16.258017	4.032123
1.3232988057280106	21.846272	4.6739993
1.3408267369315112	26.804155	5.177273
1.358354699507526	30.38896	5.512618
1.3758826938663256	34.675568	5.8885965
1.3934107204181858	36.400265	6.033263
1.410938779573391	36.7291	6.060454
1.4284668717422309	37.30996	6.1081877
1.4459949973350033	36.70627	6.05857
1.4635231567620117	36.740273	6.0613756
1.4810513504335687	36.08132	6.006773
1.4985795787599925	35.676453	5.9729767
1.5161078421516088	35.573643	5.9643645
1.5336361410187505	34.76794	5.896435
1.5511644757717598	34.477303	5.8717375
1.5686928468209842	34.929985	5.9101596
1.58622125457678	35.22358	5.9349456
1.6037496994495108	36.177937	6.0148096
1.621278181849548	36.059612	6.004966
1.6388067021872719	37.032017	6.085394
1.6563352608730693	36.40968	6.0340433
1.673863858317336	35.469875	5.955659
1.6913924949304753	34.53038	5.8762555
1.7089211711228998	33.547386	5.792011
1.7264498873050296	32.87501	5.7336736
1.7439786438872935	32.25492	5.679342
1.7615074412801288	31.646296	5.625504
1.779036279893981	31.216946	5.5872126
1.796565160139305	30.072105	5.4838037
1.814094082426564	29.173866	5.4012837
1.8316230471662298	28.383482	5.3276153
1.849152054768784	27.829899	5.275405
1.8666811056447168	27.235172	5.218733
1.8842102002045273	26.251762	5.123647
1.901739338858724	25.707642	5.0702705
1.9192685220178245	25.013031	5.0013027
1.9367977500923557	24.507124	4.950467
1.9543270234928547	24.184374	4.917761
1.971856342629867	23.669685	4.86515
1.9893857079139496	23.240349	4.8208246
2.006915119755667	22.542742	4.7479196
2.0244445785655945	21.85176	4.674587
2.0419740847543175	21.398289	4.6258283
2.0595036387324317	20.917059	4.5735173
2.0770332409105414	20.60085	4.538816
2.094562891699263	20.30518	4.506127
2.1120925915092217	19.794086	4.4490547
2.129622340751053	19.707197	4.439279
2.1471521398354043	187.98251	13.710671
2.1646819891729323	444.3539	21.079704
2.182211889174303	440.32568	20.983938
2.1997418402501974	452.57397	21.273787
2.2172718428113023	432.4691	20.79589
2.234801897268317	320.323	17.89757
2.2523320040319548	16.651537	4.0806293
2.269862163512935	16.340443	4.042331
2.287392376121992	16.069632	4.0086946
2.304922642269869	15.813519	3.9766214
2.322452962367322	15.40665	3.9251306
2.3399833368251164	14.9660425	3.868597
2.357513766054032	14.777738	3.8441823
2.3750442504648586	14.819777	3.8496463
2.3925747904683963	14.627406	3.8245792
2.410105386475459	14.472234	3.804239
2.4276360388968707	13.986255	3.7398202
2.445166748143469	13.725127	3.7047439
2.4626975146261025	13.461449	3.6689847
2.4802283387556323	13.174107	3.6296153
2.4977592209429305	13.011671	3.6071694
2.5152901615988825	12.8674345	3.5871205
2.5328211611343865	12.666984	3.5590706
2.5503522199603523	12.547959	3.54231
2.5678833384877024	12.348414	3.5140312
2.5854145171273712	12.089208	3.4769537
2.6029457562903064	11.834404	3.440117
2.620477056387469	11.77311	3.4311967
2.6380084178298326	11.783222	3.4326699
2.655539841028383	11.5211525	3.3942823
2.673071326394119	11.187699	3.344802
2.6906028743380523	10.926795	3.3055704
2.708134485271211	10.757896	3.2799232
2.7256661596046325	10.711668	3.2728684
2.743197897749369	10.543499	3.2470756
2.760729700116486	10.344373	3.2162669
2.778261567117063	10.136734	3.1838238
2.795793499162193	10.093563	3.1770368
2.8133254966629817	9.922077	3.1499329
2.830857560030551	9.701822	3.114775
2.8483896896760337	9.435356	3.0717025
2.865921886010578	9.417039	3.0687194
2.883454149445347	9.391955	3.0646298
2.9009864803915177	9.361014	3.0595775
2.91851887926028	9.230844	3.0382304
2.9360513464628384	9.01156	3.0019262
2.953583882410413	8.783422	2.9636838
2.9711164875142373	8.69873	2.949361
2.9886491621855606	8.617253	2.9355159
3.0061819068356455	8.559381	2.925642
3.023714721875769	8.450303	2.9069405
3.041247607717225	8.144466	2.853851
3.0587805647713213	8.057694	2.8386078
3.0763135934493806	8.110216	2.8478441
3.0938466941627407	8.036384	2.8348515
3.1113798673227544	7.9761724	2.8242118
3.1289131133407904	7.857797	2.8031762
3.1464464326282315	7.799618	2.7927797
3.1639798255964786	7.6884966	2.7728138
3.1815132926569443	7.487031	2.736244
3.1990468342210603	7.4585714	2.7310386
3.216580450700272	7.454486	2.7302904
3.2341141425060416	7.478513	2.7346869
3.251647910049847	7.3683376	2.7144682
3.2691817537431813	7.266938	2.695726
3.286715673997555	7.109641	2.6663911
3.3042496712244938	6.9411535	2.6346068
3.32178374583554	6.690179	2.586538
3.339317898242251	6.5846133	2.56605
3.3568521288562034	6.5406904	2.5574775
3.3743864380889876	6.6369457	2.576227
3.3919208263522127	6.741264	2.5963943
3.4094552940575023	6.7109575	2.5905516
3.4269898416164972	6.646165	2.5780158
3.444524469440858	6.3910346	2.5280495
3.4620591779422587	6.2679505	2.5035875
3.479593967532391	6.2894783	2.5078833
3.4971288386229658	6.280498	2.506092
3.5146637916257086	6.401834	2.5301845
3.5321988269523628	6.4141994	2.5326269
3.5497339450146903	6.392889	2.5284164
3.5672691462244708	6.3091516	2.5118024
3.5848044309934988	6.132118	2.4763114
3.60233979973359	5.9758606	2.4445574
3.619875252856575	5.9659357	2.4425266
3.6374107907743034	6.024351	2.4544554
3.6549464138986427	6.0817614	2.4661226
3.6724821226414788	6.119887	2.4738405
3.690017917414714	6.1387706	2.4776542
3.7075537986302702	6.187341	2.4874368
3.7250897667000857	6.1498966	2.4798985
3.7426258220361235	6.182436	2.4864504
3.7601619650503553	6.5140414	2.552262
3.777698196154779	7.110864	2.6666203
3.7952345157614067	8.232687	2.869266
3.8127709242822716	9.08317	3.0138297
3.830307422129425	11.25328	3.354591
3.847844009714936	30.04677	5.4814935
3.8653806874508954	97.61993	9.88028
3.882917455749409	96.79893	9.838645
3.900454315022606	96.50386	9.823638
3.917991265682631	40.972797	6.4009995
3.9355283081416506	10.532514	3.2453835
3.9530654428118495	8.407312	2.8995366
3.970602670105433	7.2420115	2.6910987
3.9881399904346244	6.4964657	2.5488164
4.005677404211669	6.471636	2.543941
4.023214911848827	6.334896	2.516922
4.0407525137583855	6.251017	2.5002034
4.058290210352644	6.1583247	2.4815972
4.075828002043927	6.1396794	2.4778376
4.0933658892445814	6.136275	2.4771504
4.110903872366966	6.111869	2.4722195
4.128441951823468	6.0218053	2.4539366
4.145980128026488	5.977778	2.4449494
4.163518401388452	5.943458	2.4379208
4.181056772321807	6.0691032	2.463555
4.1985952412390155	6.165235	2.482989
4.216133808552567	6.0898414	2.4677603
4.233672474674966	6.1102915	2.4719005
4.251211240018741	6.1503053	2.479981
4.268750104996445	6.3553925	2.5209904
4.286289070020643	7.3243923	2.7063615
4.303828135503928	8.990362	2.9983933
4.3213673018589125	29.235777	5.407012
4.3389065694982305	90.41352	9.508602
4.356445938834537	165.49617	12.8645315
4.3739854102805085	170.68025	13.0644655
4.391524984248844	171.68387	13.102819
4.409064661152262	135.89252	11.657294
4.426604441403504	96.37822	9.817241
4.444144325415337	75.47121	8.687417
4.461684313600543	21.501879	4.637012
4.47922440637193	21.92558	4.6824756
4.496764604142329	20.208218	4.495355
4.5143049073245916	18.262825	4.273503
4.531845316331589	16.137526	4.0171537
4.5493858315762195	13.291036	3.6456873
4.566926453471405	11.1413	3.3378587
4.584467182430081	9.050714	3.0084405
4.602008018865218	7.874652	2.806181
4.619548963189798	7.2376733	2.6902924
4.637090015816834	6.7832136	2.6044602
4.654631177159353	6.602072	2.5694497
4.672172447630417	6.3196387	2.513889
4.689713827643102	6.164031	2.4827466
4.7072553176105085	5.9355497	2.4362984
4.724796917945764	5.699239	2.387308
4.742338629062015	5.597894	2.3659868
4.759880451372434	5.599011	2.3662229
4.777422385290215	5.665498	2.3802307
4.794964431228581	5.6287055	2.3724892
4.812506589600768	5.5900545	2.3643296
4.830048860820047	5.5298276	2.3515584
4.847591245299709	5.5375934	2.3532093
4.8651337434530655	5.5361023	2.3528924
4.882676355693457	5.5085654	2.3470333
4.900219082434242	5.4619927	2.3370907
4.917761924088813	5.403543	2.3245523
4.935304881070575	5.40515	2.3248978
4.952847953792969	5.380618	2.3196158
4.970391142669449	5.293066	2.3006663
4.9879344481135055	5.265418	2.2946498
5.005477870538642	5.2369537	2.288439
5.023021410358394	5.2996483	2.3020966
5.040565067986324	5.3602943	2.3152308
5.05810884383601	5.3750944	2.318425
5.075652738321066	5.340631	2.3109806
5.09319675185512	5.329196	2.308505
5.110740884851836	5.343338	2.311566
5.128285137724894	5.265182	2.2945983
5.145829510888007	5.11871	2.2624567
5.163374004754908	5.0665383	2.2508972
5.1809186197393595	5.1621976	2.272047
5.198463356255145	5.276025	2.2969599
5.216008214716077	5.283569	2.2986014
5.233553195535998	5.227224	2.2863123
5.251098299128764	5.1348195	2.266014
5.268643525908272	5.120529	2.2628586
5.286188876288432	5.1217737	2.2631335
5.3037343506831895	5.0915523	2.2564468
5.32127994950651	5.0869327	2.2554228
5.3388256731723915	5.07932	2.2537346
5.356371522094851	5.078588	2.2535722
5.373917496687938	5.0706024	2.2517998
5.391463597365729	5.043998	2.2458847
5.40900982454232	5.074125	2.2525818
5.426556178631843	5.1720543	2.274215
5.444102660048449	5.175305	2.2749298
5.4616492692063225	5.138589	2.2668457
5.479196006519669	5.063592	2.2502427
5.496742872402727	5.066438	2.250875
5.514289867269756	5.0904465	2.2562017
5.531836991535049	5.064496	2.2504435
5.549384245612924	5.0255394	2.2417715
5.566931629917724	4.999236	2.235897
5.584479144863822	5.012865	2.2389429
5.6020267908656205	5.0547676	2.248281
5.619574568337545	5.0362005	2.244148
5.637122477694054	5.009634	2.2382212
5.654670519349629	5.021086	2.240778
5.672218693718784	5.046673	2.24648
5.689767001216059	5.0801587	2.2539208
5.707315442256021	5.0876994	2.2555928
5.724864017253266	5.0479918	2.2467737
5.7424127266224225	5.0060306	2.237416
5.75996157077814	5.004051	2.2369738
5.777510550135105	5.003635	2.2368805
5.795059665108022	5.1012983	2.2586055
5.812608916111639	5.1463833	2.2685642
5.830158303560715	5.264317	2.29441
5.847707827870055	5.1895194	2.2780516
5.86525748945448	5.1882977	2.2777836
5.8828072887288485	5.3727546	2.3179202
5.900357226108044	5.4807553	2.3411014
5.917907302006979	5.5863285	2.3635416
5.9354575168406	6.226793	2.4953542
5.9530078710238765	6.825967	2.6126552
5.970558364971812	7.309437	2.703597
5.988108999099438	7.575501	2.7523627
6.005659773821818	8.093138	2.844844
6.023210689554039	7.8852005	2.80806
6.040761746711227	8.320948	2.8846052
6.058312945708531	7.696941	2.774336
6.075864286961132	7.1829286	2.6800985
6.093415770884244	6.518692	2.5531728
6.1109673978931065	6.0014024	2.449776
6.128519168402993	5.4164987	2.3273373
6.146071082829204	5.3045707	2.3031654
6.163623141587075	5.153142	2.2700534
6.181175345091969	5.1223936	2.2632706
6.198727693759281	5.135585	2.266183
6.216280188004435	5.1313224	2.2652423
6.233832828242885	5.102729	2.258922
6.251385614890126	5.0997305	2.2582583
6.268938548361669	5.0864835	2.2553234
6.286491629073067	5.0543833	2.2481956
6.304044857439898	5.0364656	2.2442071
6.321598233877777	4.9785237	2.2312605
6.339151758802344	4.9388714	2.2223573
6.356705432629277	5.010915	2.2385073
6.37425925577428	4.9210925	2.2183535
6.391813228653095	4.897355	2.212997
6.409367351681486	4.80724	2.1925418
6.426921625275259	4.86701	2.20613
6.44447604985025	4.910386	2.215939
6.46203062582232	4.905233	2.214776
6.47958535360737	4.8339033	2.198614
6.497140233621328	4.7611313	2.1820016
6.514695266280161	4.791492	2.1889477
6.532250451999859	4.8773255	2.2084668
6.549805791196454	4.977134	2.2309492
6.567361284286002	5.014047	2.2392068
6.584916931684597	4.9448876	2.2237103
6.602472733808367	4.86783	2.206316
6.6200286910734665	4.8177996	2.1949487
6.637584803896092	4.807036	2.1924953
6.655141072692462	4.8615007	2.2048812
6.672697497878842	4.913381	2.2166147
6.690254079871514	4.997157	2.2354321
6.707810819086808	4.999811	2.2360258
6.725367715941078	4.960953	2.2273197
6.742924770850719	4.8905163	2.211451
6.760481984232151	4.8646955	2.2056055
6.778039356501836	4.840497	2.200113
6.795596888076266	4.801679	2.1912735
6.813154579371963	4.810481	2.193281
6.830712430805492	4.8476906	2.2017472
6.84827044279344	4.922648	2.2187042
6.865828615752445	4.9081526	2.215435
6.883386950099159	4.9136724	2.2166805
6.900945446250287	4.910984	2.216074
6.918504104622553	4.9553947	2.2260716
6.936062925632727	4.928122	2.2199373
6.953621909697607	4.9005556	2.2137198
6.971181057234028	4.9605975	2.2272398
6.988740368658859	5.034525	2.2437747
7.006299844389007	5.078679	2.2535925
7.023859484841407	5.1856546	2.2772033
7.041419290433036	5.2666783	2.2949245
7.058979261580902	5.4502673	2.3345807
7.0765393987020495	5.608796	2.3682897
7.094099702213559	5.923774	2.4338803
7.111660172532549	6.287701	2.5075288
7.129220810076164	6.5504675	2.5593882
7.146781615261595	7.09445	2.6635408
7.16434258850606	7.2945976	2.7008512
7.181903730226821	7.79034	2.7911181
7.1994650408411704	7.9581223	2.8210144
7.217026520766437	8.142091	2.8534348
7.234588170419983	8.332996	2.886693
7.252149990219215	8.319326	2.8843243
7.269711980581568	8.189379	2.861709
7.2872741419245175	8.044217	2.836233
7.304836474665574	7.6900454	2.773093
7.322398979222286	7.4041414	2.7210553
7.339961656012233	7.1358404	2.6712995
7.357524505453039	6.723961	2.5930603
7.375087527962357	6.38311	2.5264819
7.392650723957886	6.0908995	2.4679747
7.410214093857353	5.788326	2.405894
7.427777638078528	5.618782	2.370397
7.445341357039213	5.3947587	2.3226619
7.4629052511572525	5.288788	2.2997365
7.480469320850524	5.2404585	2.2892048
7.498033566536948	5.252779	2.2918942
7.5155979886344735	5.1579785	2.2711184
7.5331625875610975	5.1479344	2.268906
7.550727363734844	5.141356	2.2674558
7.568292317573788	5.1343994	2.2659214
7.585857449496025	5.121567	2.263088
7.603422759919705	5.0897026	2.256037
7.620988249263007	5.10212	2.2587872
7.638553917944147	5.0814447	2.254206
7.656119766381391	5.0340805	2.2436757
7.673685794993023	5.0995665	2.2582219
7.691252004197388	5.1590776	2.2713604
7.70881839441285	5.1733737	2.2745051
7.726384966057826	5.158385	2.2712078
7.743951719550762	5.0602365	2.249497
7.761518655310149	5.081582	2.2542365
7.779085773754511	5.1079273	2.2600725
7.796653075302419	5.176282	2.2751443
7.814220560372475	5.1515	2.2696917
7.831788229383323	5.1553073	2.2705302
7.8493560827536495	5.1595426	2.2714627
7.866924120902174	5.2111144	2.2827866
7.884492344247663	5.271169	2.2959027
7.9020607532089135	5.3186784	2.306226
7.919629348204771	5.299114	2.3019805
7.937198129654115	5.254236	2.292212
7.954767097975865	5.173886	2.2746177
7.972336253588986	5.2129016	2.2831779
7.989905596912472	5.2562504	2.2926514
8.007475128365371	5.285666	2.2990577
8.025044848366756	5.3160057	2.3056464
8.042614757335754	5.43097	2.330444
8.060184855691523	5.521018	2.3496847
8.07775514385327	5.646088	2.37615
8.095325622240228	5.6743317	2.3820856
8.112896291271687	5.6641994	2.379958
8.130467151366968	5.779751	2.4041111
8.148038202945436	5.7603736	2.4000778
8.165609446426497	5.800506	2.408424
8.183180882229594	5.8183174	2.412119
8.200752510774217	5.8036942	2.4090858
8.218324332479893	5.793199	2.4069066
8.235896347766193	5.7973247	2.4077635
8.253468557052724	5.8020906	2.408753
8.27104096075914	5.8445864	2.417558
8.288613559305137	5.9364614	2.4364855
8.306186353110448	5.991003	2.4476526
8.32375934259485	6.0632367	2.462364
8.341332528178162	6.0868764	2.4671595
8.358905910280246	6.1196165	2.4737859
8.376479489321003	6.151101	2.4801414
8.394053265720377	6.1249228	2.474858
8.411627239898356	6.0699887	2.4637346
8.42920141227497	6.057894	2.461279
8.44677578327029	6.0332775	2.456273
8.464350353304427	6.085286	2.4668372
8.48192512279754	6.1202207	2.473908
8.499500092169827	6.13435	2.476762
8.51707526184153	6.087499	2.4672859
8.534650632232934	6.101681	2.470158
8.552226203764365	6.054454	2.4605799
8.569801976856192	6.014798	2.4525084
8.587377951928834	6.0213537	2.4538448
8.60495412940274	6.0716133	2.4640644
8.622530509698416	6.122541	2.474377
8.6401070932364	6.2708783	2.504172
8.657683880437283	6.388235	2.5274959
8.675260871721695	6.5432744	2.5579824
8.692838067510303	6.677296	2.5840464
8.710415468223834	6.8364987	2.6146698
8.727993074283043	6.948583	2.6360166
8.745570886108737	6.9307127	2.6326246
8.763148904121765	6.9772096	2.6414409
8.78072712874302	6.948787	2.6360552
8.798305560393441	7.229238	2.6887243
8.815884199494006	7.3684936	2.7144969
8.833463046465745	7.6286016	2.7619922
8.851042101729728	7.792568	2.7915173
8.86862136570707	8.088978	2.8441129
8.886200838818924	8.197331	2.8630981
8.903780521486505	8.21424	2.8660495
8.921360414131055	8.302931	2.8814807
8.938940517173874	8.490945	2.9139225
8.956520831036297	8.610137	2.9343035
8.97410135613971	8.840797	2.973348
8.99168209290554	8.968959	2.994822
9.009263041755265	9.2285795	3.0378578
9.026844203110405	9.479939	3.0789511
9.044425577392525	9.668494	3.1094203
9.062007165023239	9.666305	3.1090682
9.079588966424197	9.93726	3.1523418
9.097170982017108	10.023101	3.1659281
9.11475321222372	11.099692	3.33162
9.132335657465825	12.0375185	3.4695127
9.149918318165264	12.181233	3.4901624
9.167501194743924	12.669531	3.5594285
9.18508428762374	12.273545	3.503362
9.202667597226693	12.298384	3.506905
9.220251123974803	12.088413	3.4768395
9.237834868290143	11.812771	3.4369712
9.255418830594836	11.571003	3.4016178
9.273003011311046	10.990874	3.3152487
9.290587410860985	10.781444	3.283511
9.308172029666911	10.106027	3.1789978
9.32575686815113	9.837022	3.1364026
9.343341926735997	8.546579	2.9234533
9.360927205843916	8.3343935	2.886935
9.378512705897327	8.193234	2.8623827
9.396098427318728	7.9776573	2.8244748
9.413684370530664	7.923104	2.8148007
9.431270535955722	7.715289	2.7776408
9.448856924016539	7.6442885	2.7648306
9.466443535135806	7.538826	2.7456923
9.484030369736251	7.556232	2.7488601
9.501617428240658	7.568188	2.751034
9.519204711071852	7.569897	2.7513447
9.536792218652714	7.6214986	2.7607062
9.55437995140617	7.600701	2.7569368
9.571967909755191	7.6850214	2.7721872
9.589556094122802	7.7114024	2.7769413
9.60714450493207	7.724297	2.779262
9.624733142606116	7.76961	2.787402
9.642322007568108	7.7988577	2.7926435
9.659911100241267	7.915592	2.8134663
9.677500421048851	7.9684253	2.82284
9.695089970414175	7.928613	2.8157792
9.712679748760609	7.984739	2.825728
9.730269756511557	8.021391	2.832206
9.747859994090492	8.083609	2.8431687
9.765450461920915	8.142937	2.853583
9.78304116042639	8.100257	2.846095
9.800632090030527	8.070291	2.8408258
9.81822325115699	8.035228	2.8346477
9.835814644229481	8.096812	2.8454897
9.853406269671762	8.14532	2.8540008
9.870998127907646	8.218677	2.8668234
9.888590219360985	8.227143	2.8682997
9.906182544455698	8.189621	2.8617513
9.923775103615734	8.196587	2.8629682
9.941367897265108	8.16823	2.8580115
9.958960925827878	8.140037	2.853075
9.97655418972816	8.153839	2.8554928
9.994147689390106	8.101809	2.8463676
10.011741425237934	8.109844	2.8477788
10.029335397695904	8.086193	2.8436232
10.04692960718833	8.1520605	2.8551815
10.06452405413958	8.154275	2.8555691
10.082118738974064	8.131273	2.8515387
10.099713662116246	8.110433	2.847882
10.117308823990651	8.123305	2.8501413
10.134904225021844	8.171408	2.8585675
10.152499865634445	8.150212	2.8548577
10.170095746253125	8.074443	2.8415563
10.18769186730261	8.022159	2.8323414
10.205288229207675	7.9888773	2.8264601
10.222884832393145	8.003235	2.8289988
10.2404816772839	8.030592	2.8338299
10.258078764304868	7.970046	2.823127
10.275676093881035	7.93278	2.816519
10.293273666437438	7.9353604	2.8169773
10.310871482399158	7.9767623	2.8243163
10.32846954219134	7.969922	2.823105
10.346067846239173	7.946758	2.8189995
10.363666394967908	7.922794	2.814746
10.38126518880283	7.9531074	2.8201253
10.398864228169298	8.054341	2.8380172
10.416463513492713	8.150059	2.8548307
10.434063045198531	8.133048	2.85185
10.451662823712262	8.098969	2.8458688
10.469262849459467	8.091664	2.8445852
10.486863122865758	8.10566	2.8470442
10.504463644356806	8.083282	2.8431115
10.522064414358338	8.019479	2.8318684
10.539665433296118	7.9434633	2.818415
10.557266701595987	7.843633	2.8006487
10.574868219683818	7.705295	2.7758412
10.592469987985552	7.550077	2.7477403
10.610072006927185	7.412819	2.7226493
10.627674276934751	7.368724	2.7145393
10.64527679843435	7.217429	2.6865273
10.662879571852143	7.134055	2.6709652
10.680482597614331	7.034802	2.6523201
10.698085876147173	6.984666	2.6428518
10.715689407876988	6.9153295	2.6297014
10.733293193230146	6.878637	2.6227155
10.750897232633072	6.80871	2.6093504
10.76850152651225	6.668357	2.5823162
10.786106075294207	6.511044	2.5516748
10.803710879405534	6.355286	2.5209694
10.821315939272877	6.299476	2.5098758
10.83892125532294	6.2654467	2.5030875
10.856526827982472	6.2732577	2.5046473
10.874132657678285	6.248882	2.4997764
10.891738744837243	6.2703905	2.5040748
10.909345089886271	6.146483	2.4792101
10.926951693252343	6.0474286	2.459152
10.944558555362494	5.924791	2.4340894
10.96216567664381	5.800999	2.4085264
10.979773057523436	5.751738	2.3982782
10.997380698428573	5.7186036	2.3913603
11.014988599786477	5.6337247	2.3735468
11.032596762024461	5.593173	2.364989
11.050205185569892	5.527345	2.3510306
11.067813870850198	5.444475	2.33334
11.085422818292859	5.3988233	2.3235369
11.10303202832541	5.3444386	2.3118043
11.120641501375454	5.3602986	2.3152318
11.138251237870636	5.3312573	2.3089516
11.155861238238671	5.196647	2.2796156
11.173471502907317	5.1032853	2.2590451
11.191082032304402	5.017061	2.2398798
11.208692826857805	5.0001135	2.2360933
11.226303886995465	4.909598	2.2157612
11.243915213145371	4.86137	2.2048514
11.261526805735578	4.8479824	2.2018135
11.279138665194196	4.8031654	2.1916125
11.296750791949393	4.748982	2.179216
11.314363186429393	4.67663	2.1625516
11.331975849062479	4.5973754	2.144149
11.34958878027699	4.570773	2.1379366
11.36720198050133	4.5581336	2.1349785
11.384815450163948	4.545799	2.132088
11.402429189693366	4.4877725	2.1184363
11.420043199518153	4.4373584	2.1065037
11.437657480066942	63.376163	7.9609146
11.455272031768422	85.05042	9.222279
11.472886855051353	107.46835	10.366694
11.490501950344528	99.0627	9.953025
11.508117318076819	84.41951	9.188009
11.52573295867715	45.777477	6.7659054
11.543348872574514	4.0703683	2.0175154
11.560965060197946	4.0550294	2.0137103
11.57858152197655	4.0526686	2.013124
11.59619825833949	3.954999	1.9887179
11.613815269715985	3.9152215	1.9786918
11.631432556535323	38.416096	6.198072
11.649050119226837	82.944595	9.107392
11.666667958219929	93.3447	9.661507
11.68428607394406	107.5717	10.371677
11.701904466828756	82.3829	9.076503
11.719523137303586	65.27654	8.07939
11.737142085798196	4.487133	2.1182854
11.754761312742286	3.630231	1.9053165
11.772380818565619	3.54515	1.8828568
11.790000603698015	3.5335064	1.8797623
11.80762066856935	3.507374	1.8727984
11.825241013609572	3.5138867	1.8745364
11.842861639248683	3.4861658	1.8671277
11.860482545916748	3.4448617	1.8560338
11.878103734043883	3.4115365	1.8470345
11.895725204060282	3.3912094	1.8415236
11.91334695639619	3.3321707	1.8254235
11.930968991481919	3.3395126	1.8274333
11.948591309747824	3.2883291	1.8133751
11.966213911624347	3.2678397	1.8077167
11.98383679754198	3.23142	1.797615
12.001459967931268	3.2023454	1.7895098
12.019083423222835	3.1864364	1.7850592
12.036707163847352	3.1792393	1.7830422
12.05433119023556	3.1355803	1.770757
12.071955502818259	3.0969331	1.7598106
12.089580102026313	3.1048033	1.7620453
12.107204988290643	3.0953991	1.7593746
12.12483016204224	3.0806298	1.7551723
12.142455623712152	3.0728993	1.7529687
12.16008137373149	3.0472827	1.7456468
12.177707412531431	3.0433087	1.7445081
12.19533374054321	2.9915187	1.7296008
12.212960358198126	2.9853728	1.7278231
12.230587265927545	2.969284	1.7231611
12.248214464162889	2.9968176	1.7311319
12.265841953335649	2.9802153	1.72633
12.283469733877375	2.9905286	1.7293144
12.301097806219685	2.9728415	1.724193
12.31872617079425	2.9822764	1.7269269
12.336354828032825	2.9529526	1.7184157
12.353983778367205	2.9279394	1.7111223
12.371613022229262	2.8606148	1.6913352
12.389242560050928	2.8386087	1.6848171
12.406872392264201	2.8125467	1.6770649
12.424502519301143	2.779003	1.6670341
12.442132941593874	2.7701979	1.6643912
12.459763659574586	2.803863	1.674474
12.477394673675532	2.811093	1.6766315
12.49502598432903	2.7816744	1.6678352
12.51265759196746	2.7329433	1.6531616
12.530289497023267	2.6983323	1.6426601
12.547921699928967	2.7139094	1.6473948
12.565554201117134	2.7212048	1.6496074
12.583187001020404	2.7190294	1.648948
12.600820100071486	2.7183764	1.64875
12.618453498703152	2.7191858	1.6489954
12.636087197348235	2.742399	1.656019
12.65372119643964	2.743409	1.6563239
12.671355496410326	2.7266204	1.6512481
12.68899009769333	2.7592542	1.6611003
12.706625000721749	2.7995212	1.673177
12.724260205928752	2.889479	1.6998467
12.741895713747551	2.8843832	1.6983472
12.759531524611454	2.9010706	1.7032529
12.777167638953818	2.8532	1.6891418
12.794804057208072	2.8502111	1.6882569
12.812440779807702	2.893261	1.7009588
12.830077807186271	3.0865567	1.7568599
12.847715139777405	3.1631587	1.7785271
12.865352778014795	3.3858793	1.8400759
12.882990722332197	3.5290291	1.878571
12.90062897316344	3.621282	1.9029666
12.918267530942412	3.6881585	1.9204578
12.935906396103071	3.5921013	1.8952839
12.953545569079449	3.7380743	1.93341
12.971185050305628	3.564867	1.8880855
12.988824840215775	3.5765245	1.8911701
13.006464939244115	3.5411346	1.8817903
13.024105347824943	3.3574164	1.8323255
13.041746066392617	3.4183517	1.8488785
13.05938709538157	3.2741737	1.8094678
13.077028435226296	3.3330894	1.825675
13.094670086361363	3.2892218	1.8136212
13.112312049221401	3.2068775	1.7907757
13.129954324241112	3.0913947	1.7582363
13.147596911855258	2.8564072	1.6900909
13.165239812498685	2.7815082	1.6677854
13.182883026606293	2.6818728	1.6376425
13.200526554613058	2.638663	1.6243962
13.218170396954017	2.633387	1.6227714
13.235814554064284	2.6872692	1.6392893
13.253459026379034	2.68999	1.640119
13.271103814333523	2.651696	1.6284028
13.288748918363058	2.6262445	1.6205692
13.306394338903031	2.617971	1.6180145
13.32404007638889	2.5968788	1.6114835
13.341686131256164	2.6317606	1.6222702
13.359332503940449	2.608856	1.6151953
13.376979194877402	2.627702	1.6210188
13.394626204502751	2.6384037	1.6243163
13.412273533252307	2.635228	1.6233385
13.429921181561937	2.6452117	1.6264107
13.447569149867581	2.6803868	1.6371887
13.465217438605247	2.6951919	1.641704
13.482866048211022	2.6687987	1.6336458
13.500514979121052	2.6570964	1.6300602
13.518164231771568	2.6150582	1.6171142
13.535813806598844	2.581361	1.6066614
13.553463704039254	2.5652328	1.6016344
13.571113924529229	2.583661	1.607377
13.588764468505275	2.6341429	1.6230043
13.606415336403956	2.6506934	1.628095
13.624066528661917	2.680887	1.6373414
13.641718045715882	2.7390594	1.6550105
13.659369888002635	2.830524	1.6824161
13.67702205595903	2.888239	1.699482
13.694674550021993	2.9461317	1.71643
13.712327370628532	2.9977114	1.73139
13.729980518215713	3.1196396	1.7662501
13.747633993220681	3.1636105	1.7786541
13.765287796080647	3.1587374	1.7772837
13.7829419272329	3.1771822	1.7824652
13.800596387114801	3.2120695	1.7922248
13.818251176163775	3.2818987	1.8116012
13.835906294817324	3.343926	1.8286405
13.853561743513023	3.3745382	1.8369917
13.871217522688525	3.4114149	1.8470016
13.888873632781538	3.4471426	1.8566482
13.906530074229858	3.4926958	1.8688755
13.92418684747135	3.489744	1.8680856
13.941843952943948	3.4655557	1.8616003
13.959501391085665	3.4063985	1.8456432
13.977159162334578	3.3052425	1.8180326
13.994817267128846	3.2702186	1.8083745
14.012475705906693	3.1858358	1.784891
14.030134479106424	3.1771615	1.7824594
14.047793587166414	3.1420052	1.7725703
14.065453030525108	3.105608	1.7622736
14.083112809621026	3.0015385	1.7324948
14.100772924892766	2.8960118	1.7017673
14.118433376778997	2.797258	1.6725005
14.136094165718458	2.7251072	1.6507899
14.153755292149969	2.6651716	1.6325353
14.171416756512416	2.6223476	1.6193664
14.189078559244768	2.5613716	1.6004286
14.20674070078606	2.4909213	1.5782653
14.224403181575408	2.4241695	1.5569745
14.242066002051999	2.436918	1.561063
14.259729162655093	2.4475014	1.5644492
14.277392663824022	2.4492908	1.565021
14.295056505998208	2.442169	1.562744
14.312720689617128	2.425505	1.5574032
14.330385215120348	2.3885653	1.5454984
14.348050082947497	2.377871	1.5420347
14.3657152935383	2.374277	1.540869
14.383380847332528	2.4169235	1.5546458
14.401046744770051	2.4109488	1.552723
14.418712986290798	2.394515	1.547422
14.436379572334793	2.352163	1.5336764
14.454046503342123	2.3659673	1.5381701
14.471713779752946	2.382245	1.5434523
14.489381402007504	2.378743	1.5423174
14.507049370546113	2.3676434	1.5387149
14.524717685809168	2.3769598	1.5417392
14.542386348237134	2.3778465	1.5420268
14.560055358270553	2.3675413	1.5386816
14.577724716350051	2.3765266	1.5415987
14.595394422916325	2.3753307	1.5412108
14.61306447841015	2.4318092	1.559426
14.63073488327237	2.4561594	1.5672139
14.648405637943917	2.4853222	1.5764905
14.6660767428658	2.4953	1.5796518
14.683748198479094	2.516182	1.5862478
14.701420005224954	2.5582623	1.5994569
14.719092163544628	2.5935438	1.6104484
14.73676467387942	2.6067674	1.6145487
14.754437536670727	2.5985556	1.6120036
14.772110752360014	2.5925364	1.6101356
14.78978432138882	2.577148	1.6053498
14.807458244198777	2.6019652	1.6130608
14.82513252123159	2.5716896	1.6036488
14.842807152929028	2.6225672	1.6194342
14.860482139732962	2.6517558	1.6284213
14.87815748208531	2.6632886	1.6319585
14.8958331804281	2.6875613	1.6393783
14.91350923520342	2.668228	1.6334711
14.931185646853438	2.67151	1.6344755
14.948862415820408	2.6344347	1.6230942
14.966539542546656	2.6370108	1.6238875
14.98421702747459	2.613974	1.616779
15.001894871046696	2.6132383	1.6165514
15.019573073705542	2.630121	1.6217648
15.037251635893766	2.6064835	1.6144607
15.054930558054092	2.6007936	1.6126976
15.072609840629323	2.5979476	1.611815
15.090289484062351	2.700916	1.6434464
15.107969488796124	2.861483	1.6915919
15.125649855273691	3.0788865	1.7546756
15.14333058393817	3.4218817	1.8498329
15.161011675232768	3.9479373	1.9869417
15.17869312960076	4.5728745	2.138428
15.196374947485506	5.2990427	2.301965
15.214057129330447	6.5983686	2.568729
15.231739675579114	8.7498665	2.9580173
15.249422586675102	13.424508	3.663947
15.267105863062092	17.923784	4.2336493
15.284789505183847	25.144802	5.014459
15.302473513484218	30.253517	5.50032
15.320157888407127	34.580128	5.880487
15.337842630396578	33.458443	5.7843275
15.355527739896656	30.498137	5.522512
15.37321321735153	23.775118	4.8759737
15.39089906320545	16.181522	4.0226264
15.408585277902748	10.386394	3.2227929
15.42627186188783	6.390618	2.5279672
15.443958815605198	4.517205	2.1253717
15.461646139499424	3.7039368	1.9245615
15.479333834015168	3.2825756	1.811788
15.497021899597165	2.991871	1.7297026
15.514710336690234	2.7616813	1.6618307
15.53239914573928	2.6028478	1.6133344
15.550088327189297	2.5218818	1.5880435
15.567777881485336	2.4933388	1.579031
15.58546780907256	2.486171	1.5767597
15.6031581103962	2.4828193	1.5756965
15.620848785901568	2.4974084	1.580319
15.638539836034063	2.5219092	1.588052
15.656231261239173	2.4833784	1.5758739
15.673923061962451	2.4395795	1.5619153
15.691615238649552	2.418032	1.5550022
15.709307791746202	2.4110339	1.5527505
15.727000721698221	2.4222379	1.556354
15.744694028951498	2.4329598	1.5597948
15.76238771395202	2.4252424	1.557319
15.780081777145844	2.4242172	1.5569898
15.797776218979125	2.4024482	1.5499833
15.815471039898094	2.3943	1.5473526
15.833166240349064	2.383309	1.5437969
15.850861820778437	2.3802154	1.5427947
15.868557781632699	2.37494	1.541084
15.886254123358412	2.422952	1.5565834
15.903950846402232	2.4843073	1.5761685
15.921647951210897	2.5541248	1.598163
15.939345438231225	2.5580802	1.5993999
15.957043307910133	2.5658784	1.601836
15.974741560694602	2.5339367	1.5918344
15.992440197031714	2.5302	1.5906602
16.01013921736862	2.4938948	1.5792071
16.02783862215259	2.469053	1.5713221
16.045538411830933	2.4336889	1.5600284
16.06323858685107	2.414438	1.5538462
16.080939147660512	2.3896902	1.5458623
16.09864009470684	2.3931167	1.5469701
16.11634142843774	2.3812225	1.543121
16.134043149300954	2.4177535	1.5549127
16.15174525774433	2.4009647	1.5495046
16.169447754215817	2.3864453	1.5448123
16.18715063916342	2.4060347	1.5511398
16.204853913035244	2.414907	1.553997
16.222557576279478	2.4469166	1.5642623
16.240261629344403	22.43733	4.736806
16.257966072678386	42.97126	6.555247
16.275670906729868	38.08404	6.171227
16.293376131947387	2.48141	1.5752492
16.31108174877957	2.4701467	1.57167
16.328787757675133	2.4899273	1.5779504
16.34649415908287	2.516026	1.5861986
16.364200953451657	2.5711877	1.6034924
16.38190814123048	2.5865073	1.6082622
16.39961572286839	2.6279314	1.6210896
16.41732369881455	2.656607	1.6299101
16.43503206951817	2.721164	1.6495951
16.45274083542859	2.7661836	1.6631848
16.47044999699522	2.8010292	1.6736276
16.488159554667558	2.813734	1.6774188
16.505869508895184	2.8843853	1.6983478
16.523579860127786	2.9264543	1.7106882
16.541290608815117	2.986293	1.7280895
16.559001755407035	2.9927435	1.7299547
16.57671330035348	3.08657	1.7568637
16.59442524410448	3.1604779	1.7777733
16.61213758711015	3.3450906	1.8289589
16.629850329820705	3.4355965	1.8535362
16.647563472686436	3.5070844	1.8727211
16.665277016157724	3.4439409	1.8557857
16.682990960685053	3.4263778	1.8510478
16.70070530671898	3.4321654	1.8526105
16.718420054710155	3.5144112	1.8746763
16.736135205109335	3.5921743	1.8953032
16.753850758367335	3.619464	1.9024888
16.771566714935087	3.6042929	1.8984976
16.789283075263597	3.6338913	1.9062768
16.80699983980398	3.7100365	1.9261456
16.82471700900741	3.7766724	1.9433663
16.84243458332518	3.8010345	1.9496242
16.860152563208665	3.8726296	1.9678998
16.87787094910932	3.9532585	1.9882803
16.89558974147871	4.029299	2.0073113
16.913308940768466	4.0691857	2.0172222
16.931028547430333	4.132851	2.0329416
16.94874856191613	4.2350025	2.057912
16.966468984677785	4.3224926	2.0790606
16.98418981616729	4.410146	2.1000347
17.00191105683676	4.3935137	2.096071
17.019632707138374	4.411145	2.1002727
17.03735476752442	4.421903	2.102832
17.05507723844728	4.475776	2.115603
17.072800120359403	4.5099072	2.1236541
17.090523413713353	4.5009885	2.1215534
17.108247118961785	4.5257826	2.1273887
17.125971236557437	4.551665	2.1334631
17.143695766953133	4.547669	2.1325264
17.161420710601806	4.5708914	2.1379642
17.179146067956477	4.605988	2.1461565
17.19687183947025	4.6131573	2.1478262
17.21459802559634	4.619847	2.1493828
17.232324626788028	4.6524634	2.156957
17.25005164349871	4.621777	2.1498318
17.267779076181863	4.580354	2.1401763
17.285506925291074	4.5586205	2.1350925
17.30323519127999	4.5918126	2.1428516
17.320963874602384	4.632658	2.152361
17.33869297571211	4.5527353	2.133714
17.356422495063114	4.4703836	2.1143281
17.37415243310944	4.3861303	2.094309
17.391882790305218	4.410858	2.1002042
17.40961356710468	4.438649	2.10681
17.42734476396215	4.5058002	2.122687
17.445076381332044	4.5427866	2.1313813
17.462808419668868	4.555787	2.134429
17.48054087942723	4.660616	2.158846
17.498273761061835	4.777793	2.1858163
17.51600706502747	5.153238	2.2700744
17.533740791779024	5.722515	2.3921778
17.551474941771485	6.6252737	2.5739608
17.56920951545993	8.494277	2.9144943
17.586944513299528	9.747692	3.1221294
17.60467993574556	12.697027	3.563289
17.622415783253373	15.502647	3.9373403
17.64015205627843	18.44375	4.2946186
17.657888755276293	20.863699	4.56768
17.675625880702604	22.3905	4.73186
17.69336343301311	20.832909	4.564308
17.71110141266366	18.555002	4.307552
17.728839820110178	15.811873	3.9764147
17.746578655808705	12.583247	3.5472872
17.764317920215372	10.381961	3.222105
17.7820576137864	8.654319	2.9418223
17.79979773697811	7.291896	2.700351
17.81753829024692	5.9273934	2.434624
17.835279274049356	5.107205	2.2599125
17.85302068884201	4.3771434	2.0921624
17.870762535081607	4.0256886	2.0064118
17.888504813224934	3.7943099	1.9478989
17.90624752372891	3.6500177	1.910502
17.923990667050536	3.6081011	1.8995003
17.941734243646895	3.578963	1.8918147
17.959478253975185	3.5325952	1.8795199
17.9772226984927	3.4583206	1.8596561
17.994967577656833	3.375149	1.8371578
18.01271289192506	3.3589253	1.8327371
18.030458641754965	3.325434	1.8235773
18.04820482760425	3.2960215	1.8154948
18.06595144993067	3.2338285	1.7982849
18.083698509192125	3.1960964	1.787763
18.101446005846576	3.1679814	1.7798824
18.119193940352105	3.136296	1.770959
18.136942313166887	3.1410344	1.7722963
18.1546911247492	3.1467166	1.7738987
18.1724403755574	3.1241865	1.7675369
18.19019006604997	3.0888135	1.7575021
18.207940196685467	3.0668712	1.7512485
18.225690767922575	3.0309775	1.7409703
18.243441780220046	3.0298774	1.7406543
18.261193234036764	3.02993	1.7406695
18.278945129831676	3.0569198	1.748405
18.29669746806386	3.0301192	1.7407237
18.314450249192483	2.9858081	1.7279491
18.3322034736768	2.9546034	1.718896
18.349957141976184	2.9501698	1.7176058
18.3677112545501	2.9955292	1.7307597
18.385465811858108	2.9749224	1.7247963
18.403220814359884	2.9468322	1.7166339
18.420976262515172	3.0087779	1.7345829
18.43873215678387	3.072658	1.7528999
18.456488497625923	3.1451316	1.7734519
18.474245285501407	3.2245607	1.7957062
18.492002520870486	3.2265441	1.7962583
18.50976020419343	3.3160682	1.8210075
18.527518335930615	3.553096	1.8849658
18.545276916542516	4.1533833	2.037985
18.563035946489688	4.2708836	2.0666115
18.580795426232832	4.662451	2.159271
18.598555356232698	4.5523844	2.1336317
18.616315736950185	4.8288603	2.1974669
18.63407656884626	4.551445	2.1334116
18.65183785238201	4.7536964	2.1802974
18.669599588018617	4.6085324	2.1467493
18.68736177621737	4.6225204	2.1500049
18.705124417439652	4.593035	2.1431367
18.72288751214696	4.3329635	2.081577
18.740651060800886	4.4541903	2.1104953
18.758415063863115	4.219206	2.0540705
18.77617952179546	4.3895893	2.0951347
18.793944435059814	4.1587687	2.039306
18.811709804118184	4.153241	2.0379503
18.829475629432675	4.164131	2.0406203
18.8472419114655	3.97655	1.994129
18.86500865067897	4.0017533	2.0004382
18.88277584753551	3.64466	1.9090992
18.90054350249763	3.6739569	1.9167569
18.918311616027957	3.421284	1.8496714
18.936080188589226	3.3006399	1.8167664
18.953849220644265	2.9958012	1.7308383
18.971618712656007	2.8609555	1.6914359
18.9893886650875	2.867397	1.693339
19.007159078401887	8.030026	2.8337302
19.024929953062408	32.838642	5.730501
19.042701289532435	32.762753	5.7238755
19.060473088275405	25.300827	5.0299926
19.07824534975489	2.5763166	1.6050909
19.096018074434568	2.5760398	1.6050045
19.113791262778197	2.5604074	1.6001273
19.13156491524966	2.568592	1.6026828
19.149339032312945	2.5371397	1.5928401
19.167113614432136	2.5414534	1.5941937
19.184888662071433	2.4908001	1.5782269
19.202664175695123	2.4825788	1.5756202
19.220440155767623	2.48057	1.5749825
19.238216602753447	2.4573781	1.5676026
19.2559935171172	2.4581652	1.5678537
19.27377089932361	2.4581077	1.5678353
19.291548749837514	2.4700205	1.5716299
19.309327069123835	2.4992733	1.580909
19.32710585764763	2.486261	1.5767882
19.344885115874032	2.5071929	1.5834118
19.362664844268313	2.503658	1.5822952
19.380445043295822	2.4810724	1.575142
19.39822571342203	2.4837723	1.5759988
19.41600685511252	2.5159402	1.5861715
19.43378846883297	2.5305228	1.5907617
19.451570555049173	2.4763067	1.5736285
19.469353114227037	2.4521828	1.5659447
19.48713614683254	2.4569275	1.567459
19.50491965333182	2.4673035	1.5707653
19.52270363419109	2.460402	1.5685669
19.540488089876686	2.4201157	1.555672
19.55827302085503	2.4360733	1.5607926
19.576058427592674	2.4375262	1.5612578
19.593844310556282	2.4862955	1.5767992
19.611630670212598	2.479732	1.5747164
19.629417507028506	2.4811542	1.575168
19.64720482147098	2.5003138	1.581238
19.6649926140071	2.5533497	1.5979204
19.682780885104084	2.5458047	1.5955578
19.70056963522921	2.4687555	1.5712274
19.718358864849908	2.412911	1.5533547
19.7361485744337	2.422655	1.556488
19.753938764448215	2.4892006	1.57772
19.771729435361202	2.5200226	1.5874579
19.789520587640506	2.4909613	1.578278
19.807312221754092	2.5060472	1.58305
19.825104338170043	2.5132003	1.5853076
19.842896937356517	2.5084062	1.5837948
19.860690019781824	2.4775052	1.5740093
19.87848358591436	2.47528	1.5733023
19.896277636222635	2.4673781	1.570789
19.914072171175278	2.434102	1.5601609
19.931867191241015	2.410369	1.5525362
19.94966269688869	2.4231753	1.5566552
19.967458688587264	2.425298	1.5573368
19.985255166805807	2.4305851	1.5590334
20.00305213201348	2.4343567	1.5602425
20.020849584679578	2.4095201	1.5522629
20.038647525273507	2.3883803	1.5454385
20.05644595426477	2.368271	1.5389189
20.07424487212299	2.390299	1.5460593
20.092044279317903	2.3861709	1.5447235
20.109844176319353	2.379727	1.5426364
20.127644563597304	2.3748043	1.54104
20.145445441621817	2.4020925	1.5498686
20.16324681086307	2.3804767	1.5428793
20.181048671791373	2.3460546	1.5316836
20.198851024877122	2.3420753	1.5303841
20.216653870590836	2.3633382	1.5373152
20.234457209403146	2.353366	1.5340685
20.252261041784802	2.3472123	1.5320615
20.270065368206662	2.3841336	1.5440639
20.287870189139685	2.4103277	1.552523
20.305675505054968	2.3851647	1.5443978
20.323481316423702	2.349075	1.5326693
20.341287623717207	2.3405092	1.5298723
20.359094427406884	2.2876298	1.5124912
20.376901727964288	2.3003225	1.5166814
20.39470952586107	2.3153973	1.5216429
20.41251782156899	2.2936137	1.5144681
20.430326615559935	2.2798994	1.5099336
20.448135908305886	2.2421582	1.4973838
20.465945700278965	2.2464051	1.4988012
20.483755991951384	2.2769992	1.5089729
20.50156678379548	2.316673	1.5220621
20.519378076283708	2.321161	1.5235357
20.537189869888635	2.3188689	1.5227833
20.55500216508294	2.324219	1.524539
20.572814962339415	2.3455129	1.5315068
20.59062826213098	2.3728645	1.5404105
20.60844206493066	2.3343585	1.5278608
20.626256371211593	2.3092468	1.5196207
20.644071181447032	2.315342	1.5216248
20.66188649611036	2.3159928	1.5218387
20.67970231567506	2.2981973	1.5159806
20.697518640614742	2.2664616	1.5054772
20.715335471403122	2.2594206	1.5031369
20.73315280851404	2.2890291	1.5129538
20.750970652421447	2.3107479	1.5201144
20.768789003599412	2.3187716	1.5227513
20.786607862522136	2.3104968	1.5200318
20.8044272296639	2.3003445	1.5166887
20.82224710549913	2.2948444	1.5148743
20.84006749050237	2.2741275	1.508021
20.857888385148268	3.7754831	1.9430603
20.8757097899116	45.883698	6.773751
20.893531705267254	64.778145	8.048487
20.911354131690224	83.8342	9.156101
20.92917706965566	69.09081	8.312088
20.94700051963877	50.133427	7.0804963
20.96482448211493	29.396393	5.421844
20.982648957559622	4.1192503	2.0295937
21.00047394644843	2.249893	1.4999644
21.01829944925707	2.2194867	1.4897941
21.036125466461375	2.2211597	1.4903556
21.053951998537297	2.1829517	1.4774815
21.071779045960906	2.1828668	1.4774528
21.089606609208378	2.144121	1.4642817
21.10743468875603	2.163646	1.4709337
21.12526328508028	2.1912642	1.480292
21.143092398657675	2.215012	1.4882916
21.16092202996488	2.1938698	1.4811717
21.17875217947867	2.1732962	1.4742104
21.19658284767596	2.1781304	1.475849
21.21441403503377	2.1546872	1.4678853
21.232245742029225	2.163596	1.4709167
21.2500779691396	2.161223	1.4701098
21.26791071684227	2.1760752	1.4751526
21.28574398561475	2.1716945	1.473667
21.30357777593465	2.1497443	1.4662006
21.321412088279704	2.1433065	1.4640036
21.339246923127792	2.1098242	1.4525234
21.357082280956888	2.0814812	1.4427339
21.3749181622451	2.076774	1.4411017
21.392754567470647	2.1000605	1.4491585
21.41059149711187	2.0877454	1.4449033
21.42842895164726	2.0781024	1.4415624
21.446266931555378	2.0671732	1.4377668
21.464105437314945	2.0882914	1.4450922
21.481944469404798	2.0692327	1.4384828
21.49978402830388	2.0506685	1.4320155
21.51762411449127	2.0441954	1.4297537
21.53546472844617	2.0380807	1.4276136
21.553305870647876	2.0119503	1.4184324
21.571147541575865	2.0175743	1.4204134
21.58898974170967	2.040623	1.4285038
21.60683247152899	2.0401514	1.4283386
21.62467573151363	2.011195	1.418166
21.642519522143523	2.004943	1.4159601
21.660363843898722	1.9932029	1.4118084
21.6782086972594	1.9929678	1.4117252
21.696054082705864	2.0269566	1.4237123
21.713900000718535	2.0510216	1.4321388
21.73174645177795	2.0452826	1.4301338
21.749593436364794	2.0310574	1.4251517
21.767440954959845	1.9741231	1.4050349
21.785289008044032	1.9696254	1.4034334
21.803137596098388	1.9847214	1.4088014
21.820986719604086	2.0037901	1.415553
21.838836379042412	1.9920306	1.4113932
21.85668657489478	1.9979738	1.413497
21.87453730764273	1.9948702	1.4123987
21.892388577767914	1.9987801	1.4137822
21.91024038575213	1.9950279	1.4124546
21.928092732077285	1.9905319	1.4108621
21.945945617225426	2.006057	1.4163535
21.963799041678694	1.978583	1.4066211
21.981653005919398	31.288984	5.5936556
21.999507510429943	78.07268	8.835875
22.01736255569286	73.023636	8.545387
22.035218142190818	4.115915	2.0287716
22.05307427040661	1.9396566	1.3927156
22.07093094082315	1.9476831	1.3955941
22.088788153923474	1.9581432	1.3993367
22.106645910190746	1.9504116	1.3965714
22.12450421010827	1.946637	1.3952193
22.142363054159464	1.9440621	1.3942963
22.16022244282787	1.9737135	1.4048891
22.178082376597164	1.9624227	1.400865
22.195942855951145	1.9594026	1.3997866
22.213803881373742	2.0007544	1.4144802
22.231665453349002	2.003502	1.4154512
22.24952757236111	1.9852943	1.4090047
22.26739023889438	1.9741541	1.405046
22.28525345343323	1.9715189	1.4041078
22.30311721646225	2.0039146	1.415597
22.320981528466113	1.9761752	1.4057649
22.33884638992964	1.941775	1.3934759
22.356711801337788	1.9097437	1.3819348
22.37457776317561	1.9122974	1.3828584
22.392444275928337	1.9194468	1.3854411
22.410311340081282	1.9392146	1.3925569
22.428178956119904	1.951668	1.3970212
22.446047124529805	1.9522135	1.3972163
22.46391584579669	1.9368974	1.3917246
22.481785120406414	1.9067891	1.3808653
22.49965494884496	1.8777688	1.370317
22.51752533159841	1.9144739	1.3836452
22.53539626915302	1.9319645	1.3899512
22.553267761995137	1.9461765	1.3950543
22.571139810611264	1.9331325	1.3903713
22.589012415488025	1.956942	1.3989074
22.60688557711216	1.9937783	1.4120122
22.624759295970566	1.9973196	1.4132656
22.642633572550263	1.9959702	1.4127882
22.660508407338362	1.986143	1.4093058
22.67838380082217	1.9892321	1.4104013
22.696259753489077	1.9974505	1.4133118
22.714136265826614	1.9687588	1.4031247
22.73201333832246	1.9607676	1.4002742
22.74989097146439	1.9880099	1.409968
22.76776916574035	2.0047307	1.4158851
22.785647921638393	1.9619895	1.4007103
22.803527239646712	1.9150581	1.3838563
22.82140712025363	1.8826106	1.3720826
22.839287563947593	1.8927258	1.3757638
22.85716857121719	1.8883777	1.3741826
22.875050142551135	1.9038508	1.379801
22.892932278438277	1.8706337	1.3677111
22.910814979367604	1.8393505	1.3562266
22.928698245828222	1.8155764	1.3474333
22.946582078309387	1.8410702	1.3568604
22.96446647730047	1.9066013	1.3807974
22.98235144329098	1.929564	1.3890874
23.000236976770562	1.9430774	1.3939431
23.018123078229	1.9492642	1.3961605
23.03600974815619	1.8916655	1.3753783
23.053896987042194	1.8573211	1.3628356
23.071784795377173	1.8523504	1.3610108
23.08967317365145	1.8792754	1.3708667
23.10756212235546	1.8866885	1.3735678
23.125451641979787	1.872161	1.3682693
23.143341733015134	1.892995	1.3758615
23.161232395952357	1.9333007	1.3904319
23.179123631282426	1.9422214	1.393636
23.197015439496468	1.9207877	1.3859248
23.214907821085717	1.8694218	1.367268
23.23280077654157	1.8791869	1.3708344
23.250694306355538	1.8762552	1.3697647
23.268588411019277	1.8768116	1.3699677
23.28648309102458	1.87283	1.3685138
23.304378346863356	1.874069	1.3689663
23.322274179027676	1.9356506	1.3912766
23.340170588009723	1.9163985	1.3843405
23.358067574301852	1.8924329	1.3756573
23.37596513839651	1.8758175	1.3696048
23.39386328078629	1.9413033	1.3933066
23.411762001963947	1.9418925	1.3935181
23.429661302422353	1.9092472	1.3817551
23.4475611826545	1.8866476	1.3735529
23.46546164315356	1.868449	1.3669122
23.48336268441279	1.8315117	1.3533336
23.501264306925638	1.8476629	1.3592876
23.51916651118564	1.8898872	1.3747317
23.537069297686497	1.9006616	1.3786448
23.554972666922037	1.893405	1.3760105
23.57287661938623	1.8728514	1.3685216
23.59078115557318	1.8805075	1.371316
23.608686275977128	1.8936682	1.3761061
23.62659198109246	1.8926865	1.3757495
23.6444982714137	1.8926744	1.375745
23.66240514743549	1.8895566	1.3746115
23.68031260965263	1.9006554	1.3786426
23.698220658560068	1.88347	1.3723958
23.716129294652845	1.8784093	1.3705508
23.7340385184262	1.9150611	1.3838574
23.75194833037546	1.928047	1.3885413
23.769858730996123	1.9166595	1.3844347
23.78776972078382	1.8814541	1.3716611
23.80568130023431	1.9056746	1.3804617
23.823593469843495	1.9243035	1.3871927
23.841506230107424	1.9453278	1.3947501
23.859419581522275	1.8913654	1.3752692
23.87733352458438	1.8712306	1.3679293
23.89524805979019	1.9012951	1.3788745
23.913163187636318	1.9422637	1.3936512
23.931078908619508	1.9973937	1.4132918
23.948995223236633	2.0140004	1.4191549
23.966912131984735	2.0019736	1.4149112
23.98482963536096	1.9834024	1.4083332
24.002747733862616	1.9921211	1.4114252
24.020666427987155	1.996535	1.412988
24.038585718232156	1.9865541	1.4094517
24.056505605095353	1.9818838	1.4077939
24.074426089074617	2.04486	1.429986
24.092347170667946	2.0489814	1.4314264
24.110268850373515	2.060092	1.435302
24.128191128689586	2.0612738	1.4357136
24.146114006114626	2.0665245	1.4375411
24.164037483147187	2.0560486	1.4338928
24.181961560286005	2.0528374	1.4327726
24.199886238029926	2.0500062	1.4317843
24.21781151687797	2.0327463	1.4257442
24.235737397329274	2.044254	1.4297742
24.253663879883135	2.030298	1.4248853
24.271590965038975	2.070498	1.4389225
24.289518653296376	2.0907469	1.4459416
24.30744694515505	2.1063445	1.451325
24.32537584111486	2.060827	1.4355581
24.34330534167581	2.0110981	1.418132
24.361235447338046	2.0132744	1.418899
24.379166158601876	2.000329	1.4143299
24.39709747596772	2.0123332	1.4185673
24.41502939993615	2.0161915	1.4199265
24.432961931007917	2.0260844	1.4234059
24.450895069683856	2.0487657	1.431351
24.468828816465	2.0438702	1.4296399
24.4867631718525	2.003163	1.4153315
24.504698136347656	1.9342706	1.3907806
24.52263371045192	1.9512701	1.3968787
24.540569894666874	1.9968382	1.4130952
24.558506689494266	1.9805288	1.4073126
24.57644409543597	1.9971268	1.4131974
24.594382112994012	2.0068452	1.4166317
24.61232074267057	2.0219028	1.4219363
24.630259984967953	1.980532	1.4073138
24.64819984038863	1.9415451	1.3933934
24.66614030943522	1.9372039	1.3918347
24.684081392610462	1.9823258	1.4079509
24.702023090417274	2.0544696	1.4333421
24.7199654033587	2.0280604	1.4240999
24.737908331937927	1.9912515	1.4111171
24.755851876658305	1.9526777	1.3973825
24.773796038023324	1.9836156	1.4084089
24.79174081653661	2.0134656	1.4189664
24.809686212701962	2.064651	1.4368894
24.827632227023294	2.1164093	1.4547884
24.8455788600047	2.1079366	1.4518735
24.8635261121504	2.1191113	1.4557167
24.88147398396475	2.1229053	1.4570193
24.899422475952303	2.1507988	1.4665602
24.917371588617698	2.18545	1.4783268
24.935321322465768	2.2190979	1.4896637
24.953271678001478	2.3546915	1.5345004
24.97122265572994	2.560574	1.6001794
24.989174256156414	2.8891528	1.6997508
25.00712647978632	3.4362807	1.8537208
25.02507932712521	4.44584	2.108516
25.043032798678798	5.8864317	2.426197
25.060986894952933	7.5119643	2.7407963
25.078941616453637	9.00542	3.0009031
25.096896963687055	9.914768	3.1487725
25.114852937159508	10.552224	3.2484188
25.132809537377444	10.281858	3.2065337
25.150766764847468	9.616735	3.1010861
25.168724620076347	8.357546	2.890942
25.186683103570985	7.151465	2.6742222
25.204642215838426	5.724646	2.3926232
25.222601957385894	4.570426	2.1378555
25.24056232872074	3.5728908	1.8902092
25.25852333035048	2.8363469	1.6841457
25.276484962782778	2.356516	1.5350947
25.294447226525435	2.1242125	1.4574678
25.312410122086423	2.0734468	1.4399468
25.330373649973843	2.0228243	1.4222603
25.348337810695988	1.976541	1.4058951
25.366302604761245	1.9453	1.3947401
25.384268032678207	1.9680948	1.4028881
25.40223409495558	1.9708624	1.403874
25.420200792102257	1.9387817	1.3924015
25.438168124627246	1.8470535	1.3590635
25.45613609303974	1.8738903	1.3689011
25.474104697849057	1.8939418	1.3762056
25.492073939564698	1.8960537	1.3769727
25.510043818696285	1.8427137	1.3574659
25.528014335753614	1.8364105	1.3551422
25.54598549124664	1.8118309	1.3460426
25.56395728568544	1.8252449	1.3510163
25.58192971958028	1.859799	1.3637445
25.59990279344156	1.8676126	1.3666062
25.617876507779833	1.8283752	1.3521743
25.635850863105826	1.8242308	1.3506409
25.653825859930386	1.8577073	1.3629774
25.671801498764548	1.8614746	1.3643587
25.68977778011949	1.8391525	1.3561536
25.707754704506524	1.8382204	1.3558098
25.725732272437153	1.8344592	1.3544221
25.743710484423012	1.8211998	1.3495183
25.761689340975888	1.8006479	1.3418822
25.77966884260774	1.8163953	1.3477371
25.797648989830662	1.8089994	1.3449905
25.815629783156922	1.8631303	1.3649653
25.83361122309895	1.8803567	1.371261
25.85159331016929	1.8505477	1.3603483
25.869576044880695	1.7927067	1.33892
25.887559427746034	1.8192539	1.3487972
25.90554345927836	1.8759571	1.3696558
25.92352813999086	1.8804646	1.3713003
25.94151347039689	1.800526	1.3418368
25.959499451009965	1.8123494	1.3462353
25.97748608234374	1.8477094	1.3593048
25.995473364912062	1.8276651	1.3519117
26.013461299228904	1.8004693	1.3418157
26.03144988580839	1.8198858	1.3490314
26.04943912516483	1.8068191	1.3441797
26.067429017812675	1.776703	1.3329302
26.085419564266537	1.8331021	1.353921
26.103410765041186	1.82287	1.350137
26.12140262065155	1.8137325	1.3467488
26.139395131612723	1.8138784	1.3468031
26.157388298439948	1.8433514	1.3577007
26.17538212164861	1.81107	1.34576
26.193376601754295	1.7835513	1.3354967
26.211371739272714	1.812919	1.3464469
26.229367534719746	1.829261	1.3525017
26.247363988611433	1.8313639	1.353279
26.26536110146397	1.7958044	1.3400762
26.283358873793727	1.813785	1.3467684
26.301357306117204	1.8280957	1.3520709
26.319356398951104	1.8610911	1.3642181
26.33735615281224	1.8412445	1.3569247
26.35535656821762	1.8583132	1.3631996
26.373357645684404	1.8179137	1.3483003
26.39135938572991	1.7593216	1.3263942
26.409361788871614	1.7443665	1.3207446
26.427364855627165	1.7587924	1.3261948
26.445368586514352	1.7751426	1.3323448
26.46337298205115	1.7695651	1.33025
26.48137804275568	1.7742424	1.3320069
26.499383769146217	1.7705652	1.3306259
26.517390161741215	1.7622694	1.327505
26.53539722105928	1.7663729	1.3290496
26.553404947619182	1.7912751	1.3383852
26.571413341939856	1.802056	1.3424067
26.589422404540397	1.8008872	1.3419714
26.60743213594006	1.7909386	1.3382596
26.62544253665827	1.8041979	1.3432044
26.64345360721459	1.7719498	1.331146
26.66146534812879	1.7661055	1.328949
26.679477759920758	1.7827468	1.3351954
26.69749084311057	1.8126975	1.3463646
26.71550459821847	1.8006569	1.3418856
26.733519025764842	1.815409	1.3473711
26.751534126270258	1.8266457	1.3515346
26.769549900255434	1.8372314	1.3554451
26.787566348241267	1.8097368	1.3452646
26.80558347074881	1.8035773	1.3429734
26.823601268299267	1.8279979	1.3520347
26.841619741414036	1.8360317	1.3550025
26.85963889061465	1.8142639	1.3469461
26.877658716422832	1.7687742	1.3299527
26.89567921936045	1.7980088	1.3408985
26.913700399949544	1.8453207	1.3584259
26.93172225871233	1.8104614	1.3455338
26.949744796171174	1.7673241	1.3294075
26.967768012848605	1.8140302	1.3468593
26.98579190926733	1.8436475	1.3578098
27.003816485950225	1.8696226	1.3673414
27.021841743420318	1.8590002	1.3634516
27.039867682200814	1.7973937	1.3406692
27.057894302815072	1.7243599	1.3131489
27.07592160578664	1.735359	1.3173302
27.0939495916392	1.7549897	1.3247603
27.111978260896635	1.7547145	1.3246564
27.13000761408296	1.7355033	1.3173851
27.148037651722397	1.7827843	1.3352095
27.166068374339304	1.825557	1.3511318
27.184099782458215	1.821246	1.3495355
27.20213187660384	1.8187101	1.3485956
27.22016465730105	1.8056089	1.3437295
27.23819812507487	1.8052982	1.3436139
27.256232280450533	1.7825106	1.335107
27.274267123953383	1.7839752	1.3356553
27.292302656108987	1.7476285	1.321979
27.31033887744306	1.749146	1.3225528
27.32837578848146	1.7838234	1.3355985
27.34641338975026	1.8294189	1.3525602
27.364451681775673	1.877411	1.3701864
27.382490665084074	1.9149343	1.3838115
27.400530340202046	1.8556806	1.3622336
27.41857070765629	1.7295027	1.3151056
27.436611767973726	1.7266937	1.3140372
27.454653521681404	1.7654046	1.3286853
27.472695969306564	1.7884716	1.3373375
27.490739111376627	1.8126171	1.3463347
27.508782948419153	1.8241262	1.3506021
27.526827480961902	1.7962203	1.3402314
27.54487270953279	1.8418404	1.3571442
27.562918634659898	1.8134576	1.3466468
27.580965256871508	1.7712945	1.3308998
27.599012576696026	1.7721474	1.3312203
27.617060594662068	1.769654	1.3302834
27.63510931129842	1.8060049	1.3438768
27.65315872713401	1.8552887	1.3620899
27.67120884269797	1.8549926	1.3619812
27.68925965851958	1.8433349	1.3576947
27.707311175128307	1.8014213	1.3421704
27.725363393053787	1.8131294	1.346525
27.74341631282583	1.8896731	1.3746538
27.7614699349744	1.9339569	1.3906678
27.77952426002968	2.146137	1.46497
27.797579288521973	2.195931	1.4818674
27.815635020981784	2.5530074	1.5978132
27.83369145793979	2.568669	1.6027068
27.85174859992682	2.4490178	1.5649338
27.869806447473923	2.2895935	1.5131403
27.887865001112267	2.0463977	1.4305235
27.905924261373233	2.0216303	1.4218404
27.92398422878836	2.0125997	1.4186612
27.94204490388936	1.9595029	1.3998225
27.96010628720813	1.890307	1.3748844
27.978168379276728	1.8650159	1.3656558
27.9962311806274	1.889421	1.3745621
28.014294691792568	1.8652414	1.3657384
28.0323589133048	1.806659	1.3441201
28.050423845696887	1.7956085	1.3400031
28.068489489501758	1.8415877	1.3570511
28.086555845252523	1.9030507	1.379511
28.104622913482487	1.8865523	1.3735182
28.122690694725115	1.916387	1.3843362
28.14075918951405	1.9579784	1.3992778
28.15882839838312	1.9280041	1.3885258
28.176898321866304	1.9007057	1.3786608
28.1949689604978	1.9006335	1.3786347
28.213040314811945	1.9202211	1.3857204
28.23111238534327	1.9336958	1.3905739
28.249185172626493	1.9094806	1.3818395
28.267258677196473	1.8910965	1.3751714
28.285332899588294	1.8968424	1.377259
28.303407840337172	1.942237	1.3936416
28.321483499978545	1.9703373	1.403687
28.33955987904799	1.9478599	1.3956575
28.357636978081285	1.9774213	1.4062082
28.37571479761439	2.0163279	1.4199746
28.393793338183425	2.0162413	1.4199442
28.41187260032469	2.0196679	1.4211502
28.429952584574686	1.9928489	1.411683
28.448033291470065	1.9507552	1.3966944
28.46611472154769	1.9493216	1.3961811
28.484196875344566	1.9756345	1.4055727
28.502279753397914	1.9957184	1.412699
28.52036335624511	2.0001616	1.4142708
28.538447684423716	1.9490614	1.3960879
28.556532738471482	1.992816	1.4116713
28.574618518926325	2.004833	1.4159212
28.59270502632635	1.9754447	1.4055052
28.61079226120985	2.00688	1.416644
28.628880224115274	2.0696328	1.4386219
28.646968915581287	2.0509717	1.4321214
28.66505833614671	2.043179	1.4293982
28.68314848635055	2.0573404	1.4343432
28.701239366732004	2.0710974	1.4391308
28.71933097783044	2.0919054	1.4463421
28.737423320185403	2.0862916	1.4444001
28.75551639433665	2.0549467	1.4335085
28.773610200824074	2.0081525	1.4170929
28.791704740187793	2.0210378	1.421632
28.80980001296809	2.1298666	1.4594063
28.827896019705413	2.2164314	1.4887685
28.845992760940433	2.2517831	1.5005943
28.86409023721397	2.2344527	1.4948086
28.88218844906704	2.2007203	1.4834825
28.900287397040845	2.1906283	1.4800771
28.918387081676755	2.2070367	1.4856099
28.936487503516343	2.2623563	1.5041131
28.954588663101365	2.2874389	1.5124282
28.97269056097374	2.2430065	1.497667
28.990793197675597	2.2068	1.4855303
29.00889657374923	2.2746189	1.508184
29.027000689737125	2.3262246	1.5251966
29.04510554618196	2.3917296	1.5465218
29.06321114362659	2.4357347	1.5606841
29.08131748261405	2.5196624	1.5873444
29.099424563687567	2.55473	1.5983523
29.11753238739057	2.5061045	1.583068
29.13564095426663	2.4696329	1.5715065
29.15375026485954	2.535771	1.5924104
29.171860319713275	2.6155453	1.6172647
29.18997111937199	2.6306403	1.6219249
29.20808266438002	2.6140213	1.6167935
29.226194955281898	2.5852618	1.607875
29.244307992622335	2.7069783	1.6452898
29.26242177694624	2.8131537	1.6772459
29.2805363087987	2.8692563	1.693888
29.29865158872498	2.8730078	1.6949949
29.316767617270557	2.8967304	1.7019783
29.334884394981064	2.9053	1.704494
29.353001922402367	2.9158206	1.7075773
29.37112020008047	2.991389	1.7295632
29.389239228561596	3.1638086	1.7787098
29.407359008392152	3.3431392	1.8284253
29.42547954011872	3.6756554	1.9171999
29.44360082428809	4.168716	2.0417433
29.46172286144722	5.085459	2.2550962
29.479845652143283	6.6141486	2.5717988
29.497969196923606	9.251788	3.0416753
29.516093496335728	13.040099	3.6111078
29.5342185509274	16.603746	4.0747695
29.55234436124651	19.775616	4.446978
29.570470927841175	21.030872	4.5859427
29.588598251259686	20.783905	4.5589366
29.60672633205055	19.251802	4.3876877
29.624855170762405	16.454004	4.0563536
29.642984767944146	12.986918	3.6037366
29.66111512414481	9.506399	3.0832448
29.67924623991366	6.973427	2.6407247
29.697378115800138	5.2136164	2.2833345
29.71551075235387	4.3547425	2.086802
29.733644150124675	3.953189	1.9882628
29.751778309662576	3.6797307	1.9182624
29.769913231517766	3.450197	1.8574706
29.78804891624066	3.3659582	1.8346548
29.806185364381818	3.3364232	1.8265878
29.82432257649206	3.2842088	1.8122386
29.842460553122333	3.3121042	1.8199188
29.86059929482382	3.2771194	1.8102816
29.878738802147872	3.215994	1.7933192
29.896879075646048	3.2317495	1.7977067
29.915020115870114	3.294627	1.8151107
29.933161923371976	3.3374813	1.8268775
29.951304498703777	3.298256	1.8161101
29.969447842417857	3.256721	1.8046387
29.987591955066733	3.2137113	1.7926826
30.005736837203123	3.2406507	1.8001807
30.023882489379943	3.2500045	1.8027769
30.04202891215028	3.257014	1.8047199
30.060176106067455	3.2186987	1.7940732
30.078324071684946	3.2411604	1.8003223
30.09647280955646	3.2912774	1.8141878
30.114622320235863	3.2852242	1.8125187
30.132772604277257	3.171629	1.7809068
30.1509236622349	3.1064522	1.762513
30.16907549466328	3.1464097	1.7738122
30.18722810211705	3.1468434	1.7739345
30.205381485151097	3.0849807	1.7564113
30.22353564432045	3.0338943	1.7418078
30.241690580180403	3.0455728	1.7451569
30.25984629328638	3.0450435	1.7450052
30.278002784194037	3.0608132	1.749518
30.296160053459246	2.9746993	1.7247317
30.314318101638033	2.9818547	1.7268047
30.332476929286646	3.0122313	1.7355781
30.35063653696153	2.9478118	1.7169193
30.368796925219307	2.900663	1.7031332
30.386958094616844	2.9230921	1.7097052
30.40512004571115	2.9244938	1.7101152
30.423282779059463	2.884273	1.6983148
30.441446295219233	2.8069596	1.6753983
30.459610594748067	2.8106306	1.6764935
30.47777567820382	2.9030635	1.7038379
30.495941546144504	2.8878484	1.699367
30.51410819912835	2.8005002	1.6734695
30.532275637713795	2.7344668	1.6536223
30.55044386245946	2.7475905	1.6575857
30.56861287392416	2.8136666	1.6773988
30.586782672666956	2.7781117	1.6667669
30.604953259247047	2.8000119	1.6733236
30.623124634223885	2.8260634	1.68109
30.641296798157075	2.7485237	1.6578672
30.659469751606462	2.7083333	1.6457014
30.677643495132074	2.8266227	1.6812563
30.695818029294152	2.8513858	1.6886047
30.713993354653116	2.769985	1.6643271
30.73216947176962	2.7255423	1.6509217
30.75034638120448	2.724849	1.6507117
30.768524083518756	2.7046971	1.6445963
30.786702579273673	2.7694058	1.6641532
30.80488186903069	2.9172308	1.7079903
30.82306195335144	3.0917327	1.7583324
30.841242832797782	3.3310094	1.8251053
30.85942450793176	3.5805602	1.8922368
30.877606979315637	3.9482675	1.9870248
30.895790247511883	4.3929625	2.0959394
30.913974313083134	4.884374	2.210062
30.932159176592283	5.424369	2.3290274
30.95034483860237	5.795347	2.4073527
30.968531299676698	5.7333946	2.394451
30.98671856037873	5.3684626	2.3169942
31.00490662127215	4.8739963	2.207713
31.023095482920848	4.2857304	2.0702004
31.04128514588892	3.728728	1.9309914
31.059475610740662	3.2310221	1.7975044
31.07766687804056	2.8965838	1.7019353
31.09585894835335	2.7011373	1.6435137
31.11405182224393	2.5799499	1.6062223
31.132245500277417	2.5034125	1.5822176
31.15043998301914	2.4217188	1.5561873
31.168635271034628	2.4208782	1.5559171
31.18683136488964	2.4342482	1.5602077
31.20502826515008	2.4010363	1.5495278
31.223225972382135	2.4179592	1.5549788
31.241424487152155	2.4536784	1.5664221
31.259623810026692	2.445474	1.563801
31.27782394157253	2.3985777	1.5487342
31.296024882356644	2.441991	1.5626872
31.314226632946237	2.532834	1.591488
31.332429193908684	2.5498219	1.5968162
31.350632565811598	2.4304564	1.5589921
31.368836749222787	2.3921015	1.5466421
31.387041744710295	2.513537	1.5854138
31.40524755284232	2.6371913	1.6239431
31.423454174187317	2.5787275	1.6058416
31.441661609313922	2.4913602	1.5784043
31.459869858791002	2.494004	1.5792416
31.478078923187628	2.3856285	1.544548
31.496288803073064	2.3335338	1.5275909
31.514499499016807	2.2552817	1.5017595
31.532711011588546	2.2737072	1.5078816
31.550923341358178	2.2770402	1.5089865
31.56913648889584	2.2401702	1.4967198
31.587350454771844	2.2432313	1.497742
31.605565239556732	2.3095646	1.5197252
31.62378084382127	2.2827277	1.5108699
31.641997268136382	2.2641437	1.5047072
31.660214513073274	2.2996905	1.516473
31.67843257920331	2.3224971	1.5239742
31.6966514670981	2.30251	1.5174024
31.71487117732944	2.3270624	1.5254712
31.733091710469346	2.3324277	1.5272288
31.751313067090052	2.2771611	1.5090265
31.769535247764008	2.215166	1.4883434
31.787758253063878	2.200236	1.4833193
31.805982083562526	2.1726825	1.4740022
31.824206739833024	2.226278	1.4920717
31.84243222244869	2.2402222	1.4967372
31.860658531983013	2.2025437	1.4840969
31.878885669009737	2.1454184	1.4647247
31.897113634102784	2.2152681	1.4883777
31.91534242783632	2.316262	1.5219271
31.933572050784694	2.2977288	1.5158261
31.951802503522508	2.2813988	1.51043
31.970033786624548	2.2687917	1.5062509
31.988265900665834	2.2338543	1.4946084
32.006498846221575	2.154926	1.4679667
32.02473262386724	2.1575031	1.4688442
32.04296723417845	2.1785724	1.4759988
32.0612026777311	2.2470615	1.4990202
32.07943895510129	2.2098477	1.4865557
32.097676066865304	2.2178953	1.48926
32.115914013599685	2.1952288	1.4816304
32.13415279588115	2.1169896	1.4549879
32.152392414286666	2.0938845	1.4470261
32.1706328693934	2.1432333	1.4639785
32.18887416177875	2.1950355	1.4815652
32.20711629202032	2.2113817	1.4870715
32.225359260695924	2.2632651	1.5044152
32.243603068383614	2.210495	1.4867734
32.26184771566166	2.114956	1.4542888
32.28009320310852	2.0548153	1.4334627
32.2983395313029	2.1201944	1.4560888
32.31658670082372	2.1111689	1.4529862
32.33483471225012	2.1780286	1.4758146
32.35308356616143	2.2200232	1.4899743
32.371333263137245	2.1862385	1.4785935
32.38958380375734	2.1663191	1.471842
32.407835188601744	2.209098	1.4863034
32.42608741825067	2.1798735	1.4764395
32.444340493284585	2.150232	1.466367
32.46259441428416	2.0778368	1.4414704
32.48084918183028	2.0278418	1.4240232
32.49910479650405	2.120005	1.4560237
32.51736125888683	2.184312	1.4779419
32.53561856956014	2.0395591	1.4281313
32.5538767291058	2.0043454	1.4157491
32.572135738105764	2.047564	1.4309312
32.59039559714228	2.013003	1.4188035
32.608656306797776	1.984466	1.4087107
32.62691786765491	2.0873566	1.4447687
32.645180280296586	2.1136832	1.4538512
32.663443545305896	2.050013	1.4317867
32.68170766326619	1.9491682	1.3961262
32.69997263476099	1.9468365	1.3952909
32.7182384603741	1.8942409	1.3763143
32.7365051406895	1.8378085	1.3556579
32.75477267629144	1.9045484	1.3800538
32.77304106776434	1.9990726	1.4138856
32.79131031569289	2.0252566	1.4231151
32.809580420661966	2.0609763	1.43561
32.827851383256714	1.9882145	1.4100406
32.84612320406245	2.0909398	1.4460082
32.86439588366476	2.1847112	1.4780768
32.88266942264945	2.0421395	1.4290345
32.9009438216025	1.9333773	1.3904594
32.9192190811102	1.9951478	1.412497
32.937495201758985	2.064258	1.4367527
32.95577218413556	2.0336165	1.4260492
32.974050028826866	1.9225113	1.3865465
32.992328736420035	1.8611335	1.3642336
33.010608307502444	1.8595612	1.3636572
33.02888874266169	1.9030384	1.3795066
33.047170042485604	1.9844751	1.408714
33.06545220756225	1.9361293	1.3914486
33.083735238479896	1.9662101	1.4022162
33.10201913582707	1.9979492	1.4134883
33.12030390019248	2.033417	1.4259793
33.138589532165135	1.9905366	1.4108638
33.15687603233419	1.9237915	1.3870081
33.17516340128909	1.9337156	1.390581
33.19345163961947	1.9521834	1.3972056
33.211740747915215	1.9982191	1.4135838
33.23003072676643	2.0296602	1.4246614
33.248321576763466	1.9136411	1.3833442
33.266613298496885	1.7846969	1.3359255
33.28490589255747	1.8021444	1.3424398
33.30319935953626	1.9670573	1.4025183
33.32149370002451	2.0554693	1.4336908
33.339788914613706	2.013516	1.4189842
33.358085003895575	1.9801699	1.4071851
33.376381968462034	2.027026	1.4237366
33.39467980890529	2.006344	1.4164548
33.41297852581774	1.928343	1.3886479
33.43127811979204	1.8814296	1.3716521
33.44957859142105	1.818741	1.3486071
33.467879941297866	1.7668463	1.3292277
33.486182170015844	1.7456514	1.321231
33.50448527816853	1.8987925	1.3779668
33.522789266349754	2.0250916	1.4230572
33.541094135153514	1.9962499	1.4128871
33.55939988517411	1.976589	1.4059122
33.57770651700602	1.9659053	1.4021075
33.59601403124398	1.9621465	1.4007664
33.61432242848296	1.9545288	1.3980446
33.632631709318154	1.9314386	1.389762
33.650941874344994	1.9405897	1.3930504
33.66925292415916	1.9487746	1.3959851
33.68756485935654	1.9408013	1.3931265
33.70587768053328	1.8746525	1.3691795
33.724191388285746	1.9273802	1.3883011
33.74250598321054	1.9709018	1.4038881
33.760821465904506	1.9369621	1.3917478
33.77913783696474	1.9452609	1.394726
33.79745509698852	1.9666132	1.4023598
33.815773246573414	1.9669857	1.4024926
33.8340922863172	1.9038322	1.3797942
33.852412216817896	1.8703846	1.36762
33.87073303867377	1.950821	1.3967179
33.889054752483304	1.9052188	1.3802967
33.907377358845245	1.8191947	1.3487753
33.92570085835853	1.7921066	1.3386959
33.94402525162239	1.8496822	1.3600302
33.96235053923627	1.9807248	1.4073822
33.980676721799824	1.9802032	1.4071969
33.999003799912984	1.9328138	1.3902568
34.01733177417592	1.8320863	1.3535458
34.03566064518901	1.8605005	1.3640016
34.0539904135529	1.921891	1.3863229
34.07232107986846	1.8625318	1.3647461
34.090652644736785	1.8192058	1.3487793
34.108985108759235	1.8973836	1.3774555
34.12731847253742	2.0060842	1.416363
34.14565273667313	2.0584733	1.434738
34.16398790176847	2.1021762	1.4498883
34.18232396842574	2.0165837	1.4200647
34.20066093724749	1.9849037	1.408866
34.21899880883651	1.8917954	1.3754256
34.23733758379583	1.760171	1.3267144
34.25567726272874	1.7551792	1.3248317
34.27401784623872	1.7987919	1.3411905
34.29235933492957	1.8721383	1.368261
34.31070172940526	1.9784567	1.4065763
34.32904503027003	1.8995996	1.3782597
34.347389238128386	1.7040315	1.3053856
34.36573435358502	1.7797384	1.3340684
34.38408037724492	1.8464886	1.3588556
34.402427309713296	1.9396534	1.3927144
34.42077515159559	1.9622031	1.4007866
34.43912390349752	1.9211105	1.3860413
34.45747356602499	1.8093101	1.345106
34.47582413978423	1.8873575	1.3738112
34.49417562538163	1.9473761	1.3954842
34.51252802342388	1.8497883	1.3600693
34.53088133451789	1.7889781	1.3375269
34.54923555927084	1.8966563	1.3771914
34.567590698290104	1.8729738	1.3685663
34.58594675218336	1.9476924	1.3955975
34.6043037215585	1.9508783	1.3967384
34.62266160702365	1.8752197	1.3693867
34.641020409187234	1.9479755	1.3956989
34.65938012865785	2.0729759	1.4397832
34.677740766044394	2.070568	1.4389468
34.69610232195598	1.9566592	1.3988063
34.714464797002016	1.8959835	1.3769472
34.73282819179208	1.905082	1.3802471
34.751192506936064	2.0358877	1.4268454
34.76955774304408	2.0512712	1.432226
34.7879239007265	1.977519	1.4062428
34.80629098059391	1.8891197	1.3744525
34.824658983257194	1.9534734	1.3976672
34.843027909327446	2.0141268	1.4191993
34.86139775941603	2.120343	1.4561398
34.879768534134534	2.1207452	1.4562778
34.89814023409483	2.0781484	1.4415784
34.91651285990901	1.9228393	1.3866647
34.93488641218944	1.9277579	1.3884372
34.95326089154871	2.0916083	1.4462394
34.97163629859967	2.0940335	1.4470775
34.99001263395542	1.906016	1.3805854
35.00838989822934	1.6272063	1.27562
35.02676809203499	1.6894296	1.2997806
35.04514721598624	1.9858876	1.4092152
35.063527270697215	2.1281636	1.4588227
35.081908256782256	1.9391211	1.3925233
35.10029017485597	1.959027	1.3996525
35.11867302553321	1.8257167	1.3511908
35.137056809429104	1.5234772	1.2342921
35.155441527159006	1.4526258	1.2052492
35.173827179338524	1.6164496	1.2713968
35.19221376658354	1.8329079	1.3538493
35.21060128951017	2.141587	1.4634162
35.2289897487348	2.0601788	1.4353323
35.24737914487405	1.9302303	1.3893273
35.26576947854479	1.9768019	1.4059879
35.28416075036418	2.0950985	1.4474455
35.30255296094958	2.124527	1.4575757
35.32094611091867	2.0797937	1.442149
35.33934020088932	1.983957	1.4085301
35.35773523147969	1.920814	1.3859344
35.3761312033082	1.9366934	1.3916513
35.394528116993506	2.1399288	1.4628495
35.41292597315452	2.2320483	1.4940041
35.431324772410434	2.2448258	1.4982743
35.449724515380666	2.4564815	1.5673167
35.46812520268491	2.2136066	1.4878194
35.486526834943106	2.1379907	1.4621869
35.504929412775454	2.2324529	1.4941396
35.52333293680242	2.26932	1.5064262
35.54173740764471	2.333633	1.5276233
35.560142825923286	1.815007	1.347222
35.5785491922594	1.9448673	1.394585
35.59695650727454	1.9774116	1.4062047
35.61536477159042	1.3796161	1.1745706
