0.008763373481513119	0.0	0.0
0.026290120649546365	0.0	0.0
0.043816868432600686	0.0	0.0
0.06134361724069026	0.011486674	0.1071759
0.07887036748382949	0.09532925	0.30875435
0.0963971195720331	0.1812686	0.4257565
0.11392387391531617	0.22082856	0.469924
0.1314506309236943	0.20545521	0.4532717
0.1489773910071836	0.2123972	0.4608657
0.16650415457580078	0.18819092	0.4338098
0.18403092203956356	0.19326673	0.43962112
0.20155769380849	0.21665719	0.4654645
0.2190844702925996	0.28358585	0.5325278
0.2366112519019124	0.24769552	0.49769017
0.2541380390464497	0.23400539	0.48374104
0.27166483213623416	0.17415124	0.41731432
0.28919163158128947	0.13757315	0.37090856
0.3067184377916406	0.12251982	0.3500283
0.324245251177314	0.16477534	0.4059253
0.34177207214833777	0.15395863	0.39237562
0.3592989011147415	0.13901486	0.37284696
0.37682573848655654	0.15910277	0.39887688
0.39435258467381573	0.1733639	0.41636992
0.41187944008655414	0.24267668	0.49262226
0.42940630513480854	0.19306241	0.43938866
0.446933180228618	0.14392619	0.37937605
0.4644600657780234	0.090231165	0.30038503
0.48198696219306775	0.08198593	0.28633186
0.49951386988379676	0.07413807	0.27228308
0.5170407892602581	0.119310975	0.34541422
0.5345677207325025	0.14770116	0.3843191
0.5520946647105822	0.16582315	0.4072139
0.5696216216045534	0.18400052	0.4289528
0.5871485918244737	0.16414115	0.40514338
0.6046755757804043	0.1464094	0.38263482
0.6222025738824094	0.13098326	0.3619161
0.6397295865405557	0.099215746	0.3149853
0.6572566141649129	0.12982824	0.36031687
0.6747836571655547	0.18147175	0.42599502
0.6923107159525568	0.22689255	0.4763324
0.7098377909359992	0.22668047	0.4761097
0.7273648825259653	0.1742596	0.41744414
0.7448919911325411	0.20862354	0.45675325
0.762419117165817	0.2519386	0.5019349
0.7799462610358868	0.25111678	0.50111556
0.7974734231528482	0.21649213	0.46528715
0.8150006039268024	0.17684422	0.4205285
0.8325278037678551	0.17083636	0.41332355
0.8500550230861152	0.19983962	0.44703424
0.8675822622916969	0.18596596	0.4312377
0.8851095217947171	0.16674188	0.4083404
0.9026368020052984	0.18378893	0.4287061
0.9201641033335665	0.17266878	0.41553435
0.9376914261896523	0.20536967	0.4531773
0.9552187709836915	0.18714328	0.4326006
0.9727461381258234	0.21097858	0.45932406
0.990273528026193	0.2403727	0.49027818
1.0078009410949496	0.27188036	0.5214215
1.0253283777422473	0.2541215	0.5041047
1.0428558383782454	0.2317647	0.48141947
1.0603833234131086	0.21912529	0.4681082
1.0779108332570058	0.31317985	0.55962473
1.0954383683201119	0.37030548	0.6085273
1.112965929012607	0.4354264	0.6598685
1.1304935157446763	0.5690789	0.7543732
1.1480211289265108	0.59779805	0.773174
1.1655487689683062	1.412676	1.1885605
1.1830764362802655	1.682687	1.2971842
1.200604131272596	2.021384	1.4217539
1.2181318543555117	2.3033	1.5176626
1.235659605939232	2.2606153	1.5035343
1.253187386433982	3.8643956	1.9658066
1.270715196249994	6.294511	2.5088863
1.2882430357975057	11.542691	3.3974535
1.3057709054867608	16.130201	4.016242
1.3232988057280106	21.98588	4.6889105
1.3408267369315112	26.81431	5.1782537
1.358354699507526	30.644869	5.535781
1.3758826938663256	34.36736	5.862368
1.3934107204181858	36.412518	6.0342784
1.410938779573391	36.73739	6.0611377
1.4284668717422309	37.422287	6.117376
1.4459949973350033	36.716522	6.059416
1.4635231567620117	36.326035	6.027108
1.4810513504335687	35.3166	5.942777
1.4985795787599925	34.632145	5.884908
1.5161078421516088	34.569588	5.879591
1.5336361410187505	34.127357	5.8418627
1.5511644757717598	34.177383	5.846143
1.5686928468209842	34.71586	5.8920164
1.58622125457678	35.13724	5.9276676
1.6037496994495108	36.30875	6.0256743
1.621278181849548	36.72424	6.060053
1.6388067021872719	37.93249	6.158936
1.6563352608730693	37.274517	6.105286
1.673863858317336	36.07319	6.006096
1.6913924949304753	34.87959	5.9058943
1.7089211711228998	34.104248	5.8398843
1.7264498873050296	33.369934	5.7766714
1.7439786438872935	32.420338	5.693886
1.7615074412801288	31.590158	5.6205125
1.779036279893981	30.81265	5.5509143
1.796565160139305	29.738789	5.453328
1.814094082426564	28.964977	5.381912
1.8316230471662298	28.216194	5.3118916
1.849152054768784	27.541643	5.248013
1.8666811056447168	27.311844	5.2260733
1.8842102002045273	26.49206	5.1470437
1.901739338858724	25.958767	5.0949745
1.9192685220178245	25.37815	5.037673
1.9367977500923557	24.824875	4.9824567
1.9543270234928547	24.404448	4.940086
1.971856342629867	23.43425	4.8408933
1.9893857079139496	22.781086	4.7729535
2.006915119755667	22.114494	4.7026052
2.0244445785655945	21.7693	4.665758
2.0419740847543175	21.516169	4.638552
2.0595036387324317	20.949492	4.5770617
2.0770332409105414	20.547842	4.532973
2.094562891699263	20.196836	4.494089
2.1120925915092217	19.749723	4.444066
2.129622340751053	19.531134	4.419404
2.1471521398354043	187.50891	13.693389
2.1646819891729323	443.854	21.067842
2.182211889174303	440.21063	20.981197
2.1997418402501974	452.74008	21.277689
2.2172718428113023	432.68958	20.801191
2.234801897268317	320.4813	17.90199
2.2523320040319548	16.815552	4.100677
2.269862163512935	16.463694	4.0575476
2.287392376121992	16.240908	4.030001
2.304922642269869	15.8666725	3.9832993
2.322452962367322	15.70035	3.9623666
2.3399833368251164	15.317688	3.913782
2.357513766054032	15.262081	3.9066713
2.3750442504648586	15.0496855	3.8793924
2.3925747904683963	14.959166	3.867708
2.410105386475459	14.59742	3.820657
2.4276360388968707	14.151681	3.761872
2.445166748143469	13.752903	3.7084906
2.4626975146261025	13.566725	3.6833036
2.4802283387556323	13.388831	3.6590753
2.4977592209429305	13.035178	3.6104264
2.5152901615988825	12.685313	3.5616448
2.5328211611343865	12.406396	3.5222714
2.5503522199603523	12.336566	3.5123448
2.5678833384877024	12.268598	3.5026557
2.5854145171273712	12.270904	3.502985
2.6029457562903064	12.076612	3.475142
2.620477056387469	11.889617	3.4481323
2.6380084178298326	11.617286	3.408414
2.655539841028383	11.372479	3.3723106
2.673071326394119	11.175552	3.3429856
2.6906028743380523	11.0147505	3.3188477
2.708134485271211	10.888303	3.299743
2.7256661596046325	10.827164	3.2904656
2.743197897749369	10.439276	3.2309868
2.760729700116486	10.358759	3.2185025
2.778261567117063	10.084662	3.1756358
2.795793499162193	10.01217	3.1642013
2.8133254966629817	9.9796715	3.159062
2.830857560030551	9.743069	3.121389
2.8483896896760337	9.525008	3.0862613
2.865921886010578	9.404676	3.0667045
2.883454149445347	9.365216	3.060264
2.9009864803915177	9.246978	3.0408845
2.91851887926028	8.999361	2.9998934
2.9360513464628384	8.780943	2.9632657
2.953583882410413	8.693316	2.9484432
2.9711164875142373	8.610625	2.9343867
2.9886491621855606	8.530012	2.9206185
3.0061819068356455	8.536305	2.9216957
3.023714721875769	8.467684	2.9099286
3.041247607717225	8.316434	2.8838227
3.0587805647713213	8.198602	2.86332
3.0763135934493806	8.164384	2.8573387
3.0938466941627407	8.066254	2.840115
3.1113798673227544	8.02328	2.8325396
3.1289131133407904	7.919168	2.8141017
3.1464464326282315	7.882213	2.807528
3.1639798255964786	7.6943245	2.7738645
3.1815132926569443	7.484222	2.7357306
3.1990468342210603	7.3702025	2.7148118
3.216580450700272	7.378418	2.7163243
3.2341141425060416	7.254169	2.6933565
3.251647910049847	7.1404486	2.6721618
3.2691817537431813	7.055796	2.6562748
3.286715673997555	7.0529075	2.655731
3.3042496712244938	7.0379496	2.6529133
3.32178374583554	6.986979	2.6432893
3.339317898242251	6.867101	2.6205153
3.3568521288562034	6.745214	2.597155
3.3743864380889876	6.68443	2.5854266
3.3919208263522127	6.6142406	2.5718167
3.4094552940575023	6.5468435	2.55868
3.4269898416164972	6.4369583	2.537116
3.444524469440858	6.3293056	2.5158112
3.4620591779422587	6.3540277	2.5207198
3.479593967532391	6.3783216	2.525534
3.4971288386229658	6.369969	2.5238798
3.5146637916257086	6.312109	2.512391
3.5321988269523628	6.202689	2.4905198
3.5497339450146903	6.160348	2.482005
3.5672691462244708	6.2040315	2.4907894
3.5848044309934988	6.190583	2.4880884
3.60233979973359	6.232071	2.4964116
3.619875252856575	6.2317114	2.4963396
3.6374107907743034	6.197463	2.4894705
3.6549464138986427	6.174635	2.4848812
3.6724821226414788	6.0930643	2.4684134
3.690017917414714	6.0412035	2.457886
3.7075537986302702	6.1196637	2.4737954
3.7250897667000857	6.2220173	2.4943972
3.7426258220361235	6.4004087	2.529903
3.7601619650503553	6.67086	2.5828009
3.777698196154779	7.0991516	2.6644232
3.7952345157614067	8.008993	2.8300164
3.8127709242822716	8.704769	2.9503846
3.830307422129425	11.004077	3.3172393
3.847844009714936	29.889544	5.467133
3.8653806874508954	97.479126	9.873152
3.882917455749409	96.75432	9.836377
3.900454315022606	96.543976	9.82568
3.917991265682631	41.09076	6.4102073
3.9355283081416506	10.66358	3.2655137
3.9530654428118495	8.466964	2.9098048
3.970602670105433	7.294544	2.7008414
3.9881399904346244	6.4674296	2.5431142
4.005677404211669	6.4968624	2.5488944
4.023214911848827	6.427234	2.535199
4.0407525137583855	6.4750643	2.5446148
4.058290210352644	6.46784	2.5431948
4.075828002043927	6.3824153	2.5263443
4.0933658892445814	6.2507353	2.500147
4.110903872366966	6.0944734	2.4686987
4.128441951823468	6.0303106	2.4556692
4.145980128026488	5.968375	2.4430258
4.163518401388452	5.9807444	2.445556
4.181056772321807	5.94428	2.4380894
4.1985952412390155	6.024457	2.4544768
4.216133808552567	6.060981	2.461906
4.233672474674966	6.209159	2.4918184
4.251211240018741	6.3692203	2.5237315
4.268750104996445	6.594718	2.5680182
4.286289070020643	7.5348167	2.744962
4.303828135503928	9.212174	3.0351565
4.3213673018589125	29.446917	5.4265013
4.3389065694982305	90.50157	9.513231
4.356445938834537	165.65787	12.870814
4.3739854102805085	170.89886	13.072829
4.391524984248844	171.9618	13.1134205
4.409064661152262	136.17586	11.669441
4.426604441403504	96.52718	9.824825
4.444144325415337	75.72857	8.702216
4.461684313600543	21.597532	4.6473145
4.47922440637193	21.94301	4.6843367
4.496764604142329	20.27165	4.502405
4.5143049073245916	18.32134	4.2803435
4.531845316331589	16.251577	4.0313244
4.5493858315762195	13.390669	3.6593263
4.566926453471405	11.126028	3.33557
4.584467182430081	8.953797	2.9922895
4.602008018865218	7.844706	2.8008401
4.619548963189798	7.182296	2.6799805
4.637090015816834	6.8009024	2.607854
4.654631177159353	6.519577	2.5533462
4.672172447630417	6.258167	2.501633
4.689713827643102	6.134449	2.476782
4.7072553176105085	6.0008206	2.4496572
4.724796917945764	5.898957	2.4287767
4.742338629062015	5.744564	2.396782
4.759880451372434	5.6465044	2.3762374
4.777422385290215	5.617301	2.3700845
4.794964431228581	5.596258	2.365641
4.812506589600768	5.674774	2.3821785
4.830048860820047	5.700416	2.3875544
4.847591245299709	5.6602783	2.379134
4.8651337434530655	5.576613	2.3614852
4.882676355693457	5.5620594	2.3584018
4.900219082434242	5.5539985	2.3566923
4.917761924088813	5.430391	2.33032
4.935304881070575	5.366482	2.3165667
4.952847953792969	5.366012	2.3164654
4.970391142669449	5.3912935	2.3219159
4.9879344481135055	5.416961	2.3274367
5.005477870538642	5.309198	2.3041697
5.023021410358394	5.2842445	2.2987485
5.040565067986324	5.2071123	2.2819097
5.05810884383601	5.2630825	2.2941408
5.075652738321066	5.374177	2.318227
5.09319675185512	5.4050465	2.3248756
5.110740884851836	5.4008126	2.3239648
5.128285137724894	5.329982	2.3086753
5.145829510888007	5.2852373	2.2989645
5.163374004754908	5.3131876	2.3050354
5.1809186197393595	5.323787	2.3073335
5.198463356255145	5.332649	2.309253
5.216008214716077	5.3396406	2.3107662
5.233553195535998	5.297546	2.3016398
5.251098299128764	5.3052545	2.3033137
5.268643525908272	5.220583	2.2848594
5.286188876288432	5.2040505	2.2812388
5.3037343506831895	5.185476	2.277164
5.32127994950651	5.1335526	2.2657344
5.3388256731723915	5.0756445	2.2529192
5.356371522094851	5.0768576	2.2531884
5.373917496687938	5.1013174	2.2586095
5.391463597365729	5.1919208	2.2785788
5.40900982454232	5.1244674	2.2637286
5.426556178631843	5.042945	2.2456503
5.444102660048449	5.026682	2.2420263
5.4616492692063225	5.057208	2.2488236
5.479196006519669	5.109385	2.2603948
5.496742872402727	5.142298	2.2676637
5.514289867269756	5.136479	2.26638
5.531836991535049	5.088284	2.2557225
5.549384245612924	5.045481	2.2462149
5.566931629917724	4.9279704	2.2199032
5.584479144863822	4.901498	2.2139328
5.6020267908656205	5.0124464	2.2388494
5.619574568337545	5.132208	2.2654376
5.637122477694054	5.1800547	2.2759733
5.654670519349629	5.1914916	2.2784846
5.672218693718784	5.1286993	2.2646632
5.689767001216059	5.0966606	2.2575784
5.707315442256021	5.0579405	2.2489865
5.724864017253266	5.040485	2.2451024
5.7424127266224225	5.027029	2.2421038
5.75996157077814	5.012809	2.2389302
5.777510550135105	5.043159	2.245698
5.795059665108022	5.105844	2.2596114
5.812608916111639	5.1598563	2.2715318
5.830158303560715	5.2207255	2.2848907
5.847707827870055	5.262032	2.293912
5.86525748945448	5.3834014	2.3202157
5.8828072887288485	5.617095	2.3700411
5.900357226108044	5.6872096	2.384787
5.917907302006979	5.7278657	2.393296
5.9354575168406	6.2105765	2.4921029
5.9530078710238765	6.7888236	2.6055372
5.970558364971812	7.3807254	2.716749
5.988108999099438	7.752973	2.7844162
6.005659773821818	8.34581	2.8889115
6.023210689554039	8.036663	2.8349009
6.040761746711227	8.336821	2.8873553
6.058312945708531	7.6031513	2.7573812
6.075864286961132	7.1170297	2.667776
6.093415770884244	6.5292473	2.5552392
6.1109673978931065	6.034452	2.4565122
6.128519168402993	5.481102	2.3411753
6.146071082829204	5.329486	2.308568
6.163623141587075	5.1920624	2.2786098
6.181175345091969	5.1544867	2.2703495
6.198727693759281	5.159506	2.2714546
6.216280188004435	5.191932	2.2785811
6.233832828242885	5.1987524	2.2800772
6.251385614890126	5.224398	2.2856941
6.268938548361669	5.201239	2.2806225
6.286491629073067	5.043526	2.2457798
6.304044857439898	4.9919415	2.2342653
6.321598233877777	4.9335876	2.221168
6.339151758802344	4.9097967	2.215806
6.356705432629277	4.863022	2.205226
6.37425925577428	4.8331923	2.1984522
6.391813228653095	4.9153996	2.21707
6.409367351681486	4.949187	2.2246768
6.426921625275259	4.9719625	2.2297897
6.44447604985025	4.9071555	2.21521
6.46203062582232	4.8479614	2.2018087
6.47958535360737	4.8411555	2.2002625
6.497140233621328	4.884804	2.2101593
6.514695266280161	4.902148	2.2140794
6.532250451999859	4.956059	2.2262208
6.549805791196454	4.9507117	2.2250195
6.567361284286002	4.9354534	2.2215881
6.584916931684597	4.91328	2.216592
6.602472733808367	4.867663	2.206278
6.6200286910734665	4.911908	2.2162826
6.637584803896092	4.91738	2.2175167
6.655141072692462	4.952969	2.2255268
6.672697497878842	4.8769164	2.2083743
6.690254079871514	4.7781553	2.1858993
6.707810819086808	4.7848506	2.1874301
6.725367715941078	4.8291106	2.1975238
6.742924770850719	4.898067	2.2131577
6.760481984232151	4.877504	2.208507
6.778039356501836	4.8464146	2.2014573
6.795596888076266	4.826924	2.1970263
6.813154579371963	4.790241	2.1886618
6.830712430805492	4.800213	2.1909387
6.84827044279344	4.8569384	2.2038462
6.865828615752445	4.9175057	2.217545
6.883386950099159	4.949645	2.2247798
6.900945446250287	4.939335	2.2224615
6.918504104622553	4.8898296	2.2112958
6.936062925632727	4.887844	2.210847
6.953621909697607	4.901854	2.214013
6.971181057234028	4.963719	2.2279406
6.988740368658859	5.0224175	2.241075
7.006299844389007	5.0425897	2.2455711
7.023859484841407	5.1322217	2.2654407
7.041419290433036	5.2182975	2.2843592
7.058979261580902	5.319254	2.3063507
7.0765393987020495	5.5248055	2.3504906
7.094099702213559	5.931275	2.435421
7.111660172532549	6.353911	2.5206964
7.129220810076164	6.731433	2.5945005
7.146781615261595	7.2601666	2.6944697
7.16434258850606	7.4731436	2.733705
7.181903730226821	7.8529434	2.8023105
7.1994650408411704	7.9923615	2.8270764
7.217026520766437	8.0654745	2.839978
7.234588170419983	8.38834	2.8962631
7.252149990219215	8.462132	2.9089744
7.269711980581568	8.355052	2.8905108
7.2872741419245175	8.092147	2.8446698
7.304836474665574	7.6352286	2.7631917
7.322398979222286	7.3753223	2.7157545
7.339961656012233	7.151076	2.6741495
7.357524505453039	6.7167797	2.591675
7.375087527962357	6.403407	2.5304954
7.392650723957886	6.0857606	2.4669335
7.410214093857353	5.7912107	2.4064934
7.427777638078528	5.6508565	2.377153
7.445341357039213	5.5033846	2.3459294
7.4629052511572525	5.4091187	2.3257513
7.480469320850524	5.244648	2.2901196
7.498033566536948	5.1177745	2.26225
7.5155979886344735	5.006396	2.2374976
7.5331625875610975	5.036972	2.24432
7.550727363734844	5.026573	2.242002
7.568292317573788	5.132913	2.2655933
7.585857449496025	5.0811424	2.254139
7.603422759919705	5.158626	2.271261
7.620988249263007	5.137854	2.2666836
7.638553917944147	5.17447	2.2747462
7.656119766381391	5.149466	2.2692435
7.673685794993023	5.134832	2.2660167
7.691252004197388	5.0466375	2.2464724
7.70881839441285	5.040067	2.2450094
7.726384966057826	5.0690646	2.2514584
7.743951719550762	5.139004	2.2669373
7.761518655310149	5.2342715	2.287853
7.779085773754511	5.3231897	2.3072038
7.796653075302419	5.3815107	2.3198082
7.814220560372475	5.398828	2.3235378
7.831788229383323	5.3552966	2.3141513
7.8493560827536495	5.2864156	2.2992206
7.866924120902174	5.232202	2.2874007
7.884492344247663	5.2238736	2.2855794
7.9020607532089135	5.1930676	2.2788303
7.919629348204771	5.2395124	2.2889981
7.937198129654115	5.3088837	2.3041015
7.954767097975865	5.3452997	2.3119905
7.972336253588986	5.294667	2.3010142
7.989905596912472	5.2642474	2.2943947
8.007475128365371	5.271009	2.295868
8.025044848366756	5.3532333	2.3137054
8.042614757335754	5.504	2.3460605
8.060184855691523	5.564563	2.3589325
8.07775514385327	5.6508255	2.3771465
8.095325622240228	5.642885	2.375476
8.112896291271687	5.7097545	2.3895092
8.130467151366968	5.864968	2.4217696
8.148038202945436	5.900581	2.4291112
8.165609446426497	5.9714355	2.4436522
8.183180882229594	6.038169	2.4572685
8.200752510774217	6.027332	2.4550624
8.218324332479893	6.0032554	2.450154
8.235896347766193	5.9252405	2.4341817
8.253468557052724	5.844817	2.4176056
8.27104096075914	5.784144	2.4050248
8.288613559305137	5.8851075	2.425924
8.306186353110448	5.96767	2.4428816
8.32375934259485	6.085229	2.4668257
8.341332528178162	6.098778	2.4695704
8.358905910280246	6.1360707	2.4771094
8.376479489321003	6.1672	2.4833848
8.394053265720377	6.2012753	2.490236
8.411627239898356	6.206382	2.491261
8.42920141227497	6.214461	2.492882
8.44677578327029	6.2244773	2.4948902
8.464350353304427	6.142564	2.4784195
8.48192512279754	6.137702	2.4774387
8.499500092169827	6.1131225	2.472473
8.51707526184153	6.172018	2.4843547
8.534650632232934	6.149347	2.4797876
8.552226203764365	6.141074	2.4781191
8.569801976856192	6.165574	2.4830575
8.587377951928834	6.214515	2.492893
8.60495412940274	6.217799	2.4935515
8.622530509698416	6.2424445	2.4984884
8.6401070932364	6.3477283	2.5194697
8.657683880437283	6.4277506	2.535301
8.675260871721695	6.569327	2.5630698
8.692838067510303	6.7181463	2.5919387
8.710415468223834	6.9675093	2.639604
8.727993074283043	7.1131396	2.667047
8.745570886108737	7.1287	2.6699624
8.763148904121765	7.0424953	2.65377
8.78072712874302	6.96649	2.639411
8.798305560393441	7.197539	2.682823
8.815884199494006	7.432924	2.7263389
8.833463046465745	7.643362	2.764663
8.851042101729728	7.784291	2.7900343
8.86862136570707	8.08079	2.842673
8.886200838818924	8.2631445	2.8745685
8.903780521486505	8.358053	2.8910298
8.921360414131055	8.458945	2.9084265
8.938940517173874	8.601038	2.9327526
8.956520831036297	8.636728	2.938831
8.97410135613971	8.83391	2.9721894
8.99168209290554	9.017002	3.0028324
9.009263041755265	9.334524	3.0552454
9.026844203110405	9.62021	3.1016462
9.044425577392525	9.720755	3.1178124
9.062007165023239	9.880974	3.1434016
9.079588966424197	10.163273	3.1879888
9.097170982017108	10.2397375	3.199959
9.11475321222372	11.236879	3.3521454
9.132335657465825	12.070474	3.4742587
9.149918318165264	12.1864395	3.4909081
9.167501194743924	12.924999	3.5951355
9.18508428762374	12.605916	3.550481
9.202667597226693	12.522551	3.5387216
9.220251123974803	12.178616	3.4897873
9.237834868290143	11.930654	3.4540777
9.255418830594836	11.724579	3.4241173
9.273003011311046	11.214803	3.348851
9.290587410860985	11.016071	3.3190467
9.308172029666911	10.3877535	3.2230039
9.32575686815113	10.125678	3.182087
9.343341926735997	8.727609	2.9542527
9.360927205843916	8.429297	2.9033253
9.378512705897327	8.211171	2.865514
9.396098427318728	7.979834	2.82486
9.413684370530664	7.898971	2.8105109
9.431270535955722	7.832344	2.7986326
9.448856924016539	7.756484	2.7850466
9.466443535135806	7.64373	2.7647297
9.484030369736251	7.6321697	2.762638
9.501617428240658	7.653811	2.7665522
9.519204711071852	7.6959004	2.7741487
9.536792218652714	7.7089076	2.7764919
9.55437995140617	7.7158012	2.777733
9.571967909755191	7.697032	2.7743526
9.589556094122802	7.7766423	2.7886631
9.60714450493207	7.8597383	2.8035226
9.624733142606116	7.9647393	2.822187
9.642322007568108	8.037478	2.8350446
9.659911100241267	8.046125	2.8365693
9.677500421048851	8.023688	2.8326116
9.695089970414175	8.010416	2.830268
9.712679748760609	7.961879	2.82168
9.730269756511557	7.9685245	2.8228574
9.747859994090492	7.985027	2.825779
9.765450461920915	8.100467	2.8461318
9.78304116042639	8.23868	2.87031
9.800632090030527	8.253688	2.8729231
9.81822325115699	8.225339	2.8679852
9.835814644229481	8.156294	2.8559227
9.853406269671762	8.213991	2.8660061
9.870998127907646	8.193159	2.8623695
9.888590219360985	8.19623	2.8629057
9.906182544455698	8.167475	2.8578794
9.923775103615734	8.22421	2.8677883
9.941367897265108	8.276577	2.876904
9.958960925827878	8.268127	2.875435
9.97655418972816	8.155505	2.8557844
9.994147689390106	8.178389	2.8597882
10.011741425237934	8.225749	2.8680568
10.029335397695904	8.271114	2.8759546
10.04692960718833	8.215453	2.8662612
10.06452405413958	8.170145	2.8583465
10.082118738974064	8.092313	2.8446991
10.099713662116246	8.095972	2.8453422
10.117308823990651	8.075607	2.8417614
10.134904225021844	8.128365	2.8510287
10.152499865634445	8.168715	2.8580964
10.170095746253125	8.181012	2.860247
10.18769186730261	8.188947	2.8616335
10.205288229207675	8.193235	2.862383
10.222884832393145	8.16599	2.8576195
10.2404816772839	8.094135	2.8450193
10.258078764304868	8.00704	2.8296714
10.275676093881035	8.003757	2.8290913
10.293273666437438	8.012746	2.8306794
10.310871482399158	8.127641	2.8509018
10.32846954219134	8.05817	2.8386917
10.346067846239173	8.081741	2.8428404
10.363666394967908	8.036278	2.834833
10.38126518880283	8.055434	2.8382096
10.398864228169298	8.109418	2.847704
10.416463513492713	8.131963	2.8516595
10.434063045198531	8.087981	2.8439376
10.451662823712262	8.023702	2.832614
10.469262849459467	8.024895	2.8328245
10.486863122865758	7.9944067	2.827438
10.504463644356806	8.045205	2.8364072
10.522064414358338	7.9553304	2.8205194
10.539665433296118	7.9763494	2.824243
10.557266701595987	7.8641176	2.8043034
10.574868219683818	7.717695	2.778074
10.592469987985552	7.5786424	2.7529335
10.610072006927185	7.473224	2.7337198
10.627674276934751	7.376502	2.7159717
10.64527679843435	7.284096	2.6989064
10.662879571852143	7.1851807	2.6805186
10.680482597614331	7.086059	2.6619654
10.698085876147173	6.954716	2.6371796
10.715689407876988	6.8932486	2.6254997
10.733293193230146	6.77184	2.6022758
10.750897232633072	6.7017517	2.5887742
10.76850152651225	6.622087	2.5733416
10.786106075294207	6.545305	2.5583794
10.803710879405534	6.4714346	2.5439014
10.821315939272877	6.3676977	2.5234299
10.83892125532294	6.238173	2.4976335
10.856526827982472	6.1525702	2.4804375
10.874132657678285	6.14795	2.479506
10.891738744837243	6.1818933	2.4863415
10.909345089886271	6.138804	2.477661
10.926951693252343	6.074135	2.464576
10.944558555362494	5.9959207	2.4486568
10.96216567664381	5.936816	2.4365582
10.979773057523436	5.878795	2.4246228
10.997380698428573	5.7897515	2.4061902
11.014988599786477	5.6728506	2.3817747
11.032596762024461	5.579911	2.3621836
11.050205185569892	5.527653	2.3510962
11.067813870850198	5.4454093	2.33354
11.085422818292859	5.3880405	2.3212154
11.10303202832541	5.301453	2.3024886
11.120641501375454	5.320505	2.306622
11.138251237870636	5.2706466	2.2957888
11.155861238238671	5.2194734	2.2846167
11.173471502907317	5.125848	2.2640336
11.191082032304402	5.079677	2.253814
11.208692826857805	5.023297	2.2412713
11.226303886995465	4.9624314	2.2276516
11.243915213145371	4.891947	2.2117746
11.261526805735578	4.9095187	2.2157433
11.279138665194196	4.856426	2.2037299
11.296750791949393	4.759438	2.1816137
11.314363186429393	4.6637125	2.159563
11.331975849062479	4.6180925	2.1489747
11.34958878027699	4.5674477	2.1371589
11.36720198050133	4.529971	2.128373
11.384815450163948	4.487399	2.1183481
11.402429189693366	4.4980288	2.1208556
11.420043199518153	4.4483294	2.1091063
11.437657480066942	63.391327	7.961867
11.455272031768422	85.11116	9.225571
11.472886855051353	107.5124	10.368818
11.490501950344528	99.14214	9.957015
11.508117318076819	84.47146	9.190836
11.52573295867715	45.864338	6.772321
11.543348872574514	4.1166787	2.02896
11.560965060197946	4.088587	2.0220253
11.57858152197655	4.0634546	2.0158012
11.59619825833949	4.060029	2.0149515
11.613815269715985	3.9985013	1.9996253
11.631432556535323	38.448597	6.200693
11.649050119226837	82.90687	9.105321
11.666667958219929	93.35596	9.662088
11.68428607394406	107.66394	10.376123
11.701904466828756	82.52952	9.084576
11.719523137303586	65.365	8.084863
11.737142085798196	4.587674	2.1418858
11.754761312742286	3.6636026	1.9140539
11.772380818565619	3.6635275	1.9140344
11.790000603698015	3.5993822	1.8972038
11.80762066856935	3.563488	1.8877203
11.825241013609572	3.5261302	1.8777993
11.842861639248683	3.4986596	1.8704704
11.860482545916748	3.4685214	1.8623967
11.878103734043883	3.4394946	1.8545874
11.895725204060282	3.395366	1.8426518
11.91334695639619	3.3561738	1.8319863
11.930968991481919	3.290064	1.8138534
11.948591309747824	3.272887	1.8091122
11.966213911624347	3.2782905	1.810605
11.98383679754198	3.305553	1.818118
12.001459967931268	3.2894266	1.8136777
12.019083423222835	3.2981164	1.8160717
12.036707163847352	3.3027163	1.8173376
12.05433119023556	3.329013	1.8245584
12.071955502818259	3.3060129	1.8182445
12.089580102026313	3.2353663	1.7987124
12.107204988290643	3.2044618	1.790101
12.12483016204224	3.1535985	1.7758374
12.142455623712152	3.1092203	1.7632982
12.16008137373149	3.0551758	1.7479061
12.177707412531431	3.0464828	1.7454177
12.19533374054321	3.04826	1.7459267
12.212960358198126	3.0407598	1.7437774
12.230587265927545	3.0186534	1.7374272
12.248214464162889	3.016278	1.7367436
12.265841953335649	2.9840753	1.7274476
12.283469733877375	2.9578166	1.7198304
12.301097806219685	2.9296935	1.7116348
12.31872617079425	2.8981235	1.7023876
12.336354828032825	2.8987377	1.7025679
12.353983778367205	2.8955164	1.7016217
12.371613022229262	2.891971	1.7005796
12.389242560050928	2.866659	1.6931211
12.406872392264201	2.8157346	1.6780151
12.424502519301143	2.7975917	1.6726003
12.442132941593874	2.8079824	1.6757035
12.459763659574586	2.8236663	1.6803769
12.477394673675532	2.8112047	1.6766647
12.49502598432903	2.7853296	1.6689306
12.51265759196746	2.7710617	1.6646506
12.530289497023267	2.7595453	1.6611879
12.547921699928967	2.7671018	1.6634607
12.565554201117134	2.7903616	1.6704376
12.583187001020404	2.7693906	1.6641486
12.600820100071486	2.7643237	1.6626256
12.618453498703152	2.7608154	1.6615702
12.636087197348235	2.7761447	1.6661767
12.65372119643964	2.7788339	1.6669835
12.671355496410326	2.785727	1.6690497
12.68899009769333	2.7705996	1.6645118
12.706625000721749	2.8002186	1.6733854
12.724260205928752	2.8587906	1.6907959
12.741895713747551	2.878009	1.6964695
12.759531524611454	2.949208	1.7173258
12.777167638953818	2.9393797	1.7144619
12.794804057208072	2.9668164	1.7224449
12.812440779807702	2.9718373	1.7239017
12.830077807186271	3.1313343	1.7695577
12.847715139777405	3.2020009	1.7894136
12.865352778014795	3.4182346	1.8488468
12.882990722332197	3.5283113	1.87838
12.90062897316344	3.6078608	1.899437
12.918267530942412	3.6815624	1.9187398
12.935906396103071	3.5498502	1.8841046
12.953545569079449	3.6850147	1.9196392
12.971185050305628	3.5101616	1.8735425
12.988824840215775	3.5260963	1.8777903
13.006464939244115	3.5612967	1.8871398
13.024105347824943	3.4261148	1.8509767
13.041746066392617	3.558176	1.8863128
13.05938709538157	3.3501346	1.8303373
13.077028435226296	3.3014987	1.8170027
13.094670086361363	3.176332	1.7822267
13.112312049221401	3.131038	1.7694739
13.129954324241112	3.081177	1.7553282
13.147596911855258	2.8673983	1.6933393
13.165239812498685	2.806968	1.6754009
13.182883026606293	2.719029	1.6489478
13.200526554613058	2.7015424	1.643637
13.218170396954017	2.6731348	1.6349725
13.235814554064284	2.6588118	1.6305864
13.253459026379034	2.6506174	1.6280717
13.271103814333523	2.6580977	1.6303674
13.288748918363058	2.685683	1.6388054
13.306394338903031	2.691112	1.640461
13.32404007638889	2.697046	1.6422685
13.341686131256164	2.7255445	1.6509223
13.359332503940449	2.7010126	1.6434758
13.376979194877402	2.6766343	1.6360422
13.394626204502751	2.69586	1.6419075
13.412273533252307	2.72796	1.6516538
13.429921181561937	2.7433848	1.6563166
13.447569149867581	2.736335	1.6541871
13.465217438605247	2.694668	1.6415445
13.482866048211022	2.6727085	1.634842
13.500514979121052	2.6752157	1.6356087
13.518164231771568	2.6485085	1.6274239
13.535813806598844	2.621216	1.619017
13.553463704039254	2.6052117	1.6140668
13.571113924529229	2.624744	1.6201061
13.588764468505275	2.6730313	1.6349407
13.606415336403956	2.701572	1.6436459
13.624066528661917	2.695469	1.6417884
13.641718045715882	2.7186959	1.6488469
13.659369888002635	2.7720788	1.6649561
13.67702205595903	2.85426	1.6894555
13.694674550021993	2.9765708	1.7252741
13.712327370628532	3.0480118	1.7458556
13.729980518215713	3.138304	1.7715259
13.747633993220681	3.2191634	1.7942027
13.765287796080647	3.266033	1.8072169
13.7829419272329	3.2987633	1.8162497
13.800596387114801	3.298358	1.8161381
13.818251176163775	3.2814865	1.8114873
13.835906294817324	3.315777	1.8209275
13.853561743513023	3.3507354	1.8305014
13.871217522688525	3.4086456	1.8462517
13.888873632781538	3.4399078	1.8546989
13.906530074229858	3.49816	1.8703369
13.92418684747135	3.5039442	1.8718826
13.941843952943948	3.498009	1.8702965
13.959501391085665	3.4328985	1.8528082
13.977159162334578	3.3568003	1.8321573
13.994817267128846	3.3091853	1.8191166
14.012475705906693	3.2247965	1.7957718
14.030134479106424	3.1893647	1.7858793
14.047793587166414	3.1383383	1.7715356
14.065453030525108	3.091504	1.7582674
14.083112809621026	2.9887297	1.7287943
14.100772924892766	2.9099667	1.7058624
14.118433376778997	2.8680804	1.6935408
14.136094165718458	2.813401	1.6773195
14.153755292149969	2.7541966	1.6595773
14.171416756512416	2.6765563	1.6360184
14.189078559244768	2.6235495	1.6197375
14.20674070078606	2.553044	1.5978248
14.224403181575408	2.5122013	1.5849925
14.242066002051999	2.5005224	1.581304
14.259729162655093	2.4988806	1.5807848
14.277392663824022	2.4499114	1.5652193
14.295056505998208	2.397843	1.548497
14.312720689617128	2.3535464	1.5341272
14.330385215120348	2.3961527	1.5479511
14.348050082947497	2.3886547	1.5455273
14.3657152935383	2.3912528	1.5463676
14.383380847332528	2.3863919	1.544795
14.401046744770051	2.399835	1.5491401
14.418712986290798	2.3636363	1.5374122
14.436379572334793	2.3249056	1.5247642
14.454046503342123	2.321684	1.5237073
14.471713779752946	2.3204792	1.5233119
14.489381402007504	2.3304374	1.526577
14.507049370546113	2.336912	1.5286962
14.524717685809168	2.3182926	1.5225941
14.542386348237134	2.3301387	1.5264791
14.560055358270553	2.3488452	1.5325943
14.577724716350051	2.4071918	1.5515127
14.595394422916325	2.44245	1.562834
14.61306447841015	2.4560213	1.5671698
14.63073488327237	2.4430773	1.5630347
14.648405637943917	2.4863381	1.5768126
14.6660767428658	2.4999151	1.581112
14.683748198479094	2.5555615	1.5986124
14.701420005224954	2.541325	1.5941534
14.719092163544628	2.5637863	1.6011828
14.73676467387942	2.5670555	1.6022034
14.754437536670727	2.5777168	1.6055269
14.772110752360014	2.6005037	1.6126077
14.78978432138882	2.5960038	1.6112119
14.807458244198777	2.6562524	1.6298013
14.82513252123159	2.641919	1.625398
14.842807152929028	2.669995	1.634012
14.860482139732962	2.6762755	1.6359326
14.87815748208531	2.681036	1.6373869
14.8958331804281	2.6753614	1.6356533
14.91350923520342	2.6268287	1.6207495
14.931185646853438	2.6400762	1.6248311
14.948862415820408	2.6205924	1.6188244
14.966539542546656	2.6633642	1.6319816
14.98421702747459	2.6430528	1.6257468
15.001894871046696	2.631992	1.6223415
15.019573073705542	2.6187654	1.61826
15.037251635893766	2.5805368	1.6064049
15.054930558054092	2.5836582	1.6073762
15.072609840629323	2.6013923	1.6128832
15.090289484062351	2.7228029	1.6500918
15.107969488796124	2.8856964	1.6987338
15.125649855273691	3.1063457	1.7624828
15.14333058393817	3.4681284	1.8622912
15.161011675232768	4.0013366	2.000334
15.17869312960076	4.5859194	2.141476
15.196374947485506	5.3367276	2.3101358
15.214057129330447	6.7378426	2.5957355
15.231739675579114	8.872736	2.9787138
15.249422586675102	13.431539	3.6649063
15.267105863062092	17.972078	4.239349
15.284789505183847	25.37993	5.03785
15.302473513484218	30.562088	5.528299
15.320157888407127	34.91978	5.909296
15.337842630396578	33.77836	5.8119154
15.355527739896656	30.796038	5.549418
15.37321321735153	23.956963	4.894585
15.39089906320545	16.23916	4.029784
15.408585277902748	10.413621	3.2270143
15.42627186188783	6.434877	2.536706
15.443958815605198	4.597268	2.144124
15.461646139499424	3.7273517	1.9306351
15.479333834015168	3.280006	1.8110787
15.497021899597165	2.981278	1.7266377
15.514710336690234	2.786108	1.6691638
15.53239914573928	2.6574316	1.6301631
15.550088327189297	2.5956097	1.6110896
15.567777881485336	2.5380883	1.5931379
15.58546780907256	2.5129282	1.5852219
15.6031581103962	2.4855576	1.5765651
15.620848785901568	2.4630055	1.5693965
15.638539836034063	2.4566202	1.5673609
15.656231261239173	2.4080896	1.551802
15.673923061962451	2.401382	1.5496393
15.691615238649552	2.4023805	1.5499614
15.709307791746202	2.4429154	1.5629829
15.727000721698221	2.4596677	1.5683328
15.744694028951498	2.4678156	1.5709282
15.76238771395202	2.4439814	1.5633239
15.780081777145844	2.430633	1.5590488
15.797776218979125	2.4162858	1.5544406
15.815471039898094	2.4464524	1.564114
15.833166240349064	2.4573078	1.5675802
15.850861820778437	2.4498672	1.5652052
15.868557781632699	2.4143953	1.5538324
15.886254123358412	2.418877	1.5552739
15.903950846402232	2.4411683	1.5624238
15.921647951210897	2.4718041	1.5721972
15.939345438231225	2.496827	1.5801351
15.957043307910133	2.4868262	1.5769674
15.974741560694602	2.4747248	1.5731258
15.992440197031714	2.457295	1.5675762
16.01013921736862	2.467946	1.5709698
16.02783862215259	2.464639	1.5699168
16.045538411830933	2.4643083	1.5698116
16.06323858685107	2.430063	1.5588659
16.080939147660512	2.4119127	1.5530334
16.09864009470684	2.3750613	1.5411234
16.11634142843774	2.387843	1.5452647
16.134043149300954	2.4236555	1.5568094
16.15174525774433	2.4687812	1.5712355
16.169447754215817	2.4729607	1.572565
16.18715063916342	2.4327419	1.5597249
16.204853913035244	2.403738	1.5503993
16.222557576279478	2.4213827	1.5560793
16.240261629344403	22.445414	4.737659
16.257966072678386	43.027924	6.5595675
16.275670906729868	38.172363	6.1783786
16.293376131947387	2.5700374	1.6031336
16.31108174877957	2.5526776	1.5977101
16.328787757675133	2.5480468	1.5962603
16.34649415908287	2.5622542	1.6007043
16.364200953451657	2.5641751	1.6013042
16.38190814123048	2.53733	1.5928998
16.39961572286839	2.5370286	1.5928053
16.41732369881455	2.5909317	1.6096371
16.43503206951817	2.7256796	1.6509632
16.45274083542859	2.770047	1.6643459
16.47044999699522	2.805992	1.6751095
16.488159554667558	2.8439348	1.686397
16.505869508895184	2.9004848	1.703081
16.523579860127786	2.9666128	1.7223858
16.541290608815117	3.0012503	1.7324117
16.559001755407035	3.050165	1.7464721
16.57671330035348	3.1159642	1.7652094
16.59442524410448	3.1995242	1.7887213
16.61213758711015	3.40695	1.8457925
16.629850329820705	3.4957712	1.8696982
16.647563472686436	3.5464988	1.8832151
16.665277016157724	3.478337	1.86503
16.682990960685053	3.4755642	1.8642865
16.70070530671898	3.4630673	1.8609319
16.718420054710155	3.4600348	1.8601168
16.736135205109335	3.4753625	1.8642324
16.753850758367335	3.473704	1.8637875
16.771566714935087	3.5471191	1.8833797
16.789283075263597	3.6471267	1.9097452
16.80699983980398	3.7525842	1.9371588
16.82471700900741	3.822445	1.9551075
16.84243458332518	3.8970363	1.9740913
16.860152563208665	4.0044255	2.001106
16.87787094910932	4.1113763	2.027653
16.89558974147871	4.1842732	2.0455496
16.913308940768466	4.2179904	2.0537746
16.931028547430333	4.2236648	2.0551558
16.94874856191613	4.2500496	2.061565
16.966468984677785	4.2967873	2.0728693
16.98418981616729	4.3670883	2.089758
17.00191105683676	4.4190946	2.1021643
17.019632707138374	4.4234357	2.1031966
17.03735476752442	4.468394	2.1138575
17.05507723844728	4.521439	2.1263676
17.072800120359403	4.607491	2.1465068
17.090523413713353	4.6151443	2.1482887
17.108247118961785	4.6295667	2.1516428
17.125971236557437	4.6423793	2.154618
17.143695766953133	4.683851	2.1642206
17.161420710601806	4.6561284	2.1578064
17.179146067956477	4.6049824	2.1459222
17.19687183947025	4.567041	2.1370635
17.21459802559634	4.588572	2.1420953
17.232324626788028	4.6217136	2.1498172
17.25005164349871	4.6483293	2.1559985
17.267779076181863	4.6359296	2.153121
17.285506925291074	4.5751925	2.13897
17.30323519127999	4.526358	2.127524
17.320963874602384	4.522472	2.1266105
17.33869297571211	4.481396	2.116931
17.356422495063114	4.482544	2.1172018
17.37415243310944	4.4567738	2.1111073
17.391882790305218	4.458495	2.1115148
17.40961356710468	4.4764624	2.115765
17.42734476396215	4.5215926	2.1264036
17.445076381332044	4.577336	2.1394708
17.462808419668868	4.644022	2.1549993
17.48054087942723	4.774864	2.1851463
17.498273761061835	4.8833084	2.209821
17.51600706502747	5.137267	2.266554
17.533740791779024	5.724724	2.3926394
17.551474941771485	6.6340785	2.5756705
17.56920951545993	8.571771	2.9277587
17.586944513299528	9.814862	3.132868
17.60467993574556	12.533815	3.540313
17.622415783253373	15.180651	3.8962355
17.64015205627843	18.06182	4.24992
17.657888755276293	20.619387	4.5408573
17.675625880702604	22.19127	4.710761
17.69336343301311	20.712568	4.5511065
17.71110141266366	18.60094	4.312881
17.728839820110178	15.889749	3.9861948
17.746578655808705	12.711636	3.5653381
17.764317920215372	10.512278	3.2422643
17.7820576137864	8.784113	2.9638004
17.79979773697811	7.4007697	2.7204356
17.81753829024692	6.040278	2.4576976
17.835279274049356	5.237341	2.2885237
17.85302068884201	4.490026	2.1189682
17.870762535081607	4.090656	2.022537
17.888504813224934	3.8986156	1.9744912
17.90624752372891	3.762783	1.9397894
17.923990667050536	3.651976	1.9110144
17.941734243646895	3.5631618	1.8876339
17.959478253975185	3.4646828	1.8613658
17.9772226984927	3.4396503	1.8546294
17.994967577656833	3.4104154	1.846731
18.01271289192506	3.400295	1.8439889
18.030458641754965	3.3892047	1.8409793
18.04820482760425	3.3372471	1.8268133
18.06595144993067	3.2879539	1.8132716
18.083698509192125	3.27029	1.8083943
18.101446005846576	3.2463262	1.8017564
18.119193940352105	3.1992934	1.7886568
18.136942313166887	3.154291	1.7760323
18.1546911247492	3.130607	1.7693521
18.1724403755574	3.1157122	1.765138
18.19019006604997	3.1045752	1.7619804
18.207940196685467	3.114159	1.764698
18.225690767922575	3.1006303	1.7608607
18.243441780220046	3.0664134	1.7511177
18.261193234036764	3.0143964	1.7362018
18.278945129831676	2.9852886	1.7277988
18.29669746806386	2.9882789	1.7286639
18.314450249192483	2.9998846	1.7320175
18.3322034736768	2.9789598	1.7259663
18.349957141976184	3.013718	1.7360063
18.3677112545501	3.0405264	1.7437105
18.385465811858108	3.0594082	1.7491164
18.403220814359884	3.0334868	1.7416908
18.420976262515172	3.0744452	1.7534096
18.43873215678387	3.0835156	1.7559942
18.456488497625923	3.0942836	1.7590576
18.474245285501407	3.1494124	1.7746584
18.492002520870486	3.2281752	1.7967123
18.50976020419343	3.3239217	1.8231626
18.527518335930615	3.6270819	1.9044899
18.545276916542516	4.1796975	2.044431
18.563035946489688	4.378962	2.092597
18.580795426232832	4.732751	2.1754887
18.598555356232698	4.6301594	2.1517806
18.616315736950185	4.8830624	2.2097652
18.63407656884626	4.624139	2.150381
18.65183785238201	4.83419	2.1986792
18.669599588018617	4.6290946	2.1515331
18.68736177621737	4.58143	2.1404276
18.705124417439652	4.575141	2.138958
18.72288751214696	4.4634447	2.1126866
18.740651060800886	4.5967264	2.1439977
18.758415063863115	4.301426	2.073988
18.77617952179546	4.419976	2.1023738
18.793944435059814	4.209075	2.051603
18.811709804118184	4.168536	2.0416994
18.829475629432675	4.109704	2.0272405
18.8472419114655	3.9205658	1.9800419
18.86500865067897	4.0106964	2.0026724
18.88277584753551	3.734666	1.9325284
18.90054350249763	3.7163415	1.9277815
18.918311616027957	3.4168327	1.8484677
18.936080188589226	3.2693946	1.8081467
18.953849220644265	2.9746268	1.7247106
18.971618712656007	2.823135	1.6802187
18.9893886650875	2.8102162	1.6763699
19.007159078401887	7.985382	2.825842
19.024929953062408	32.860786	5.732433
19.042701289532435	32.813145	5.728276
19.060473088275405	25.387547	5.0386057
19.07824534975489	2.633185	1.6227092
19.096018074434568	2.589828	1.6092943
19.113791262778197	2.5746179	1.6045616
19.13156491524966	2.6046188	1.6138831
19.149339032312945	2.6248388	1.6201354
19.167113614432136	2.5938315	1.6105376
19.184888662071433	2.5522523	1.597577
19.202664175695123	2.5353158	1.5922675
19.220440155767623	2.523985	1.5887054
19.238216602753447	2.5164993	1.5863478
19.2559935171172	2.5099523	1.5842829
19.27377089932361	2.5213048	1.5878618
19.291548749837514	2.5156384	1.5860764
19.309327069123835	2.533918	1.5918285
19.32710585764763	2.5199482	1.5874345
19.344885115874032	2.5249434	1.589007
19.362664844268313	2.5198982	1.5874187
19.380445043295822	2.5147061	1.5857825
19.39822571342203	2.5072727	1.583437
19.41600685511252	2.5554917	1.5985905
19.43378846883297	2.548728	1.5964736
19.451570555049173	2.521169	1.587819
19.469353114227037	2.5046737	1.5826161
19.48713614683254	2.4978852	1.58047
19.50491965333182	2.4928076	1.5788628
19.52270363419109	2.437373	1.5612088
19.540488089876686	2.4388118	1.5616696
19.55827302085503	2.4563973	1.5672898
19.576058427592674	2.5210068	1.5877678
19.593844310556282	2.5167005	1.5864112
19.611630670212598	2.495237	1.5796319
19.629417507028506	2.4597616	1.5683627
19.64720482147098	2.4511085	1.5656016
19.6649926140071	2.4510837	1.5655937
19.682780885104084	2.4715884	1.5721287
19.70056963522921	2.515619	1.5860703
19.718358864849908	2.5326653	1.591435
19.7361485744337	2.5221415	1.5881251
19.753938764448215	2.4913733	1.5784085
19.771729435361202	2.462262	1.5691596
19.789520587640506	2.4747057	1.5731198
19.807312221754092	2.4816906	1.5753382
19.825104338170043	2.5324013	1.591352
19.842896937356517	2.5290127	1.590287
19.860690019781824	2.5158322	1.5861375
19.87848358591436	2.4837468	1.5759907
19.896277636222635	2.4865038	1.5768652
19.914072171175278	2.5000212	1.5811455
19.931867191241015	2.4762309	1.5736045
19.94966269688869	2.456796	1.5674169
19.967458688587264	2.426822	1.557826
19.985255166805807	2.435836	1.5607165
20.00305213201348	2.450647	1.5654542
20.020849584679578	2.461443	1.5688987
20.038647525273507	2.4205432	1.5558095
20.05644595426477	2.411098	1.5527711
20.07424487212299	2.4290478	1.5585403
20.092044279317903	2.4419725	1.5626812
20.109844176319353	2.4588094	1.5680591
20.127644563597304	2.444105	1.5633633
20.145445441621817	2.466048	1.5703655
20.16324681086307	2.4316921	1.5593884
20.181048671791373	2.4224758	1.5564305
20.198851024877122	2.3876286	1.5451953
20.216653870590836	2.3985832	1.548736
20.234457209403146	2.4023206	1.5499421
20.252261041784802	2.3745122	1.5409452
20.270065368206662	2.3352833	1.5281633
20.287870189139685	2.3483715	1.5324397
20.305675505054968	2.3907955	1.5462197
20.323481316423702	2.397198	1.5482887
20.341287623717207	2.36048	1.5363854
20.359094427406884	2.33506	1.5280902
20.376901727964288	2.3246996	1.5246966
20.39470952586107	2.325393	1.5249239
20.41251782156899	2.3145983	1.5213804
20.430326615559935	2.320187	1.523216
20.448135908305886	2.3370743	1.5287492
20.465945700278965	2.366834	1.5384518
20.483755991951384	2.3695974	1.5393497
20.50156678379548	2.3325315	1.5272627
20.519378076283708	2.319603	1.5230243
20.537189869888635	2.348002	1.5323192
20.55500216508294	2.3412452	1.5301127
20.572814962339415	2.317529	1.5223433
20.59062826213098	2.289082	1.5129713
20.60844206493066	2.3014736	1.5170609
20.626256371211593	2.3219285	1.5237875
20.644071181447032	2.3260248	1.5251311
20.66188649611036	2.3140967	1.5212156
20.67970231567506	2.2915423	1.513784
20.697518640614742	2.2794912	1.5097984
20.715335471403122	2.2749846	1.5083052
20.73315280851404	2.2795346	1.5098127
20.750970652421447	2.2749474	1.5082929
20.768789003599412	2.2738605	1.5079325
20.786607862522136	2.2607813	1.5035895
20.8044272296639	2.2569993	1.5023313
20.82224710549913	2.2708488	1.5069336
20.84006749050237	2.2896764	1.5131677
20.857888385148268	3.818397	1.9540719
20.8757097899116	45.92326	6.7766705
20.893531705267254	64.801926	8.049964
20.911354131690224	83.82192	9.155432
20.92917706965566	69.09054	8.312072
20.94700051963877	50.146637	7.081429
20.96482448211493	29.403898	5.4225364
20.982648957559622	4.176616	2.043677
21.00047394644843	2.310946	1.5201796
21.01829944925707	2.3017108	1.5171391
21.036125466461375	2.251775	1.5005915
21.053951998537297	2.2378616	1.4959484
21.071779045960906	2.2169569	1.4889449
21.089606609208378	2.212995	1.4876139
21.10743468875603	2.1849458	1.4781562
21.12526328508028	2.167933	1.4723902
21.143092398657675	2.1746624	1.4746736
21.16092202996488	2.2046185	1.4847958
21.17875217947867	2.1897616	1.4797844
21.19658284767596	2.161727	1.4702812
21.21441403503377	2.136633	1.4617226
21.232245742029225	2.141521	1.4633937
21.2500779691396	2.14753	1.4654454
21.26791071684227	2.138559	1.4623814
21.28574398561475	2.1433887	1.4640317
21.30357777593465	2.1418896	1.4635196
21.321412088279704	2.150314	1.4663949
21.339246923127792	2.1459074	1.4648916
21.357082280956888	2.1843858	1.4779668
21.3749181622451	2.1911292	1.4802463
21.392754567470647	2.1592062	1.4694238
21.41059149711187	2.134525	1.4610014
21.42842895164726	2.1536758	1.4675407
21.446266931555378	2.1386423	1.4624097
21.464105437314945	2.1354847	1.4613298
21.481944469404798	2.1167095	1.4548916
21.49978402830388	2.0972235	1.4481794
21.51762411449127	2.0495646	1.43163
21.53546472844617	2.038394	1.4277234
21.553305870647876	2.0681841	1.4381182
21.571147541575865	2.0582473	1.4346594
21.58898974170967	2.0461972	1.4304535
21.60683247152899	2.036241	1.4269692
21.62467573151363	2.051548	1.4323226
21.642519522143523	2.0323615	1.4256091
21.660363843898722	2.0116434	1.4183241
21.6782086972594	2.0017426	1.4148295
21.696054082705864	1.9994977	1.4140359
21.713900000718535	2.0165274	1.4200449
21.73174645177795	2.007456	1.4168472
21.749593436364794	2.0049193	1.4159517
21.767440954959845	2.0007231	1.4144692
21.785289008044032	1.9962065	1.4128717
21.803137596098388	1.9873453	1.4097323
21.820986719604086	2.0010223	1.414575
21.838836379042412	2.0084474	1.417197
21.85668657489478	1.9841968	1.4086152
21.87453730764273	1.9730294	1.4046457
21.892388577767914	1.9676183	1.4027182
21.91024038575213	1.970556	1.403765
21.928092732077285	1.9652158	1.4018615
21.945945617225426	1.9942634	1.4121839
21.963799041678694	1.9924047	1.4115256
21.981653005919398	31.300465	5.5946817
21.999507510429943	78.08035	8.8363085
22.01736255569286	73.029144	8.545709
22.035218142190818	4.096638	2.0240154
22.05307427040661	1.9293888	1.3890244
22.07093094082315	1.9365128	1.3915864
22.088788153923474	1.9777113	1.4063113
22.106645910190746	2.0162528	1.4199481
22.12450421010827	2.0131943	1.4188708
22.142363054159464	1.9965997	1.4130108
22.16022244282787	1.9812598	1.4075723
22.178082376597164	1.9916008	1.4112408
22.195942855951145	2.0202534	1.4213562
22.213803881373742	2.029776	1.4247022
22.231665453349002	2.0223937	1.4221089
22.24952757236111	1.9825655	1.408036
22.26739023889438	1.9543643	1.3979858
22.28525345343323	1.9693946	1.4033512
22.30311721646225	2.002129	1.4149661
22.320981528466113	1.961098	1.400392
22.33884638992964	1.9139656	1.3834615
22.356711801337788	1.9296408	1.3891151
22.37457776317561	2.008686	1.4172813
22.392444275928337	1.9969817	1.413146
22.410311340081282	1.938923	1.3924521
22.428178956119904	1.9212	1.3860736
22.446047124529805	1.9502575	1.3965162
22.46391584579669	1.9779419	1.4063932
22.481785120406414	1.9846015	1.4087589
22.49965494884496	1.9829804	1.4081833
22.51752533159841	2.0145905	1.4193627
22.53539626915302	2.0268905	1.423689
22.553267761995137	1.9765402	1.4058948
22.571139810611264	1.9336599	1.390561
22.589012415488025	1.9575425	1.3991221
22.60688557711216	1.9717873	1.4042034
22.624759295970566	1.9601266	1.4000453
22.642633572550263	1.9475656	1.395552
22.660508407338362	1.9492264	1.396147
22.67838380082217	1.9614263	1.4005092
22.696259753489077	1.9657317	1.4020456
22.714136265826614	1.97879	1.4066948
22.73201333832246	1.9965922	1.4130082
22.74989097146439	1.9702806	1.4036669
22.76776916574035	1.9464592	1.3951557
22.785647921638393	1.9450557	1.3946526
22.803527239646712	1.9490106	1.3960696
22.82140712025363	1.9512659	1.3968772
22.839287563947593	1.9264132	1.3879529
22.85716857121719	1.9029602	1.3794782
22.875050142551135	1.8879002	1.3740088
22.892932278438277	1.9173301	1.3846769
22.910814979367604	1.9135612	1.3833153
22.928698245828222	1.8804697	1.3713021
22.946582078309387	1.8538456	1.36156
22.96446647730047	1.8583182	1.3632015
22.98235144329098	1.9022298	1.3792135
23.000236976770562	1.8812536	1.371588
23.018123078229	1.8846717	1.3728335
23.03600974815619	1.8666695	1.3662611
23.053896987042194	1.8959591	1.3769383
23.071784795377173	1.9187995	1.3852074
23.08967317365145	1.9389935	1.3924774
23.10756212235546	1.9435178	1.394101
23.125451641979787	1.9087089	1.3815603
23.143341733015134	1.8817614	1.3717731
23.161232395952357	1.8978333	1.3776187
23.179123631282426	1.9413923	1.3933386
23.197015439496468	1.9662294	1.402223
23.214907821085717	1.9841621	1.4086028
23.23280077654157	1.9812164	1.4075569
23.250694306355538	1.9860723	1.4092808
23.268588411019277	1.9303025	1.3893533
23.28648309102458	1.8884393	1.374205
23.304378346863356	1.8760196	1.3696786
23.322274179027676	1.8730325	1.3685877
23.340170588009723	1.9054852	1.3803931
23.358067574301852	1.917797	1.3848455
23.37596513839651	1.9462075	1.3950654
23.39386328078629	1.9147046	1.3837285
23.411762001963947	1.9108692	1.382342
23.429661302422353	1.8984165	1.3778304
23.4475611826545	1.9382833	1.3922224
23.46546164315356	1.9787837	1.4066925
23.48336268441279	1.956603	1.3987863
23.501264306925638	1.8859875	1.3733126
23.51916651118564	1.8123502	1.3462355
23.537069297686497	1.827424	1.3518225
23.554972666922037	1.8737693	1.3688569
23.57287661938623	1.8864968	1.373498
23.59078115557318	1.8719668	1.3681984
23.608686275977128	1.8407817	1.3567541
23.62659198109246	1.8265656	1.3515049
23.6444982714137	1.8774714	1.3702085
23.66240514743549	1.9327309	1.390227
23.68031260965263	1.9528697	1.3974512
23.698220658560068	1.9462615	1.3950847
23.716129294652845	1.9034618	1.37966
23.7340385184262	1.9047532	1.380128
23.75194833037546	1.8729795	1.3685684
23.769858730996123	1.9280536	1.3885437
23.78776972078382	1.9096004	1.3818829
23.80568130023431	1.9092039	1.3817395
23.823593469843495	1.9020704	1.3791556
23.841506230107424	1.9119979	1.3827502
23.859419581522275	1.89355	1.3760632
23.87733352458438	1.8635544	1.3651206
23.89524805979019	1.8478492	1.3593562
23.913163187636318	1.8487517	1.359688
23.931078908619508	1.909534	1.3818588
23.948995223236633	1.9465525	1.395189
23.966912131984735	1.9508737	1.3967369
23.98482963536096	2.0070705	1.4167112
24.002747733862616	2.025026	1.4230341
24.020666427987155	2.0586762	1.4348087
24.038585718232156	2.0650604	1.4370317
24.056505605095353	2.065266	1.4371033
24.074426089074617	2.0683637	1.4381807
24.092347170667946	2.004678	1.4158665
24.110268850373515	2.0353932	1.4266721
24.128191128689586	2.0462265	1.4304638
24.146114006114626	2.0519712	1.4324703
24.164037483147187	2.0613194	1.4357295
24.181961560286005	2.0487163	1.4313338
24.199886238029926	2.028942	1.4244094
24.21781151687797	2.0271983	1.4237971
24.235737397329274	2.028277	1.4241759
24.253663879883135	2.063473	1.4364793
24.271590965038975	2.0734766	1.4399571
24.289518653296376	2.0816677	1.4427985
24.30744694515505	2.05029	1.4318835
24.32537584111486	2.0543392	1.4332966
24.34330534167581	2.0141656	1.419213
24.361235447338046	2.0004556	1.4143746
24.379166158601876	1.9666268	1.4023647
24.39709747596772	1.9712034	1.4039955
24.41502939993615	1.955658	1.3984485
24.432961931007917	1.9527704	1.3974156
24.450895069683856	1.963936	1.401405
24.468828816465	2.0122168	1.4185263
24.4867631718525	2.043576	1.4295369
24.504698136347656	2.0499377	1.4317603
24.52263371045192	1.9834219	1.4083401
24.540569894666874	1.9597069	1.3998953
24.558506689494266	1.9530172	1.397504
24.57644409543597	1.9718798	1.4042364
24.594382112994012	1.9712843	1.4040244
24.61232074267057	1.9658784	1.4020978
24.630259984967953	1.952126	1.3971851
24.64819984038863	1.9495511	1.3962632
24.66614030943522	1.9525394	1.397333
24.684081392610462	1.9451475	1.3946855
24.702023090417274	1.9837819	1.4084679
24.7199654033587	2.023658	1.4225533
24.737908331937927	2.064974	1.4370017
24.755851876658305	2.0627947	1.4362433
24.773796038023324	2.0521498	1.4325327
24.79174081653661	2.0522637	1.4325724
24.809686212701962	2.0848503	1.4439011
24.827632227023294	2.0778918	1.4414895
24.8455788600047	2.0696115	1.4386145
24.8635261121504	2.0710514	1.4391148
24.88147398396475	2.0874825	1.4448123
24.899422475952303	2.0835578	1.4434534
24.917371588617698	2.072585	1.4396476
24.935321322465768	2.1147242	1.4542091
24.953271678001478	2.2489393	1.4996464
24.97122265572994	2.438562	1.5615896
24.989174256156414	2.793417	1.6713518
25.00712647978632	3.366363	1.8347651
25.02507932712521	4.3633933	2.0888736
25.043032798678798	5.902881	2.4295845
25.060986894952933	7.6243196	2.761217
25.078941616453637	9.190541	3.0315905
25.096896963687055	10.055538	3.171047
25.114852937159508	10.580898	3.2528293
25.132809537377444	10.295896	3.2087219
25.150766764847468	9.548688	3.090095
25.168724620076347	8.260353	2.874083
25.186683103570985	6.990906	2.644032
25.204642215838426	5.703279	2.3881538
25.222601957385894	4.5604887	2.13553
25.24056232872074	3.5553107	1.8855531
25.25852333035048	2.8169672	1.6783823
25.276484962782778	2.3671103	1.5385416
25.294447226525435	2.1762397	1.4752084
25.312410122086423	2.0593653	1.4350488
25.330373649973843	2.016286	1.4199598
25.348337810695988	2.0059564	1.4163179
25.366302604761245	1.9818997	1.4077996
25.384268032678207	1.9264479	1.3879653
25.40223409495558	1.8755126	1.3694936
25.420200792102257	1.8737286	1.3688421
25.438168124627246	1.8767303	1.369938
25.45613609303974	1.8764073	1.3698201
25.474104697849057	1.906206	1.3806542
25.492073939564698	1.9241862	1.3871504
25.510043818696285	1.9236978	1.3869743
25.528014335753614	1.8968332	1.3772557
25.54598549124664	1.8656298	1.3658806
25.56395728568544	1.8685231	1.3669393
25.58192971958028	1.8696668	1.3673576
25.59990279344156	1.8784176	1.3705537
25.617876507779833	1.8675642	1.3665885
25.635850863105826	1.8654714	1.3658226
25.653825859930386	1.8827072	1.3721178
25.671801498764548	1.9243733	1.3872178
25.68977778011949	1.9247948	1.3873698
25.707754704506524	1.8942529	1.3763186
25.725732272437153	1.8614053	1.3643333
25.743710484423012	1.843498	1.3577547
25.761689340975888	1.8445033	1.358125
25.77966884260774	1.8531336	1.3612984
25.797648989830662	1.8669416	1.3663607
25.815629783156922	1.8672736	1.3664821
25.83361122309895	1.8994964	1.3782222
25.85159331016929	1.8837732	1.3725061
25.869576044880695	1.8533785	1.3613884
25.887559427746034	1.8773187	1.3701528
25.90554345927836	1.8748688	1.3692585
25.92352813999086	1.8707243	1.3677442
25.94151347039689	1.8746605	1.3691825
25.959499451009965	1.8523307	1.3610035
25.97748608234374	1.837531	1.3555557
25.995473364912062	1.7982979	1.3410063
26.013461299228904	1.8241326	1.3506045
26.03144988580839	1.8383386	1.3558534
26.04943912516483	1.8557479	1.3622584
26.067429017812675	1.8206048	1.3492979
26.085419564266537	1.7928132	1.3389597
26.103410765041186	1.8319716	1.3535035
26.12140262065155	1.8873917	1.3738238
26.139395131612723	1.8661621	1.3660754
26.157388298439948	1.8062062	1.3439517
26.17538212164861	1.7600459	1.3266672
26.193376601754295	1.749963	1.3228617
26.211371739272714	1.7936187	1.3392605
26.229367534719746	1.8436996	1.357829
26.247363988611433	1.8632599	1.3650128
26.26536110146397	1.8706764	1.3677267
26.283358873793727	1.8386197	1.3559572
26.301357306117204	1.8117379	1.3460082
26.319356398951104	1.8151106	1.3472604
26.33735615281224	1.8399022	1.3564299
26.35535656821762	1.8260674	1.3513206
26.373357645684404	1.7891433	1.3375887
26.39135938572991	1.80476	1.3434136
26.409361788871614	1.8325844	1.3537298
26.427364855627165	1.8283236	1.3521552
26.445368586514352	1.821776	1.3497318
26.46337298205115	1.8326638	1.3537592
26.48137804275568	1.8186668	1.3485795
26.499383769146217	1.8549639	1.3619705
26.517390161741215	1.8678433	1.3666906
26.53539722105928	1.8803107	1.3712442
26.553404947619182	1.8154606	1.3473903
26.571413341939856	1.7727576	1.3314495
26.589422404540397	1.8090447	1.3450073
26.60743213594006	1.8699147	1.3674482
26.62544253665827	1.8896067	1.3746296
26.64345360721459	1.8574891	1.3628973
26.66146534812879	1.8357663	1.3549045
26.679477759920758	1.8392919	1.356205
26.69749084311057	1.798213	1.3409747
26.71550459821847	1.7934494	1.3391973
26.733519025764842	1.756849	1.3254619
26.751534126270258	1.7363602	1.3177102
26.769549900255434	1.7838693	1.3356156
26.787566348241267	1.7991894	1.3413386
26.80558347074881	1.8278416	1.351977
26.823601268299267	1.8256947	1.3511827
26.841619741414036	1.8133935	1.346623
26.85963889061465	1.7761054	1.3327061
26.877658716422832	1.8046005	1.3433542
26.89567921936045	1.8085787	1.3448341
26.913700399949544	1.809919	1.3453323
26.93172225871233	1.8279239	1.3520074
26.949744796171174	1.8410683	1.3568597
26.967768012848605	1.8641415	1.3653357
26.98579190926733	1.8929876	1.3758589
27.003816485950225	1.8954037	1.3767366
27.021841743420318	1.8722585	1.368305
27.039867682200814	1.8628545	1.3648642
27.057894302815072	1.8488245	1.3597149
27.07592160578664	1.8281667	1.3520972
27.0939495916392	1.8050165	1.3435091
27.111978260896635	1.8640316	1.3652954
27.13000761408296	1.9010606	1.3787895
27.148037651722397	1.8762373	1.3697581
27.166068374339304	1.842699	1.3574605
27.184099782458215	1.8494477	1.359944
27.20213187660384	1.9034822	1.3796674
27.22016465730105	1.8806728	1.3713763
27.23819812507487	1.8464184	1.3588297
27.256232280450533	1.8178943	1.3482931
27.274267123953383	1.7564709	1.3253192
27.292302656108987	1.7756821	1.3325472
27.31033887744306	1.7779119	1.3333837
27.32837578848146	1.8138252	1.3467833
27.34641338975026	1.8449391	1.3582853
27.364451681775673	1.8537604	1.3615286
27.382490665084074	1.8130574	1.3464983
27.400530340202046	1.831419	1.3532993
27.41857070765629	1.895216	1.3766685
27.436611767973726	1.8696952	1.367368
27.454653521681404	1.835821	1.3549247
27.472695969306564	1.8122212	1.3461876
27.490739111376627	1.7914859	1.338464
27.508782948419153	1.8121399	1.3461574
27.526827480961902	1.8318597	1.3534621
27.54487270953279	1.8346202	1.3544816
27.562918634659898	1.8146462	1.3470881
27.580965256871508	1.8288307	1.3523427
27.599012576696026	1.8149233	1.3471909
27.617060594662068	1.7756737	1.3325441
27.63510931129842	1.779459	1.3339636
27.65315872713401	1.7622988	1.3275161
27.67120884269797	1.83328	1.3539867
27.68925965851958	1.8678831	1.3667052
27.707311175128307	1.9006699	1.3786478
27.725363393053787	1.9014522	1.3789315
27.74341631282583	1.9199156	1.3856102
27.7614699349744	2.0075803	1.4168911
27.77952426002968	2.1625476	1.4705603
27.797579288521973	2.1695054	1.4729241
27.815635020981784	2.539228	1.5934955
27.83369145793979	2.6087723	1.6151694
27.85174859992682	2.4010684	1.5495381
27.869806447473923	2.2359934	1.4953239
27.887865001112267	1.9694449	1.4033691
27.905924261373233	1.8935786	1.3760736
27.92398422878836	1.9264139	1.3879532
27.94204490388936	1.9336933	1.390573
27.96010628720813	1.8950664	1.3766141
27.978168379276728	1.8392115	1.3561753
27.9962311806274	1.8222618	1.3499118
28.014294691792568	1.8299358	1.3527511
28.0323589133048	1.8852261	1.3730353
28.050423845696887	1.884672	1.3728336
28.068489489501758	1.8891743	1.3744724
28.086555845252523	1.8877466	1.3739529
28.104622913482487	1.8760916	1.369705
28.122690694725115	1.8748618	1.3692559
28.14075918951405	1.8880415	1.3740603
28.15882839838312	1.9119049	1.3827165
28.176898321866304	1.947859	1.3956572
28.1949689604978	1.9945182	1.4122741
28.213040314811945	1.9819157	1.4078053
28.23111238534327	1.9508876	1.3967417
28.249185172626493	1.9381223	1.3921646
28.267258677196473	1.9280305	1.3885354
28.285332899588294	1.9146457	1.3837072
28.303407840337172	1.9015013	1.3789494
28.321483499978545	1.9151998	1.3839074
28.33955987904799	1.9316856	1.389851
28.357636978081285	2.0198693	1.421221
28.37571479761439	2.0644166	1.4368078
28.393793338183425	2.0054705	1.4161464
28.41187260032469	2.0131226	1.4188455
28.429952584574686	2.0271752	1.423789
28.448033291470065	2.0063467	1.4164556
28.46611472154769	1.9792418	1.4068553
28.484196875344566	1.9545143	1.3980395
28.502279753397914	1.9488018	1.3959949
28.52036335624511	1.9897945	1.4106008
28.538447684423716	2.0268812	1.4236858
28.556532738471482	2.0670736	1.4377321
28.574618518926325	2.0918832	1.4463344
28.59270502632635	2.0445762	1.4298868
28.61079226120985	2.0250697	1.4230494
28.628880224115274	1.9663225	1.4022563
28.646968915581287	1.9869102	1.4095781
28.66505833614671	2.0660295	1.437369
28.68314848635055	2.1036851	1.4504086
28.701239366732004	2.062708	1.436213
28.71933097783044	2.061108	1.435656
28.737423320185403	2.1083477	1.452015
28.75551639433665	2.1418667	1.4635117
28.773610200824074	2.1613822	1.4701641
28.791704740187793	2.1952765	1.4816465
28.80980001296809	2.1471314	1.4653094
28.827896019705413	2.1249228	1.4577115
28.845992760940433	2.1712706	1.4735231
28.86409023721397	2.2161412	1.488671
28.88218844906704	2.218885	1.4895922
28.900287397040845	2.2503111	1.5001037
28.918387081676755	2.269175	1.5063782
28.936487503516343	2.286369	1.5120745
28.954588663101365	2.2529724	1.5009905
28.97269056097374	2.2451887	1.4983953
28.990793197675597	2.2859364	1.5119313
29.00889657374923	2.3233757	1.5242623
29.027000689737125	2.3042173	1.5179648
29.04510554618196	2.2758627	1.5085963
29.06321114362659	2.3456144	1.5315399
29.08131748261405	2.391308	1.5463855
29.099424563687567	2.4091678	1.5521494
29.11753238739057	2.5072486	1.5834293
29.13564095426663	2.5753083	1.6047767
29.15375026485954	2.605204	1.6140645
29.171860319713275	2.687643	1.6394032
29.18997111937199	2.706772	1.6452271
29.20808266438002	2.7065115	1.6451479
29.226194955281898	2.7679615	1.6637192
29.244307992622335	2.8927357	1.7008045
29.26242177694624	2.9000945	1.7029663
29.2805363087987	2.8770137	1.6961762
29.29865158872498	2.8871765	1.6991694
29.316767617270557	2.878564	1.6966331
29.334884394981064	2.9394546	1.7144837
29.353001922402367	3.0078375	1.7343118
29.37112020008047	3.0873706	1.7570915
29.389239228561596	3.1404111	1.7721205
29.407359008392152	3.3154533	1.8208386
29.42547954011872	3.650759	1.9106959
29.44360082428809	4.1658354	2.0410378
29.46172286144722	4.9187574	2.217827
29.479845652143283	6.513047	2.5520673
29.497969196923606	9.254072	3.0420506
29.516093496335728	13.237634	3.638356
29.5342185509274	16.973066	4.119838
29.55234436124651	20.12687	4.486298
29.570470927841175	21.550362	4.6422367
29.588598251259686	21.37013	4.6227837
29.60672633205055	19.719913	4.440711
29.624855170762405	16.549343	4.0680885
29.642984767944146	13.050406	3.6125345
29.66111512414481	9.779465	3.1272135
29.67924623991366	7.2739553	2.6970272
29.697378115800138	5.3472214	2.312406
29.71551075235387	4.266504	2.0655518
29.733644150124675	3.8212407	1.9547994
29.751778309662576	3.645071	1.9092069
29.769913231517766	3.517731	1.8755615
29.78804891624066	3.4513066	1.8577693
29.806185364381818	3.4012606	1.8442507
29.82432257649206	3.3964014	1.8429328
29.842460553122333	3.421553	1.849744
29.86059929482382	3.4499886	1.8574145
29.878738802147872	3.3323145	1.8254628
29.896879075646048	3.2941675	1.8149842
29.915020115870114	3.2752473	1.8097644
29.933161923371976	3.257099	1.8047434
29.951304498703777	3.213462	1.7926131
29.969447842417857	3.2715855	1.8087524
29.987591955066733	3.280396	1.8111863
30.005736837203123	3.275391	1.8098042
30.023882489379943	3.2343178	1.7984209
30.04202891215028	3.2548726	1.8041265
30.060176106067455	3.2870457	1.8130212
30.078324071684946	3.199362	1.788676
30.09647280955646	3.1897008	1.7859733
30.114622320235863	3.244816	1.8013372
30.132772604277257	3.2520049	1.8033316
30.1509236622349	3.1956003	1.7876242
30.16907549466328	3.190839	1.786292
30.18722810211705	3.241649	1.800458
30.205381485151097	3.195832	1.787689
30.22353564432045	3.0540557	1.7475857
30.241690580180403	3.000252	1.7321236
30.25984629328638	3.0481243	1.7458879
30.278002784194037	3.0772839	1.7542188
30.296160053459246	3.0004404	1.732178
30.314318101638033	2.937832	1.7140105
30.332476929286646	2.9798052	1.7262112
30.35063653696153	3.0058703	1.7337446
30.368796925219307	2.9070294	1.7050012
30.386958094616844	2.930049	1.7117386
30.40512004571115	2.917574	1.7080908
30.423282779059463	2.8343198	1.6835438
30.441446295219233	2.8217018	1.6797922
30.459610594748067	2.8388479	1.6848881
30.47777567820382	2.8757772	1.6958116
30.495941546144504	2.827768	1.6815969
30.51410819912835	2.8107586	1.6765317
30.532275637713795	2.8561876	1.6900259
30.55044386245946	2.8714905	1.6945473
30.56861287392416	2.82649	1.6812168
30.586782672666956	2.7586536	1.6609195
30.604953259247047	2.7782764	1.6668162
30.623124634223885	2.773537	1.665394
30.641296798157075	2.7183774	1.6487502
30.659469751606462	2.7656543	1.6630256
30.677643495132074	2.8309827	1.6825525
30.695818029294152	2.837648	1.6845319
30.713993354653116	2.8574445	1.6903977
30.73216947176962	2.8133724	1.6773111
30.75034638120448	2.7339704	1.6534722
30.768524083518756	2.715486	1.6478732
30.786702579273673	2.7667742	1.6633623
30.80488186903069	2.900318	1.703032
30.82306195335144	3.1097271	1.7634418
30.841242832797782	3.3589478	1.8327433
30.85942450793176	3.681224	1.9186516
30.877606979315637	3.9830496	1.9957579
30.895790247511883	4.310284	2.0761223
30.913974313083134	4.79114	2.1888673
30.932159176592283	5.195474	2.2793584
30.95034483860237	5.489741	2.3430195
30.968531299676698	5.511362	2.347629
30.98671856037873	5.16385	2.2724106
31.00490662127215	4.73393	2.1757596
31.023095482920848	4.3379326	2.0827703
31.04128514588892	3.8865438	1.9714319
31.059475610740662	3.3501472	1.8303407
31.07766687804056	2.841787	1.6857601
31.09585894835335	2.6020043	1.613073
31.11405182224393	2.4985254	1.5806725
31.132245500277417	2.5112948	1.5847065
31.15043998301914	2.5253413	1.5891322
31.168635271034628	2.5046713	1.5826154
31.18683136488964	2.4272263	1.5579559
31.20502826515008	2.4159927	1.5543464
31.223225972382135	2.4963264	1.5799767
31.241424487152155	2.4524891	1.5660425
31.259623810026692	2.3607547	1.5364748
31.27782394157253	2.373578	1.5406421
31.296024882356644	2.3620877	1.5369085
31.314226632946237	2.372417	1.5402652
31.332429193908684	2.4478586	1.5645634
31.350632565811598	2.5455225	1.5954694
31.368836749222787	2.4515421	1.5657401
31.387041744710295	2.4873173	1.5771232
31.40524755284232	2.603484	1.6135315
31.423454174187317	2.6884668	1.6396545
31.441661609313922	2.6727204	1.6348457
31.459869858791002	2.5466764	1.5958309
31.478078923187628	2.3882842	1.5454074
31.496288803073064	2.3202128	1.5232245
31.514499499016807	2.3023784	1.517359
31.532711011588546	2.3055778	1.518413
31.550923341358178	2.3467252	1.5319024
31.56913648889584	2.3744435	1.540923
31.587350454771844	2.4238627	1.556876
31.605565239556732	2.4348674	1.5604062
31.62378084382127	2.3804886	1.5428833
31.641997268136382	2.2990375	1.5162578
31.660214513073274	2.3241901	1.5245295
31.67843257920331	2.3060858	1.5185802
31.6966514670981	2.310666	1.5200875
31.71487117732944	2.3514183	1.5334334
31.733091710469346	2.35913	1.5359459
31.751313067090052	2.3446414	1.5312222
31.769535247764008	2.3168108	1.5221074
31.787758253063878	2.2713346	1.5070947
31.805982083562526	2.2713168	1.5070888
31.824206739833024	2.2917635	1.5138571
31.84243222244869	2.3443754	1.5311353
31.860658531983013	2.3223755	1.5239342
31.878885669009737	2.3274677	1.525604
31.897113634102784	2.3620417	1.5368935
31.91534242783632	2.335047	1.5280861
31.933572050784694	2.289489	1.5131058
31.951802503522508	2.2329032	1.4942902
31.970033786624548	2.1673496	1.472192
31.988265900665834	2.2037292	1.4844962
32.006498846221575	2.247345	1.4991148
32.02473262386724	2.2713506	1.5071001
32.04296723417845	2.3230176	1.5241449
32.0612026777311	2.2875276	1.5124575
32.07943895510129	2.202175	1.4839727
32.097676066865304	2.1743636	1.4745723
32.115914013599685	2.2176645	1.4891825
32.13415279588115	2.1979914	1.4825624
32.152392414286666	2.236183	1.4953872
32.1706328693934	2.284553	1.5114738
32.18887416177875	2.2430818	1.4976921
32.20711629202032	2.1270769	1.4584502
32.225359260695924	2.0778003	1.4414577
32.243603068383614	2.1518953	1.466934
32.26184771566166	2.1750906	1.4748188
32.28009320310852	2.198016	1.4825708
32.2983395313029	2.1797438	1.4763955
32.31658670082372	2.1204667	1.4561822
32.33483471225012	2.0662272	1.4374378
32.35308356616143	2.0997763	1.4490604
32.371333263137245	2.0870326	1.4446566
32.38958380375734	2.0435905	1.4295421
32.407835188601744	2.0678923	1.4380168
32.42608741825067	2.1537035	1.4675502
32.444340493284585	2.1837194	1.4777414
32.46259441428416	2.1251216	1.4577796
32.48084918183028	1.9852108	1.4089751
32.49910479650405	2.0434024	1.4294763
32.51736125888683	2.083117	1.4433007
32.53561856956014	2.0833824	1.4433926
32.5538767291058	2.0279243	1.4240521
32.572135738105764	2.0488243	1.4313715
32.59039559714228	2.0082366	1.4171227
32.608656306797776	2.028808	1.4243623
32.62691786765491	2.1036744	1.4504049
32.645180280296586	2.141035	1.4632276
32.663443545305896	2.0461514	1.4304374
32.68170766326619	2.0380683	1.4276093
32.69997263476099	2.0844147	1.4437503
32.7182384603741	2.0400486	1.4283026
32.7365051406895	1.9710736	1.4039493
32.75477267629144	1.9811852	1.4075458
32.77304106776434	2.0236306	1.4225438
32.79131031569289	2.0407565	1.4285505
32.809580420661966	1.9712023	1.4039952
32.827851383256714	1.9153907	1.3839765
32.84612320406245	2.0038495	1.415574
32.86439588366476	2.127346	1.4585425
32.88266942264945	2.047101	1.4307693
32.9009438216025	1.9951905	1.4125122
32.9192190811102	1.9791952	1.4068388
32.937495201758985	2.0528002	1.4327596
32.95577218413556	2.0559444	1.4338565
32.974050028826866	1.9605054	1.4001805
32.992328736420035	1.9418216	1.3934926
33.010608307502444	2.0202334	1.4213492
33.02888874266169	2.024143	1.4227238
33.047170042485604	1.9782919	1.4065176
33.06545220756225	1.9820194	1.4078422
33.083735238479896	1.9222987	1.3864698
33.10201913582707	1.8943685	1.3763607
33.12030390019248	1.9659978	1.4021405
33.138589532165135	2.0166473	1.4200871
33.15687603233419	1.9590534	1.3996619
33.17516340128909	1.8702635	1.3675758
33.19345163961947	1.9028089	1.3794234
33.211740747915215	2.0070522	1.4167047
33.23003072676643	2.034862	1.4264859
33.248321576763466	1.984294	1.4086497
33.266613298496885	1.9561685	1.398631
33.28490589255747	1.9072711	1.3810399
33.30319935953626	1.8884565	1.3742112
33.32149370002451	1.8725469	1.3684103
33.339788914613706	1.8218899	1.349774
33.358085003895575	1.9305651	1.3894478
33.376381968462034	2.056733	1.4341314
33.39467980890529	2.0598137	1.4352051
33.41297852581774	2.0112364	1.4181807
33.43127811979204	1.964748	1.4016947
33.44957859142105	1.9591917	1.3997113
33.467879941297866	2.0258427	1.423321
33.486182170015844	2.021322	1.4217321
33.50448527816853	1.88373	1.3724904
33.522789266349754	1.8473557	1.3591746
33.541094135153514	1.8751873	1.3693748
33.55939988517411	1.9445316	1.3944646
33.57770651700602	2.0564952	1.4340485
33.59601403124398	2.0723839	1.4395777
33.61432242848296	1.9586164	1.3995057
33.632631709318154	1.9498435	1.396368
33.650941874344994	1.9551834	1.3982787
33.66925292415916	1.8167161	1.347856
33.68756485935654	1.690008	1.300003
33.70587768053328	1.8105868	1.3455805
33.724191388285746	1.9390217	1.3924876
33.74250598321054	1.9723543	1.4044054
33.760821465904506	1.9126624	1.3829904
33.77913783696474	1.9576257	1.3991518
33.79745509698852	2.0927007	1.446617
33.815773246573414	2.10152	1.4496621
33.8340922863172	1.9647248	1.4016864
33.852412216817896	1.9026135	1.3793526
33.87073303867377	1.9182779	1.3850191
33.889054752483304	1.965566	1.4019865
33.907377358845245	1.9686649	1.4030912
33.92570085835853	2.058483	1.4347414
33.94402525162239	2.0701196	1.438791
33.96235053923627	1.9854594	1.4090633
33.980676721799824	1.9114661	1.3825579
33.999003799912984	1.9504998	1.396603
34.01733177417592	2.001976	1.414912
34.03566064518901	2.0327957	1.4257615
34.0539904135529	1.9415457	1.3933936
34.07232107986846	1.9186119	1.3851397
34.090652644736785	1.9587126	1.3995402
34.108985108759235	2.0749295	1.4404615
34.12731847253742	2.1875782	1.4790463
34.14565273667313	2.1283922	1.458901
34.16398790176847	1.995252	1.4125339
34.18232396842574	1.9289049	1.3888502
34.20066093724749	1.9195638	1.3854833
34.21899880883651	1.8891832	1.3744756
34.23733758379583	1.9414628	1.3933638
34.25567726272874	1.9238713	1.3870369
34.27401784623872	1.943134	1.3939633
34.29235933492957	1.9473996	1.3954926
34.31070172940526	1.9855076	1.4090804
34.32904503027003	2.0023057	1.4150286
34.347389238128386	1.9989163	1.4138304
34.36573435358502	1.899675	1.378287
34.38408037724492	1.9427515	1.3938262
34.402427309713296	2.0531735	1.4328899
34.42077515159559	2.0789783	1.4418663
34.43912390349752	2.0620024	1.4359674
34.45747356602499	2.1020644	1.4498497
34.47582413978423	2.088941	1.4453169
34.49417562538163	2.0884838	1.4451587
34.51252802342388	2.050568	1.4319805
34.53088133451789	2.032691	1.4257247
34.54923555927084	2.0778646	1.44148
34.567590698290104	1.975103	1.4053836
34.58594675218336	1.8231596	1.3502443
34.6043037215585	1.8822479	1.3719504
34.62266160702365	1.9144468	1.3836354
34.641020409187234	1.8185253	1.3485271
34.65938012865785	1.8375046	1.3555459
34.677740766044394	1.7634075	1.3279335
34.69610232195598	1.7068259	1.3064555
34.714464797002016	1.9224958	1.386541
34.73282819179208	2.062146	1.4360174
34.751192506936064	1.904118	1.3798978
34.76955774304408	1.9092984	1.3817736
34.7879239007265	1.8037366	1.3430326
34.80629098059391	1.8559232	1.3623227
34.824658983257194	1.8768389	1.3699777
34.843027909327446	1.8674977	1.3665642
34.86139775941603	1.968311	1.4029651
34.879768534134534	1.969815	1.403501
34.89814023409483	1.7502266	1.3229613
34.91651285990901	1.9536333	1.3977244
34.93488641218944	2.1303852	1.4595839
34.95326089154871	2.2076883	1.4858291
34.97163629859967	2.1609783	1.4700266
34.99001263395542	2.0085647	1.4172384
35.00838989822934	1.9649737	1.4017752
35.02676809203499	1.993456	1.411898
35.04514721598624	1.9428146	1.3938489
35.063527270697215	2.1700118	1.473096
35.081908256782256	2.1762764	1.4752208
35.10029017485597	1.9201548	1.3856965
35.11867302553321	1.6435086	1.281994
35.137056809429104	1.6956253	1.3021618
35.155441527159006	1.8813517	1.3716238
35.173827179338524	2.0288892	1.4243908
35.19221376658354	2.0910964	1.4460623
35.21060128951017	2.1988804	1.4828622
35.2289897487348	2.186252	1.478598
35.24737914487405	2.043448	1.4294922
35.26576947854479	1.903747	1.3797634
35.28416075036418	2.0777066	1.4414252
35.30255296094958	2.3353214	1.5281758
35.32094611091867	2.2569766	1.5023237
35.33934020088932	1.8893758	1.3745457
35.35773523147969	1.9841199	1.4085879
35.3761312033082	2.1998556	1.483191
35.394528116993506	2.0845587	1.4438001
35.41292597315452	2.3253293	1.524903
35.431324772410434	2.2300882	1.493348
35.449724515380666	2.1025605	1.4500209
35.46812520268491	2.1469064	1.4652325
35.486526834943106	2.2585843	1.5028586
35.504929412775454	2.324449	1.5246145
35.52333293680242	2.2402515	1.496747
35.54173740764471	2.598511	1.6119897
35.560142825923286	2.5763035	1.6050868
35.5785491922594	1.4964415	1.2232913
35.59695650727454	0.6774611	0.82308024
35.61536477159042	0.42420965	0.6513138
