0.008763373481513119	0.0	0.0
0.026290120649546365	0.0	0.0
0.043816868432600686	0.059373353	0.24366648
0.06134361724069026	0.18436494	0.42937738
0.07887036748382949	0.15258943	0.39062697
0.0963971195720331	0.17582525	0.41931522
0.11392387391531617	0.15718111	0.39646074
0.1314506309236943	0.16217363	0.40270787
0.1489773910071836	0.13161111	0.36278245
0.16650415457580078	0.09228141	0.30377856
0.18403092203956356	0.06476897	0.2544975
0.20155769380849	0.12159591	0.34870607
0.2190844702925996	0.18573694	0.4309721
0.2366112519019124	0.20440309	0.4521096
0.2541380390464497	0.21792816	0.46682775
0.27166483213623416	0.20692411	0.45488912
0.28919163158128947	0.1570526	0.39629865
0.3067184377916406	0.1475664	0.3841437
0.324245251177314	0.15506072	0.39377752
0.34177207214833777	0.19816199	0.4451539
0.3592989011147415	0.18535003	0.43052298
0.37682573848655654	0.17294009	0.41586065
0.39435258467381573	0.14099272	0.37548998
0.41187944008655414	0.15901898	0.39877185
0.42940630513480854	0.13681686	0.36988762
0.446933180228618	0.14550115	0.38144612
0.4644600657780234	0.12741905	0.35695806
0.48198696219306775	0.14080194	0.37523586
0.49951386988379676	0.15713234	0.39639923
0.5170407892602581	0.15102045	0.3886135
0.5345677207325025	0.118158534	0.34374195
0.5520946647105822	0.10812812	0.32882842
0.5696216216045534	0.17261527	0.41546994
0.5871485918244737	0.20542495	0.45323828
0.6046755757804043	0.24068224	0.49059376
0.6222025738824094	0.20431341	0.45201042
0.6397295865405557	0.21860395	0.46755102
0.6572566141649129	0.18715099	0.4326095
0.6747836571655547	0.16562203	0.40696687
0.6923107159525568	0.1324832	0.3639824
0.7098377909359992	0.13215454	0.36353067
0.7273648825259653	0.15982768	0.39978454
0.7448919911325411	0.14657575	0.38285214
0.762419117165817	0.19558063	0.44224498
0.7799462610358868	0.20926127	0.45745084
0.7974734231528482	0.22845909	0.47797394
0.8150006039268024	0.24277936	0.49272645
0.8325278037678551	0.19055942	0.43653113
0.8500550230861152	0.18628134	0.43160322
0.8675822622916969	0.20574212	0.45358804
0.8851095217947171	0.21042377	0.4587197
0.9026368020052984	0.20110482	0.4484471
0.9201641033335665	0.18553086	0.43073294
0.9376914261896523	0.22790727	0.47739634
0.9552187709836915	0.28743225	0.5361271
0.9727461381258234	0.31823394	0.56412226
0.990273528026193	0.3316298	0.5758731
1.0078009410949496	0.29321843	0.54149646
1.0253283777422473	0.3093415	0.55618477
1.0428558383782454	0.3428866	0.5855652
1.0603833234131086	0.33137208	0.57564926
1.0779108332570058	0.35888463	0.59906983
1.0954383683201119	0.34440342	0.5868589
1.112965929012607	0.40012243	0.6325523
1.1304935157446763	0.53792614	0.7334345
1.1480211289265108	0.58208036	0.7629419
1.1655487689683062	1.4256668	1.1940129
1.1830764362802655	1.6657025	1.2906209
1.200604131272596	2.0390162	1.4279412
1.2181318543555117	2.4745297	1.5730639
1.235659605939232	2.5555363	1.5986044
1.253187386433982	4.097464	2.0242193
1.270715196249994	6.3501377	2.519948
1.2882430357975057	11.952098	3.4571807
1.3057709054867608	17.039263	4.1278644
1.3232988057280106	22.839321	4.7790504
1.3408267369315112	27.737587	5.266649
1.358354699507526	31.011145	5.568765
1.3758826938663256	35.23153	5.9356155
1.3934107204181858	37.49652	6.1234403
1.410938779573391	37.82999	6.150609
1.4284668717422309	38.254135	6.184993
1.4459949973350033	37.60749	6.1324944
1.4635231567620117	37.431736	6.118148
1.4810513504335687	36.57944	6.048094
1.4985795787599925	35.69313	5.974373
1.5161078421516088	35.167084	5.930184
1.5336361410187505	34.56244	5.878983
1.5511644757717598	34.710205	5.8915367
1.5686928468209842	35.29148	5.9406633
1.58622125457678	36.101337	6.008439
1.6037496994495108	37.578037	6.1300926
1.621278181849548	37.58372	6.1305566
1.6388067021872719	38.246624	6.1843853
1.6563352608730693	37.37298	6.113344
1.673863858317336	36.166355	6.013847
1.6913924949304753	35.219	5.93456
1.7089211711228998	34.502693	5.8738995
1.7264498873050296	34.04488	5.834799
1.7439786438872935	33.07338	5.750946
1.7615074412801288	31.941622	5.651692
1.779036279893981	31.212648	5.586828
1.796565160139305	30.18201	5.493816
1.814094082426564	29.678978	5.4478416
1.8316230471662298	28.641333	5.35176
1.849152054768784	27.85565	5.2778454
1.8666811056447168	27.501928	5.244228
1.8842102002045273	26.931145	5.1895227
1.901739338858724	26.317003	5.13001
1.9192685220178245	25.38749	5.0386
1.9367977500923557	24.697485	4.9696565
1.9543270234928547	24.323685	4.931905
1.971856342629867	23.899063	4.8886666
1.9893857079139496	23.536097	4.8514013
2.006915119755667	22.74691	4.769372
2.0244445785655945	22.147556	4.706119
2.0419740847543175	21.589682	4.6464696
2.0595036387324317	21.363237	4.6220384
2.0770332409105414	20.980307	4.5804267
2.094562891699263	20.695574	4.5492387
2.1120925915092217	20.175472	4.4917116
2.129622340751053	19.691193	4.437476
2.1471521398354043	187.9449	13.7093
2.1646819891729323	444.41693	21.081198
2.182211889174303	440.68533	20.992506
2.1997418402501974	452.8196	21.279558
2.2172718428113023	432.62677	20.799683
2.234801897268317	320.47098	17.901703
2.2523320040319548	16.94267	4.1161475
2.269862163512935	16.887342	4.1094213
2.287392376121992	16.61958	4.0767117
2.304922642269869	16.415009	4.051544
2.322452962367322	15.973423	3.9966764
2.3399833368251164	15.60411	3.9502037
2.357513766054032	15.312812	3.913159
2.3750442504648586	15.058011	3.8804653
2.3925747904683963	14.7504425	3.8406305
2.410105386475459	14.574808	3.8176968
2.4276360388968707	14.291091	3.780356
2.445166748143469	13.962908	3.7366974
2.4626975146261025	13.624857	3.6911864
2.4802283387556323	13.353391	3.6542292
2.4977592209429305	13.29461	3.6461775
2.5152901615988825	13.043427	3.6115685
2.5328211611343865	12.820435	3.5805635
2.5503522199603523	12.618092	3.5521953
2.5678833384877024	12.450559	3.528535
2.5854145171273712	12.144835	3.484944
2.6029457562903064	12.058646	3.472556
2.620477056387469	11.732913	3.425334
2.6380084178298326	11.640832	3.4118664
2.655539841028383	11.3784275	3.3731925
2.673071326394119	11.398103	3.3761077
2.6906028743380523	11.241051	3.3527677
2.708134485271211	11.2410345	3.3527653
2.7256661596046325	11.1295185	3.3360932
2.743197897749369	10.965618	3.3114374
2.760729700116486	10.8176	3.289012
2.778261567117063	10.5911	3.254397
2.795793499162193	10.365789	3.2195947
2.8133254966629817	10.238931	3.199833
2.830857560030551	10.0059395	3.1632166
2.8483896896760337	9.876047	3.142618
2.865921886010578	9.577666	3.0947804
2.883454149445347	9.415249	3.0684278
2.9009864803915177	9.249105	3.0412343
2.91851887926028	9.058073	3.0096633
2.9360513464628384	8.977322	2.996218
2.953583882410413	8.847066	2.9744017
2.9711164875142373	8.842696	2.9736671
2.9886491621855606	8.85204	2.9752378
3.0061819068356455	8.690658	2.947992
3.023714721875769	8.562533	2.9261806
3.041247607717225	8.313333	2.883285
3.0587805647713213	8.209801	2.865275
3.0763135934493806	8.090296	2.8443446
3.0938466941627407	8.027519	2.8332877
3.1113798673227544	7.9916177	2.8269448
3.1289131133407904	7.9981313	2.8280969
3.1464464326282315	7.8659997	2.8046389
3.1639798255964786	7.79003	2.7910626
3.1815132926569443	7.6005926	2.7569172
3.1990468342210603	7.4814515	2.7352242
3.216580450700272	7.348732	2.7108545
3.2341141425060416	7.2932305	2.7005982
3.251647910049847	7.2269883	2.6883059
3.2691817537431813	7.1289997	2.6700187
3.286715673997555	6.9835544	2.6426415
3.3042496712244938	6.872908	2.6216233
3.32178374583554	6.75382	2.5988111
3.339317898242251	6.74878	2.5978413
3.3568521288562034	6.792873	2.606314
3.3743864380889876	6.904893	2.6277163
3.3919208263522127	6.896265	2.626074
3.4094552940575023	6.818011	2.6111321
3.4269898416164972	6.705738	2.589544
3.444524469440858	6.680131	2.584595
3.4620591779422587	6.5621023	2.56166
3.479593967532391	6.592628	2.5676115
3.4971288386229658	6.5156612	2.5525794
3.5146637916257086	6.482266	2.5460293
3.5321988269523628	6.4312806	2.535997
3.5497339450146903	6.3921647	2.528273
3.5672691462244708	6.440411	2.5377965
3.5848044309934988	6.3478665	2.5194974
3.60233979973359	6.2716064	2.5043175
3.619875252856575	6.2477856	2.499557
3.6374107907743034	6.311511	2.5122721
3.6549464138986427	6.4184346	2.533463
3.6724821226414788	6.398481	2.529522
3.690017917414714	6.3605847	2.5220199
3.7075537986302702	6.3093324	2.5118384
3.7250897667000857	6.3186374	2.51369
3.7426258220361235	6.3872175	2.5272944
3.7601619650503553	6.7347727	2.595144
3.777698196154779	7.2889795	2.699811
3.7952345157614067	8.219229	2.8669198
3.8127709242822716	8.96444	2.9940674
3.830307422129425	11.094945	3.3309076
3.847844009714936	29.862936	5.4646993
3.8653806874508954	97.405556	9.869426
3.882917455749409	96.73569	9.83543
3.900454315022606	96.71837	9.83455
3.917991265682631	41.40631	6.4347734
3.9355283081416506	11.076381	3.3281198
3.9530654428118495	8.864616	2.9773505
3.970602670105433	7.6096563	2.7585607
3.9881399904346244	6.6876426	2.5860476
4.005677404211669	6.625551	2.5740147
4.023214911848827	6.5457954	2.5584753
4.0407525137583855	6.549265	2.559153
4.058290210352644	6.5939527	2.5678692
4.075828002043927	6.4978266	2.5490835
4.0933658892445814	6.3546596	2.520845
4.110903872366966	6.268711	2.5037394
4.128441951823468	6.2578645	2.5015724
4.145980128026488	6.248091	2.4996183
4.163518401388452	6.1332426	2.4765384
4.181056772321807	6.1708446	2.4841185
4.1985952412390155	6.243454	2.4986904
4.216133808552567	6.272638	2.5045235
4.233672474674966	6.387549	2.52736
4.251211240018741	6.582936	2.5657232
4.268750104996445	6.774321	2.6027527
4.286289070020643	7.6800504	2.7712903
4.303828135503928	9.253788	3.0420039
4.3213673018589125	29.613852	5.441861
4.3389065694982305	90.66455	9.521793
4.356445938834537	165.80722	12.876616
4.3739854102805085	171.87415	13.110078
4.391524984248844	172.75204	13.1435175
4.409064661152262	136.9006	11.700453
4.426604441403504	97.060036	9.851905
4.444144325415337	75.86146	8.709848
4.461684313600543	22.00002	4.690418
4.47922440637193	22.088152	4.6998034
4.496764604142329	20.195019	4.493887
4.5143049073245916	18.473335	4.298062
4.531845316331589	16.489372	4.060711
4.5493858315762195	13.986001	3.7397861
4.566926453471405	11.530613	3.3956757
4.584467182430081	9.420243	3.0692415
4.602008018865218	8.136743	2.8524976
4.619548963189798	7.5765953	2.7525616
4.637090015816834	7.1155276	2.6674945
4.654631177159353	6.8743534	2.621899
4.672172447630417	6.564453	2.5621188
4.689713827643102	6.4166055	2.533102
4.7072553176105085	6.1897883	2.4879286
4.724796917945764	5.8753347	2.423909
4.742338629062015	5.750049	2.397926
4.759880451372434	5.6813583	2.38356
4.777422385290215	5.656882	2.37842
4.794964431228581	5.668652	2.3808932
4.812506589600768	5.5974336	2.3658895
4.830048860820047	5.609352	2.368407
4.847591245299709	5.626335	2.3719897
4.8651337434530655	5.6428156	2.375461
4.882676355693457	5.677408	2.3827312
4.900219082434242	5.650328	2.3770418
4.917761924088813	5.5977445	2.3659554
4.935304881070575	5.6231008	2.3713078
4.952847953792969	5.560986	2.3581743
4.970391142669449	5.4719806	2.3392265
4.9879344481135055	5.41684	2.3274107
5.005477870538642	5.4036283	2.3245707
5.023021410358394	5.374213	2.318235
5.040565067986324	5.45782	2.3361979
5.05810884383601	5.3955636	2.3228352
5.075652738321066	5.423972	2.3289423
5.09319675185512	5.3882933	2.3212698
5.110740884851836	5.325014	2.3075993
5.128285137724894	5.3521786	2.3134775
5.145829510888007	5.296631	2.301441
5.163374004754908	5.333801	2.3095024
5.1809186197393595	5.3586645	2.314879
5.198463356255145	5.3283434	2.3083205
5.216008214716077	5.37048	2.3174295
5.233553195535998	5.2982216	2.3017867
5.251098299128764	5.259238	2.2933028
5.268643525908272	5.1982045	2.279957
5.286188876288432	5.1261506	2.2641003
5.3037343506831895	5.1309166	2.2651527
5.32127994950651	5.1498985	2.2693388
5.3388256731723915	5.2256784	2.2859743
5.356371522094851	5.232052	2.2873678
5.373917496687938	5.174564	2.2747667
5.391463597365729	5.091709	2.2564816
5.40900982454232	4.9937963	2.2346804
5.426556178631843	5.058185	2.2490408
5.444102660048449	5.1030183	2.2589862
5.4616492692063225	5.1465497	2.268601
5.479196006519669	5.1156926	2.2617898
5.496742872402727	5.123269	2.263464
5.514289867269756	5.156508	2.2707946
5.531836991535049	5.2216697	2.2850974
5.549384245612924	5.268856	2.295399
5.566931629917724	5.1947145	2.2791917
5.584479144863822	5.1407194	2.2673154
5.6020267908656205	5.127111	2.2643125
5.619574568337545	5.2032714	2.281068
5.637122477694054	5.204486	2.2813342
5.654670519349629	5.1944585	2.2791355
5.672218693718784	5.132879	2.2655857
5.689767001216059	5.125053	2.263858
5.707315442256021	5.173865	2.2746131
5.724864017253266	5.210216	2.2825897
5.7424127266224225	5.2239914	2.2856052
5.75996157077814	5.158335	2.2711968
5.777510550135105	5.1611075	2.2718072
5.795059665108022	5.1951847	2.2792947
5.812608916111639	5.2139444	2.2834063
5.830158303560715	5.3384347	2.3105054
5.847707827870055	5.272738	2.2962444
5.86525748945448	5.352138	2.313469
5.8828072887288485	5.4612513	2.336932
5.900357226108044	5.620266	2.37071
5.917907302006979	5.649075	2.3767784
5.9354575168406	6.142143	2.4783347
5.9530078710238765	6.653231	2.5793858
5.970558364971812	7.205954	2.6843908
5.988108999099438	7.5161395	2.7415578
6.005659773821818	8.017975	2.8316028
6.023210689554039	7.7763805	2.7886162
6.040761746711227	8.215683	2.8663013
6.058312945708531	7.646342	2.765202
6.075864286961132	7.191803	2.6817536
6.093415770884244	6.52804	2.555003
6.1109673978931065	5.978444	2.4450858
6.128519168402993	5.409055	2.3257375
6.146071082829204	5.286022	2.2991352
6.163623141587075	5.18445	2.2769387
6.181175345091969	5.1790075	2.2757432
6.198727693759281	5.2058015	2.2816226
6.216280188004435	5.1722655	2.2742615
6.233832828242885	5.0996737	2.2582457
6.251385614890126	5.0845995	2.2549057
6.268938548361669	5.072913	2.252313
6.286491629073067	5.0737796	2.252505
6.304044857439898	5.080705	2.254042
6.321598233877777	5.029875	2.2427382
6.339151758802344	4.983866	2.2324574
6.356705432629277	5.0053353	2.2372606
6.37425925577428	4.9657836	2.2284038
6.391813228653095	5.0284166	2.242413
6.409367351681486	5.029598	2.2426765
6.426921625275259	5.02748	2.2422042
6.44447604985025	5.067505	2.251112
6.46203062582232	5.0497823	2.247172
6.47958535360737	4.9922457	2.2343333
6.497140233621328	4.94374	2.2234523
6.514695266280161	4.89628	2.212754
6.532250451999859	4.9194994	2.2179945
6.549805791196454	4.9329233	2.2210186
6.567361284286002	4.9722905	2.2298634
6.584916931684597	5.0006857	2.2362213
6.602472733808367	4.952639	2.2254527
6.6200286910734665	4.9055314	2.2148435
6.637584803896092	4.858032	2.2040944
6.655141072692462	4.9532804	2.2255967
6.672697497878842	4.9564786	2.226315
6.690254079871514	4.9422936	2.223127
6.707810819086808	4.9450603	2.2237492
6.725367715941078	4.987241	2.2332132
6.742924770850719	4.9978976	2.2355978
6.760481984232151	4.927085	2.2197037
6.778039356501836	4.864131	2.2054775
6.795596888076266	4.8603215	2.2046137
6.813154579371963	4.915897	2.2171822
6.830712430805492	4.8977976	2.2130969
6.84827044279344	4.933823	2.221221
6.865828615752445	4.9539747	2.2257526
6.883386950099159	5.071951	2.2520993
6.900945446250287	5.074055	2.2525663
6.918504104622553	5.079563	2.2537887
6.936062925632727	5.0484285	2.2468708
6.953621909697607	5.0831146	2.2545764
6.971181057234028	5.137321	2.2665658
6.988740368658859	5.18831	2.2777863
7.006299844389007	5.29463	2.3010063
7.023859484841407	5.305706	2.3034117
7.041419290433036	5.3400865	2.3108628
7.058979261580902	5.427429	2.3296843
7.0765393987020495	5.6611023	2.379307
7.094099702213559	6.0951357	2.468833
7.111660172532549	6.4651065	2.5426574
7.129220810076164	6.7899857	2.60576
7.146781615261595	7.471534	2.7334106
7.16434258850606	7.6719155	2.7698224
7.181903730226821	8.245629	2.8715203
7.1994650408411704	8.298201	2.8806598
7.217026520766437	8.362754	2.8918426
7.234588170419983	8.508606	2.9169514
7.252149990219215	8.452179	2.907263
7.269711980581568	8.394715	2.8973634
7.2872741419245175	8.129322	2.8511965
7.304836474665574	7.624617	2.761271
7.322398979222286	7.346185	2.7103846
7.339961656012233	7.1021867	2.6649928
7.357524505453039	6.786781	2.605145
7.375087527962357	6.5211444	2.5536532
7.392650723957886	6.2658286	2.5031638
7.410214093857353	5.971729	2.443712
7.427777638078528	5.759385	2.3998718
7.445341357039213	5.5847077	2.3631985
7.4629052511572525	5.404627	2.3247852
7.480469320850524	5.265159	2.2945936
7.498033566536948	5.2019672	2.2807822
7.5155979886344735	5.1118045	2.26093
7.5331625875610975	5.080817	2.2540667
7.550727363734844	5.0882115	2.2557065
7.568292317573788	5.151243	2.269635
7.585857449496025	5.1552253	2.270512
7.603422759919705	5.140228	2.2672071
7.620988249263007	5.120064	2.2627559
7.638553917944147	5.145029	2.2682657
7.656119766381391	5.2056746	2.2815948
7.673685794993023	5.1925044	2.2787068
7.691252004197388	5.2045517	2.2813487
7.70881839441285	5.1359563	2.266265
7.726384966057826	5.146935	2.2686858
7.743951719550762	5.1900835	2.2781756
7.761518655310149	5.210599	2.2826736
7.779085773754511	5.249205	2.2911143
7.796653075302419	5.252499	2.2918332
7.814220560372475	5.246669	2.2905607
7.831788229383323	5.21576	2.283804
7.8493560827536495	5.2347255	2.2879522
7.866924120902174	5.2379713	2.2886615
7.884492344247663	5.2770853	2.2971907
7.9020607532089135	5.2855134	2.2990243
7.919629348204771	5.281487	2.2981486
7.937198129654115	5.295372	2.3011675
7.954767097975865	5.2975464	2.30164
7.972336253588986	5.3125024	2.3048866
7.989905596912472	5.3281913	2.3082876
8.007475128365371	5.3592095	2.3149967
8.025044848366756	5.4190807	2.3278918
8.042614757335754	5.6014986	2.3667486
8.060184855691523	5.6609616	2.3792775
8.07775514385327	5.868999	2.4226017
8.095325622240228	5.900543	2.4291034
8.112896291271687	5.9081597	2.4306707
8.130467151366968	5.8611584	2.4209828
8.148038202945436	5.8426137	2.41715
8.165609446426497	5.8640804	2.4215863
8.183180882229594	5.933704	2.4359195
8.200752510774217	5.9914985	2.4477537
8.218324332479893	6.0487657	2.4594238
8.235896347766193	6.014035	2.452353
8.253468557052724	5.929996	2.4351583
8.27104096075914	5.9415116	2.4375217
8.288613559305137	5.9689946	2.4431527
8.306186353110448	6.1079755	2.471432
8.32375934259485	6.204261	2.4908354
8.341332528178162	6.296808	2.509344
8.358905910280246	6.3665996	2.5232122
8.376479489321003	6.354174	2.5207486
8.394053265720377	6.3109546	2.5121613
8.411627239898356	6.2416673	2.498333
8.42920141227497	6.1900773	2.4879866
8.44677578327029	6.202271	2.4904358
8.464350353304427	6.11881	2.4736228
8.48192512279754	6.0797586	2.4657166
8.499500092169827	6.0279155	2.4551814
8.51707526184153	6.0919256	2.4681826
8.534650632232934	6.129382	2.4757588
8.552226203764365	6.136431	2.4771821
8.569801976856192	6.1341844	2.4767287
8.587377951928834	6.1389523	2.477691
8.60495412940274	6.1715875	2.484268
8.622530509698416	6.241841	2.4983675
8.6401070932364	6.3474693	2.5194185
8.657683880437283	6.492155	2.5479708
8.675260871721695	6.5982094	2.568698
8.692838067510303	6.7918572	2.6061192
8.710415468223834	6.925728	2.6316779
8.727993074283043	7.104246	2.6653793
8.745570886108737	7.119163	2.668176
8.763148904121765	7.1468472	2.6733587
8.78072712874302	7.204256	2.6840746
8.798305560393441	7.4671226	2.7326035
8.815884199494006	7.611429	2.7588818
8.833463046465745	7.7883124	2.7907548
8.851042101729728	7.924075	2.8149734
8.86862136570707	8.175584	2.8592978
8.886200838818924	8.293306	2.87981
8.903780521486505	8.345642	2.8888824
8.921360414131055	8.441374	2.9054043
8.938940517173874	8.579912	2.9291487
8.956520831036297	8.738898	2.9561627
8.97410135613971	9.069392	3.0115433
8.99168209290554	9.168475	3.027949
9.009263041755265	9.394715	3.06508
9.026844203110405	9.605738	3.0993125
9.044425577392525	9.85498	3.1392643
9.062007165023239	10.047345	3.1697547
9.079588966424197	10.325206	3.213286
9.097170982017108	10.420204	3.228034
9.11475321222372	11.289185	3.3599381
9.132335657465825	12.04146	3.4700806
9.149918318165264	12.131054	3.4829662
9.167501194743924	12.713852	3.5656488
9.18508428762374	12.434222	3.5262194
9.202667597226693	12.386701	3.5194745
9.220251123974803	11.930246	3.4540188
9.237834868290143	11.637905	3.4114375
9.255418830594836	11.460112	3.3852787
9.273003011311046	11.017148	3.3192089
9.290587410860985	10.855255	3.2947314
9.308172029666911	10.201643	3.1940012
9.32575686815113	9.890258	3.1448781
9.343341926735997	8.6156645	2.9352453
9.360927205843916	8.409842	2.8999727
9.378512705897327	8.269413	2.8756588
9.396098427318728	8.101975	2.846397
9.413684370530664	8.028329	2.8334305
9.431270535955722	7.9544506	2.8203635
9.448856924016539	7.9152775	2.8134103
9.466443535135806	7.8398046	2.7999651
9.484030369736251	7.806034	2.7939281
9.501617428240658	7.7696958	2.7874174
9.519204711071852	7.818511	2.79616
9.536792218652714	7.7837744	2.7899415
9.55437995140617	7.8757234	2.806372
9.571967909755191	7.872535	2.8058038
9.589556094122802	7.915959	2.8135314
9.60714450493207	7.8988743	2.8104937
9.624733142606116	7.9279757	2.8156662
9.642322007568108	7.91837	2.8139598
9.659911100241267	7.9503303	2.819633
9.677500421048851	7.987711	2.826254
9.695089970414175	8.0197	2.8319075
9.712679748760609	8.029085	2.833564
9.730269756511557	8.009014	2.8300202
9.747859994090492	8.064126	2.8397405
9.765450461920915	8.090815	2.8444357
9.78304116042639	8.108828	2.8476002
9.800632090030527	8.139264	2.8529396
9.81822325115699	8.207547	2.8648818
9.835814644229481	8.208346	2.8650212
9.853406269671762	8.180675	2.8601878
9.870998127907646	8.236472	2.8699255
9.888590219360985	8.254257	2.8730223
9.906182544455698	8.333798	2.886832
9.923775103615734	8.313156	2.8832545
9.941367897265108	8.313671	2.8833437
9.958960925827878	8.26017	2.874051
9.97655418972816	8.230834	2.868943
9.994147689390106	8.225402	2.8679962
10.011741425237934	8.281194	2.8777063
10.029335397695904	8.2111435	2.8655093
10.04692960718833	8.1766205	2.859479
10.06452405413958	8.146697	2.8542418
10.082118738974064	8.22336	2.8676403
10.099713662116246	8.217587	2.8666334
10.117308823990651	8.20611	2.864631
10.134904225021844	8.185349	2.861005
10.152499865634445	8.12914	2.8511646
10.170095746253125	8.095885	2.845327
10.18769186730261	8.038296	2.8351889
10.205288229207675	8.054634	2.8380687
10.222884832393145	8.06259	2.83947
10.2404816772839	8.096304	2.8454006
10.258078764304868	8.104428	2.8468277
10.275676093881035	8.129259	2.8511856
10.293273666437438	8.1394205	2.852967
10.310871482399158	8.1468525	2.8542693
10.32846954219134	8.074006	2.8414795
10.346067846239173	8.062828	2.8395119
10.363666394967908	8.109285	2.8476808
10.38126518880283	8.16302	2.8571
10.398864228169298	8.212988	2.8658311
10.416463513492713	8.238969	2.8703604
10.434063045198531	8.230177	2.8688285
10.451662823712262	8.102393	2.8464704
10.469262849459467	8.082843	2.843034
10.486863122865758	8.045258	2.8364162
10.504463644356806	8.059441	2.8389153
10.522064414358338	8.045339	2.8364305
10.539665433296118	8.005243	2.8293538
10.557266701595987	8.013716	2.8308506
10.574868219683818	7.9367194	2.8172183
10.592469987985552	7.80307	2.7933977
10.610072006927185	7.564115	2.7502937
10.627674276934751	7.4433513	2.7282505
10.64527679843435	7.3037024	2.7025363
10.662879571852143	7.247248	2.6920714
10.680482597614331	7.176482	2.6788957
10.698085876147173	7.0664062	2.6582713
10.715689407876988	6.947168	2.6357481
10.733293193230146	6.8811765	2.6231997
10.750897232633072	6.807133	2.6090484
10.76850152651225	6.689316	2.5863712
10.786106075294207	6.587256	2.566565
10.803710879405534	6.435736	2.5368752
10.821315939272877	6.323376	2.5146325
10.83892125532294	6.175234	2.4850018
10.856526827982472	6.0093985	2.4514074
10.874132657678285	6.039324	2.4575036
10.891738744837243	6.052414	2.4601655
10.909345089886271	6.1149464	2.4728417
10.926951693252343	6.0872283	2.4672308
10.944558555362494	6.109132	2.4716659
10.96216567664381	5.97058	2.4434772
10.979773057523436	5.8876367	2.4264452
10.997380698428573	5.7497234	2.3978581
11.014988599786477	5.6872015	2.3847854
11.032596762024461	5.628988	2.3725488
11.050205185569892	5.600674	2.3665743
11.067813870850198	5.6277924	2.3722968
11.085422818292859	5.5480347	2.3554265
11.10303202832541	5.464063	2.3375335
11.120641501375454	5.356654	2.3144448
11.138251237870636	5.3012547	2.3024454
11.155861238238671	5.2301865	2.2869601
11.173471502907317	5.158138	2.2711535
11.191082032304402	5.070877	2.2518609
11.208692826857805	5.014582	2.2393262
11.226303886995465	5.025402	2.241741
11.243915213145371	4.999402	2.2359343
11.261526805735578	4.957252	2.2264888
11.279138665194196	4.864605	2.205585
11.296750791949393	4.83028	2.1977897
11.314363186429393	4.7545867	2.1805015
11.331975849062479	4.6848407	2.1644492
11.34958878027699	4.6515765	2.1567514
11.36720198050133	4.6754613	2.1622815
11.384815450163948	4.5984826	2.1444073
11.402429189693366	4.5234866	2.126849
11.420043199518153	4.4573274	2.1112382
11.437657480066942	63.43063	7.964335
11.455272031768422	85.18746	9.229706
11.472886855051353	107.56739	10.37147
11.490501950344528	99.15888	9.957855
11.508117318076819	84.51276	9.193082
11.52573295867715	45.88088	6.7735424
11.543348872574514	4.1967607	2.0485997
11.560965060197946	4.16084	2.0398138
11.57858152197655	4.1197653	2.0297205
11.59619825833949	4.071146	2.017708
11.613815269715985	3.9766207	1.9941466
11.631432556535323	38.444878	6.200393
11.649050119226837	82.961464	9.108318
11.666667958219929	93.37677	9.663166
11.68428607394406	107.63048	10.374511
11.701904466828756	82.44389	9.079862
11.719523137303586	65.27601	8.079357
11.737142085798196	4.5445523	2.1317956
11.754761312742286	3.675212	1.9170842
11.772380818565619	3.6063948	1.8990511
11.790000603698015	3.595802	1.89626
11.80762066856935	3.5368595	1.880654
11.825241013609572	3.5214818	1.8765612
11.842861639248683	3.543999	1.8825512
11.860482545916748	3.5445764	1.8827045
11.878103734043883	3.5377169	1.8808819
11.895725204060282	3.4776547	1.8648471
11.91334695639619	3.398291	1.8434454
11.930968991481919	3.349505	1.8301653
11.948591309747824	3.330691	1.8250182
11.966213911624347	3.3403673	1.8276672
11.98383679754198	3.332248	1.8254446
12.001459967931268	3.2929833	1.8146579
12.019083423222835	3.2446094	1.8012799
12.036707163847352	3.2032406	1.78976
12.05433119023556	3.1987414	1.7885026
12.071955502818259	3.1862478	1.7850064
12.089580102026313	3.1657512	1.7792557
12.107204988290643	3.164178	1.7788136
12.12483016204224	3.1611776	1.7779701
12.142455623712152	3.1122432	1.764155
12.16008137373149	3.0593379	1.7490963
12.177707412531431	3.0391126	1.7433051
12.19533374054321	3.044359	1.7448092
12.212960358198126	3.0605736	1.7494495
12.230587265927545	3.0432997	1.7445055
12.248214464162889	3.016414	1.7367827
12.265841953335649	2.9954212	1.7307285
12.283469733877375	2.9962044	1.7309548
12.301097806219685	2.9950855	1.7306315
12.31872617079425	2.9455638	1.7162645
12.336354828032825	2.9226546	1.7095773
12.353983778367205	2.9300091	1.7117269
12.371613022229262	2.9131699	1.706801
12.389242560050928	2.904527	1.7042673
12.406872392264201	2.861763	1.6916746
12.424502519301143	2.8464544	1.6871438
12.442132941593874	2.843489	1.6862648
12.459763659574586	2.8311992	1.6826167
12.477394673675532	2.808887	1.6759734
12.49502598432903	2.7962112	1.6721876
12.51265759196746	2.8156617	1.6779933
12.530289497023267	2.8301713	1.6823113
12.547921699928967	2.8530216	1.689089
12.565554201117134	2.8504248	1.6883202
12.583187001020404	2.8641603	1.692383
12.600820100071486	2.8143444	1.6776007
12.618453498703152	2.7626164	1.662112
12.636087197348235	2.7196615	1.6491396
12.65372119643964	2.7271347	1.6514039
12.671355496410326	2.7599268	1.6613027
12.68899009769333	2.8185258	1.6788466
12.706625000721749	2.846344	1.6871111
12.724260205928752	2.913417	1.7068735
12.741895713747551	2.9552708	1.7190901
12.759531524611454	2.9996061	1.731937
12.777167638953818	2.986728	1.7282152
12.794804057208072	2.9952736	1.7306858
12.812440779807702	3.0475724	1.7457298
12.830077807186271	3.2438328	1.8010644
12.847715139777405	3.2499862	1.8027718
12.865352778014795	3.3917422	1.8416684
12.882990722332197	3.5130906	1.8743241
12.90062897316344	3.639735	1.9078089
12.918267530942412	3.7261496	1.9303237
12.935906396103071	3.5905073	1.8948634
12.953545569079449	3.7143404	1.9272624
12.971185050305628	3.5653532	1.8882142
12.988824840215775	3.5964496	1.8964307
13.006464939244115	3.6188676	1.9023322
13.024105347824943	3.465372	1.861551
13.041746066392617	3.531636	1.8792647
13.05938709538157	3.332384	1.8254819
13.077028435226296	3.3626242	1.833746
13.094670086361363	3.2686207	1.8079327
13.112312049221401	3.1706908	1.7806433
13.129954324241112	3.0671506	1.7513282
13.147596911855258	2.8927968	1.7008224
13.165239812498685	2.902117	1.7035601
13.182883026606293	2.8384442	1.6847683
13.200526554613058	2.7524521	1.6590515
13.218170396954017	2.703178	1.6441344
13.235814554064284	2.6669946	1.6330936
13.253459026379034	2.6942248	1.6414094
13.271103814333523	2.6552796	1.6295029
13.288748918363058	2.6506457	1.6280804
13.306394338903031	2.6289122	1.621392
13.32404007638889	2.6340015	1.6229607
13.341686131256164	2.6653821	1.6325998
13.359332503940449	2.689986	1.6401176
13.376979194877402	2.7048125	1.6446314
13.394626204502751	2.7233765	1.6502656
13.412273533252307	2.749987	1.6583084
13.429921181561937	2.7569907	1.6604189
13.447569149867581	2.757096	1.6604506
13.465217438605247	2.7958798	1.6720885
13.482866048211022	2.8048503	1.6747687
13.500514979121052	2.7741253	1.6655706
13.518164231771568	2.721156	1.6495926
13.535813806598844	2.6949067	1.6416171
13.553463704039254	2.6984777	1.6427044
13.571113924529229	2.665082	1.6325079
13.588764468505275	2.655466	1.6295601
13.606415336403956	2.6707554	1.6342446
13.624066528661917	2.7120786	1.646839
13.641718045715882	2.7495472	1.6581758
13.659369888002635	2.804354	1.6746205
13.67702205595903	2.8781893	1.6965227
13.694674550021993	2.9546173	1.7189
13.712327370628532	3.017312	1.7370412
13.729980518215713	3.0509615	1.7467002
13.747633993220681	3.122129	1.7669547
13.765287796080647	3.1429827	1.772846
13.7829419272329	3.1924434	1.786741
13.800596387114801	3.2104602	1.7917757
13.818251176163775	3.2501903	1.8028284
13.835906294817324	3.293375	1.8147658
13.853561743513023	3.3191931	1.8218653
13.871217522688525	3.3813539	1.8388458
13.888873632781538	3.4286196	1.8516532
13.906530074229858	3.4885178	1.8677574
13.92418684747135	3.4755566	1.8642845
13.941843952943948	3.4748447	1.8640935
13.959501391085665	3.4353323	1.853465
13.977159162334578	3.3603203	1.8331176
13.994817267128846	3.284928	1.812437
14.012475705906693	3.1810625	1.7835534
14.030134479106424	3.109093	1.763262
14.047793587166414	3.034252	1.7419105
14.065453030525108	3.0255542	1.7394121
14.083112809621026	2.988901	1.7288438
14.100772924892766	2.9496112	1.7174432
14.118433376778997	2.8980846	1.7023761
14.136094165718458	2.8444207	1.6865411
14.153755292149969	2.7698498	1.6642866
14.171416756512416	2.6804664	1.637213
14.189078559244768	2.617672	1.6179221
14.20674070078606	2.5956132	1.6110907
14.224403181575408	2.5777862	1.6055486
14.242066002051999	2.5350618	1.5921878
14.259729162655093	2.517932	1.5867993
14.277392663824022	2.497515	1.5803528
14.295056505998208	2.5110588	1.584632
14.312720689617128	2.4601336	1.5684813
14.330385215120348	2.4140449	1.5537196
14.348050082947497	2.3597474	1.5361469
14.3657152935383	2.3503509	1.5330853
14.383380847332528	2.3502185	1.5330422
14.401046744770051	2.3676355	1.5387123
14.418712986290798	2.3370402	1.5287381
14.436379572334793	2.311441	1.5203424
14.454046503342123	2.339894	1.5296712
14.471713779752946	2.3684921	1.5389906
14.489381402007504	2.3717186	1.5400385
14.507049370546113	2.3634584	1.5373544
14.524717685809168	2.3649862	1.5378512
14.542386348237134	2.3530967	1.5339807
14.560055358270553	2.370728	1.5397168
14.577724716350051	2.4236813	1.5568177
14.595394422916325	2.4804432	1.5749424
14.61306447841015	2.511024	1.5846211
14.63073488327237	2.4954422	1.5796969
14.648405637943917	2.490291	1.5780656
14.6660767428658	2.470264	1.5717074
14.683748198479094	2.4936223	1.5791208
14.701420005224954	2.5638647	1.6012073
14.719092163544628	2.622311	1.6193552
14.73676467387942	2.6646125	1.632364
14.754437536670727	2.6676574	1.6332965
14.772110752360014	2.6960366	1.6419612
14.78978432138882	2.6757028	1.6357576
14.807458244198777	2.7044947	1.6445348
14.82513252123159	2.708623	1.6457895
14.842807152929028	2.7028625	1.6440384
14.860482139732962	2.6776924	1.6363657
14.87815748208531	2.626476	1.6206406
14.8958331804281	2.6687682	1.6336365
14.91350923520342	2.667601	1.6332792
14.931185646853438	2.6852767	1.6386814
14.948862415820408	2.6517122	1.6284078
14.966539542546656	2.6771293	1.6361935
14.98421702747459	2.6476588	1.6271628
15.001894871046696	2.6474547	1.6271001
15.019573073705542	2.6192412	1.618407
15.037251635893766	2.653212	1.6288683
15.054930558054092	2.6629803	1.6318641
15.072609840629323	2.7186244	1.6488252
15.090289484062351	2.8805025	1.6972044
15.107969488796124	3.1504617	1.774954
15.125649855273691	3.5677888	1.8888592
15.14333058393817	4.0554514	2.0138152
15.161011675232768	5.0524044	2.2477555
15.17869312960076	6.41894	2.5335627
15.196374947485506	8.250615	2.8723884
15.214057129330447	11.251369	3.3543062
15.231739675579114	15.861072	3.9825962
15.249422586675102	20.706957	4.55049
15.267105863062092	23.762407	4.87467
15.284789505183847	23.991896	4.8981524
15.302473513484218	21.69384	4.657665
15.320157888407127	18.036211	4.2469063
15.337842630396578	13.908081	3.729354
15.355527739896656	10.833262	3.291392
15.37321321735153	8.5138855	2.9178562
15.39089906320545	6.2642365	2.5028458
15.408585277902748	4.7744174	2.185044
15.42627186188783	3.7473059	1.9357959
15.443958815605198	3.2547362	1.8040887
15.461646139499424	2.9680612	1.7228062
15.479333834015168	2.8082383	1.6757799
15.497021899597165	2.7338846	1.6534463
15.514710336690234	2.6781032	1.6364912
15.53239914573928	2.6412756	1.6252002
15.550088327189297	2.6049216	1.613977
15.567777881485336	2.5514777	1.5973345
15.58546780907256	2.5081096	1.5837013
15.6031581103962	2.4977682	1.5804329
15.620848785901568	2.4904072	1.5781025
15.638539836034063	2.5019631	1.5817595
15.656231261239173	2.4746175	1.5730917
15.673923061962451	2.4550738	1.5668675
15.691615238649552	2.4512517	1.5656474
15.709307791746202	2.4686203	1.5711844
15.727000721698221	2.5000632	1.5811588
15.744694028951498	2.4518309	1.5658324
15.76238771395202	2.4252925	1.557335
15.780081777145844	2.3832483	1.5437773
15.797776218979125	2.3778968	1.5420431
15.815471039898094	2.347982	1.5323126
15.833166240349064	2.356998	1.5352517
15.850861820778437	2.3607726	1.5364805
15.868557781632699	2.3902946	1.5460577
15.886254123358412	2.3820171	1.5433785
15.903950846402232	2.3733914	1.5405815
15.921647951210897	2.33745	1.5288721
15.939345438231225	2.3487737	1.532571
15.957043307910133	2.355572	1.5347873
15.974741560694602	2.3842723	1.5441089
15.992440197031714	2.3396807	1.5296015
16.01013921736862	2.3267567	1.525371
16.02783862215259	2.3406308	1.529912
16.045538411830933	2.3820956	1.5434039
16.06323858685107	2.39448	1.5474107
16.080939147660512	2.395905	1.5478711
16.09864009470684	2.3934267	1.5470704
16.11634142843774	2.399908	1.5491637
16.134043149300954	2.3708115	1.539744
16.15174525774433	2.3687668	1.5390799
16.169447754215817	2.394458	1.5474037
16.18715063916342	2.4152048	1.5540929
16.204853913035244	2.4227126	1.5565065
16.222557576279478	2.3827133	1.543604
16.240261629344403	22.370838	4.729782
16.257966072678386	42.941956	6.5530114
16.275670906729868	38.063667	6.169576
16.293376131947387	2.5271146	1.5896901
16.31108174877957	2.5469527	1.5959175
16.328787757675133	2.5730753	1.6040808
16.34649415908287	2.5791583	1.6059759
16.364200953451657	2.5999205	1.6124269
16.38190814123048	2.640068	1.6248286
16.39961572286839	2.68332	1.6380843
16.41732369881455	2.6594992	1.6307971
16.43503206951817	2.687382	1.6393236
16.45274083542859	2.7243974	1.6505749
16.47044999699522	2.7621217	1.6619632
16.488159554667558	2.8143308	1.6775967
16.505869508895184	2.8869014	1.6990885
16.523579860127786	2.9225073	1.7095343
16.541290608815117	2.9417748	1.7151603
16.559001755407035	2.9457896	1.7163303
16.57671330035348	3.0168254	1.736901
16.59442524410448	3.0682158	1.7516323
16.61213758711015	3.1653805	1.7791516
16.629850329820705	3.2375174	1.7993102
16.647563472686436	3.318945	1.8217971
16.665277016157724	3.3885462	1.8408004
16.682990960685053	3.4544168	1.8586061
16.70070530671898	3.4855287	1.8669571
16.718420054710155	3.5072587	1.8727677
16.736135205109335	3.5325577	1.8795099
16.753850758367335	3.5709887	1.889706
16.771566714935087	3.636788	1.9070364
16.789283075263597	3.7168827	1.9279219
16.80699983980398	3.800764	1.9495548
16.82471700900741	3.8638828	1.9656762
16.84243458332518	3.9570081	1.989223
16.860152563208665	4.0010977	2.0002744
16.87787094910932	4.0093207	2.0023289
16.89558974147871	4.0269203	2.0067189
16.913308940768466	4.0775223	2.0192876
16.931028547430333	4.1127863	2.0280006
16.94874856191613	4.150349	2.0372405
16.966468984677785	4.246401	2.0606797
16.98418981616729	4.397158	2.0969403
17.00191105683676	4.4716787	2.1146345
17.019632707138374	4.5021987	2.1218386
17.03735476752442	4.488373	2.118578
17.05507723844728	4.5249257	2.1271873
17.072800120359403	4.5408306	2.1309226
17.090523413713353	4.5192475	2.125852
17.108247118961785	4.4840703	2.1175623
17.125971236557437	4.544425	2.1317656
17.143695766953133	4.6510253	2.1566236
17.161420710601806	4.7166257	2.1717794
17.179146067956477	4.66362	2.1595416
17.19687183947025	4.6167083	2.1486526
17.21459802559634	4.560718	2.1355839
17.232324626788028	4.5847964	2.1412137
17.25005164349871	4.5907283	2.1425984
17.267779076181863	4.6174107	2.148816
17.285506925291074	4.6132526	2.1478484
17.30323519127999	4.5696206	2.1376672
17.320963874602384	4.56043	2.1355164
17.33869297571211	4.4852667	2.1178448
17.356422495063114	4.460803	2.1120613
17.37415243310944	4.4118476	2.1004398
17.391882790305218	4.396225	2.0967176
17.40961356710468	4.41459	2.1010926
17.42734476396215	4.426175	2.1038477
17.445076381332044	4.4577856	2.111347
17.462808419668868	4.5708385	2.1379519
17.48054087942723	4.702125	2.1684384
17.498273761061835	5.010756	2.2384717
17.51600706502747	5.492912	2.343696
17.533740791779024	6.198876	2.4897542
17.551474941771485	7.644516	2.7648718
17.56920951545993	8.736249	2.9557147
17.586944513299528	10.776693	3.2827873
17.60467993574556	12.2842045	3.504883
17.622415783253373	13.851425	3.7217503
17.64015205627843	15.188356	3.8972242
17.657888755276293	16.047358	4.005915
17.675625880702604	16.428755	4.05324
17.69336343301311	16.200327	4.024963
17.71110141266366	15.616799	3.9518096
17.728839820110178	14.7963295	3.8465998
17.746578655808705	14.086243	3.7531643
17.764317920215372	12.918837	3.5942783
17.7820576137864	11.548856	3.3983607
17.79979773697811	9.617807	3.101259
17.81753829024692	7.6871576	2.7725723
17.835279274049356	5.9964757	2.4487703
17.85302068884201	4.8959236	2.2126734
17.870762535081607	4.2000313	2.0493977
17.888504813224934	3.888554	1.9719417
17.90624752372891	3.7067552	1.9252936
17.923990667050536	3.6142986	1.9011309
17.941734243646895	3.5536633	1.8851162
17.959478253975185	3.5419552	1.8820083
17.9772226984927	3.4899096	1.86813
17.994967577656833	3.4272525	1.851284
18.01271289192506	3.4207988	1.8495401
18.030458641754965	3.4282951	1.8515656
18.04820482760425	3.3930194	1.842015
18.06595144993067	3.2974377	1.8158848
18.083698509192125	3.2568622	1.8046778
18.101446005846576	3.2586854	1.8051829
18.119193940352105	3.2580051	1.8049945
18.136942313166887	3.218241	1.7939457
18.1546911247492	3.1814425	1.7836598
18.1724403755574	3.1490035	1.7745432
18.19019006604997	3.1098273	1.7634703
18.207940196685467	3.1183915	1.7658968
18.225690767922575	3.0983891	1.7602242
18.243441780220046	3.0468094	1.7455112
18.261193234036764	2.999196	1.7318187
18.278945129831676	2.970287	1.7234521
18.29669746806386	2.982612	1.727024
18.314450249192483	2.974356	1.7246321
18.3322034736768	3.0128176	1.735747
18.349957141976184	3.070053	1.7521567
18.3677112545501	3.1124403	1.7642109
18.385465811858108	3.0971618	1.7598755
18.403220814359884	3.0446904	1.7449042
18.420976262515172	3.0261972	1.7395968
18.43873215678387	3.0718422	1.7526672
18.456488497625923	3.1122394	1.764154
18.474245285501407	3.2156138	1.7932132
18.492002520870486	3.2718306	1.8088202
18.50976020419343	3.3447342	1.8288615
18.527518335930615	3.6824813	1.9189793
18.545276916542516	4.264883	2.0651593
18.563035946489688	4.4296265	2.1046677
18.580795426232832	4.7928658	2.1892614
18.598555356232698	4.693032	2.1663406
18.616315736950185	5.047659	2.2466996
18.63407656884626	4.7573586	2.181137
18.65183785238201	5.0056934	2.2373407
18.669599588018617	4.7507753	2.1796274
18.68736177621737	4.703665	2.1687934
18.705124417439652	4.6123204	2.1476314
18.72288751214696	4.4429374	2.1078277
18.740651060800886	4.615953	2.1484768
18.758415063863115	4.320599	2.0786052
18.77617952179546	4.4365273	2.1063066
18.793944435059814	4.1839304	2.0454657
18.811709804118184	4.2236676	2.0551562
18.829475629432675	4.1700745	2.042076
18.8472419114655	3.989166	1.9972897
18.86500865067897	4.0912714	2.022689
18.88277584753551	3.7625422	1.9397273
18.90054350249763	3.7489858	1.9362298
18.918311616027957	3.4315915	1.8524555
18.936080188589226	3.3570535	1.8322264
18.953849220644265	3.0879803	1.757265
18.971618712656007	2.9217756	1.7093202
18.9893886650875	2.8638926	1.6923039
19.007159078401887	8.049629	2.8371868
19.024929953062408	32.87876	5.7340007
19.042701289532435	32.821896	5.7290397
19.060473088275405	25.404821	5.0403194
19.07824534975489	2.7335217	1.6533365
19.096018074434568	2.694581	1.6415179
19.113791262778197	2.6473696	1.627074
19.13156491524966	2.5843668	1.6075966
19.149339032312945	2.545525	1.5954702
19.167113614432136	2.5312572	1.5909925
19.184888662071433	2.5119894	1.5849257
19.202664175695123	2.497333	1.5802952
19.220440155767623	2.486722	1.5769343
19.238216602753447	2.4936285	1.5791227
19.2559935171172	2.5002503	1.581218
19.27377089932361	2.524502	1.5888681
19.291548749837514	2.5009713	1.5814459
19.309327069123835	2.5030725	1.5821102
19.32710585764763	2.5005188	1.5813029
19.344885115874032	2.5213017	1.5878607
19.362664844268313	2.5128574	1.5851995
19.380445043295822	2.5070288	1.58336
19.39822571342203	2.5054243	1.5828532
19.41600685511252	2.4911113	1.5783255
19.43378846883297	2.4704828	1.571777
19.451570555049173	2.487549	1.5771966
19.469353114227037	2.4990404	1.5808353
19.48713614683254	2.4738853	1.5728589
19.50491965333182	2.4470427	1.5643027
19.52270363419109	2.4547014	1.5667487
19.540488089876686	2.487727	1.577253
19.55827302085503	2.493806	1.5791788
19.576058427592674	2.4943504	1.5793513
19.593844310556282	2.5031347	1.5821298
19.611630670212598	2.5216498	1.5879704
19.629417507028506	2.5078707	1.5836258
19.64720482147098	2.4947376	1.5794739
19.6649926140071	2.4801087	1.5748361
19.682780885104084	2.4845018	1.5762303
19.70056963522921	2.453665	1.5664179
19.718358864849908	2.4506524	1.5654559
19.7361485744337	2.4660525	1.570367
19.753938764448215	2.476997	1.5738478
19.771729435361202	2.49987	1.5810977
19.789520587640506	2.5208814	1.5877284
19.807312221754092	2.5114758	1.5847636
19.825104338170043	2.4919786	1.5786002
19.842896937356517	2.4714334	1.5720793
19.860690019781824	2.4691086	1.5713397
19.87848358591436	2.4656122	1.5702268
19.896277636222635	2.4735956	1.5727669
19.914072171175278	2.4685564	1.571164
19.931867191241015	2.4544902	1.5666813
19.94966269688869	2.4491737	1.5649836
19.967458688587264	2.472827	1.5725225
19.985255166805807	2.4996989	1.5810436
20.00305213201348	2.4980426	1.5805197
20.020849584679578	2.5030236	1.5820947
20.038647525273507	2.4870489	1.577038
20.05644595426477	2.4690142	1.5713097
20.07424487212299	2.4689846	1.5713003
20.092044279317903	2.4734795	1.57273
20.109844176319353	2.4527326	1.5661203
20.127644563597304	2.4313028	1.5592636
20.145445441621817	2.3892524	1.5457207
20.16324681086307	2.3836348	1.5439025
20.181048671791373	2.3651	1.5378882
20.198851024877122	2.3818269	1.5433168
20.216653870590836	2.3672447	1.5385853
20.234457209403146	2.3803356	1.5428336
20.252261041784802	2.3919332	1.5465876
20.270065368206662	2.3794672	1.5425522
20.287870189139685	2.3312502	1.5268432
20.305675505054968	2.3169057	1.5221386
20.323481316423702	2.3644488	1.5376765
20.341287623717207	2.3937423	1.5471723
20.359094427406884	2.370029	1.5394899
20.376901727964288	2.3364997	1.5285614
20.39470952586107	2.345566	1.5315241
20.41251782156899	2.3381417	1.5290983
20.430326615559935	2.3179336	1.5224761
20.448135908305886	2.3189864	1.5228219
20.465945700278965	2.337241	1.5288037
20.483755991951384	2.3137379	1.5210975
20.50156678379548	2.2815464	1.5104789
20.519378076283708	2.2581875	1.5027267
20.537189869888635	2.2504418	1.5001472
20.55500216508294	2.2752762	1.5084019
20.572814962339415	2.316904	1.522138
20.59062826213098	2.3029075	1.5175333
20.60844206493066	2.2821615	1.5106825
20.626256371211593	2.2698314	1.506596
20.644071181447032	2.2753685	1.5084325
20.66188649611036	2.3101099	1.5199046
20.67970231567506	2.2976265	1.5157924
20.697518640614742	2.2749844	1.5083051
20.715335471403122	2.254527	1.5015082
20.73315280851404	2.254877	1.5016248
20.750970652421447	2.2614043	1.5037966
20.768789003599412	2.288862	1.5128986
20.786607862522136	2.320736	1.5233961
20.8044272296639	2.309995	1.5198667
20.82224710549913	2.2875638	1.5124694
20.84006749050237	2.277794	1.5092362
20.857888385148268	3.8322954	1.9576249
20.8757097899116	45.96307	6.779607
20.893531705267254	64.81461	8.050753
20.911354131690224	83.84233	9.156546
20.92917706965566	69.081764	8.311544
20.94700051963877	50.159187	7.082315
20.96482448211493	29.440357	5.425897
20.982648957559622	4.154791	2.0383303
21.00047394644843	2.2282422	1.4927298
21.01829944925707	2.2139595	1.487938
21.036125466461375	2.2157013	1.4885232
21.053951998537297	2.2196825	1.4898598
21.071779045960906	2.2313683	1.4937766
21.089606609208378	2.2186828	1.4895244
21.10743468875603	2.2105997	1.4868085
21.12526328508028	2.190439	1.4800131
21.143092398657675	2.187782	1.4791152
21.16092202996488	2.1797082	1.4763834
21.17875217947867	2.1776285	1.475679
21.19658284767596	2.1899226	1.4798387
21.21441403503377	2.1916654	1.4804274
21.232245742029225	2.17581	1.4750627
21.2500779691396	2.1567993	1.4686046
21.26791071684227	2.173038	1.4741228
21.28574398561475	2.1723907	1.4739032
21.30357777593465	2.154593	1.4678532
21.321412088279704	2.1165512	1.4548372
21.339246923127792	2.113724	1.4538652
21.357082280956888	2.100854	1.4494323
21.3749181622451	2.0900183	1.4456896
21.392754567470647	2.057606	1.4344357
21.41059149711187	2.0449946	1.4300331
21.42842895164726	2.0797975	1.4421504
21.446266931555378	2.0899396	1.4456624
21.464105437314945	2.1068726	1.451507
21.481944469404798	2.1303916	1.4595861
21.49978402830388	2.141502	1.4633871
21.51762411449127	2.122876	1.4570092
21.53546472844617	2.088378	1.4451221
21.553305870647876	2.076995	1.4411783
21.571147541575865	2.076827	1.44112
21.58898974170967	2.063302	1.4364198
21.60683247152899	2.0567033	1.4341211
21.62467573151363	2.0629058	1.4362819
21.642519522143523	2.0667582	1.4376224
21.660363843898722	2.0536287	1.4330487
21.6782086972594	2.0458534	1.4303333
21.696054082705864	2.0249317	1.4230009
21.713900000718535	2.0470674	1.4307576
21.73174645177795	2.0797088	1.4421196
21.749593436364794	2.0415192	1.4288174
21.767440954959845	2.0394876	1.4281063
21.785289008044032	2.0293627	1.424557
21.803137596098388	2.0451615	1.4300914
21.820986719604086	2.009664	1.4176263
21.838836379042412	1.9685663	1.403056
21.85668657489478	1.970636	1.4037935
21.87453730764273	1.9719081	1.4042464
21.892388577767914	2.0073588	1.4168129
21.91024038575213	2.0155153	1.4196885
21.928092732077285	2.0202584	1.421358
21.945945617225426	2.0480793	1.4311112
21.963799041678694	2.0201921	1.4213346
21.981653005919398	31.335394	5.5978026
21.999507510429943	78.1125	8.838128
22.01736255569286	73.0537	8.547146
22.035218142190818	4.170279	2.0421262
22.05307427040661	2.0019934	1.4149182
22.07093094082315	1.9760034	1.4057039
22.088788153923474	1.9356687	1.3912832
22.106645910190746	1.947486	1.3955235
22.12450421010827	1.9955177	1.4126279
22.142363054159464	1.984799	1.408829
22.16022244282787	1.9586552	1.3995197
22.178082376597164	1.9444535	1.3944366
22.195942855951145	1.9640764	1.401455
22.213803881373742	1.986512	1.4094367
22.231665453349002	1.9864578	1.4094175
22.24952757236111	1.967184	1.4025633
22.26739023889438	1.9505038	1.3966044
22.28525345343323	1.974941	1.4053259
22.30311721646225	1.9660944	1.4021748
22.320981528466113	1.9642547	1.4015187
22.33884638992964	1.9387288	1.3923824
22.356711801337788	1.9448707	1.3945862
22.37457776317561	1.9625778	1.4009204
22.392444275928337	1.9817146	1.4077338
22.410311340081282	1.9677973	1.402782
22.428178956119904	1.9734433	1.4047929
22.446047124529805	2.0015678	1.4147677
22.46391584579669	2.0199199	1.4212389
22.481785120406414	1.9676474	1.4027286
22.49965494884496	1.928442	1.3886836
22.51752533159841	1.9153743	1.3839705
22.53539626915302	1.907827	1.3812411
22.553267761995137	1.8946279	1.3764548
22.571139810611264	1.8790572	1.370787
22.589012415488025	1.8766044	1.3698921
22.60688557711216	1.926958	1.3881491
22.624759295970566	1.9487869	1.3959895
22.642633572550263	1.9380918	1.3921536
22.660508407338362	1.9258813	1.3877612
22.67838380082217	1.9096211	1.3818904
22.696259753489077	1.9294125	1.389033
22.714136265826614	1.9424517	1.3937187
22.73201333832246	1.9396405	1.3927097
22.74989097146439	1.940297	1.3929454
22.76776916574035	1.9285074	1.3887072
22.785647921638393	1.9039267	1.3798286
22.803527239646712	1.8898035	1.3747013
22.82140712025363	1.8781837	1.3704684
22.839287563947593	1.8363469	1.3551188
22.85716857121719	1.8124608	1.3462766
22.875050142551135	1.8316363	1.3533796
22.892932278438277	1.8747443	1.369213
22.910814979367604	1.9052466	1.3803067
22.928698245828222	1.9247863	1.3873667
22.946582078309387	1.9378271	1.3920586
22.96446647730047	1.9279938	1.3885221
22.98235144329098	1.9167194	1.3844564
23.000236976770562	1.9061733	1.3806424
23.018123078229	1.8866303	1.3735466
23.03600974815619	1.8769512	1.3700187
23.053896987042194	1.9090359	1.3816787
23.071784795377173	1.943885	1.3942327
23.08967317365145	1.972917	1.4046056
23.10756212235546	1.960097	1.4000347
23.125451641979787	1.942775	1.3938346
23.143341733015134	1.963255	1.401162
23.161232395952357	1.967889	1.4028146
23.179123631282426	1.9630021	1.4010718
23.197015439496468	1.9094385	1.3818244
23.214907821085717	1.9011674	1.3788283
23.23280077654157	1.9033407	1.3796161
23.250694306355538	1.92395	1.3870652
23.268588411019277	1.9114506	1.3825523
23.28648309102458	1.9175475	1.3847554
23.304378346863356	1.9166617	1.3844355
23.322274179027676	1.9261616	1.3878622
23.340170588009723	1.9447792	1.3945534
23.358067574301852	1.9933124	1.4118471
23.37596513839651	1.9976456	1.4133809
23.39386328078629	1.9742469	1.405079
23.411762001963947	1.9383185	1.392235
23.429661302422353	1.9194881	1.385456
23.4475611826545	1.8755652	1.3695128
23.46546164315356	1.9065906	1.3807935
23.48336268441279	1.9333032	1.3904327
23.501264306925638	1.9760163	1.4057084
23.51916651118564	1.9501265	1.3964694
23.537069297686497	1.9573905	1.3990678
23.554972666922037	1.9259344	1.3877804
23.57287661938623	1.9035462	1.3796906
23.59078115557318	1.8884392	1.3742049
23.608686275977128	1.9057144	1.3804761
23.62659198109246	1.936698	1.391653
23.6444982714137	1.9270107	1.3881681
23.66240514743549	1.9288564	1.3888327
23.68031260965263	1.8863966	1.3734616
23.698220658560068	1.9019827	1.3791239
23.716129294652845	1.8843263	1.3727077
23.7340385184262	1.8754286	1.3694628
23.75194833037546	1.859851	1.3637636
23.769858730996123	1.8598193	1.3637519
23.78776972078382	1.8724779	1.3683852
23.80568130023431	1.8989978	1.3780413
23.823593469843495	1.9221065	1.3864006
23.841506230107424	1.9036559	1.3797303
23.859419581522275	1.851524	1.3607072
23.87733352458438	1.829361	1.3525387
23.89524805979019	1.8305084	1.3529629
23.913163187636318	1.8528092	1.3611794
23.931078908619508	1.9021349	1.3791791
23.948995223236633	1.9770427	1.4060735
23.966912131984735	2.046094	1.4304174
23.98482963536096	2.055868	1.4338298
24.002747733862616	2.0224056	1.4221131
24.020666427987155	1.9958062	1.4127301
24.038585718232156	2.0333388	1.4259518
24.056505605095353	2.0714564	1.4392555
24.074426089074617	2.1026714	1.450059
24.092347170667946	2.0995278	1.4489747
24.110268850373515	2.096675	1.44799
24.128191128689586	2.0476537	1.4309624
24.146114006114626	1.9745699	1.4051939
24.164037483147187	1.9929945	1.4117346
24.181961560286005	2.0773683	1.4413078
24.199886238029926	2.04836	1.4312093
24.21781151687797	2.037612	1.4274495
24.235737397329274	2.0446165	1.4299009
24.253663879883135	2.063196	1.4363829
24.271590965038975	2.066362	1.4374846
24.289518653296376	2.1109447	1.4529091
24.30744694515505	2.1056452	1.4510841
24.32537584111486	2.0666535	1.437586
24.34330534167581	2.0380988	1.4276199
24.361235447338046	1.9821849	1.4079009
24.379166158601876	1.9467812	1.395271
24.39709747596772	1.9692163	1.4032876
24.41502939993615	1.9999917	1.4142106
24.432961931007917	1.9843789	1.4086798
24.450895069683856	1.9885648	1.4101648
24.468828816465	1.9704003	1.4037095
24.4867631718525	1.992925	1.41171
24.504698136347656	1.9744513	1.4051517
24.52263371045192	1.9941674	1.4121499
24.540569894666874	1.9830403	1.4082047
24.558506689494266	1.9534901	1.3976731
24.57644409543597	1.9164202	1.3843483
24.594382112994012	1.922107	1.3864007
24.61232074267057	1.9280741	1.3885511
24.630259984967953	1.9383802	1.3922572
24.64819984038863	1.9668843	1.4024565
24.66614030943522	1.9599608	1.399986
24.684081392610462	1.9315964	1.3898188
24.702023090417274	1.9285564	1.3887248
24.7199654033587	1.9664265	1.4022933
24.737908331937927	1.986253	1.4093449
24.755851876658305	1.9709796	1.4039158
24.773796038023324	1.9646114	1.401646
24.79174081653661	2.0057595	1.4162484
24.809686212701962	2.0430837	1.4293648
24.827632227023294	2.108054	1.4519138
24.8455788600047	2.117955	1.4553195
24.8635261121504	2.100248	1.4492233
24.88147398396475	2.0797105	1.4421202
24.899422475952303	2.1469045	1.4652319
24.917371588617698	2.1443346	1.4643546
24.935321322465768	2.173208	1.4741805
24.953271678001478	2.2291148	1.4930221
24.97122265572994	2.4524636	1.5660343
24.989174256156414	2.8099284	1.6762841
25.00712647978632	3.1556437	1.7764132
25.02507932712521	3.6482964	1.9100513
25.043032798678798	4.1462917	2.0362446
25.060986894952933	4.8116455	2.1935463
25.078941616453637	5.4652762	2.337793
25.096896963687055	6.343688	2.518668
25.114852937159508	7.374868	2.7156708
25.132809537377444	7.8408556	2.8001528
25.150766764847468	7.9545555	2.820382
25.168724620076347	7.5043926	2.7394147
25.186683103570985	6.5223107	2.5538814
25.204642215838426	5.4194455	2.3279703
25.222601957385894	4.198814	2.0491009
25.24056232872074	3.2366176	1.7990602
25.25852333035048	2.6534677	1.6289468
25.276484962782778	2.3108492	1.5201478
25.294447226525435	2.1348264	1.4611045
25.312410122086423	2.0761094	1.440871
25.330373649973843	2.0065026	1.4165107
25.348337810695988	1.9527465	1.397407
25.366302604761245	1.8945259	1.3764178
25.384268032678207	1.8528391	1.3611903
25.40223409495558	1.8223977	1.3499621
25.420200792102257	1.8311118	1.3531858
25.438168124627246	1.8524758	1.3610568
25.45613609303974	1.9099463	1.3820081
25.474104697849057	1.9409258	1.3931712
25.492073939564698	1.897501	1.3774981
25.510043818696285	1.8227711	1.3501004
25.528014335753614	1.8212092	1.3495219
25.54598549124664	1.8122184	1.3461866
25.56395728568544	1.8456765	1.3585567
25.58192971958028	1.9329916	1.3903207
25.59990279344156	1.9719944	1.4042772
25.617876507779833	1.9395843	1.3926896
25.635850863105826	1.8641462	1.3653374
25.653825859930386	1.7917951	1.3385795
25.671801498764548	1.8430167	1.3575776
25.68977778011949	1.8549376	1.3619609
25.707754704506524	1.8567408	1.3626227
25.725732272437153	1.8580862	1.3631164
25.743710484423012	1.8794076	1.3709149
25.761689340975888	1.8686563	1.3669881
25.77966884260774	1.8727586	1.3684877
25.797648989830662	1.8841715	1.3726512
25.815629783156922	1.8450848	1.358339
25.83361122309895	1.8204985	1.3492585
25.85159331016929	1.8558167	1.3622836
25.869576044880695	1.8716917	1.3680978
25.887559427746034	1.8672371	1.3664688
25.90554345927836	1.8081603	1.3446785
25.92352813999086	1.7807416	1.3344443
25.94151347039689	1.7567838	1.3254372
25.959499451009965	1.7303548	1.3154294
25.97748608234374	1.7500145	1.3228811
25.995473364912062	1.7428848	1.3201836
26.013461299228904	1.7512792	1.3233591
26.03144988580839	1.7888927	1.337495
26.04943912516483	1.8509821	1.360508
26.067429017812675	1.8581498	1.3631396
26.085419564266537	1.8816693	1.3717395
26.103410765041186	1.8942927	1.3763331
26.12140262065155	1.8461329	1.3587247
26.139395131612723	1.811558	1.3459413
26.157388298439948	1.8230672	1.3502101
26.17538212164861	1.8457664	1.3585899
26.193376601754295	1.8403856	1.3566082
26.211371739272714	1.7969009	1.3404853
26.229367534719746	1.8127356	1.3463787
26.247363988611433	1.8091941	1.3450629
26.26536110146397	1.8178018	1.3482589
26.283358873793727	1.8167423	1.3478658
26.301357306117204	1.8122245	1.3461889
26.319356398951104	1.8055049	1.3436908
26.33735615281224	1.803402	1.342908
26.35535656821762	1.8236876	1.3504398
26.373357645684404	1.8289627	1.3523915
26.39135938572991	1.8375984	1.3555804
26.409361788871614	1.8041657	1.3431923
26.427364855627165	1.8249902	1.350922
26.445368586514352	1.7951939	1.3398485
26.46337298205115	1.75396	1.3243716
26.48137804275568	1.7262301	1.3138608
26.499383769146217	1.7267385	1.3140543
26.517390161741215	1.7389016	1.3186742
26.53539722105928	1.7551655	1.3248266
26.553404947619182	1.7770457	1.3330588
26.571413341939856	1.7890271	1.3375452
26.589422404540397	1.8255322	1.3511226
26.60743213594006	1.8112837	1.3458394
26.62544253665827	1.7814524	1.3347106
26.64345360721459	1.7885	1.3373481
26.66146534812879	1.7790939	1.3338268
26.679477759920758	1.7644318	1.3283192
26.69749084311057	1.7565181	1.3253369
26.71550459821847	1.7763525	1.3327987
26.733519025764842	1.7898036	1.3378354
26.751534126270258	1.8405204	1.3566577
26.769549900255434	1.813909	1.3468144
26.787566348241267	1.7685269	1.3298597
26.80558347074881	1.7413838	1.319615
26.823601268299267	1.7977011	1.3407837
26.841619741414036	1.8259418	1.3512741
26.85963889061465	1.8255825	1.3511412
26.877658716422832	1.7623876	1.3275495
26.89567921936045	1.7387676	1.3186234
26.913700399949544	1.7309958	1.3156731
26.93172225871233	1.7854477	1.3362064
26.949744796171174	1.8065184	1.3440678
26.967768012848605	1.8054296	1.3436627
26.98579190926733	1.7932936	1.3391391
27.003816485950225	1.8067938	1.3441703
27.021841743420318	1.7994508	1.341436
27.039867682200814	1.7851317	1.3360882
27.057894302815072	1.8050792	1.3435323
27.07592160578664	1.8378211	1.3556626
27.0939495916392	1.8348804	1.3545775
27.111978260896635	1.8078192	1.3445517
27.13000761408296	1.8393633	1.3562313
27.148037651722397	1.8317207	1.3534107
27.166068374339304	1.835434	1.3547819
27.184099782458215	1.8037344	1.3430318
27.20213187660384	1.793021	1.3390373
27.22016465730105	1.7827737	1.3352056
27.23819812507487	1.8173803	1.3481025
27.256232280450533	1.839886	1.356424
27.274267123953383	1.8344716	1.3544266
27.292302656108987	1.8118556	1.3460518
27.31033887744306	1.7810515	1.3345604
27.32837578848146	1.714864	1.3095281
27.34641338975026	1.7155756	1.3097998
27.364451681775673	1.73299	1.3164308
27.382490665084074	1.8180733	1.3483595
27.400530340202046	1.7945653	1.3396139
27.41857070765629	1.7493263	1.322621
27.436611767973726	1.7259535	1.3137555
27.454653521681404	1.7591367	1.3263245
27.472695969306564	1.7857417	1.3363165
27.490739111376627	1.7875148	1.3369797
27.508782948419153	1.7832084	1.3353683
27.526827480961902	1.8054416	1.3436673
27.54487270953279	1.7840039	1.3356661
27.562918634659898	1.7786895	1.3336751
27.580965256871508	1.799748	1.3415469
27.599012576696026	1.8387439	1.3560029
27.617060594662068	1.8378905	1.3556882
27.63510931129842	1.8063102	1.3439904
27.65315872713401	1.8340026	1.3542535
27.67120884269797	1.8680904	1.366781
27.68925965851958	1.8417915	1.3571262
27.707311175128307	1.7855314	1.3362378
27.725363393053787	1.7979658	1.3408824
27.74341631282583	1.8177629	1.3482443
27.7614699349744	1.8134917	1.3466594
27.77952426002968	2.0001464	1.4142653
27.797579288521973	2.1034052	1.4503121
27.815635020981784	2.5676625	1.6023928
27.83369145793979	2.6233418	1.6196734
27.85174859992682	2.4054751	1.5509595
27.869806447473923	2.3020184	1.5172404
27.887865001112267	2.031252	1.4252199
27.905924261373233	1.8733064	1.3686879
27.92398422878836	1.8144003	1.3469968
27.94204490388936	1.7956656	1.3400245
27.96010628720813	1.778281	1.333522
27.978168379276728	1.7788773	1.3337456
27.9962311806274	1.7987422	1.341172
28.014294691792568	1.8357276	1.3548902
28.0323589133048	1.8699118	1.3674471
28.050423845696887	1.8599243	1.3637904
28.068489489501758	1.8687073	1.3670067
28.086555845252523	1.8180927	1.3483667
28.104622913482487	1.8052504	1.3435961
28.122690694725115	1.8429718	1.357561
28.14075918951405	1.8373189	1.3554773
28.15882839838312	1.830453	1.3529423
28.176898321866304	1.8357776	1.3549087
28.1949689604978	1.8704798	1.3676549
28.213040314811945	1.8994318	1.3781987
28.23111238534327	1.8823551	1.3719895
28.249185172626493	1.8620108	1.3645551
28.267258677196473	1.8618048	1.3644797
28.285332899588294	1.9017993	1.3790574
28.303407840337172	1.9114367	1.3825471
28.321483499978545	1.929792	1.3891696
28.33955987904799	1.9186081	1.3851383
28.357636978081285	1.9095024	1.3818475
28.37571479761439	1.903204	1.3795666
28.393793338183425	1.9367568	1.3916742
28.41187260032469	1.948199	1.395779
28.429952584574686	1.9582424	1.3993721
28.448033291470065	1.9453351	1.3947527
28.46611472154769	1.9574145	1.3990763
28.484196875344566	1.9345894	1.3908951
28.502279753397914	1.9219801	1.386355
28.52036335624511	1.9495753	1.396272
28.538447684423716	1.9968216	1.4130894
28.556532738471482	2.0046234	1.4158473
28.574618518926325	2.0216649	1.4218526
28.59270502632635	1.9773382	1.4061786
28.61079226120985	1.9373869	1.3919004
28.628880224115274	1.9584284	1.3994386
28.646968915581287	2.0212786	1.4217168
28.66505833614671	2.0430958	1.429369
28.68314848635055	2.041141	1.4286851
28.701239366732004	2.0318468	1.4254286
28.71933097783044	2.0172517	1.4202999
28.737423320185403	2.0460124	1.4303889
28.75551639433665	2.0982633	1.4485383
28.773610200824074	2.082699	1.4431559
28.791704740187793	2.0591092	1.4349597
28.80980001296809	2.0867395	1.4445552
28.827896019705413	2.1162632	1.4547381
28.845992760940433	2.1632786	1.4708089
28.86409023721397	2.2070153	1.4856026
28.88218844906704	2.1464427	1.4650743
28.900287397040845	2.1067939	1.4514799
28.918387081676755	2.187598	1.479053
28.936487503516343	2.2724183	1.5074543
28.954588663101365	2.3228033	1.5240746
28.97269056097374	2.3818245	1.5433161
28.990793197675597	2.356457	1.5350755
29.00889657374923	2.3300183	1.5264398
29.027000689737125	2.3353086	1.5281717
29.04510554618196	2.326915	1.5254229
29.06321114362659	2.3286295	1.5259848
29.08131748261405	2.4044178	1.5506185
29.099424563687567	2.4951577	1.5796068
29.11753238739057	2.5803258	1.6063392
29.13564095426663	2.6539955	1.6291088
29.15375026485954	2.67228	1.634711
29.171860319713275	2.6393814	1.6246173
29.18997111937199	2.6155326	1.6172608
29.20808266438002	2.6245935	1.6200597
29.226194955281898	2.752295	1.6590042
29.244307992622335	2.8473246	1.6874018
29.26242177694624	2.8854203	1.6986525
29.2805363087987	2.8889575	1.6996933
29.29865158872498	2.9152942	1.7074232
29.316767617270557	2.9616396	1.7209415
29.334884394981064	2.9543278	1.7188158
29.353001922402367	2.9815326	1.7267115
29.37112020008047	3.0468013	1.7455089
29.389239228561596	3.1352305	1.7706583
29.407359008392152	3.2846324	1.8123555
29.42547954011872	3.703074	1.9243373
29.44360082428809	4.4205995	2.1025221
29.46172286144722	5.4907436	2.3432336
29.479845652143283	7.049657	2.655119
29.497969196923606	8.974042	2.9956706
29.516093496335728	11.29573	3.360912
29.5342185509274	13.742476	3.7070847
29.55234436124651	15.895312	3.9868925
29.570470927841175	17.115723	4.1371155
29.588598251259686	16.846804	4.104486
29.60672633205055	15.412306	3.9258509
29.624855170762405	13.245709	3.6394656
29.642984767944146	10.711916	3.2729063
29.66111512414481	8.3900385	2.8965564
29.67924623991366	6.361953	2.5222912
29.697378115800138	4.968376	2.2289855
29.71551075235387	4.138072	2.0342252
29.733644150124675	3.7137012	1.9270966
29.751778309662576	3.4519038	1.85793
29.769913231517766	3.3933465	1.8421038
29.78804891624066	3.3387198	1.8272164
29.806185364381818	3.2837732	1.8121184
29.82432257649206	3.3002725	1.8166652
29.842460553122333	3.335488	1.8263319
29.86059929482382	3.323823	1.8231355
29.878738802147872	3.2657778	1.8071463
29.896879075646048	3.1795702	1.7831349
29.915020115870114	3.096349	1.7596445
29.933161923371976	3.145148	1.7734566
29.951304498703777	3.2038457	1.789929
29.969447842417857	3.2246501	1.7957311
29.987591955066733	3.2650616	1.8069482
30.005736837203123	3.206121	1.7905644
30.023882489379943	3.1395006	1.7718636
30.04202891215028	3.0823958	1.7556753
30.060176106067455	3.0762374	1.7539206
30.078324071684946	3.0898898	1.7578082
30.09647280955646	3.066624	1.7511779
30.114622320235863	2.9732964	1.724325
30.132772604277257	2.9835045	1.7272824
30.1509236622349	2.9504125	1.7176765
30.16907549466328	2.9954052	1.7307239
30.18722810211705	3.120379	1.7664595
30.205381485151097	3.2337246	1.798256
30.22353564432045	3.1650448	1.7790573
30.241690580180403	3.0608938	1.749541
30.25984629328638	3.0414171	1.7439659
30.278002784194037	2.980227	1.7263334
30.296160053459246	2.9500306	1.7175653
30.314318101638033	2.9320796	1.7123317
30.332476929286646	2.9050124	1.7044097
30.35063653696153	2.8815753	1.6975204
30.368796925219307	2.7782295	1.6668022
30.386958094616844	2.799791	1.6732576
30.40512004571115	2.8811657	1.6973997
30.423282779059463	2.8555756	1.6898448
30.441446295219233	2.7984047	1.6728433
30.459610594748067	2.7618456	1.6618801
30.47777567820382	2.754129	1.6595569
30.495941546144504	2.7740817	1.6655575
30.51410819912835	2.7860198	1.6691375
30.532275637713795	2.8014526	1.6737541
30.55044386245946	2.8578155	1.6905074
30.56861287392416	2.8898742	1.699963
30.586782672666956	2.8719358	1.6946787
30.604953259247047	2.826787	1.6813052
30.623124634223885	2.8352542	1.6838213
30.641296798157075	2.8538327	1.689329
30.659469751606462	2.762447	1.6620611
30.677643495132074	2.6842084	1.6383554
30.695818029294152	2.6537359	1.6290292
30.713993354653116	2.7126658	1.6470172
30.73216947176962	2.7261932	1.6511188
30.75034638120448	2.716427	1.6481587
30.768524083518756	2.6486225	1.6274589
30.786702579273673	2.5705397	1.6032903
30.80488186903069	2.6505609	1.6280543
30.82306195335144	2.8418725	1.6857854
30.841242832797782	3.0438426	1.7446612
30.85942450793176	3.3053982	1.8180754
30.877606979315637	3.6921844	1.9215058
30.895790247511883	4.089741	2.022311
30.913974313083134	4.4527383	2.1101513
30.932159176592283	4.7321005	2.1753392
30.95034483860237	4.6963015	2.1670952
30.968531299676698	4.401352	2.09794
30.98671856037873	4.086093	2.0214086
31.00490662127215	3.8246007	1.9556587
31.023095482920848	3.4550302	1.8587712
31.04128514588892	3.046507	1.7454245
31.059475610740662	2.6821277	1.6377202
31.07766687804056	2.4810443	1.5751331
31.09585894835335	2.436876	1.5610497
31.11405182224393	2.4123998	1.5531902
31.132245500277417	2.3498015	1.5329063
31.15043998301914	2.3193173	1.5229305
31.168635271034628	2.377846	1.5420266
31.18683136488964	2.442517	1.5628554
31.20502826515008	2.4932172	1.5789925
31.223225972382135	2.5616486	1.6005151
31.241424487152155	2.5751503	1.6047275
31.259623810026692	2.4894457	1.5777978
31.27782394157253	2.3189976	1.5228255
31.296024882356644	2.283026	1.5109686
31.314226632946237	2.3495586	1.532827
31.332429193908684	2.4272783	1.5579724
31.350632565811598	2.4682536	1.5710677
31.368836749222787	2.4770415	1.573862
31.387041744710295	2.4606843	1.5686568
31.40524755284232	2.536066	1.5925031
31.423454174187317	2.583697	1.6073883
31.441661609313922	2.5352638	1.5922512
31.459869858791002	2.464453	1.5698576
31.478078923187628	2.3960085	1.5479045
31.496288803073064	2.329887	1.5263968
31.514499499016807	2.3346486	1.5279557
31.532711011588546	2.3714385	1.5399475
31.550923341358178	2.3753874	1.5412292
31.56913648889584	2.361799	1.5368146
31.587350454771844	2.3633087	1.5373056
31.605565239556732	2.421304	1.556054
31.62378084382127	2.3899078	1.5459327
31.641997268136382	2.3556085	1.5347992
31.660214513073274	2.3155909	1.5217066
31.67843257920331	2.3555894	1.5347929
31.6966514670981	2.3854208	1.5444808
31.71487117732944	2.2985275	1.5160896
31.733091710469346	2.2180874	1.4893245
31.751313067090052	2.3160021	1.5218416
31.769535247764008	2.3824415	1.5435159
31.787758253063878	2.3920155	1.5466142
31.805982083562526	2.321739	1.5237254
31.824206739833024	2.3143823	1.5213094
31.84243222244869	2.2598708	1.5032866
31.860658531983013	2.2425025	1.4974988
31.878885669009737	2.2285507	1.4928331
31.897113634102784	2.144158	1.4642943
31.91534242783632	2.1273534	1.458545
31.933572050784694	2.1812131	1.4768931
31.951802503522508	2.2040846	1.484616
31.970033786624548	2.2369213	1.4956341
31.988265900665834	2.1440513	1.464258
32.006498846221575	2.09543	1.44756
32.02473262386724	2.170199	1.4731596
32.04296723417845	2.2324293	1.4941316
32.0612026777311	2.227664	1.4925361
32.07943895510129	2.174801	1.4747207
32.097676066865304	2.1562548	1.4684192
32.115914013599685	2.142003	1.4635583
32.13415279588115	2.1001484	1.449189
32.152392414286666	2.125195	1.4578049
32.1706328693934	2.136282	1.4616026
32.18887416177875	2.0548074	1.43346
32.20711629202032	2.0673006	1.437811
32.225359260695924	2.11958	1.4558778
32.243603068383614	2.0690224	1.4384097
32.26184771566166	2.0552406	1.433611
32.28009320310852	2.0367744	1.4271561
32.2983395313029	1.9847401	1.4088081
32.31658670082372	1.9991434	1.4139106
32.33483471225012	2.035546	1.4267256
32.35308356616143	2.0355363	1.4267222
32.371333263137245	2.0752935	1.4405879
32.38958380375734	2.079429	1.4420226
32.407835188601744	2.0433738	1.4294662
32.42608741825067	2.0509434	1.4321115
32.444340493284585	2.1384401	1.4623406
32.46259441428416	2.1691453	1.4728019
32.48084918183028	2.180316	1.4765893
32.49910479650405	2.0665658	1.4375554
32.51736125888683	2.060808	1.4355514
32.53561856956014	2.0364783	1.4270523
32.5538767291058	2.0220554	1.4219899
32.572135738105764	2.0635004	1.4364889
32.59039559714228	2.0391076	1.4279733
32.608656306797776	2.0630145	1.4363198
32.62691786765491	2.0988069	1.4487259
32.645180280296586	1.947626	1.3955737
32.663443545305896	1.9338938	1.3906451
32.68170766326619	1.979241	1.406855
32.69997263476099	1.981531	1.4076686
32.7182384603741	1.9586926	1.399533
32.7365051406895	1.9363079	1.3915129
32.75477267629144	1.869823	1.3674147
32.77304106776434	1.919184	1.3853462
32.79131031569289	2.0302305	1.4248616
32.809580420661966	2.013158	1.418858
32.827851383256714	1.9450793	1.394661
32.84612320406245	1.9374752	1.3919321
32.86439588366476	1.9636048	1.4012868
32.88266942264945	1.9863346	1.4093738
32.9009438216025	1.988614	1.4101822
32.9192190811102	1.9591872	1.3997097
32.937495201758985	1.9465688	1.3951949
32.95577218413556	1.9904941	1.4108487
32.974050028826866	1.966404	1.4022852
32.992328736420035	1.9774581	1.4062213
33.010608307502444	1.9844584	1.4087081
33.02888874266169	2.0277312	1.4239843
33.047170042485604	2.0324187	1.4256293
33.06545220756225	1.9002999	1.3785137
33.083735238479896	1.8642086	1.3653603
33.10201913582707	1.9418324	1.3934965
33.12030390019248	1.9912763	1.4111259
33.138589532165135	1.9843967	1.4086862
33.15687603233419	1.9272075	1.388239
33.17516340128909	1.8970714	1.3773421
33.19345163961947	1.9260616	1.3878262
33.211740747915215	2.0077765	1.4169604
33.23003072676643	1.9881386	1.4100137
33.248321576763466	1.9152434	1.3839232
33.266613298496885	1.9164033	1.3843422
33.28490589255747	1.8929427	1.3758426
33.30319935953626	1.8866786	1.3735642
33.32149370002451	1.9547788	1.398134
33.339788914613706	1.9906697	1.410911
33.358085003895575	1.8915684	1.375343
33.376381968462034	1.90555	1.3804166
33.39467980890529	1.96774	1.4027616
33.41297852581774	2.035046	1.4265504
33.43127811979204	2.0392973	1.4280397
33.44957859142105	2.009122	1.4174349
33.467879941297866	1.9253116	1.387556
33.486182170015844	1.7614049	1.3271793
33.50448527816853	1.7901871	1.3379787
33.522789266349754	1.8822525	1.371952
33.541094135153514	1.9137897	1.3833979
33.55939988517411	1.9155831	1.384046
33.57770651700602	1.8603514	1.363947
33.59601403124398	1.8835347	1.3724192
33.61432242848296	1.8959837	1.3769473
33.632631709318154	1.883601	1.3724434
33.650941874344994	1.8951517	1.3766451
33.66925292415916	1.936017	1.3914083
33.68756485935654	1.8526357	1.3611156
33.70587768053328	1.8201162	1.3491168
33.724191388285746	1.9315927	1.3898175
33.74250598321054	1.9827914	1.4081162
33.760821465904506	1.9728209	1.4045714
33.77913783696474	2.011572	1.418299
33.79745509698852	1.9424562	1.3937203
33.815773246573414	1.7822627	1.3350141
33.8340922863172	1.6983314	1.3032005
33.852412216817896	1.751658	1.3235022
33.87073303867377	1.8134624	1.3466486
33.889054752483304	1.888408	1.3741935
33.907377358845245	1.9223913	1.3865032
33.92570085835853	1.8799051	1.3710964
33.94402525162239	1.8989525	1.3780248
33.96235053923627	1.9364884	1.3915777
33.980676721799824	1.9453198	1.3947473
33.999003799912984	1.8647501	1.3655585
34.01733177417592	1.791491	1.3384659
34.03566064518901	1.8095964	1.3452125
34.0539904135529	1.8627476	1.3648251
34.07232107986846	1.9894317	1.4104722
34.090652644736785	2.0275352	1.4239155
34.108985108759235	1.9419352	1.3935333
34.12731847253742	1.8668487	1.3663267
34.14565273667313	1.9537721	1.397774
34.16398790176847	2.0055542	1.416176
34.18232396842574	1.9822732	1.4079323
34.20066093724749	1.9447753	1.394552
34.21899880883651	1.8892078	1.3744845
34.23733758379583	1.8979458	1.3776596
34.25567726272874	1.8814397	1.3716558
34.27401784623872	1.8914472	1.375299
34.29235933492957	1.858416	1.3632373
34.31070172940526	1.9028953	1.3794547
34.32904503027003	2.0064828	1.4165038
34.347389238128386	2.0471017	1.4307697
34.36573435358502	1.9539579	1.3978405
34.38408037724492	1.97999	1.4071212
34.402427309713296	2.0325756	1.4256842
34.42077515159559	2.0855517	1.4441439
34.43912390349752	2.0590982	1.4349558
34.45747356602499	2.002726	1.4151771
34.47582413978423	2.0266383	1.4236004
34.49417562538163	1.9342093	1.3907585
34.51252802342388	1.920145	1.385693
34.53088133451789	1.837979	1.3557209
34.54923555927084	1.8613837	1.3643254
34.567590698290104	1.8290541	1.3524252
34.58594675218336	1.9195592	1.3854816
34.6043037215585	1.9437053	1.3941684
34.62266160702365	1.8539197	1.3615872
34.641020409187234	1.8970478	1.3773335
34.65938012865785	2.0136006	1.419014
34.677740766044394	1.9449972	1.3946315
34.69610232195598	1.9785112	1.4065956
34.714464797002016	2.0126452	1.4186773
34.73282819179208	2.0587397	1.4348309
34.751192506936064	2.057682	1.4344623
34.76955774304408	1.9972588	1.413244
34.7879239007265	1.9466543	1.3952255
34.80629098059391	1.8733929	1.3687195
34.824658983257194	1.8341591	1.3543113
34.843027909327446	1.871086	1.3678764
34.86139775941603	2.005703	1.4162284
34.879768534134534	2.0527585	1.4327451
34.89814023409483	2.111954	1.4532564
34.91651285990901	1.9950475	1.4124615
34.93488641218944	1.9214487	1.3861634
34.95326089154871	1.9629211	1.4010428
34.97163629859967	1.9046053	1.3800744
34.99001263395542	2.0620935	1.4359992
35.00838989822934	2.04247	1.4291501
35.02676809203499	1.8815795	1.3717068
35.04514721598624	1.959969	1.3999889
35.063527270697215	1.9680089	1.4028574
35.081908256782256	1.9028908	1.3794531
35.10029017485597	2.0081367	1.4170874
35.11867302553321	2.094254	1.4471538
35.137056809429104	1.8964887	1.3771306
35.155441527159006	1.8410726	1.3568612
35.173827179338524	2.1349478	1.461146
35.19221376658354	2.1628115	1.4706501
35.21060128951017	1.9977539	1.4134192
35.2289897487348	1.7432755	1.3203316
35.24737914487405	1.740601	1.3193184
35.26576947854479	1.9701629	1.4036249
35.28416075036418	2.0223856	1.422106
35.30255296094958	1.9614255	1.400509
35.32094611091867	1.7665864	1.3291299
35.33934020088932	1.6720289	1.2930696
35.35773523147969	1.6777128	1.2952656
35.3761312033082	1.9206405	1.3858718
35.394528116993506	2.160805	1.4699677
35.41292597315452	2.065315	1.4371204
35.431324772410434	1.9698697	1.4035205
35.449724515380666	1.9244014	1.387228
35.46812520268491	1.7980611	1.3409181
35.486526834943106	1.7848619	1.3359872
35.504929412775454	1.5063523	1.2273355
35.52333293680242	1.5768062	1.2557094
35.54173740764471	1.8152227	1.3473021
35.560142825923286	1.888013	1.3740499
35.5785491922594	1.1716741	1.082439
35.59695650727454	0.6060379	0.77848434
35.61536477159042	0.74289906	0.86191595
