0.008763373481513119	0.0	0.0
0.026290120649546365	0.14626539	0.3824466
0.043816868432600686	0.1255995	0.3544002
0.06134361724069026	0.13924508	0.37315556
0.07887036748382949	0.114812374	0.33883974
0.0963971195720331	0.09560464	0.30920002
0.11392387391531617	0.10483685	0.3237852
0.1314506309236943	0.12280935	0.35044166
0.1489773910071836	0.110248744	0.33203727
0.16650415457580078	0.06150127	0.2479945
0.18403092203956356	0.029111799	0.1706218
0.20155769380849	0.03002002	0.17326286
0.2190844702925996	0.08890722	0.29817313
0.2366112519019124	0.113918126	0.3375176
0.2541380390464497	0.1525804	0.3906154
0.27166483213623416	0.15439771	0.39293474
0.28919163158128947	0.13189562	0.36317435
0.3067184377916406	0.10752537	0.3279106
0.324245251177314	0.09331229	0.30547062
0.34177207214833777	0.09529255	0.30869493
0.3592989011147415	0.1050273	0.32407916
0.37682573848655654	0.08111218	0.28480202
0.39435258467381573	0.071337394	0.26709062
0.41187944008655414	0.11925277	0.34532994
0.42940630513480854	0.14636645	0.38257867
0.446933180228618	0.14948495	0.38663283
0.4644600657780234	0.147101	0.38353747
0.48198696219306775	0.13611077	0.36893192
0.49951386988379676	0.14851972	0.38538256
0.5170407892602581	0.15532973	0.39411893
0.5345677207325025	0.18780111	0.43336025
0.5520946647105822	0.219605	0.4686203
0.5696216216045534	0.21420386	0.46282163
0.5871485918244737	0.17198615	0.41471213
0.6046755757804043	0.169704	0.41195145
0.6222025738824094	0.12970994	0.36015266
0.6397295865405557	0.15409337	0.39254728
0.6572566141649129	0.14516687	0.3810077
0.6747836571655547	0.14491336	0.38067487
0.6923107159525568	0.15209879	0.38999844
0.7098377909359992	0.1909602	0.43698993
0.7273648825259653	0.20248708	0.44998565
0.7448919911325411	0.18709971	0.43255025
0.762419117165817	0.13974705	0.37382758
0.7799462610358868	0.12676296	0.35603786
0.7974734231528482	0.13918042	0.37306893
0.8150006039268024	0.14982758	0.3870757
0.8325278037678551	0.16878486	0.41083434
0.8500550230861152	0.19424728	0.44073492
0.8675822622916969	0.24414437	0.49410966
0.8851095217947171	0.23995697	0.48985404
0.9026368020052984	0.22969824	0.47926843
0.9201641033335665	0.18055531	0.424918
0.9376914261896523	0.1538377	0.39222148
0.9552187709836915	0.19486415	0.4414342
0.9727461381258234	0.24609514	0.49607977
0.990273528026193	0.320429	0.5660645
1.0078009410949496	0.30609483	0.55325836
1.0253283777422473	0.27092797	0.5205074
1.0428558383782454	0.24272753	0.49267387
1.0603833234131086	0.23154624	0.48119253
1.0779108332570058	0.24082744	0.49074173
1.0954383683201119	0.25759748	0.50754064
1.112965929012607	0.28646573	0.5352249
1.1304935157446763	0.44225034	0.66501904
1.1480211289265108	0.52349937	0.72353256
1.1655487689683062	1.4327308	1.1969674
1.1830764362802655	1.8038266	1.3430661
1.200604131272596	2.2058256	1.4852022
1.2181318543555117	2.4383233	1.5615132
1.235659605939232	2.3869333	1.5449703
1.253187386433982	3.9095695	1.9772631
1.270715196249994	6.294934	2.5089707
1.2882430357975057	11.895593	3.4489987
1.3057709054867608	16.714342	4.088318
1.3232988057280106	22.875166	4.782799
1.3408267369315112	28.438662	5.3327913
1.358354699507526	32.34186	5.6869907
1.3758826938663256	36.432392	6.035925
1.3934107204181858	37.92355	6.15821
1.410938779573391	38.029747	6.1668262
1.4284668717422309	38.625645	6.2149534
1.4459949973350033	37.986645	6.1633306
1.4635231567620117	38.18427	6.1793423
1.4810513504335687	37.26205	6.1042647
1.4985795787599925	36.84242	6.0697956
1.5161078421516088	36.561783	6.046634
1.5336361410187505	35.729927	5.9774513
1.5511644757717598	35.398552	5.9496684
1.5686928468209842	35.713596	5.976085
1.58622125457678	36.38121	6.031684
1.6037496994495108	37.760345	6.1449447
1.621278181849548	37.675335	6.138024
1.6388067021872719	38.64704	6.2166743
1.6563352608730693	37.88997	6.155483
1.673863858317336	36.860573	6.071291
1.6913924949304753	36.15179	6.0126357
1.7089211711228998	35.288525	5.9404144
1.7264498873050296	34.6547	5.8868246
1.7439786438872935	33.795166	5.813361
1.7615074412801288	32.696747	5.7181067
1.779036279893981	31.732979	5.633203
1.796565160139305	30.54008	5.526308
1.814094082426564	29.845585	5.4631114
1.8316230471662298	29.320082	5.414802
1.849152054768784	28.719683	5.3590746
1.8666811056447168	27.971935	5.2888503
1.8842102002045273	27.052265	5.201179
1.901739338858724	26.23237	5.1217546
1.9192685220178245	25.742382	5.073695
1.9367977500923557	25.153267	5.015303
1.9543270234928547	25.078762	5.00787
1.971856342629867	24.671543	4.967046
1.9893857079139496	24.147614	4.914022
2.006915119755667	23.666859	4.8648596
2.0244445785655945	22.98121	4.7938724
2.0419740847543175	22.54278	4.747924
2.0595036387324317	21.978508	4.688124
2.0770332409105414	21.492489	4.635999
2.094562891699263	20.885872	4.5701065
2.1120925915092217	20.283232	4.5036907
2.129622340751053	20.022385	4.474638
2.1471521398354043	188.02931	13.7123785
2.1646819891729323	444.3003	21.078432
2.182211889174303	440.50314	20.988167
2.1997418402501974	453.04306	21.28481
2.2172718428113023	433.0154	20.809023
2.234801897268317	321.079	17.918678
2.2523320040319548	17.542185	4.188339
2.269862163512935	17.055233	4.1297984
2.287392376121992	16.699423	4.0864925
2.304922642269869	16.240446	4.0299435
2.322452962367322	16.187021	4.0233097
2.3399833368251164	15.799032	3.9747996
2.357513766054032	15.477522	3.934148
2.3750442504648586	15.059704	3.8806834
2.3925747904683963	14.740416	3.839325
2.410105386475459	14.380715	3.7921913
2.4276360388968707	14.090161	3.7536864
2.445166748143469	14.028738	3.7454958
2.4626975146261025	13.954062	3.7355137
2.4802283387556323	13.981563	3.7391927
2.4977592209429305	13.697851	3.7010608
2.5152901615988825	13.412063	3.6622484
2.5328211611343865	13.072733	3.6156235
2.5503522199603523	12.707494	3.564757
2.5678833384877024	12.423132	3.5246463
2.5854145171273712	12.49813	3.5352695
2.6029457562903064	12.426174	3.5250778
2.620477056387469	12.349588	3.514198
2.6380084178298326	11.981266	3.4613965
2.655539841028383	11.648811	3.4130354
2.673071326394119	11.383631	3.3739636
2.6906028743380523	11.271976	3.3573763
2.708134485271211	11.095363	3.3309703
2.7256661596046325	10.911512	3.303258
2.743197897749369	10.73085	3.2757976
2.760729700116486	10.625356	3.2596557
2.778261567117063	10.416667	3.2274861
2.795793499162193	10.367637	3.2198815
2.8133254966629817	10.238623	3.1997848
2.830857560030551	10.099679	3.1779993
2.8483896896760337	9.907418	3.1476052
2.865921886010578	9.689639	3.1128185
2.883454149445347	9.630717	3.1033397
2.9009864803915177	9.584745	3.095924
2.91851887926028	9.415775	3.0685136
2.9360513464628384	9.288238	3.047661
2.953583882410413	9.261966	3.0433478
2.9711164875142373	9.16209	3.0268946
2.9886491621855606	9.017121	3.0028522
3.0061819068356455	8.876432	2.979334
3.023714721875769	8.774475	2.962174
3.041247607717225	8.646291	2.9404576
3.0587805647713213	8.536497	2.9217284
3.0763135934493806	8.410616	2.9001062
3.0938466941627407	8.265497	2.8749778
3.1113798673227544	8.228184	2.8684812
3.1289131133407904	8.205174	2.8644676
3.1464464326282315	8.062675	2.8394852
3.1639798255964786	8.022153	2.8323405
3.1815132926569443	7.79404	2.791781
3.1990468342210603	7.765086	2.7865903
3.216580450700272	7.6862454	2.7724078
3.2341141425060416	7.6253552	2.7614045
3.251647910049847	7.561505	2.749819
3.2691817537431813	7.416395	2.723306
3.286715673997555	7.3123436	2.7041345
3.3042496712244938	7.2427726	2.69124
3.32178374583554	7.25169	2.6928961
3.339317898242251	7.1952314	2.6823928
3.3568521288562034	7.07088	2.6591127
3.3743864380889876	6.89768	2.6263435
3.3919208263522127	6.714049	2.5911481
3.4094552940575023	6.642722	2.577348
3.4269898416164972	6.7622733	2.6004372
3.444524469440858	6.6567736	2.5800724
3.4620591779422587	6.589528	2.5670075
3.479593967532391	6.4887986	2.547312
3.4971288386229658	6.4291663	2.5355802
3.5146637916257086	6.4389763	2.5375137
3.5321988269523628	6.4668765	2.5430055
3.5497339450146903	6.4244	2.53464
3.5672691462244708	6.4246244	2.5346842
3.5848044309934988	6.3439326	2.5187166
3.60233979973359	6.328099	2.5155714
3.619875252856575	6.332164	2.516379
3.6374107907743034	6.346836	2.5192928
3.6549464138986427	6.4489546	2.5394793
3.6724821226414788	6.4797773	2.5455406
3.690017917414714	6.4127436	2.5323396
3.7075537986302702	6.384691	2.5267947
3.7250897667000857	6.376781	2.525229
3.7426258220361235	6.481444	2.545868
3.7601619650503553	6.7331862	2.5948384
3.777698196154779	7.3256793	2.7065992
3.7952345157614067	8.361554	2.8916352
3.8127709242822716	9.111417	3.0185122
3.830307422129425	11.298956	3.361392
3.847844009714936	30.123974	5.488531
3.8653806874508954	97.679276	9.883283
3.882917455749409	96.94576	9.846104
3.900454315022606	96.81183	9.8393
3.917991265682631	41.425278	6.4362473
3.9355283081416506	11.123593	3.335205
3.9530654428118495	8.998163	2.9996939
3.970602670105433	7.779583	2.7891903
3.9881399904346244	6.814083	2.61038
4.005677404211669	6.5660233	2.5624254
4.023214911848827	6.4859095	2.5467448
4.0407525137583855	6.4899507	2.547538
4.058290210352644	6.4674296	2.5431142
4.075828002043927	6.3793654	2.5257406
4.0933658892445814	6.3362236	2.5171857
4.110903872366966	6.2937593	2.5087366
4.128441951823468	6.3051133	2.5109985
4.145980128026488	6.2997246	2.5099251
4.163518401388452	6.1740465	2.484763
4.181056772321807	6.1444545	2.478801
4.1985952412390155	6.160431	2.4820216
4.216133808552567	6.1883216	2.4876337
4.233672474674966	6.299925	2.5099652
4.251211240018741	6.48195	2.5459673
4.268750104996445	6.780457	2.6039312
4.286289070020643	7.708598	2.7764363
4.303828135503928	9.258905	3.042845
4.3213673018589125	29.52528	5.433717
4.3389065694982305	90.58794	9.51777
4.356445938834537	165.95663	12.882416
4.3739854102805085	171.68402	13.102825
4.391524984248844	172.57858	13.136917
4.409064661152262	136.62148	11.688519
4.426604441403504	96.89388	9.843469
4.444144325415337	75.88215	8.711036
4.461684313600543	21.896696	4.6793904
4.47922440637193	22.299292	4.722213
4.496764604142329	20.626245	4.5416126
4.5143049073245916	18.801651	4.336087
4.531845316331589	16.710546	4.0878534
4.5493858315762195	13.742708	3.707116
4.566926453471405	11.322134	3.364838
4.584467182430081	9.384865	3.0634727
4.602008018865218	8.295165	2.880133
4.619548963189798	7.632884	2.7627676
4.637090015816834	7.185127	2.6805086
4.654631177159353	6.889549	2.624795
4.672172447630417	6.6376257	2.576359
4.689713827643102	6.388321	2.5275128
4.7072553176105085	6.057737	2.461247
4.724796917945764	5.920283	2.4331632
4.742338629062015	5.848406	2.4183478
4.759880451372434	5.8174453	2.4119382
4.777422385290215	5.7403936	2.395912
4.794964431228581	5.785761	2.405361
4.812506589600768	5.772737	2.402652
4.830048860820047	5.78151	2.4044771
4.847591245299709	5.7088532	2.3893206
4.8651337434530655	5.694352	2.386284
4.882676355693457	5.6420875	2.3753078
4.900219082434242	5.5855846	2.3633842
4.917761924088813	5.5072594	2.346755
4.935304881070575	5.5296626	2.3515234
4.952847953792969	5.5584464	2.3576357
4.970391142669449	5.6230297	2.3712928
4.9879344481135055	5.5815043	2.3625207
5.005477870538642	5.594325	2.3652325
5.023021410358394	5.5868015	2.3636415
5.040565067986324	5.576164	2.36139
5.05810884383601	5.5384474	2.3533907
5.075652738321066	5.5256376	2.3506675
5.09319675185512	5.457854	2.336205
5.110740884851836	5.448754	2.3342566
5.128285137724894	5.393694	2.3224328
5.145829510888007	5.4304757	2.330338
5.163374004754908	5.4992175	2.345041
5.1809186197393595	5.4566617	2.33595
5.198463356255145	5.518262	2.3490982
5.216008214716077	5.433385	2.3309622
5.233553195535998	5.395818	2.32289
5.251098299128764	5.2424355	2.2896366
5.268643525908272	5.2492933	2.2911336
5.286188876288432	5.333326	2.3093994
5.3037343506831895	5.458072	2.3362517
5.32127994950651	5.427915	2.3297887
5.3388256731723915	5.3459945	2.3121407
5.356371522094851	5.2944736	2.3009722
5.373917496687938	5.2794366	2.2977026
5.391463597365729	5.265181	2.2945983
5.40900982454232	5.2461405	2.2904456
5.426556178631843	5.225413	2.285916
5.444102660048449	5.1974344	2.2797883
5.4616492692063225	5.182911	2.2766008
5.479196006519669	5.1172166	2.2621264
5.496742872402727	5.1358066	2.2662318
5.514289867269756	5.1765146	2.2751956
5.531836991535049	5.27581	2.2969131
5.549384245612924	5.2637463	2.2942855
5.566931629917724	5.2572985	2.29288
5.584479144863822	5.257448	2.2929125
5.6020267908656205	5.2536597	2.2920864
5.619574568337545	5.169086	2.2735624
5.637122477694054	5.163008	2.2722254
5.654670519349629	5.101611	2.2586746
5.672218693718784	5.180391	2.2760472
5.689767001216059	5.1657643	2.2728317
5.707315442256021	5.199152	2.280165
5.724864017253266	5.1720843	2.2742217
5.7424127266224225	5.220749	2.284896
5.75996157077814	5.2676516	2.2951365
5.777510550135105	5.2922373	2.3004863
5.795059665108022	5.2863235	2.2992005
5.812608916111639	5.269563	2.295553
5.830158303560715	5.444316	2.3333058
5.847707827870055	5.4920373	2.3435097
5.86525748945448	5.5120354	2.3477724
5.8828072887288485	5.5789323	2.3619764
5.900357226108044	5.6358633	2.3739972
5.917907302006979	5.7268815	2.3930902
5.9354575168406	6.2410583	2.4982111
5.9530078710238765	6.8161306	2.6107721
5.970558364971812	7.4984283	2.7383258
5.988108999099438	7.8724246	2.8057842
6.005659773821818	8.439872	2.9051456
6.023210689554039	8.068968	2.8405929
6.040761746711227	8.480925	2.9122026
6.058312945708531	7.9015646	2.8109722
6.075864286961132	7.447678	2.7290435
6.093415770884244	6.759545	2.5999124
6.1109673978931065	6.23467	2.4969323
6.128519168402993	5.6718483	2.3815641
6.146071082829204	5.5053725	2.346353
6.163623141587075	5.3975396	2.3232605
6.181175345091969	5.2817497	2.2982059
6.198727693759281	5.2206697	2.2848785
6.216280188004435	5.222691	2.2853208
6.233832828242885	5.281434	2.2981372
6.251385614890126	5.268247	2.2952662
6.268938548361669	5.1913347	2.27845
6.286491629073067	5.099797	2.258273
6.304044857439898	5.022918	2.2411869
6.321598233877777	4.963565	2.227906
6.339151758802344	4.9374666	2.2220411
6.356705432629277	4.9949107	2.2349298
6.37425925577428	4.9769	2.2308967
6.391813228653095	4.984801	2.2326667
6.409367351681486	5.050353	2.247299
6.426921625275259	5.0670557	2.251012
6.44447604985025	5.079475	2.2537692
6.46203062582232	5.036594	2.2442358
6.47958535360737	4.9908414	2.234019
6.497140233621328	5.0140605	2.23921
6.514695266280161	4.99334	2.2345784
6.532250451999859	4.9895697	2.2337344
6.549805791196454	4.9869957	2.2331583
6.567361284286002	4.9500117	2.224862
6.584916931684597	4.948231	2.224462
6.602472733808367	4.959854	2.227073
6.6200286910734665	5.002802	2.2366943
6.637584803896092	5.0770907	2.25324
6.655141072692462	5.0580106	2.2490022
6.672697497878842	5.055993	2.2485535
6.690254079871514	4.9774857	2.2310278
6.707810819086808	5.0137506	2.2391405
6.725367715941078	4.9919224	2.234261
6.742924770850719	4.9625382	2.2276754
6.760481984232151	5.023652	2.2413504
6.778039356501836	5.1223717	2.2632656
6.795596888076266	5.1665344	2.2730012
6.813154579371963	5.1376543	2.2666395
6.830712430805492	5.112683	2.2611241
6.84827044279344	5.103414	2.2590737
6.865828615752445	5.0489545	2.2469878
6.883386950099159	4.9799733	2.2315853
6.900945446250287	5.008319	2.2379274
6.918504104622553	5.0311227	2.2430165
6.936062925632727	5.120612	2.262877
6.953621909697607	5.1639585	2.2724345
6.971181057234028	5.2630243	2.2941282
6.988740368658859	5.256395	2.292683
7.006299844389007	5.2586308	2.2931705
7.023859484841407	5.231769	2.287306
7.041419290433036	5.319503	2.3064048
7.058979261580902	5.505994	2.3464854
7.0765393987020495	5.757139	2.3994038
7.094099702213559	6.1038837	2.470604
7.111660172532549	6.4320636	2.5361514
7.129220810076164	6.771452	2.6022015
7.146781615261595	7.46211	2.7316864
7.16434258850606	7.7114353	2.776947
7.181903730226821	8.132832	2.851812
7.1994650408411704	8.175642	2.859308
7.217026520766437	8.231006	2.868973
7.234588170419983	8.469225	2.9101932
7.252149990219215	8.438848	2.9049695
7.269711980581568	8.387982	2.8962014
7.2872741419245175	8.206213	2.8646488
7.304836474665574	7.8014007	2.7930987
7.322398979222286	7.4404573	2.7277203
7.339961656012233	7.2428374	2.691252
7.357524505453039	6.895568	2.6259413
7.375087527962357	6.7637057	2.6007125
7.392650723957886	6.5188937	2.5532124
7.410214093857353	6.158955	2.4817243
7.427777638078528	5.839365	2.416478
7.445341357039213	5.6550374	2.3780322
7.4629052511572525	5.5433145	2.3544245
7.480469320850524	5.4868813	2.3424094
7.498033566536948	5.402727	2.3243768
7.5155979886344735	5.30621	2.3035212
7.5331625875610975	5.250384	2.2913716
7.550727363734844	5.222996	2.2853875
7.568292317573788	5.2214828	2.2850564
7.585857449496025	5.19312	2.2788417
7.603422759919705	5.1815286	2.276297
7.620988249263007	5.243517	2.2898726
7.638553917944147	5.316165	2.305681
7.656119766381391	5.345836	2.3121064
7.673685794993023	5.2530565	2.2919548
7.691252004197388	5.2186146	2.2844288
7.70881839441285	5.2349744	2.2880065
7.726384966057826	5.217308	2.2841427
7.743951719550762	5.201185	2.2806108
7.761518655310149	5.204729	2.2813876
7.779085773754511	5.2213235	2.2850215
7.796653075302419	5.2661242	2.2948039
7.814220560372475	5.2620163	2.2939086
7.831788229383323	5.2496696	2.2912157
7.8493560827536495	5.323914	2.307361
7.866924120902174	5.3873734	2.3210716
7.884492344247663	5.4988174	2.3449557
7.9020607532089135	5.5267034	2.3508942
7.919629348204771	5.5307884	2.3517628
7.937198129654115	5.4727435	2.3393896
7.954767097975865	5.4416537	2.3327353
7.972336253588986	5.453799	2.335337
7.989905596912472	5.4656725	2.3378778
8.007475128365371	5.511695	2.3476999
8.025044848366756	5.5704346	2.3601768
8.042614757335754	5.6637297	2.3798592
8.060184855691523	5.765716	2.4011905
8.07775514385327	5.886606	2.4262328
8.095325622240228	5.9396	2.4371295
8.112896291271687	5.9160876	2.4323008
8.130467151366968	5.964613	2.4422557
8.148038202945436	5.884552	2.4258096
8.165609446426497	5.8542013	2.4195457
8.183180882229594	5.900507	2.429096
8.200752510774217	5.9152603	2.4321308
8.218324332479893	5.9793177	2.4452643
8.235896347766193	5.964001	2.4421306
8.253468557052724	5.9206023	2.4332287
8.27104096075914	5.9921126	2.4478793
8.288613559305137	6.0989294	2.4696012
8.306186353110448	6.198179	2.4896142
8.32375934259485	6.310131	2.5119975
8.341332528178162	6.33984	2.5179038
8.358905910280246	6.3506646	2.5200524
8.376479489321003	6.3194947	2.5138605
8.394053265720377	6.3590827	2.521722
8.411627239898356	6.4050765	2.5308254
8.42920141227497	6.413925	2.5325727
8.44677578327029	6.369829	2.523852
8.464350353304427	6.2935257	2.50869
8.48192512279754	6.264892	2.5029767
8.499500092169827	6.237928	2.4975843
8.51707526184153	6.231454	2.496288
8.534650632232934	6.2874565	2.5074801
8.552226203764365	6.269905	2.5039778
8.569801976856192	6.2573795	2.5014756
8.587377951928834	6.277346	2.5054634
8.60495412940274	6.2677755	2.5035527
8.622530509698416	6.322439	2.514446
8.6401070932364	6.4947195	2.548474
8.657683880437283	6.595838	2.5682364
8.675260871721695	6.740917	2.5963275
8.692838067510303	6.8647923	2.620075
8.710415468223834	7.075131	2.6599119
8.727993074283043	7.2088795	2.6849356
8.745570886108737	7.1882935	2.6810994
8.763148904121765	7.2168365	2.686417
8.78072712874302	7.282508	2.6986122
8.798305560393441	7.57147	2.7516303
8.815884199494006	7.772439	2.7879095
8.833463046465745	7.884214	2.8078842
8.851042101729728	7.988612	2.8264134
8.86862136570707	8.245926	2.871572
8.886200838818924	8.405622	2.899245
8.903780521486505	8.435077	2.9043202
8.921360414131055	8.59388	2.931532
8.938940517173874	8.802854	2.9669604
8.956520831036297	8.982259	2.9970417
8.97410135613971	9.250238	3.0414205
8.99168209290554	9.338451	3.055888
9.009263041755265	9.624219	3.1022925
9.026844203110405	9.897168	3.1459765
9.044425577392525	10.062198	3.1720967
9.062007165023239	10.135308	3.1836
9.079588966424197	10.372466	3.2206314
9.097170982017108	10.432939	3.230006
9.11475321222372	11.394368	3.3755546
9.132335657465825	12.338801	3.512663
9.149918318165264	12.429094	3.525492
9.167501194743924	12.996468	3.6050613
9.18508428762374	12.618951	3.5523162
9.202667597226693	12.566777	3.544965
9.220251123974803	12.193862	3.491971
9.237834868290143	11.924999	3.4532592
9.255418830594836	11.8383465	3.4406898
9.273003011311046	11.438069	3.3820214
9.290587410860985	11.223599	3.3501642
9.308172029666911	10.528395	3.2447488
9.32575686815113	10.190558	3.1922655
9.343341926735997	8.911208	2.9851646
9.360927205843916	8.640516	2.9394755
9.378512705897327	8.41294	2.900507
9.396098427318728	8.136782	2.8525045
9.413684370530664	8.008507	2.8299305
9.431270535955722	7.922136	2.8146288
9.448856924016539	7.8845086	2.8079367
9.466443535135806	7.817488	2.795977
9.484030369736251	7.7903323	2.7911167
9.501617428240658	7.7724123	2.7879047
9.519204711071852	7.785292	2.7902136
9.536792218652714	7.875473	2.8063273
9.55437995140617	7.9747443	2.8239589
9.571967909755191	8.000467	2.8285098
9.589556094122802	8.035617	2.8347163
9.60714450493207	8.021184	2.8321695
9.624733142606116	8.057244	2.8385286
9.642322007568108	8.0925045	2.8447328
9.659911100241267	8.165168	2.8574758
9.677500421048851	8.205109	2.8644562
9.695089970414175	8.206398	2.8646812
9.712679748760609	8.191457	2.8620722
9.730269756511557	8.15075	2.8549519
9.747859994090492	8.173413	2.8589182
9.765450461920915	8.192129	2.8621895
9.78304116042639	8.2270355	2.868281
9.800632090030527	8.186227	2.8611584
9.81822325115699	8.168138	2.8579953
9.835814644229481	8.199065	2.863401
9.853406269671762	8.284883	2.8783472
9.870998127907646	8.330699	2.886295
9.888590219360985	8.385534	2.8957787
9.906182544455698	8.393923	2.8972268
9.923775103615734	8.4640255	2.9092999
9.941367897265108	8.526995	2.920102
9.958960925827878	8.429955	2.9034383
9.97655418972816	8.399024	2.898107
9.994147689390106	8.346105	2.8889625
10.011741425237934	8.3923	2.8969467
10.029335397695904	8.349927	2.889624
10.04692960718833	8.375715	2.8940828
10.06452405413958	8.38812	2.896225
10.082118738974064	8.391446	2.8967993
10.099713662116246	8.347118	2.889138
10.117308823990651	8.309126	2.8825555
10.134904225021844	8.269772	2.875721
10.152499865634445	8.238902	2.8703487
10.170095746253125	8.198862	2.8633654
10.18769186730261	8.18026	2.8601153
10.205288229207675	8.214521	2.8660986
10.222884832393145	8.230584	2.8688996
10.2404816772839	8.20431	2.8643167
10.258078764304868	8.200913	2.8637238
10.275676093881035	8.143185	2.8536265
10.293273666437438	8.120736	2.8496904
10.310871482399158	8.172929	2.8588336
10.32846954219134	8.178383	2.8597872
10.346067846239173	8.207227	2.8648257
10.363666394967908	8.183992	2.8607678
10.38126518880283	8.18466	2.8608844
10.398864228169298	8.21882	2.8668485
10.416463513492713	8.252761	2.872762
10.434063045198531	8.219333	2.8669379
10.451662823712262	8.296078	2.8802912
10.469262849459467	8.317921	2.8840806
10.486863122865758	8.255612	2.873258
10.504463644356806	8.270982	2.8759315
10.522064414358338	8.09856	2.845797
10.539665433296118	8.055229	2.8381736
10.557266701595987	7.968595	2.82287
10.574868219683818	7.9045	2.8114944
10.592469987985552	7.8651876	2.8044941
10.610072006927185	7.7710285	2.7876565
10.627674276934751	7.683761	2.7719598
10.64527679843435	7.540798	2.7460513
10.662879571852143	7.406429	2.7214756
10.680482597614331	7.3049536	2.7027678
10.698085876147173	7.1727915	2.6782067
10.715689407876988	7.0171103	2.648983
10.733293193230146	6.938205	2.6340473
10.750897232633072	6.863955	2.619915
10.76850152651225	6.7755084	2.6029806
10.786106075294207	6.674417	2.5834894
10.803710879405534	6.5403857	2.5574179
10.821315939272877	6.4686007	2.5433445
10.83892125532294	6.4722767	2.544067
10.856526827982472	6.4311457	2.5359704
10.874132657678285	6.38867	2.527582
10.891738744837243	6.3078556	2.5115445
10.909345089886271	6.2601542	2.5020301
10.926951693252343	6.2533445	2.5006688
10.944558555362494	6.228018	2.4955997
10.96216567664381	6.1279283	2.4754653
10.979773057523436	6.0257607	2.4547424
10.997380698428573	5.9493923	2.4391377
11.014988599786477	5.8992066	2.4288282
11.032596762024461	5.8129907	2.4110146
11.050205185569892	5.722228	2.392118
11.067813870850198	5.647188	2.3763814
11.085422818292859	5.5319095	2.3520012
11.10303202832541	5.483324	2.3416498
11.120641501375454	5.4466395	2.3338037
11.138251237870636	5.380934	2.319684
11.155861238238671	5.298216	2.3017855
11.173471502907317	5.2001286	2.280379
11.191082032304402	5.13151	2.2652836
11.208692826857805	5.0764556	2.2530992
11.226303886995465	4.975063	2.230485
11.243915213145371	4.8965874	2.2128234
11.261526805735578	4.9075074	2.2152894
11.279138665194196	4.873993	2.2077122
11.296750791949393	4.8799076	2.2090514
11.314363186429393	4.8654494	2.2057765
11.331975849062479	4.852962	2.202944
11.34958878027699	4.8195214	2.1953409
11.36720198050133	4.787445	2.188023
11.384815450163948	4.737826	2.1766548
11.402429189693366	4.6657395	2.1600323
11.420043199518153	4.5613894	2.135741
11.437657480066942	63.484356	7.967707
11.455272031768422	85.19258	9.229982
11.472886855051353	107.56152	10.371187
11.490501950344528	99.162315	9.958028
11.508117318076819	84.51301	9.193095
11.52573295867715	45.95037	6.7786703
11.543348872574514	4.2658124	2.0653844
11.560965060197946	4.2243886	2.0553317
11.57858152197655	4.1295013	2.0321174
11.59619825833949	4.0730567	2.0181816
11.613815269715985	4.052377	2.0130517
11.631432556535323	38.612343	6.213883
11.649050119226837	83.14124	9.118182
11.666667958219929	93.52117	9.670634
11.68428607394406	107.72415	10.3790245
11.701904466828756	82.56261	9.086397
11.719523137303586	65.412865	8.087822
11.737142085798196	4.6587696	2.1584184
11.754761312742286	3.7620578	1.9396025
11.772380818565619	3.721567	1.9291363
11.790000603698015	3.6931791	1.9217646
11.80762066856935	3.6394517	1.9077348
11.825241013609572	3.6181903	1.9021541
11.842861639248683	3.5865939	1.8938304
11.860482545916748	3.5840106	1.8931483
11.878103734043883	3.5301595	1.8788719
11.895725204060282	3.4886978	1.8678056
11.91334695639619	3.4543233	1.858581
11.930968991481919	3.4339027	1.8530792
11.948591309747824	3.3839889	1.8395622
11.966213911624347	3.3396118	1.8274605
11.98383679754198	3.3169358	1.8212457
12.001459967931268	3.3010588	1.8168817
12.019083423222835	3.2954617	1.8153406
12.036707163847352	3.2823577	1.8117278
12.05433119023556	3.2362106	1.7989471
12.071955502818259	3.2022767	1.7894906
12.089580102026313	3.226902	1.796358
12.107204988290643	3.2146204	1.7929362
12.12483016204224	3.200385	1.788962
12.142455623712152	3.2046013	1.79014
12.16008137373149	3.1499557	1.7748115
12.177707412531431	3.1142066	1.7647115
12.19533374054321	3.0526004	1.7471693
12.212960358198126	3.0396817	1.7434683
12.230587265927545	3.0546157	1.7477459
12.248214464162889	3.0354009	1.7422402
12.265841953335649	3.040757	1.7437767
12.283469733877375	3.048361	1.7459556
12.301097806219685	3.0330198	1.7415568
12.31872617079425	3.004064	1.7332236
12.336354828032825	2.9792001	1.726036
12.353983778367205	2.9712565	1.7237333
12.371613022229262	2.9352906	1.713269
12.389242560050928	2.9182067	1.7082759
12.406872392264201	2.9126406	1.706646
12.424502519301143	2.9049838	1.7044013
12.442132941593874	2.897519	1.7022101
12.459763659574586	2.8727586	1.6949214
12.477394673675532	2.8315349	1.6827165
12.49502598432903	2.816278	1.678177
12.51265759196746	2.8207364	1.6795048
12.530289497023267	2.8612685	1.6915284
12.547921699928967	2.9129372	1.7067329
12.565554201117134	2.9102464	1.7059444
12.583187001020404	2.887072	1.6991386
12.600820100071486	2.8421538	1.6858689
12.618453498703152	2.830641	1.6824509
12.636087197348235	2.7973251	1.6725206
12.65372119643964	2.7965357	1.6722846
12.671355496410326	2.7886598	1.6699281
12.68899009769333	2.8341188	1.6834842
12.706625000721749	2.8547142	1.68959
12.724260205928752	2.9375908	1.7139401
12.741895713747551	2.9538493	1.7186766
12.759531524611454	3.0533233	1.7473761
12.777167638953818	3.0531	1.7473123
12.794804057208072	3.0755312	1.7537192
12.812440779807702	3.056604	1.7483146
12.830077807186271	3.2339087	1.7983072
12.847715139777405	3.2790759	1.8108219
12.865352778014795	3.5276628	1.8782073
12.882990722332197	3.6377463	1.9072877
12.90062897316344	3.6706414	1.9158918
12.918267530942412	3.7500737	1.9365107
12.935906396103071	3.6411407	1.9081774
12.953545569079449	3.8050544	1.9506549
12.971185050305628	3.5937712	1.8957244
12.988824840215775	3.6181314	1.9021386
13.006464939244115	3.6460593	1.9094657
13.024105347824943	3.5114481	1.8738859
13.041746066392617	3.613963	1.9010426
13.05938709538157	3.3833134	1.8393786
13.077028435226296	3.3780785	1.837955
13.094670086361363	3.2837422	1.8121098
13.112312049221401	3.204942	1.7902352
13.129954324241112	3.1176002	1.7656727
13.147596911855258	2.9213266	1.7091889
13.165239812498685	2.8888514	1.6996621
13.182883026606293	2.8531644	1.6891313
13.200526554613058	2.802303	1.6740081
13.218170396954017	2.7670038	1.6634313
13.235814554064284	2.7524087	1.6590385
13.253459026379034	2.7832108	1.6682957
13.271103814333523	2.778516	1.6668881
13.288748918363058	2.7308211	1.6525196
13.306394338903031	2.7020707	1.6437976
13.32404007638889	2.731123	1.6526109
13.341686131256164	2.76776	1.6636586
13.359332503940449	2.7307978	1.6525126
13.376979194877402	2.6860952	1.6389312
13.394626204502751	2.7191103	1.6489725
13.412273533252307	2.7605865	1.6615013
13.429921181561937	2.7866297	1.6693201
13.447569149867581	2.7777176	1.6666486
13.465217438605247	2.787812	1.6696743
13.482866048211022	2.7478688	1.6576697
13.500514979121052	2.7489524	1.6579965
13.518164231771568	2.7526822	1.6591209
13.535813806598844	2.7436547	1.6563982
13.553463704039254	2.727974	1.6516579
13.571113924529229	2.735833	1.6540353
13.588764468505275	2.7338166	1.6534257
13.606415336403956	2.75129	1.6587013
13.624066528661917	2.7719648	1.6649219
13.641718045715882	2.8585448	1.6907232
13.659369888002635	2.9222863	1.7094696
13.67702205595903	2.987034	1.7283038
13.694674550021993	3.0066202	1.7339609
13.712327370628532	3.0467968	1.7455076
13.729980518215713	3.151614	1.7752786
13.747633993220681	3.2216783	1.7949034
13.765287796080647	3.269507	1.8081778
13.7829419272329	3.2802176	1.8111371
13.800596387114801	3.3231466	1.82295
13.818251176163775	3.3514302	1.8306912
13.835906294817324	3.4384584	1.8543081
13.853561743513023	3.4848378	1.866772
13.871217522688525	3.5052097	1.8722205
13.888873632781538	3.554499	1.8853378
13.906530074229858	3.5707989	1.8896557
13.92418684747135	3.5808992	1.8923264
13.941843952943948	3.5531583	1.8849823
13.959501391085665	3.5194943	1.8760315
13.977159162334578	3.4483526	1.856974
13.994817267128846	3.429259	1.8518258
14.012475705906693	3.3363402	1.8265651
14.030134479106424	3.2504356	1.8028965
14.047793587166414	3.1392133	1.7717825
14.065453030525108	3.072725	1.752919
14.083112809621026	3.0317862	1.7412025
14.100772924892766	2.9943871	1.7304298
14.118433376778997	2.9374638	1.7139031
14.136094165718458	2.8291984	1.6820221
14.153755292149969	2.7357872	1.6540215
14.171416756512416	2.6898718	1.6400828
14.189078559244768	2.6374414	1.6240201
14.20674070078606	2.588552	1.6088978
14.224403181575408	2.5627258	1.6008515
14.242066002051999	2.548897	1.5965265
14.259729162655093	2.541989	1.5943617
14.277392663824022	2.4904237	1.5781076
14.295056505998208	2.4175816	1.5548574
14.312720689617128	2.4031458	1.5502083
14.330385215120348	2.4156954	1.5542507
14.348050082947497	2.4560516	1.5671794
14.3657152935383	2.4420753	1.5627141
14.383380847332528	2.402098	1.5498703
14.401046744770051	2.4063857	1.551253
14.418712986290798	2.3893757	1.5457605
14.436379572334793	2.4027045	1.550066
14.454046503342123	2.380112	1.5427611
14.471713779752946	2.3959916	1.5478991
14.489381402007504	2.4233747	1.5567192
14.507049370546113	2.4531956	1.5662681
14.524717685809168	2.4514904	1.5657237
14.542386348237134	2.4212337	1.5560313
14.560055358270553	2.4187148	1.5552218
14.577724716350051	2.45563	1.567045
14.595394422916325	2.5146148	1.5857537
14.61306447841015	2.5571997	1.5991247
14.63073488327237	2.5388553	1.5933785
14.648405637943917	2.5276806	1.5898681
14.6660767428658	2.5169115	1.5864778
14.683748198479094	2.5258927	1.5893058
14.701420005224954	2.538129	1.5931507
14.719092163544628	2.6110995	1.6158897
14.73676467387942	2.6876285	1.6393988
14.754437536670727	2.7142305	1.6474922
14.772110752360014	2.7155216	1.647884
14.78978432138882	2.6975706	1.6424283
14.807458244198777	2.730735	1.6524936
14.82513252123159	2.7006338	1.6433605
14.842807152929028	2.7243714	1.650567
14.860482139732962	2.6867795	1.6391399
14.87815748208531	2.6344666	1.623104
14.8958331804281	2.6297784	1.6216592
14.91350923520342	2.6231782	1.6196228
14.931185646853438	2.6755037	1.6356968
14.948862415820408	2.6975808	1.6424314
14.966539542546656	2.7157803	1.6479625
14.98421702747459	2.708391	1.6457189
15.001894871046696	2.6929355	1.6410166
15.019573073705542	2.6475384	1.6271259
15.037251635893766	2.610199	1.6156111
15.054930558054092	2.648642	1.6274649
15.072609840629323	2.7714062	1.664754
15.090289484062351	2.972953	1.7242254
15.107969488796124	3.2843657	1.8122818
15.125649855273691	3.6804154	1.9184408
15.14333058393817	4.1542754	2.038204
15.161011675232768	5.06499	2.2505534
15.17869312960076	6.3589873	2.5217032
15.196374947485506	8.14149	2.8533297
15.214057129330447	11.19675	3.3461545
15.231739675579114	15.879109	3.98486
15.249422586675102	20.902176	4.57189
15.267105863062092	24.08227	4.907369
15.284789505183847	24.44161	4.9438457
15.302473513484218	22.424732	4.735476
15.320157888407127	18.859644	4.342769
15.337842630396578	14.793392	3.8462179
15.355527739896656	11.610884	3.4074748
15.37321321735153	9.032814	3.005464
15.39089906320545	6.5686193	2.5629318
15.408585277902748	4.915429	2.2170768
15.42627186188783	3.824286	1.9555782
15.443958815605198	3.3021345	1.8171777
15.461646139499424	3.0153487	1.736476
15.479333834015168	2.828364	1.681774
15.497021899597165	2.7781649	1.6667827
15.514710336690234	2.7348099	1.6537261
15.53239914573928	2.6922994	1.6408228
15.550088327189297	2.632877	1.6226143
15.567777881485336	2.5901456	1.6093929
15.58546780907256	2.549079	1.5965835
15.6031581103962	2.4888754	1.577617
15.620848785901568	2.4402692	1.562136
15.638539836034063	2.4495797	1.5651133
15.656231261239173	2.4539096	1.566496
15.673923061962451	2.4451835	1.5637083
15.691615238649552	2.4636385	1.5695982
15.709307791746202	2.463926	1.5696898
15.727000721698221	2.4693682	1.5714223
15.744694028951498	2.4613886	1.5688813
15.76238771395202	2.42396	1.5569072
15.780081777145844	2.41862	1.5551914
15.797776218979125	2.3998654	1.5491499
15.815471039898094	2.3996356	1.5490757
15.833166240349064	2.3843167	1.5441233
15.850861820778437	2.3518345	1.5335692
15.868557781632699	2.350516	1.5331393
15.886254123358412	2.3478594	1.5322726
15.903950846402232	2.378094	1.542107
15.921647951210897	2.3918214	1.5465515
15.939345438231225	2.3960066	1.5479039
15.957043307910133	2.365365	1.5379744
15.974741560694602	2.3693612	1.5392729
15.992440197031714	2.4145417	1.5538796
16.01013921736862	2.458748	1.5680395
16.02783862215259	2.480731	1.5750337
16.045538411830933	2.474749	1.5731335
16.06323858685107	2.4494476	1.5650711
16.080939147660512	2.4320347	1.5594982
16.09864009470684	2.4593825	1.5682418
16.11634142843774	2.4675646	1.5708483
16.134043149300954	2.455766	1.5670884
16.15174525774433	2.4387271	1.5616424
16.169447754215817	2.4428566	1.5629641
16.18715063916342	2.4972777	1.5802777
16.204853913035244	2.5146413	1.585762
16.222557576279478	2.5259712	1.5893304
16.240261629344403	22.481947	4.7415133
16.257966072678386	42.997845	6.5572743
16.275670906729868	38.09305	6.1719565
16.293376131947387	2.5248096	1.5889649
16.31108174877957	2.5517197	1.5974103
16.328787757675133	2.5655131	1.6017219
16.34649415908287	2.6101234	1.6155876
16.364200953451657	2.6523871	1.6286151
16.38190814123048	2.7064984	1.6451439
16.39961572286839	2.69904	1.6428756
16.41732369881455	2.7185268	1.6487956
16.43503206951817	2.7498791	1.658276
16.45274083542859	2.817577	1.678564
16.47044999699522	2.788144	1.6697737
16.488159554667558	2.8094194	1.6761323
16.505869508895184	2.8322685	1.6829345
16.523579860127786	2.9498816	1.7175219
16.541290608815117	2.9634726	1.7214739
16.559001755407035	3.0086265	1.7345393
16.57671330035348	3.0891557	1.7575994
16.59442524410448	3.1866186	1.7851102
16.61213758711015	3.2443452	1.8012066
16.629850329820705	3.2815542	1.811506
16.647563472686436	3.2881339	1.8133212
16.665277016157724	3.3317826	1.8253171
16.682990960685053	3.4037993	1.8449389
16.70070530671898	3.4666934	1.8619058
16.718420054710155	3.5054007	1.8722715
16.736135205109335	3.6026661	1.898069
16.753850758367335	3.6484723	1.9100975
16.771566714935087	3.7142372	1.9272356
16.789283075263597	3.7561445	1.9380776
16.80699983980398	3.8436303	1.9605179
16.82471700900741	3.8779237	1.9692445
16.84243458332518	3.9774153	1.9943458
16.860152563208665	4.0402207	2.01003
16.87787094910932	4.082007	2.0203977
16.89558974147871	4.090763	2.0225635
16.913308940768466	4.1249495	2.0309973
16.931028547430333	4.1850247	2.0457332
16.94874856191613	4.2469015	2.0608013
16.966468984677785	4.403635	2.098484
16.98418981616729	4.4858027	2.1179714
17.00191105683676	4.5211616	2.1263022
17.019632707138374	4.5013285	2.1216335
17.03735476752442	4.5351887	2.1295981
17.05507723844728	4.563278	2.136183
17.072800120359403	4.575295	2.138994
17.090523413713353	4.5695786	2.1376572
17.108247118961785	4.5617948	2.135836
17.125971236557437	4.5882473	2.1420195
17.143695766953133	4.613983	2.1480184
17.161420710601806	4.6520634	2.1568642
17.179146067956477	4.6820045	2.163794
17.19687183947025	4.7223773	2.173103
17.21459802559634	4.71043	2.1703525
17.232324626788028	4.696664	2.1671789
17.25005164349871	4.69055	2.1657677
17.267779076181863	4.7126904	2.1708732
17.285506925291074	4.7031717	2.1686797
17.30323519127999	4.687326	2.1650233
17.320963874602384	4.6617303	2.159104
17.33869297571211	4.6255527	2.1507099
17.356422495063114	4.6068115	2.1463485
17.37415243310944	4.5784802	2.1397383
17.391882790305218	4.593299	2.1431983
17.40961356710468	4.578857	2.1398263
17.42734476396215	4.562752	2.1360598
17.445076381332044	4.4981704	2.120889
17.462808419668868	4.5586743	2.1351051
17.48054087942723	4.7350254	2.1760113
17.498273761061835	5.095961	2.2574236
17.51600706502747	5.5916514	2.3646674
17.533740791779024	6.272393	2.5044746
17.551474941771485	7.7174487	2.7780297
17.56920951545993	8.83888	2.9730253
17.586944513299528	10.997172	3.3161986
17.60467993574556	12.599428	3.5495672
17.622415783253373	14.238837	3.7734385
17.64015205627843	15.686543	3.9606242
17.657888755276293	16.81637	4.1007767
17.675625880702604	17.335949	4.163646
17.69336343301311	17.181461	4.1450524
17.71110141266366	16.365765	4.045462
17.728839820110178	15.333831	3.9158435
17.746578655808705	14.329883	3.7854831
17.764317920215372	12.848844	3.5845284
17.7820576137864	11.338718	3.3673015
17.79979773697811	9.321957	3.0531878
17.81753829024692	7.4697514	2.7330847
17.835279274049356	5.8280435	2.414134
17.85302068884201	4.8528724	2.2029235
17.870762535081607	4.257175	2.0632923
17.888504813224934	3.9254005	1.9812623
17.90624752372891	3.736712	1.9330577
17.923990667050536	3.6741312	1.9168023
17.941734243646895	3.6094184	1.8998469
17.959478253975185	3.578629	1.8917265
17.9772226984927	3.5575445	1.8861454
17.994967577656833	3.5066302	1.8725998
18.01271289192506	3.4570274	1.8593084
18.030458641754965	3.4029744	1.8447152
18.04820482760425	3.3613436	1.8333968
18.06595144993067	3.3437238	1.8285851
18.083698509192125	3.3529038	1.8310937
18.101446005846576	3.3359568	1.8264602
18.119193940352105	3.2953746	1.8153167
18.136942313166887	3.2733235	1.8092328
18.1546911247492	3.2508175	1.8030024
18.1724403755574	3.2221913	1.7950463
18.19019006604997	3.1729147	1.7812678
18.207940196685467	3.1294112	1.7690142
18.225690767922575	3.1089904	1.763233
18.243441780220046	3.1300278	1.7691884
18.261193234036764	3.1182876	1.7658674
18.278945129831676	3.084613	1.7563066
18.29669746806386	3.0640125	1.7504321
18.314450249192483	3.044787	1.7449318
18.3322034736768	3.0830407	1.755859
18.349957141976184	3.0697098	1.7520587
18.3677112545501	3.0823424	1.75566
18.385465811858108	3.1192112	1.7661289
18.403220814359884	3.1520896	1.7754126
18.420976262515172	3.1964936	1.7878741
18.43873215678387	3.1953743	1.7875609
18.456488497625923	3.1960957	1.7877628
18.474245285501407	3.2478235	1.8021718
18.492002520870486	3.2850184	1.812462
18.50976020419343	3.3543792	1.8314965
18.527518335930615	3.7130594	1.9269301
18.545276916542516	4.3664846	2.0896134
18.563035946489688	4.5253797	2.127294
18.580795426232832	4.951154	2.2251189
18.598555356232698	4.7780313	2.185871
18.616315736950185	5.110315	2.2606006
18.63407656884626	4.8084974	2.1928287
18.65183785238201	5.089366	2.2559624
18.669599588018617	4.817868	2.1949642
18.68736177621737	4.824898	2.196565
18.705124417439652	4.7600875	2.1817625
18.72288751214696	4.559694	2.135344
18.740651060800886	4.661256	2.1589942
18.758415063863115	4.3565497	2.087235
18.77617952179546	4.54423	2.13172
18.793944435059814	4.310053	2.0760667
18.811709804118184	4.322733	2.0791183
18.829475629432675	4.236951	2.0583856
18.8472419114655	4.0269036	2.0067146
18.86500865067897	4.1068816	2.0265443
18.88277584753551	3.7945576	1.9479624
18.90054350249763	3.8157222	1.9533874
18.918311616027957	3.4912348	1.8684846
18.936080188589226	3.3817008	1.8389401
18.953849220644265	3.0822089	1.755622
18.971618712656007	2.9292216	1.711497
18.9893886650875	2.9021769	1.7035776
19.007159078401887	8.088529	2.844034
19.024929953062408	32.95027	5.740233
19.042701289532435	32.88501	5.734545
19.060473088275405	25.411219	5.040954
19.07824534975489	2.6878464	1.6394653
19.096018074434568	2.6807714	1.6373061
19.113791262778197	2.7197177	1.6491567
19.13156491524966	2.7232475	1.6502265
19.149339032312945	2.7193685	1.6490508
19.167113614432136	2.6836152	1.6381743
19.184888662071433	2.6499104	1.6278546
19.202664175695123	2.631427	1.6221673
19.220440155767623	2.6060581	1.614329
19.238216602753447	2.5915914	1.6098421
19.2559935171172	2.5609214	1.6002879
19.27377089932361	2.5361006	1.5925139
19.291548749837514	2.5388587	1.5933796
19.309327069123835	2.56219	1.6006843
19.32710585764763	2.5597186	1.599912
19.344885115874032	2.565058	1.6015798
19.362664844268313	2.5695817	1.6029915
19.380445043295822	2.540215	1.5938052
19.39822571342203	2.4873192	1.5771238
19.41600685511252	2.487361	1.577137
19.43378846883297	2.4811664	1.5751718
19.451570555049173	2.466938	1.5706489
19.469353114227037	2.4931185	1.5789613
19.48713614683254	2.508609	1.583859
19.50491965333182	2.5425153	1.5945266
19.52270363419109	2.5537238	1.5980375
19.540488089876686	2.5605397	1.6001687
19.55827302085503	2.5287855	1.5902156
19.576058427592674	2.4953945	1.5796818
19.593844310556282	2.4895773	1.5778395
19.611630670212598	2.505611	1.5829122
19.629417507028506	2.4976017	1.5803802
19.64720482147098	2.4987094	1.5807307
19.6649926140071	2.5113862	1.5847354
19.682780885104084	2.5363772	1.5926008
19.70056963522921	2.5355036	1.5923265
19.718358864849908	2.544672	1.5952028
19.7361485744337	2.5590432	1.5997009
19.753938764448215	2.5688097	1.6027507
19.771729435361202	2.5767684	1.6052315
19.789520587640506	2.548433	1.5963812
19.807312221754092	2.5247245	1.5889381
19.825104338170043	2.5250356	1.5890361
19.842896937356517	2.5432625	1.5947609
19.860690019781824	2.509259	1.5840641
19.87848358591436	2.5061345	1.5830775
19.896277636222635	2.5280895	1.5899967
19.914072171175278	2.5484376	1.5963826
19.931867191241015	2.5192087	1.5872015
19.94966269688869	2.5061846	1.5830934
19.967458688587264	2.503727	1.582317
19.985255166805807	2.4655173	1.5701966
20.00305213201348	2.4600954	1.5684692
20.020849584679578	2.4782572	1.5742481
20.038647525273507	2.502578	1.5819539
20.05644595426477	2.477752	1.5740876
20.07424487212299	2.4312563	1.5592487
20.092044279317903	2.425492	1.5573992
20.109844176319353	2.438207	1.5614759
20.127644563597304	2.416736	1.5545855
20.145445441621817	2.4015195	1.5496837
20.16324681086307	2.3814504	1.5431949
20.181048671791373	2.4362638	1.5608536
20.198851024877122	2.4110482	1.552755
20.216653870590836	2.3986719	1.5487646
20.234457209403146	2.379731	1.5426377
20.252261041784802	2.3814743	1.5432026
20.270065368206662	2.3642082	1.5375983
20.287870189139685	2.3490539	1.5326624
20.305675505054968	2.390598	1.5461559
20.323481316423702	2.4328856	1.5597711
20.341287623717207	2.45733	1.5675873
20.359094427406884	2.4599588	1.5684255
20.376901727964288	2.4616816	1.5689747
20.39470952586107	2.4404771	1.5622027
20.41251782156899	2.3718357	1.5400765
20.430326615559935	2.3561716	1.5349826
20.448135908305886	2.3465636	1.5318497
20.465945700278965	2.3533413	1.5340604
20.483755991951384	2.3599312	1.5362067
20.50156678379548	2.3570576	1.5352712
20.519378076283708	2.3664079	1.5383133
20.537189869888635	2.3528855	1.5339118
20.55500216508294	2.3284926	1.52594
20.572814962339415	2.3278584	1.5257322
20.59062826213098	2.3632739	1.5372944
20.60844206493066	2.4164002	1.5544775
20.626256371211593	2.3803113	1.5428257
20.644071181447032	2.355188	1.5346621
20.66188649611036	2.3354952	1.5282327
20.67970231567506	2.342786	1.5306163
20.697518640614742	2.3405964	1.5299008
20.715335471403122	2.3057988	1.5184857
20.73315280851404	2.3063288	1.5186602
20.750970652421447	2.3093662	1.5196599
20.768789003599412	2.3223038	1.5239106
20.786607862522136	2.3100212	1.5198754
20.8044272296639	2.284171	1.5113474
20.82224710549913	2.2895641	1.5131305
20.84006749050237	2.3051596	1.5182751
20.857888385148268	3.878085	1.9692854
20.8757097899116	45.98434	6.7811756
20.893531705267254	64.873116	8.054385
20.911354131690224	83.89192	9.159253
20.92917706965566	69.11091	8.313297
20.94700051963877	50.135616	7.080651
20.96482448211493	29.394527	5.421672
20.982648957559622	4.1321187	2.0327613
21.00047394644843	2.231581	1.4938477
21.01829944925707	2.25014	1.5000466
21.036125466461375	2.263983	1.5046538
21.053951998537297	2.278696	1.5095351
21.071779045960906	2.2507396	1.5002465
21.089606609208378	2.2416444	1.4972122
21.10743468875603	2.2243602	1.491429
21.12526328508028	2.2284608	1.492803
21.143092398657675	2.2092395	1.486351
21.16092202996488	2.2119946	1.4872776
21.17875217947867	2.2280104	1.4926522
21.19658284767596	2.269194	1.5063844
21.21441403503377	2.235439	1.4951385
21.232245742029225	2.2426178	1.4975373
21.2500779691396	2.2163718	1.4887484
21.26791071684227	2.2309237	1.4936277
21.28574398561475	2.2042673	1.4846776
21.30357777593465	2.2057636	1.4851813
21.321412088279704	2.2004957	1.4834068
21.339246923127792	2.204653	1.4848074
21.357082280956888	2.203959	1.4845737
21.3749181622451	2.184309	1.4779408
21.392754567470647	2.1595302	1.469534
21.41059149711187	2.1478274	1.4655468
21.42842895164726	2.1436238	1.4641119
21.446266931555378	2.1476235	1.4654772
21.464105437314945	2.1777086	1.4757061
21.481944469404798	2.1881237	1.4792308
21.49978402830388	2.187111	1.4788884
21.51762411449127	2.1590242	1.4693619
21.53546472844617	2.1382508	1.4622759
21.553305870647876	2.1083286	1.4520085
21.571147541575865	2.09314	1.4467688
21.58898974170967	2.1245427	1.4575812
21.60683247152899	2.123233	1.4571317
21.62467573151363	2.111355	1.4530503
21.642519522143523	2.085359	1.4440773
21.660363843898722	2.067809	1.4379879
21.6782086972594	2.073541	1.4399794
21.696054082705864	2.0867686	1.4445652
21.713900000718535	2.0948951	1.4473753
21.73174645177795	2.086969	1.4446346
21.749593436364794	2.0824246	1.4430609
21.767440954959845	2.0823061	1.4430197
21.785289008044032	2.0801196	1.4422619
21.803137596098388	2.0259984	1.4233757
21.820986719604086	1.9838018	1.408475
21.838836379042412	1.9635967	1.401284
21.85668657489478	2.0090742	1.4174181
21.87453730764273	2.004034	1.415639
21.892388577767914	2.024682	1.4229132
21.91024038575213	2.050354	1.4319057
21.928092732077285	2.021499	1.4217943
21.945945617225426	2.0150146	1.4195122
21.963799041678694	2.0086591	1.4172717
21.981653005919398	31.339869	5.598202
21.999507510429943	78.16183	8.840918
22.01736255569286	73.1218	8.551128
22.035218142190818	4.210768	2.0520155
22.05307427040661	2.015673	1.419744
22.07093094082315	1.9898764	1.4106297
22.088788153923474	2.0067744	1.4166067
22.106645910190746	2.0121317	1.4184963
22.12450421010827	2.0209374	1.4215968
22.142363054159464	2.0271642	1.4237852
22.16022244282787	2.0327084	1.4257308
22.178082376597164	2.042803	1.4292666
22.195942855951145	2.0138872	1.419115
22.213803881373742	2.0065863	1.4165403
22.231665453349002	1.9793348	1.4068884
22.24952757236111	1.9697267	1.4034696
22.26739023889438	1.9606948	1.4002482
22.28525345343323	1.9609069	1.4003239
22.30311721646225	1.956991	1.398925
22.320981528466113	1.9503918	1.3965642
22.33884638992964	1.9609089	1.4003246
22.356711801337788	1.9623946	1.400855
22.37457776317561	1.9876333	1.4098345
22.392444275928337	2.0138347	1.4190965
22.410311340081282	2.0143707	1.4192853
22.428178956119904	1.9838988	1.4085094
22.446047124529805	1.9907864	1.4109523
22.46391584579669	1.9818797	1.4077924
22.481785120406414	1.9723421	1.404401
22.49965494884496	1.9621514	1.4007682
22.51752533159841	1.9464741	1.3951609
22.53539626915302	1.9355457	1.3912389
22.553267761995137	1.9386531	1.3923552
22.571139810611264	1.9397511	1.3927495
22.589012415488025	1.9493052	1.3961751
22.60688557711216	1.9832443	1.408277
22.624759295970566	2.0021873	1.4149866
22.642633572550263	1.954864	1.3981645
22.660508407338362	1.9202775	1.3857408
22.67838380082217	1.927862	1.3884747
22.696259753489077	1.9610274	1.4003669
22.714136265826614	1.9324949	1.3901421
22.73201333832246	1.9115691	1.3825951
22.74989097146439	1.9123675	1.3828838
22.76776916574035	1.8973138	1.3774302
22.785647921638393	1.8923851	1.3756399
22.803527239646712	1.9185307	1.3851104
22.82140712025363	1.9587739	1.399562
22.839287563947593	1.9654601	1.4019487
22.85716857121719	2.0036576	1.4155061
22.875050142551135	1.9926972	1.4116293
22.892932278438277	1.9389865	1.392475
22.910814979367604	1.8905237	1.3749632
22.928698245828222	1.8993771	1.378179
22.946582078309387	1.9227539	1.386634
22.96446647730047	1.9224563	1.3865267
22.98235144329098	1.9040821	1.3798848
23.000236976770562	1.9069525	1.3809245
23.018123078229	1.933208	1.3903985
23.03600974815619	1.9446328	1.3945009
23.053896987042194	1.9228598	1.3866723
23.071784795377173	1.9295014	1.3890649
23.08967317365145	1.9297217	1.3891442
23.10756212235546	1.9910979	1.4110627
23.125451641979787	2.0004692	1.4143795
23.143341733015134	1.9864286	1.4094071
23.161232395952357	1.9545997	1.39807
23.179123631282426	1.9455802	1.3948406
23.197015439496468	1.9647585	1.4016985
23.214907821085717	1.9575616	1.3991289
23.23280077654157	1.9308994	1.3895681
23.250694306355538	1.9474578	1.3955134
23.268588411019277	1.9706395	1.4037946
23.28648309102458	1.9933189	1.4118495
23.304378346863356	2.0028114	1.4152071
23.322274179027676	2.0034468	1.4154316
23.340170588009723	1.9610674	1.4003812
23.358067574301852	1.9476899	1.3955966
23.37596513839651	1.957951	1.399268
23.39386328078629	1.9835339	1.4083799
23.411762001963947	1.9720876	1.4043103
23.429661302422353	1.955981	1.3985639
23.4475611826545	1.9404169	1.3929884
23.46546164315356	1.9424148	1.3937054
23.48336268441279	1.962212	1.4007897
23.501264306925638	1.9687434	1.4031192
23.51916651118564	2.0044851	1.4157984
23.537069297686497	1.9804164	1.4072727
23.554972666922037	2.0114818	1.4182671
23.57287661938623	1.9608421	1.4003007
23.59078115557318	1.9447163	1.3945309
23.608686275977128	1.8647918	1.3655738
23.62659198109246	1.884271	1.3726876
23.6444982714137	1.9194454	1.3854405
23.66240514743549	1.9451625	1.3946909
23.68031260965263	1.9392028	1.3925526
23.698220658560068	1.9264474	1.3879652
23.716129294652845	1.9084685	1.3814733
23.7340385184262	1.8995351	1.3782362
23.75194833037546	1.8964617	1.3771209
23.769858730996123	1.9092863	1.3817693
23.78776972078382	1.9406394	1.3930683
23.80568130023431	2.0028982	1.4152379
23.823593469843495	2.0070639	1.4167088
23.841506230107424	1.9683195	1.4029682
23.859419581522275	1.942504	1.3937374
23.87733352458438	1.8877754	1.3739634
23.89524805979019	1.8425821	1.3574175
23.913163187636318	1.8511623	1.3605742
23.931078908619508	1.9264349	1.3879607
23.948995223236633	1.9849724	1.4088905
23.966912131984735	2.021256	1.4217088
23.98482963536096	2.059633	1.4351422
24.002747733862616	2.0406454	1.4285116
24.020666427987155	2.0686538	1.4382815
24.038585718232156	2.0750337	1.4404978
24.056505605095353	2.0608473	1.4355651
24.074426089074617	2.0862057	1.4443704
24.092347170667946	2.1192853	1.4557766
24.110268850373515	2.1034737	1.4503357
24.128191128689586	2.0635493	1.4365059
24.146114006114626	2.0408473	1.4285823
24.164037483147187	2.0327828	1.4257569
24.181961560286005	2.0528026	1.4327605
24.199886238029926	2.0536914	1.4330707
24.21781151687797	2.0285716	1.4242793
24.235737397329274	2.016729	1.4201158
24.253663879883135	2.0076203	1.4169052
24.271590965038975	2.0250735	1.4230508
24.289518653296376	2.0432246	1.429414
24.30744694515505	2.0571349	1.4342716
24.32537584111486	2.062684	1.4362048
24.34330534167581	2.05641	1.4340189
24.361235447338046	2.0331848	1.4258978
24.379166158601876	2.043659	1.429566
24.39709747596772	2.0421758	1.4290471
24.41502939993615	2.0394666	1.4280989
24.432961931007917	1.9999137	1.414183
24.450895069683856	1.9940804	1.4121192
24.468828816465	1.9912094	1.4111022
24.4867631718525	2.0124228	1.4185989
24.504698136347656	1.9902937	1.4107777
24.52263371045192	1.9608684	1.40031
24.540569894666874	1.9560913	1.3986033
24.558506689494266	1.9466498	1.395224
24.57644409543597	1.9300252	1.3892535
24.594382112994012	1.9677867	1.4027781
24.61232074267057	2.0120492	1.4184672
24.630259984967953	2.0208912	1.4215806
24.64819984038863	1.9935753	1.4119402
24.66614030943522	1.9839984	1.4085448
24.684081392610462	1.9635547	1.401269
24.702023090417274	1.9362469	1.3914909
24.7199654033587	1.927601	1.3883806
24.737908331937927	1.9257599	1.3877175
24.755851876658305	1.9910734	1.411054
24.773796038023324	2.0695174	1.4385817
24.79174081653661	2.1050992	1.450896
24.809686212701962	2.140654	1.4630975
24.827632227023294	2.128259	1.4588554
24.8455788600047	2.097699	1.4483435
24.8635261121504	2.1016824	1.449718
24.88147398396475	2.1165671	1.4548427
24.899422475952303	2.12134	1.456482
24.917371588617698	2.1185064	1.455509
24.935321322465768	2.1293352	1.4592242
24.953271678001478	2.208844	1.486218
24.97122265572994	2.4103432	1.552528
24.989174256156414	2.7539287	1.6594965
25.00712647978632	3.1845098	1.7845194
25.02507932712521	3.6821926	1.918904
25.043032798678798	4.213008	2.0525613
25.060986894952933	4.891041	2.2115698
25.078941616453637	5.6230097	2.3712885
25.096896963687055	6.548879	2.5590777
25.114852937159508	7.669632	2.7694101
25.132809537377444	8.196355	2.8629277
25.150766764847468	8.351133	2.8898327
25.168724620076347	7.834015	2.7989311
25.186683103570985	6.7695317	2.6018324
25.204642215838426	5.5848594	2.3632307
25.222601957385894	4.2267213	2.0558991
25.24056232872074	3.194055	1.787192
25.25852333035048	2.6235082	1.6197248
25.276484962782778	2.3286395	1.5259881
25.294447226525435	2.1816049	1.4770256
25.312410122086423	2.0886543	1.4452177
25.330373649973843	1.9781781	1.4064772
25.348337810695988	1.9479637	1.3956947
25.366302604761245	1.9078976	1.3812667
25.384268032678207	1.9095024	1.3818475
25.40223409495558	1.9201121	1.3856812
25.420200792102257	1.9533958	1.3976394
25.438168124627246	1.9119127	1.3827193
25.45613609303974	1.8779386	1.370379
25.474104697849057	1.8755014	1.3694894
25.492073939564698	1.8920044	1.3755015
25.510043818696285	1.8541555	1.3616738
25.528014335753614	1.8445485	1.3581415
25.54598549124664	1.8497759	1.3600646
25.56395728568544	1.8849045	1.3729182
25.58192971958028	1.9528587	1.3974472
25.59990279344156	1.9488349	1.3960068
25.617876507779833	1.9061666	1.3806399
25.635850863105826	1.8522887	1.3609881
25.653825859930386	1.8698529	1.3674257
25.671801498764548	1.8611301	1.3642324
25.68977778011949	1.8728554	1.3685231
25.707754704506524	1.9099541	1.3820109
25.725732272437153	1.9111415	1.3824404
25.743710484423012	1.87938	1.3709048
25.761689340975888	1.8500855	1.3601785
25.77966884260774	1.8536017	1.3614705
25.797648989830662	1.8807465	1.3714031
25.815629783156922	1.9196603	1.3855181
25.83361122309895	1.8656416	1.3658849
25.85159331016929	1.7910869	1.338315
25.869576044880695	1.7956988	1.3400369
25.887559427746034	1.8405281	1.3566606
25.90554345927836	1.8220221	1.349823
25.92352813999086	1.792521	1.3388506
25.94151347039689	1.8064545	1.3440441
25.959499451009965	1.8460988	1.3587122
25.97748608234374	1.8395185	1.3562886
25.995473364912062	1.837105	1.3553985
26.013461299228904	1.8093543	1.3451225
26.03144988580839	1.8176911	1.3482177
26.04943912516483	1.8635899	1.3651336
26.067429017812675	1.8572532	1.3628107
26.085419564266537	1.806736	1.3441488
26.103410765041186	1.8304365	1.3529363
26.12140262065155	1.8729804	1.3685688
26.139395131612723	1.8940139	1.3762318
26.157388298439948	1.8645265	1.3654766
26.17538212164861	1.8207113	1.3493373
26.193376601754295	1.7992644	1.3413666
26.211371739272714	1.8394527	1.3562642
26.229367534719746	1.8860734	1.3733438
26.247363988611433	1.8714358	1.3680043
26.26536110146397	1.854289	1.3617228
26.283358873793727	1.8458647	1.358626
26.301357306117204	1.8289734	1.3523954
26.319356398951104	1.811574	1.3459473
26.33735615281224	1.8020159	1.3423918
26.35535656821762	1.8335946	1.3541028
26.373357645684404	1.9009421	1.3787465
26.39135938572991	1.909275	1.3817652
26.409361788871614	1.8468829	1.3590007
26.427364855627165	1.8086553	1.3448626
26.445368586514352	1.8189322	1.348678
26.46337298205115	1.8536348	1.3614826
26.48137804275568	1.8533531	1.3613791
26.499383769146217	1.8018227	1.3423198
26.517390161741215	1.7730408	1.3315557
26.53539722105928	1.7932539	1.3391243
26.553404947619182	1.794899	1.3397384
26.571413341939856	1.7726963	1.3314264
26.589422404540397	1.7971753	1.3405876
26.60743213594006	1.8556049	1.3622059
26.62544253665827	1.8367807	1.3552788
26.64345360721459	1.8409076	1.3568004
26.66146534812879	1.8489724	1.3597692
26.679477759920758	1.8112324	1.3458203
26.69749084311057	1.7706473	1.3306568
26.71550459821847	1.7814156	1.3346968
26.733519025764842	1.7726057	1.3313924
26.751534126270258	1.7551396	1.3248168
26.769549900255434	1.7956676	1.3400252
26.787566348241267	1.8584266	1.3632412
26.80558347074881	1.8905145	1.3749598
26.823601268299267	1.8477174	1.3593076
26.841619741414036	1.7865045	1.3366019
26.85963889061465	1.7592363	1.326362
26.877658716422832	1.7553331	1.3248898
26.89567921936045	1.7876574	1.337033
26.913700399949544	1.8101599	1.3454218
26.93172225871233	1.7993674	1.341405
26.949744796171174	1.8325073	1.3537014
26.967768012848605	1.8565673	1.3625591
26.98579190926733	1.8665092	1.3662025
27.003816485950225	1.8541096	1.3616569
27.021841743420318	1.8473284	1.3591646
27.039867682200814	1.8399566	1.35645
27.057894302815072	1.8343613	1.354386
27.07592160578664	1.8428684	1.357523
27.0939495916392	1.8182625	1.3484297
27.111978260896635	1.7913967	1.3384306
27.13000761408296	1.8019353	1.3423618
27.148037651722397	1.7826877	1.3351732
27.166068374339304	1.7872845	1.3368936
27.184099782458215	1.8092341	1.3450778
27.20213187660384	1.8236063	1.3504096
27.22016465730105	1.8220501	1.3498334
27.23819812507487	1.839172	1.3561608
27.256232280450533	1.8425885	1.3574198
27.274267123953383	1.8166219	1.3478211
27.292302656108987	1.8073002	1.3443587
27.31033887744306	1.8363442	1.3551178
27.32837578848146	1.8550414	1.361999
27.34641338975026	1.7794151	1.3339472
27.364451681775673	1.732448	1.3162249
27.382490665084074	1.7314045	1.3158284
27.400530340202046	1.7323561	1.31619
27.41857070765629	1.7124927	1.3086225
27.436611767973726	1.7679465	1.3296415
27.454653521681404	1.8684586	1.3669157
27.472695969306564	1.8572367	1.3628048
27.490739111376627	1.8659412	1.3659946
27.508782948419153	1.8538069	1.3615458
27.526827480961902	1.825253	1.3510193
27.54487270953279	1.8083555	1.3447511
27.562918634659898	1.8124164	1.3462602
27.580965256871508	1.851417	1.3606678
27.599012576696026	1.8334008	1.3540313
27.617060594662068	1.8333156	1.3539999
27.63510931129842	1.8321168	1.3535571
27.65315872713401	1.8616512	1.3644234
27.67120884269797	1.8959035	1.3769181
27.68925965851958	1.8951144	1.3766315
27.707311175128307	1.8539232	1.3615885
27.725363393053787	1.8365889	1.355208
27.74341631282583	1.8455478	1.3585094
27.7614699349744	1.8186505	1.3485734
27.77952426002968	2.0158749	1.4198151
27.797579288521973	2.1530612	1.4673313
27.815635020981784	2.6454244	1.626476
27.83369145793979	2.6906264	1.6403129
27.85174859992682	2.4713748	1.5720607
27.869806447473923	2.3663733	1.5383021
27.887865001112267	2.0799005	1.442186
27.905924261373233	1.9305347	1.3894368
27.92398422878836	1.8703657	1.3676132
27.94204490388936	1.8535525	1.3614523
27.96010628720813	1.8557295	1.3622516
27.978168379276728	1.8354576	1.3547906
27.9962311806274	1.8169824	1.3479549
28.014294691792568	1.8300679	1.3528
28.0323589133048	1.8617251	1.3644505
28.050423845696887	1.8182507	1.3484253
28.068489489501758	1.7994665	1.341442
28.086555845252523	1.8194928	1.3488858
28.104622913482487	1.7779052	1.3333812
28.122690694725115	1.8120909	1.3461392
28.14075918951405	1.8298753	1.3527288
28.15882839838312	1.9038067	1.3797851
28.176898321866304	1.9093969	1.3818092
28.1949689604978	1.8642677	1.3653818
28.213040314811945	1.8792566	1.3708599
28.23111238534327	1.93746	1.3919266
28.249185172626493	1.9597608	1.3999146
28.267258677196473	1.9469757	1.3953407
28.285332899588294	1.9360911	1.3914349
28.303407840337172	1.9519408	1.3971187
28.321483499978545	1.9633147	1.4011832
28.33955987904799	2.0021105	1.4149595
28.357636978081285	2.0377429	1.4274954
28.37571479761439	2.0494063	1.4315747
28.393793338183425	2.0126395	1.4186753
28.41187260032469	1.985484	1.409072
28.429952584574686	1.9706136	1.4037855
28.448033291470065	1.9451631	1.3946911
28.46611472154769	1.919539	1.3854743
28.484196875344566	1.9265127	1.3879887
28.502279753397914	1.949609	1.396284
28.52036335624511	1.9578663	1.3992378
28.538447684423716	1.9695302	1.4033995
28.556532738471482	1.949393	1.3962066
28.574618518926325	1.9313076	1.389715
28.59270502632635	1.9237118	1.3869793
28.61079226120985	1.9406968	1.3930889
28.628880224115274	1.9868279	1.4095488
28.646968915581287	2.0279658	1.4240667
28.66505833614671	2.057858	1.4345236
28.68314848635055	2.018366	1.4206921
28.701239366732004	2.0342324	1.4262652
28.71933097783044	2.0797176	1.4421226
28.737423320185403	2.0629785	1.4363072
28.75551639433665	2.0556147	1.4337415
28.773610200824074	2.1122043	1.4533424
28.791704740187793	2.1421607	1.4636122
28.80980001296809	2.1774166	1.4756072
28.827896019705413	2.1598358	1.469638
28.845992760940433	2.14773	1.4655136
28.86409023721397	2.2027972	1.4841824
28.88218844906704	2.2537472	1.5012486
28.900287397040845	2.2094355	1.4864169
28.918387081676755	2.235006	1.4949937
28.936487503516343	2.2943923	1.5147252
28.954588663101365	2.2951012	1.5149591
28.97269056097374	2.344157	1.531064
28.990793197675597	2.4288447	1.5584751
29.00889657374923	2.4361033	1.5608021
29.027000689737125	2.3686259	1.5390341
29.04510554618196	2.3826678	1.5435892
29.06321114362659	2.475438	1.5733525
29.08131748261405	2.5117216	1.5848413
29.099424563687567	2.5072167	1.5834193
29.11753238739057	2.5338514	1.5918076
29.13564095426663	2.6367888	1.6238192
29.15375026485954	2.687034	1.6392175
29.171860319713275	2.6617143	1.6314762
29.18997111937199	2.623547	1.6197367
29.20808266438002	2.69786	1.6425164
29.226194955281898	2.7798338	1.6672834
29.244307992622335	2.8126485	1.6770953
29.26242177694624	2.8636613	1.6922356
29.2805363087987	2.9438212	1.7157568
29.29865158872498	2.9366403	1.7136629
29.316767617270557	2.9211473	1.7091365
29.334884394981064	2.8931558	1.700928
29.353001922402367	2.8674393	1.6933515
29.37112020008047	2.9382927	1.714145
29.389239228561596	3.145245	1.7734839
29.407359008392152	3.367696	1.8351283
29.42547954011872	3.7496157	1.9363924
29.44360082428809	4.4321895	2.1052766
29.46172286144722	5.464765	2.3376837
29.479845652143283	6.895229	2.6258767
29.497969196923606	8.832276	2.9719145
29.516093496335728	11.2557535	3.3549595
29.5342185509274	14.015523	3.7437313
29.55234436124651	16.502697	4.062351
29.570470927841175	17.929289	4.234299
29.588598251259686	17.878252	4.228268
29.60672633205055	16.589453	4.073015
29.624855170762405	14.353991	3.788666
29.642984767944146	11.621536	3.4090374
29.66111512414481	8.9230995	2.9871557
29.67924623991366	6.6223974	2.573402
29.697378115800138	5.0505295	2.2473383
29.71551075235387	4.1887555	2.046645
29.733644150124675	3.7713718	1.942002
29.751778309662576	3.5921564	1.8952985
29.769913231517766	3.5202577	1.876235
29.78804891624066	3.4040294	1.8450012
29.806185364381818	3.368247	1.8352785
29.82432257649206	3.4073787	1.8459086
29.842460553122333	3.353387	1.8312256
29.86059929482382	3.2752314	1.80976
29.878738802147872	3.274362	1.8095199
29.896879075646048	3.247326	1.8020338
29.915020115870114	3.2502983	1.8028584
29.933161923371976	3.3072298	1.8185791
29.951304498703777	3.333611	1.825818
29.969447842417857	3.323692	1.8230996
29.987591955066733	3.3919477	1.8417242
30.005736837203123	3.4246368	1.8505775
30.023882489379943	3.3816855	1.838936
30.04202891215028	3.2444346	1.8012314
30.060176106067455	3.2084382	1.7912114
30.078324071684946	3.2214954	1.7948525
30.09647280955646	3.197378	1.7881213
30.114622320235863	3.1584635	1.7772067
30.132772604277257	3.0762181	1.7539151
30.1509236622349	3.0379388	1.7429684
30.16907549466328	3.0576184	1.7486047
30.18722810211705	3.1763742	1.7822385
30.205381485151097	3.2148855	1.7930101
30.22353564432045	3.190741	1.7862645
30.241690580180403	3.1394114	1.7718384
30.25984629328638	3.0640082	1.7504308
30.278002784194037	3.0426977	1.744333
30.296160053459246	3.0025759	1.7327943
30.314318101638033	2.9519458	1.7181227
30.332476929286646	2.9425323	1.7153811
30.35063653696153	2.9146073	1.7072221
30.368796925219307	2.9037638	1.7040434
30.386958094616844	2.95732	1.719686
30.40512004571115	3.0281434	1.7401562
30.423282779059463	2.9975512	1.7313437
30.441446295219233	2.957513	1.7197422
30.459610594748067	2.895993	1.7017617
30.47777567820382	2.892565	1.7007543
30.495941546144504	2.8307743	1.6824905
30.51410819912835	2.7845716	1.6687036
30.532275637713795	2.8048909	1.6747808
30.55044386245946	2.8020988	1.6739471
30.56861287392416	2.830076	1.6822829
30.586782672666956	2.86957	1.6939806
30.604953259247047	2.865207	1.6926923
30.623124634223885	2.8744547	1.6954217
30.641296798157075	2.8393316	1.6850317
30.659469751606462	2.7880561	1.6697474
30.677643495132074	2.7187903	1.6488755
30.695818029294152	2.7528596	1.6591743
30.713993354653116	2.806914	1.6753848
30.73216947176962	2.7310088	1.6525764
30.75034638120448	2.7628129	1.6621711
30.768524083518756	2.8452146	1.6867764
30.786702579273673	2.8374996	1.6844879
30.80488186903069	2.8445811	1.6865886
30.82306195335144	2.9215305	1.7092485
30.841242832797782	3.1278813	1.7685817
30.85942450793176	3.3983836	1.8434706
30.877606979315637	3.7124915	1.9267827
30.895790247511883	4.111386	2.0276554
30.913974313083134	4.5240865	2.12699
30.932159176592283	4.7838936	2.1872113
30.95034483860237	4.7842865	2.1873012
30.968531299676698	4.5997148	2.1446946
30.98671856037873	4.3254514	2.079772
31.00490662127215	3.982793	1.9956937
31.023095482920848	3.593676	1.8956994
31.04128514588892	3.1792464	1.7830441
31.059475610740662	2.8296642	1.6821606
31.07766687804056	2.6190395	1.6183447
31.09585894835335	2.5746055	1.6045578
31.11405182224393	2.499985	1.5811341
31.132245500277417	2.4104104	1.5525496
31.15043998301914	2.3692126	1.5392246
31.168635271034628	2.3975081	1.5483888
31.18683136488964	2.3780127	1.5420806
31.20502826515008	2.4252088	1.5573082
31.223225972382135	2.468519	1.5711521
31.241424487152155	2.4654415	1.5701724
31.259623810026692	2.399474	1.5490235
31.27782394157253	2.3474038	1.5321239
31.296024882356644	2.401714	1.5497465
31.314226632946237	2.4064631	1.5512779
31.332429193908684	2.369231	1.5392307
31.350632565811598	2.396932	1.5482028
31.368836749222787	2.4610777	1.5687822
31.387041744710295	2.5130234	1.5852518
31.40524755284232	2.521748	1.5880013
31.423454174187317	2.5105736	1.584479
31.441661609313922	2.4872048	1.5770874
31.459869858791002	2.5160856	1.5862174
31.478078923187628	2.5239377	1.5886905
31.496288803073064	2.47873	1.5743983
31.514499499016807	2.398236	1.5486239
31.532711011588546	2.374107	1.5408137
31.550923341358178	2.3515387	1.5334728
31.56913648889584	2.3271723	1.5255072
31.587350454771844	2.3319304	1.527066
31.605565239556732	2.3656826	1.5380776
31.62378084382127	2.3133094	1.5209568
31.641997268136382	2.235736	1.4952377
31.660214513073274	2.1859438	1.4784938
31.67843257920331	2.2195559	1.4898174
31.6966514670981	2.2353983	1.4951248
31.71487117732944	2.3416302	1.5302386
31.733091710469346	2.3960373	1.5479139
31.751313067090052	2.345216	1.5314099
31.769535247764008	2.2674747	1.5058136
31.787758253063878	2.2823143	1.510733
31.805982083562526	2.3208063	1.5234193
31.824206739833024	2.2989333	1.5162233
31.84243222244869	2.2228134	1.4909103
31.860658531983013	2.2119112	1.4872495
31.878885669009737	2.1984751	1.4827256
31.897113634102784	2.1883128	1.4792947
31.91534242783632	2.2023401	1.4840283
31.933572050784694	2.2529414	1.5009801
31.951802503522508	2.290491	1.5134368
31.970033786624548	2.3166676	1.5220603
31.988265900665834	2.2541163	1.5013715
32.006498846221575	2.1747348	1.4746982
32.02473262386724	2.1662688	1.471825
32.04296723417845	2.1703842	1.4732224
32.0612026777311	2.1641634	1.4711095
32.07943895510129	2.1466384	1.465141
32.097676066865304	2.2114468	1.4870934
32.115914013599685	2.2000444	1.4832547
32.13415279588115	2.1256652	1.4579661
32.152392414286666	2.0911083	1.4460665
32.1706328693934	2.1526594	1.4671944
32.18887416177875	2.2094562	1.486424
32.20711629202032	2.1719687	1.47376
32.225359260695924	2.123225	1.457129
32.243603068383614	2.0877874	1.4449178
32.26184771566166	2.0501134	1.4318217
32.28009320310852	2.0734332	1.4399421
32.2983395313029	2.1108537	1.4528778
32.31658670082372	2.087552	1.4448364
32.33483471225012	2.0888665	1.4452912
32.35308356616143	2.1524503	1.4671232
32.371333263137245	2.1950963	1.4815857
32.38958380375734	2.221937	1.4906163
32.407835188601744	2.1544833	1.4678159
32.42608741825067	2.195469	1.4817115
32.444340493284585	2.2461667	1.4987217
32.46259441428416	2.1423273	1.4636692
32.48084918183028	2.0625606	1.4361618
32.49910479650405	2.012717	1.4187026
32.51736125888683	1.9492326	1.3961492
32.53561856956014	1.9752731	1.4054441
32.5538767291058	2.018202	1.4206344
32.572135738105764	1.9962851	1.4128995
32.59039559714228	1.9732158	1.404712
32.608656306797776	1.9770737	1.4060845
32.62691786765491	2.0995302	1.4489756
32.645180280296586	2.0945954	1.4472717
32.663443545305896	2.023932	1.4226496
32.68170766326619	1.9664484	1.4023011
32.69997263476099	2.0761578	1.4408878
32.7182384603741	2.07531	1.4405936
32.7365051406895	2.0100157	1.4177502
32.75477267629144	1.9686245	1.4030768
32.77304106776434	1.9603758	1.4001342
32.79131031569289	1.8959826	1.3769468
32.809580420661966	1.9692498	1.4032996
32.827851383256714	1.9813701	1.4076115
32.84612320406245	1.9323318	1.3900834
32.86439588366476	1.8544664	1.3617879
32.88266942264945	1.8874671	1.3738512
32.9009438216025	1.998722	1.4137616
32.9192190811102	2.0621982	1.4360355
32.937495201758985	2.0323286	1.4255977
32.95577218413556	1.9752749	1.4054447
32.974050028826866	1.9696388	1.4034382
32.992328736420035	2.012886	1.4187622
33.010608307502444	2.0267758	1.4236488
33.02888874266169	2.013045	1.4188182
33.047170042485604	2.04752	1.4309157
33.06545220756225	1.9898994	1.410638
33.083735238479896	1.9581712	1.3993467
33.10201913582707	1.9513059	1.3968915
33.12030390019248	1.982441	1.4079918
33.138589532165135	1.9883461	1.4100872
33.15687603233419	2.0009737	1.4145578
33.17516340128909	2.0171337	1.4202583
33.19345163961947	2.032915	1.4258033
33.211740747915215	1.8997436	1.3783119
33.23003072676643	1.8367127	1.3552537
33.248321576763466	1.8493294	1.3599005
33.266613298496885	1.9677197	1.4027543
33.28490589255747	1.999202	1.4139314
33.30319935953626	1.998772	1.4137794
33.32149370002451	1.9597582	1.3999137
33.339788914613706	1.9680456	1.4028705
33.358085003895575	1.9591881	1.39971
33.376381968462034	1.9359987	1.3914016
33.39467980890529	1.9412607	1.3932914
33.41297852581774	1.9650375	1.4017979
33.43127811979204	1.9155256	1.3840251
33.44957859142105	1.8565738	1.3625615
33.467879941297866	1.7853695	1.3361772
33.486182170015844	1.8006666	1.3418891
33.50448527816853	1.874131	1.368989
33.522789266349754	1.9509841	1.3967763
33.541094135153514	2.008993	1.4173895
33.55939988517411	2.0032604	1.4153658
33.57770651700602	1.8831779	1.3722893
33.59601403124398	1.8448846	1.3582653
33.61432242848296	1.9485781	1.3959148
33.632631709318154	1.8989917	1.3780391
33.650941874344994	1.9797237	1.4070265
33.66925292415916	2.1033316	1.4502867
33.68756485935654	2.0712066	1.4391687
33.70587768053328	2.0727494	1.4397047
33.724191388285746	2.0120454	1.4184659
33.74250598321054	2.006035	1.4163457
33.760821465904506	1.9367508	1.3916719
33.77913783696474	1.9762095	1.4057772
33.79745509698852	1.9323235	1.3900803
33.815773246573414	1.9786849	1.4066573
33.8340922863172	2.0106359	1.4179689
33.852412216817896	1.9212413	1.3860885
33.87073303867377	1.9209121	1.3859698
33.889054752483304	2.0077317	1.4169445
33.907377358845245	2.0225391	1.42216
33.92570085835853	1.9906678	1.4109102
33.94402525162239	1.8723814	1.3683499
33.96235053923627	1.8692092	1.3671902
33.980676721799824	2.0408795	1.4285935
33.999003799912984	2.1372545	1.4619352
34.01733177417592	2.127603	1.4586306
34.03566064518901	2.0778034	1.4414588
34.0539904135529	1.9904606	1.4108368
34.07232107986846	1.9957091	1.4126956
34.090652644736785	1.9828281	1.4081293
34.108985108759235	1.968121	1.4028974
34.12731847253742	1.9128762	1.3830677
34.14565273667313	2.010337	1.4178636
34.16398790176847	2.1641006	1.4710883
34.18232396842574	2.0605886	1.435475
34.20066093724749	1.8220637	1.3498384
34.21899880883651	1.9986169	1.4137245
34.23733758379583	2.167239	1.4721545
34.25567726272874	1.9761714	1.4057636
34.27401784623872	1.8292195	1.3524864
34.29235933492957	1.9421228	1.3936007
34.31070172940526	2.1589952	1.469352
34.32904503027003	2.0957553	1.4476724
34.347389238128386	1.9373487	1.3918867
34.36573435358502	1.946399	1.3951341
34.38408037724492	2.0453923	1.4301721
34.402427309713296	2.005681	1.4162207
34.42077515159559	1.9262545	1.3878957
34.43912390349752	1.980776	1.4074004
34.45747356602499	2.1401079	1.4629108
34.47582413978423	2.127989	1.4587629
34.49417562538163	2.1164348	1.4547971
34.51252802342388	2.1575334	1.4688544
34.53088133451789	2.186005	1.4785146
34.54923555927084	2.1103935	1.4527193
34.567590698290104	1.9816161	1.4076989
34.58594675218336	1.9327601	1.3902375
34.6043037215585	1.9615862	1.4005663
34.62266160702365	2.0209873	1.4216143
34.641020409187234	1.9976504	1.4133826
34.65938012865785	1.835468	1.3547945
34.677740766044394	1.900451	1.3785684
34.69610232195598	1.9443699	1.3944067
34.714464797002016	1.9878048	1.4098953
34.73282819179208	2.063848	1.4366099
34.751192506936064	2.1868665	1.4788058
34.76955774304408	2.2700644	1.5066732
34.7879239007265	2.1558	1.4682643
34.80629098059391	2.1489193	1.4659193
34.824658983257194	2.1954126	1.4816924
34.843027909327446	2.1771784	1.4755265
34.86139775941603	2.1351316	1.4612089
34.879768534134534	2.0674052	1.4378474
34.89814023409483	1.8761492	1.369726
34.91651285990901	1.8376554	1.3556015
34.93488641218944	2.0083385	1.4171586
34.95326089154871	2.0238564	1.422623
34.97163629859967	2.002915	1.4152437
34.99001263395542	2.078912	1.4418433
35.00838989822934	2.094412	1.4472084
35.02676809203499	2.1083953	1.4520315
35.04514721598624	2.0591369	1.4349693
35.063527270697215	2.050436	1.4319344
35.081908256782256	2.2045143	1.4847606
35.10029017485597	2.1096206	1.4524533
35.11867302553321	1.8810633	1.3715186
35.137056809429104	1.8086329	1.3448542
35.155441527159006	1.8342855	1.354358
35.173827179338524	2.021089	1.4216502
35.19221376658354	1.9992915	1.4139631
35.21060128951017	1.9886042	1.4101788
35.2289897487348	2.043678	1.4295727
35.24737914487405	1.7961196	1.3401939
35.26576947854479	1.9353354	1.3911633
35.28416075036418	2.0033545	1.4153991
35.30255296094958	2.056192	1.4339428
35.32094611091867	2.1944613	1.4813714
35.33934020088932	2.1979072	1.482534
35.35773523147969	1.7635959	1.3280045
35.3761312033082	1.7453258	1.3211077
35.394528116993506	1.8984432	1.37784
35.41292597315452	1.9046773	1.3801005
35.431324772410434	1.9120733	1.3827773
35.449724515380666	2.0524027	1.4326209
35.46812520268491	2.0587904	1.4348485
35.486526834943106	2.3815427	1.5432248
35.504929412775454	2.771825	1.6648799
35.52333293680242	2.739414	1.6551175
35.54173740764471	2.135145	1.4612135
35.560142825923286	1.4873443	1.2195673
35.5785491922594	1.1517422	1.0731925
35.59695650727454	0.82841146	0.9101711
35.61536477159042	0.8177855	0.90431494
