0.008763373481513119	0.3822274	0.6182454
0.026290120649546365	0.3681276	0.6067352
0.043816868432600686	0.38351002	0.6192819
0.06134361724069026	0.26712844	0.5168447
0.07887036748382949	0.26255175	0.51239806
0.0963971195720331	0.12460522	0.35299465
0.11392387391531617	0.100060776	0.31632385
0.1314506309236943	0.16678128	0.40838864
0.1489773910071836	0.2431527	0.49310514
0.16650415457580078	0.31319895	0.55964184
0.18403092203956356	0.26943177	0.5190682
0.20155769380849	0.22849788	0.47801453
0.2190844702925996	0.13270639	0.36428887
0.2366112519019124	0.06100694	0.24699584
0.2541380390464497	0.07392254	0.271887
0.27166483213623416	0.11254911	0.3354834
0.28919163158128947	0.14181122	0.3765783
0.3067184377916406	0.10606239	0.3256722
0.324245251177314	0.115737855	0.34020266
0.34177207214833777	0.12911554	0.3593265
0.3592989011147415	0.16935681	0.41152984
0.37682573848655654	0.22645117	0.47586885
0.39435258467381573	0.25349334	0.5034812
0.41187944008655414	0.23007731	0.47966376
0.42940630513480854	0.17899811	0.4230817
0.446933180228618	0.14970785	0.386921
0.4644600657780234	0.15789779	0.39736354
0.48198696219306775	0.16245437	0.4030563
0.49951386988379676	0.1444867	0.38011405
0.5170407892602581	0.10806241	0.32872847
0.5345677207325025	0.122768104	0.3503828
0.5520946647105822	0.13419975	0.36633286
0.5696216216045534	0.19066654	0.4366538
0.5871485918244737	0.1998425	0.44703746
0.6046755757804043	0.20558828	0.45341843
0.6222025738824094	0.19235325	0.43858096
0.6397295865405557	0.19251932	0.43877023
0.6572566141649129	0.17577602	0.4192565
0.6747836571655547	0.15790866	0.39737722
0.6923107159525568	0.14254047	0.37754533
0.7098377909359992	0.1353756	0.36793423
0.7273648825259653	0.1476739	0.38428363
0.7448919911325411	0.18309805	0.42789957
0.762419117165817	0.16382624	0.40475455
0.7799462610358868	0.1612306	0.4015353
0.7974734231528482	0.14752875	0.38409472
0.8150006039268024	0.13112465	0.36211136
0.8325278037678551	0.15292387	0.3910548
0.8500550230861152	0.20794529	0.4560102
0.8675822622916969	0.22461516	0.4739358
0.8851095217947171	0.26827028	0.51794815
0.9026368020052984	0.25690222	0.50685525
0.9201641033335665	0.23913288	0.48901215
0.9376914261896523	0.22005028	0.46909517
0.9552187709836915	0.21100104	0.4593485
0.9727461381258234	0.20778514	0.45583457
0.990273528026193	0.19130252	0.43738145
1.0078009410949496	0.17825231	0.42219937
1.0253283777422473	0.2294271	0.4789855
1.0428558383782454	0.26577336	0.51553214
1.0603833234131086	0.26426676	0.51406884
1.0779108332570058	0.2754544	0.5248375
1.0954383683201119	0.25922704	0.5091434
1.112965929012607	0.34470087	0.5871123
1.1304935157446763	0.53164476	0.72913975
1.1480211289265108	0.5736718	0.75741124
1.1655487689683062	1.3971919	1.1820288
1.1830764362802655	1.6521844	1.2853732
1.200604131272596	2.0720868	1.4394745
1.2181318543555117	2.4850736	1.5764116
1.235659605939232	2.5166147	1.5863842
1.253187386433982	4.084019	2.0208957
1.270715196249994	6.5544724	2.5601704
1.2882430357975057	12.20413	3.493441
1.3057709054867608	17.136438	4.139618
1.3232988057280106	23.147285	4.8111625
1.3408267369315112	28.27564	5.3174844
1.358354699507526	32.05148	5.6614027
1.3758826938663256	36.023766	6.0019803
1.3934107204181858	38.02516	6.1664543
1.410938779573391	38.2631	6.1857176
1.4284668717422309	38.997112	6.2447667
1.4459949973350033	38.547405	6.208656
1.4635231567620117	38.34361	6.1922216
1.4810513504335687	38.053772	6.168774
1.4985795787599925	37.40034	6.115582
1.5161078421516088	37.175808	6.0971966
1.5336361410187505	35.947838	5.9956517
1.5511644757717598	35.569534	5.96402
1.5686928468209842	36.31362	6.026078
1.58622125457678	36.98406	6.081452
1.6037496994495108	38.370068	6.194358
1.621278181849548	37.934647	6.159111
1.6388067021872719	38.44337	6.2002716
1.6563352608730693	37.557655	6.12843
1.673863858317336	36.56108	6.046576
1.6913924949304753	35.907356	5.9922748
1.7089211711228998	34.990635	5.9152884
1.7264498873050296	34.329605	5.859147
1.7439786438872935	33.137905	5.756553
1.7615074412801288	32.096394	5.665368
1.779036279893981	31.362865	5.600256
1.796565160139305	30.552795	5.527458
1.814094082426564	29.944006	5.4721117
1.8316230471662298	29.163054	5.400283
1.849152054768784	28.287823	5.3186297
1.8666811056447168	27.986446	5.2902217
1.8842102002045273	27.316473	5.2265162
1.901739338858724	26.784286	5.1753535
1.9192685220178245	26.131098	5.1118584
1.9367977500923557	25.442652	5.0440707
1.9543270234928547	24.835627	4.983536
1.971856342629867	24.299692	4.929472
1.9893857079139496	23.836311	4.8822446
2.006915119755667	23.419891	4.8394103
2.0244445785655945	22.96408	4.792085
2.0419740847543175	22.345036	4.7270536
2.0595036387324317	21.961987	4.686362
2.0770332409105414	21.24582	4.6093187
2.094562891699263	20.862991	4.567602
2.1120925915092217	20.375141	4.513883
2.129622340751053	20.162395	4.490256
2.1471521398354043	188.33603	13.723557
2.1646819891729323	444.5516	21.084393
2.182211889174303	440.8085	20.99544
2.1997418402501974	452.93292	21.28222
2.2172718428113023	432.97006	20.807932
2.234801897268317	320.9732	17.915726
2.2523320040319548	17.524607	4.18624
2.269862163512935	17.119053	4.137518
2.287392376121992	16.746845	4.092291
2.304922642269869	16.312977	4.038933
2.322452962367322	15.962707	3.9953356
2.3399833368251164	15.670175	3.9585571
2.357513766054032	15.48871	3.93557
2.3750442504648586	15.392518	3.92333
2.3925747904683963	15.242834	3.9042072
2.410105386475459	15.08655	3.8841407
2.4276360388968707	14.712002	3.8356228
2.445166748143469	14.441277	3.800168
2.4626975146261025	14.016359	3.7438428
2.4802283387556323	13.736761	3.7063136
2.4977592209429305	13.572001	3.6840198
2.5152901615988825	13.153461	3.62677
2.5328211611343865	12.81576	3.5799105
2.5503522199603523	12.374286	3.5177102
2.5678833384877024	12.30496	3.5078428
2.5854145171273712	12.203736	3.4933846
2.6029457562903064	11.900742	3.4497452
2.620477056387469	11.744622	3.4270427
2.6380084178298326	11.638868	3.4115787
2.655539841028383	11.49374	3.3902419
2.673071326394119	11.408399	3.3776321
2.6906028743380523	11.103228	3.3321507
2.708134485271211	10.996982	3.3161697
2.7256661596046325	10.828316	3.2906406
2.743197897749369	10.754915	3.2794688
2.760729700116486	10.698665	3.2708814
2.778261567117063	10.698145	3.2708018
2.795793499162193	10.50744	3.241518
2.8133254966629817	10.195723	3.1930742
2.830857560030551	9.899514	3.1463494
2.8483896896760337	9.770301	3.1257482
2.865921886010578	9.791776	3.1291814
2.883454149445347	9.789133	3.1287591
2.9009864803915177	9.792539	3.1293032
2.91851887926028	9.488858	3.080399
2.9360513464628384	9.180663	3.0299609
2.953583882410413	8.984033	2.9973376
2.9711164875142373	8.803621	2.9670897
2.9886491621855606	8.704215	2.9502907
3.0061819068356455	8.614275	2.9350085
3.023714721875769	8.635303	2.9385886
3.041247607717225	8.656001	2.9421082
3.0587805647713213	8.596446	2.9319696
3.0763135934493806	8.392284	2.896944
3.0938466941627407	8.168143	2.8579965
3.1113798673227544	7.980892	2.8250473
3.1289131133407904	7.8689876	2.8051715
3.1464464326282315	7.806353	2.7939851
3.1639798255964786	7.700204	2.774924
3.1815132926569443	7.496272	2.737932
3.1990468342210603	7.471168	2.7333438
3.216580450700272	7.4133368	2.7227442
3.2341141425060416	7.386644	2.717838
3.251647910049847	7.356977	2.7123747
3.2691817537431813	7.310936	2.7038743
3.286715673997555	7.374045	2.7155192
3.3042496712244938	7.370968	2.7149527
3.32178374583554	7.2356796	2.6899219
3.339317898242251	7.187807	2.6810086
3.3568521288562034	7.1927996	2.6819396
3.3743864380889876	7.031917	2.6517763
3.3919208263522127	7.0049295	2.6466827
3.4094552940575023	6.751221	2.5983112
3.4269898416164972	6.759591	2.5999215
3.444524469440858	6.7901196	2.6057858
3.4620591779422587	6.723432	2.5929582
3.479593967532391	6.6831236	2.5851738
3.4971288386229658	6.518543	2.5531437
3.5146637916257086	6.4526486	2.5402064
3.5321988269523628	6.411429	2.53208
3.5497339450146903	6.3488946	2.5197012
3.5672691462244708	6.3285975	2.5156703
3.5848044309934988	6.299604	2.5099013
3.60233979973359	6.422309	2.5342274
3.619875252856575	6.4220386	2.5341742
3.6374107907743034	6.4086356	2.5315282
3.6549464138986427	6.3967266	2.529175
3.6724821226414788	6.3435125	2.5186331
3.690017917414714	6.3308783	2.5161238
3.7075537986302702	6.4312882	2.5359986
3.7250897667000857	6.5087814	2.5512314
3.7426258220361235	6.7928934	2.606318
3.7601619650503553	7.0657363	2.6581452
3.777698196154779	7.6456313	2.7650735
3.7952345157614067	8.657888	2.942429
3.8127709242822716	9.347686	3.0573986
3.830307422129425	11.374002	3.3725364
3.847844009714936	12.637899	3.5549824
3.8653806874508954	16.07026	4.008773
3.882917455749409	15.704804	3.9629288
3.900454315022606	15.7674	3.9708185
3.917991265682631	12.662799	3.5584826
3.9355283081416506	10.82712	3.290459
3.9530654428118495	8.86792	2.9779053
3.970602670105433	7.7637353	2.786348
3.9881399904346244	6.8966627	2.62615
4.005677404211669	6.7051706	2.5894344
4.023214911848827	6.6234837	2.573613
4.0407525137583855	6.5802045	2.565191
4.058290210352644	6.645157	2.57782
4.075828002043927	6.5852194	2.5661683
4.0933658892445814	6.4108033	2.5319564
4.110903872366966	6.3187723	2.513717
4.128441951823468	6.2171826	2.493428
4.145980128026488	6.2688594	2.503769
4.163518401388452	6.391633	2.528168
4.181056772321807	6.384569	2.5267706
4.1985952412390155	6.3181815	2.5135994
4.216133808552567	6.207929	2.4915717
4.233672474674966	6.178513	2.4856615
4.251211240018741	6.486127	2.5467875
4.268750104996445	6.7147284	2.5912793
4.286289070020643	7.6670494	2.7689438
4.303828135503928	9.37241	3.0614393
4.3213673018589125	29.748392	5.454209
4.3389065694982305	90.85651	9.531868
4.356445938834537	166.0289	12.885221
4.3739854102805085	171.79135	13.10692
4.391524984248844	172.74841	13.143379
4.409064661152262	136.94557	11.702374
4.426604441403504	97.21184	9.859607
4.444144325415337	75.82661	8.707848
4.461684313600543	21.84237	4.673582
4.47922440637193	22.017595	4.6922913
4.496764604142329	20.458261	4.523081
4.5143049073245916	18.786198	4.334305
4.531845316331589	16.800966	4.0988984
4.5493858315762195	14.157589	3.7626572
4.566926453471405	11.642084	3.4120498
4.584467182430081	9.610384	3.100062
4.602008018865218	8.406507	2.8993976
4.619548963189798	7.648951	2.7656736
4.637090015816834	7.2017846	2.683614
4.654631177159353	6.932933	2.6330464
4.672172447630417	6.5113854	2.5517416
4.689713827643102	6.4069095	2.5311873
4.7072553176105085	6.2695165	2.5039003
4.724796917945764	6.1803017	2.4860213
4.742338629062015	5.9393377	2.4370756
4.759880451372434	5.7315316	2.3940618
4.777422385290215	5.637876	2.3744211
4.794964431228581	5.586561	2.3635907
4.812506589600768	5.5350404	2.3526666
4.830048860820047	5.476807	2.340258
4.847591245299709	5.5730214	2.3607247
4.8651337434530655	5.5890727	2.364122
4.882676355693457	5.6576967	2.3785913
4.900219082434242	5.6355915	2.37394
4.917761924088813	5.553239	2.3565311
4.935304881070575	5.5831757	2.3628745
4.952847953792969	5.534004	2.3524463
4.970391142669449	5.6090527	2.3683438
4.9879344481135055	5.5711355	2.3603253
5.005477870538642	5.5582776	2.3576
5.023021410358394	5.6464086	2.3762174
5.040565067986324	5.694787	2.3863752
5.05810884383601	5.667411	2.3806324
5.075652738321066	5.531457	2.3519049
5.09319675185512	5.454965	2.3355868
5.110740884851836	5.534292	2.3525076
5.128285137724894	5.66315	2.3797374
5.145829510888007	5.668207	2.3807998
5.163374004754908	5.552048	2.3562784
5.1809186197393595	5.362836	2.3157797
5.198463356255145	5.254968	2.2923717
5.216008214716077	5.1438603	2.268008
5.233553195535998	5.1975865	2.2798216
5.251098299128764	5.285836	2.2990947
5.268643525908272	5.353517	2.313767
5.286188876288432	5.3510227	2.3132277
5.3037343506831895	5.3926315	2.322204
5.32127994950651	5.308992	2.304125
5.3388256731723915	5.2255106	2.2859375
5.356371522094851	5.162361	2.272083
5.373917496687938	5.236122	2.2882574
5.391463597365729	5.300901	2.3023686
5.40900982454232	5.3139496	2.3052006
5.426556178631843	5.251727	2.2916646
5.444102660048449	5.2963824	2.301387
5.4616492692063225	5.295545	2.3012052
5.479196006519669	5.2889357	2.2997687
5.496742872402727	5.1745095	2.2747548
5.514289867269756	5.115561	2.2617607
5.531836991535049	5.130859	2.2651398
5.549384245612924	5.1355453	2.266174
5.566931629917724	5.191141	2.2784076
5.584479144863822	5.1680436	2.273333
5.6020267908656205	5.175611	2.274997
5.619574568337545	5.195977	2.2794685
5.637122477694054	5.218926	2.2844968
5.654670519349629	5.2650127	2.2945616
5.672218693718784	5.267567	2.295118
5.689767001216059	5.2315207	2.2872517
5.707315442256021	5.2241964	2.28565
5.724864017253266	5.2146177	2.2835538
5.7424127266224225	5.2651978	2.294602
5.75996157077814	5.2485213	2.290965
5.777510550135105	5.253623	2.2920783
5.795059665108022	5.2197366	2.2846742
5.812608916111639	5.2930465	2.3006623
5.830158303560715	5.368351	2.31697
5.847707827870055	5.3353953	2.3098474
5.86525748945448	5.363427	2.3159075
5.8828072887288485	5.4391527	2.332199
5.900357226108044	5.53261	2.35215
5.917907302006979	5.587808	2.3638544
5.9354575168406	6.1942225	2.4888196
5.9530078710238765	6.8510027	2.6174421
5.970558364971812	7.4217644	2.7242916
5.988108999099438	7.731544	2.7805655
6.005659773821818	8.183211	2.8606312
6.023210689554039	7.96658	2.822513
6.040761746711227	8.4691515	2.9101806
6.058312945708531	7.8399167	2.7999852
6.075864286961132	7.332421	2.7078443
6.093415770884244	6.6548705	2.5797036
6.1109673978931065	6.1142	2.4726908
6.128519168402993	5.592415	2.3648288
6.146071082829204	5.433408	2.3309672
6.163623141587075	5.2980227	2.3017435
6.181175345091969	5.2323685	2.2874372
6.198727693759281	5.238846	2.2888525
6.216280188004435	5.3049483	2.3032475
6.233832828242885	5.3888745	2.321395
6.251385614890126	5.3565135	2.3144143
6.268938548361669	5.241084	2.2893414
6.286491629073067	5.137982	2.2667117
6.304044857439898	5.085407	2.2550848
6.321598233877777	5.0531526	2.247922
6.339151758802344	5.056158	2.2485902
6.356705432629277	5.091492	2.2564335
6.37425925577428	5.03775	2.2444932
6.391813228653095	4.961814	2.2275128
6.409367351681486	4.9449573	2.223726
6.426921625275259	5.0000534	2.23608
6.44447604985025	5.0398197	2.2449543
6.46203062582232	5.0339117	2.243638
6.47958535360737	5.0763836	2.2530832
6.497140233621328	5.147271	2.2687597
6.514695266280161	5.1800275	2.2759674
6.532250451999859	5.1269035	2.2642667
6.549805791196454	5.023297	2.2412713
6.567361284286002	4.988284	2.2334466
6.584916931684597	4.954049	2.2257693
6.602472733808367	4.9620543	2.227567
6.6200286910734665	4.9462304	2.2240121
6.637584803896092	5.020038	2.240544
6.655141072692462	5.0331874	2.2434766
6.672697497878842	5.065372	2.2506382
6.690254079871514	5.0112243	2.2385764
6.707810819086808	5.01897	2.240306
6.725367715941078	5.0566	2.2486885
6.742924770850719	5.0188804	2.2402859
6.760481984232151	4.9517813	2.2252598
6.778039356501836	4.932373	2.2208946
6.795596888076266	4.967998	2.2289007
6.813154579371963	5.0481696	2.2468133
6.830712430805492	5.015481	2.239527
6.84827044279344	5.030717	2.242926
6.865828615752445	5.007972	2.2378497
6.883386950099159	5.046056	2.2463427
6.900945446250287	5.091966	2.2565386
6.918504104622553	5.1268644	2.2642581
6.936062925632727	5.109572	2.2604363
6.953621909697607	5.0958047	2.2573888
6.971181057234028	5.085896	2.2551932
6.988740368658859	5.1012306	2.2585905
7.006299844389007	5.179946	2.2759495
7.023859484841407	5.2309937	2.2871366
7.041419290433036	5.3462043	2.312186
7.058979261580902	5.4842715	2.3418522
7.0765393987020495	5.6535125	2.3777115
7.094099702213559	6.0184765	2.4532583
7.111660172532549	6.443244	2.5383546
7.129220810076164	6.85998	2.6191564
7.146781615261595	7.5582943	2.7492352
7.16434258850606	7.8925724	2.8093722
7.181903730226821	8.380274	2.8948703
7.1994650408411704	8.35885	2.8911674
7.217026520766437	8.458129	2.9082863
7.234588170419983	8.62043	2.9360569
7.252149990219215	8.647718	2.9407003
7.269711980581568	8.546732	2.9234793
7.2872741419245175	8.3134	2.8832967
7.304836474665574	7.8888702	2.8087132
7.322398979222286	7.472281	2.7335472
7.339961656012233	7.171905	2.6780412
7.357524505453039	6.894283	2.6256967
7.375087527962357	6.686323	2.5857925
7.392650723957886	6.449662	2.5396185
7.410214093857353	6.113025	2.4724534
7.427777638078528	5.8694916	2.4227033
7.445341357039213	5.6841817	2.3841522
7.4629052511572525	5.4928365	2.3436801
7.480469320850524	5.3296127	2.3085954
7.498033566536948	5.181865	2.276371
7.5155979886344735	5.080382	2.2539701
7.5331625875610975	5.069598	2.251577
7.550727363734844	5.1148643	2.2616067
7.568292317573788	5.1634936	2.2723322
7.585857449496025	5.208719	2.2822618
7.603422759919705	5.232708	2.2875113
7.620988249263007	5.2855763	2.2990382
7.638553917944147	5.2722545	2.296139
7.656119766381391	5.2269926	2.2862618
7.673685794993023	5.22903	2.2867072
7.691252004197388	5.281553	2.298163
7.70881839441285	5.3648324	2.3162107
7.726384966057826	5.348864	2.312761
7.743951719550762	5.30544	2.303354
7.761518655310149	5.2309136	2.2871192
7.779085773754511	5.2199078	2.2847118
7.796653075302419	5.268982	2.2954264
7.814220560372475	5.3989663	2.3235676
7.831788229383323	5.4713917	2.3391006
7.8493560827536495	5.4567857	2.3359764
7.866924120902174	5.41771	2.3275974
7.884492344247663	5.3540053	2.3138723
7.9020607532089135	5.34259	2.3114042
7.919629348204771	5.329636	2.3086004
7.937198129654115	5.359774	2.3151186
7.954767097975865	5.37064	2.317464
7.972336253588986	5.3373303	2.3102663
7.989905596912472	5.3219447	2.306934
8.007475128365371	5.406877	2.3252692
8.025044848366756	5.551763	2.3562179
8.042614757335754	5.7164216	2.390904
8.060184855691523	5.757928	2.3995683
8.07775514385327	5.8797026	2.4248097
8.095325622240228	5.9812317	2.4456556
8.112896291271687	6.05837	2.4613757
8.130467151366968	6.0388365	2.4574044
8.148038202945436	6.078309	2.4654226
8.165609446426497	6.1227202	2.4744132
8.183180882229594	6.193641	2.4887028
8.200752510774217	6.1536202	2.4806492
8.218324332479893	6.069502	2.463636
8.235896347766193	6.0238137	2.454346
8.253468557052724	6.0120196	2.451942
8.27104096075914	6.0021596	2.4499304
8.288613559305137	6.1028295	2.4703906
8.306186353110448	6.1886244	2.4876945
8.32375934259485	6.3219295	2.5143447
8.341332528178162	6.3323574	2.5164175
8.358905910280246	6.357127	2.5213344
8.376479489321003	6.3619227	2.5222852
8.394053265720377	6.387702	2.5273902
8.411627239898356	6.3134537	2.5126586
8.42920141227497	6.317283	2.5134206
8.44677578327029	6.2734604	2.5046878
8.464350353304427	6.2420106	2.4984016
8.48192512279754	6.2082286	2.4916317
8.499500092169827	6.2305455	2.4961061
8.51707526184153	6.221478	2.4942892
8.534650632232934	6.272656	2.504527
8.552226203764365	6.2012534	2.4902315
8.569801976856192	6.2226806	2.4945302
8.587377951928834	6.2041197	2.490807
8.60495412940274	6.238514	2.4977016
8.622530509698416	6.3328595	2.5165174
8.6401070932364	6.500583	2.5496242
8.657683880437283	6.6235375	2.5736234
8.675260871721695	6.781698	2.6041694
8.692838067510303	6.916367	2.6298988
8.710415468223834	7.129666	2.6701434
8.727993074283043	7.3477187	2.7106676
8.745570886108737	7.304964	2.7027698
8.763148904121765	7.304847	2.702748
8.78072712874302	7.2889485	2.6998053
8.798305560393441	7.5219483	2.7426171
8.815884199494006	7.687515	2.772637
8.833463046465745	7.896163	2.8100111
8.851042101729728	8.008928	2.830005
8.86862136570707	8.24112	2.8707352
8.886200838818924	8.366012	2.8924057
8.903780521486505	8.462241	2.9089932
8.921360414131055	8.65199	2.9414265
8.938940517173874	8.768893	2.9612317
8.956520831036297	8.889495	2.9815257
8.97410135613971	9.116679	3.019384
8.99168209290554	9.254394	3.0421035
9.009263041755265	9.488193	3.080291
9.026844203110405	9.712037	3.116414
9.044425577392525	9.996854	3.16178
9.062007165023239	10.150293	3.1859524
9.079588966424197	10.50654	3.2413795
9.097170982017108	10.587435	3.2538338
9.11475321222372	11.40337	3.3768876
9.132335657465825	12.233532	3.4976466
9.149918318165264	12.339124	3.512709
9.167501194743924	12.9625	3.600347
9.18508428762374	12.653488	3.5571742
9.202667597226693	12.643412	3.5557575
9.220251123974803	12.29984	3.5071127
9.237834868290143	12.052349	3.4716494
9.255418830594836	11.759362	3.4291925
9.273003011311046	11.225733	3.3504825
9.290587410860985	10.964413	3.3112555
9.308172029666911	10.330414	3.214096
9.32575686815113	10.032093	3.167348
9.343341926735997	8.829919	2.971518
9.360927205843916	8.625821	2.9369748
9.378512705897327	8.45923	2.9084756
9.396098427318728	8.224382	2.8678184
9.413684370530664	8.045643	2.8364842
9.431270535955722	7.949406	2.8194692
9.448856924016539	7.9027205	2.8111777
9.466443535135806	7.844214	2.8007524
9.484030369736251	7.8230953	2.7969797
9.501617428240658	7.825981	2.7974956
9.519204711071852	7.8398037	2.799965
9.536792218652714	7.9328833	2.8165374
9.55437995140617	7.9431562	2.8183606
9.571967909755191	8.010245	2.8302376
9.589556094122802	8.008954	2.8300095
9.60714450493207	8.033036	2.8342612
9.624733142606116	8.02393	2.8326542
9.642322007568108	8.044507	2.836284
9.659911100241267	8.118424	2.849285
9.677500421048851	8.177914	2.8597052
9.695089970414175	8.190495	2.861904
9.712679748760609	8.179807	2.8600361
9.730269756511557	8.252769	2.8727634
9.747859994090492	8.297183	2.8804832
9.765450461920915	8.276737	2.876932
9.78304116042639	8.354737	2.8904562
9.800632090030527	8.331866	2.8864973
9.81822325115699	8.367662	2.8926911
9.835814644229481	8.347278	2.8891656
9.853406269671762	8.32462	2.8852417
9.870998127907646	8.299565	2.8808966
9.888590219360985	8.216886	2.866511
9.906182544455698	8.197642	2.8631525
9.923775103615734	8.222522	2.867494
9.941367897265108	8.275919	2.8767898
9.958960925827878	8.350034	2.8896425
9.97655418972816	8.416716	2.9011576
9.994147689390106	8.426296	2.9028084
10.011741425237934	8.36629	2.892454
10.029335397695904	8.368864	2.8928988
10.04692960718833	8.367302	2.892629
10.06452405413958	8.411403	2.9002419
10.082118738974064	8.354362	2.8903913
10.099713662116246	8.273348	2.8763428
10.117308823990651	8.2147665	2.8661413
10.134904225021844	8.133646	2.8519547
10.152499865634445	8.129218	2.8511784
10.170095746253125	8.117878	2.849189
10.18769186730261	8.184444	2.8608468
10.205288229207675	8.239872	2.8705177
10.222884832393145	8.280184	2.8775308
10.2404816772839	8.2293	2.8686755
10.258078764304868	8.137511	2.8526323
10.275676093881035	8.083482	2.8431466
10.293273666437438	8.11247	2.8482397
10.310871482399158	8.195663	2.862807
10.32846954219134	8.256715	2.87345
10.346067846239173	8.283697	2.8781412
10.363666394967908	8.244815	2.8713787
10.38126518880283	8.187146	2.861319
10.398864228169298	8.2490425	2.8721147
10.416463513492713	8.302308	2.8813727
10.434063045198531	8.340554	2.8880017
10.451662823712262	8.318968	2.884262
10.469262849459467	8.318107	2.8841128
10.486863122865758	8.254999	2.8731515
10.504463644356806	8.1665325	2.8577147
10.522064414358338	8.079069	2.8423703
10.539665433296118	8.073732	2.8414314
10.557266701595987	8.054049	2.8379655
10.574868219683818	7.982381	2.8253107
10.592469987985552	7.863014	2.8041067
10.610072006927185	7.75366	2.7845395
10.627674276934751	7.6959114	2.7741506
10.64527679843435	7.578212	2.7528553
10.662879571852143	7.4586487	2.7310526
10.680482597614331	7.2948313	2.7008946
10.698085876147173	7.157029	2.6752625
10.715689407876988	7.1080236	2.6660876
10.733293193230146	6.987672	2.6434205
10.750897232633072	6.8391128	2.6151698
10.76850152651225	6.7339077	2.5949774
10.786106075294207	6.645326	2.577853
10.803710879405534	6.5538015	2.5600393
10.821315939272877	6.430738	2.5358899
10.83892125532294	6.3812857	2.5261207
10.856526827982472	6.367308	2.5233526
10.874132657678285	6.4081564	2.5314336
10.891738744837243	6.4248757	2.5347338
10.909345089886271	6.329774	2.5159042
10.926951693252343	6.2514796	2.5002959
10.944558555362494	6.176751	2.485307
10.96216567664381	6.1178656	2.4734318
10.979773057523436	6.0847178	2.466722
10.997380698428573	5.9969583	2.4488688
11.014988599786477	5.946711	2.438588
11.032596762024461	5.8466463	2.417984
11.050205185569892	5.819784	2.412423
11.067813870850198	5.789787	2.4061975
11.085422818292859	5.7438874	2.3966408
11.10303202832541	5.595983	2.365583
11.120641501375454	5.551456	2.3561528
11.138251237870636	5.43505	2.3313193
11.155861238238671	5.323575	2.3072875
11.173471502907317	5.2193294	2.2845852
11.191082032304402	5.1614146	2.2718747
11.208692826857805	5.1943088	2.2791026
11.226303886995465	5.149998	2.2693608
11.243915213145371	5.1220713	2.2631993
11.261526805735578	4.985701	2.2328684
11.279138665194196	4.8891673	2.211146
11.296750791949393	4.8493686	2.2021282
11.314363186429393	4.832866	2.198378
11.331975849062479	4.7853165	2.1875367
11.34958878027699	4.732776	2.1754944
11.36720198050133	4.641188	2.1543417
11.384815450163948	4.643502	2.1548786
11.402429189693366	4.630727	2.1519125
11.420043199518153	4.627415	2.1511428
11.437657480066942	63.59548	7.9746776
11.455272031768422	85.290504	9.235286
11.472886855051353	107.66123	10.375993
11.490501950344528	99.249916	9.962425
11.508117318076819	84.60196	9.197932
11.52573295867715	46.003563	6.782593
11.543348872574514	4.267322	2.0657496
11.560965060197946	4.177297	2.0438437
11.57858152197655	4.120758	2.029965
11.59619825833949	4.1176243	2.029193
11.613815269715985	4.093866	2.0233305
11.631432556535323	38.592022	6.212248
11.649050119226837	83.067635	9.114144
11.666667958219929	93.48979	9.669012
11.68428607394406	107.75872	10.38069
11.701904466828756	82.5684	9.086716
11.719523137303586	65.3738	8.085406
11.737142085798196	4.625232	2.1506352
11.754761312742286	3.7616162	1.9394886
11.772380818565619	3.7350588	1.9326301
11.790000603698015	3.7107434	1.926329
11.80762066856935	3.692359	1.9215512
11.825241013609572	3.6482377	1.9100361
11.842861639248683	3.6351717	1.9066126
11.860482545916748	3.6102295	1.9000604
11.878103734043883	3.5823066	1.8926983
11.895725204060282	3.5215697	1.8765846
11.91334695639619	3.4077604	1.846012
11.930968991481919	3.3800323	1.8384864
11.948591309747824	3.349397	1.8301358
11.966213911624347	3.370344	1.8358496
11.98383679754198	3.3432145	1.8284459
12.001459967931268	3.3651252	1.8344277
12.019083423222835	3.3289428	1.8245391
12.036707163847352	3.3303795	1.8249327
12.05433119023556	3.3149936	1.8207124
12.071955502818259	3.2582705	1.805068
12.089580102026313	3.2258785	1.7960731
12.107204988290643	3.2169864	1.7935959
12.12483016204224	3.2139304	1.7927438
12.142455623712152	3.1625245	1.7783488
12.16008137373149	3.0971053	1.7598594
12.177707412531431	3.1171162	1.7655357
12.19533374054321	3.1596472	1.7775396
12.212960358198126	3.15216	1.7754323
12.230587265927545	3.084404	1.7562472
12.248214464162889	3.034247	1.741909
12.265841953335649	3.0338771	1.7418028
12.283469733877375	3.0478806	1.745818
12.301097806219685	3.0169373	1.7369332
12.31872617079425	2.9665313	1.7223622
12.336354828032825	2.93824	1.7141296
12.353983778367205	2.9577255	1.7198039
12.371613022229262	2.9547358	1.7189345
12.389242560050928	2.9676054	1.7226739
12.406872392264201	2.984927	1.7276942
12.424502519301143	2.9672456	1.7225695
12.442132941593874	2.946738	1.7166065
12.459763659574586	2.9141164	1.7070783
12.477394673675532	2.923815	1.7099167
12.49502598432903	2.91263	1.706643
12.51265759196746	2.8931293	1.7009201
12.530289497023267	2.8724475	1.6948296
12.547921699928967	2.8690119	1.6938158
12.565554201117134	2.8766856	1.6960795
12.583187001020404	2.869177	1.6938646
12.600820100071486	2.906131	1.7047378
12.618453498703152	2.874862	1.6955417
12.636087197348235	2.8322515	1.6829294
12.65372119643964	2.8395512	1.6850967
12.671355496410326	2.8734403	1.6951225
12.68899009769333	2.9291453	1.7114747
12.706625000721749	2.9516168	1.718027
12.724260205928752	2.984744	1.7276412
12.741895713747551	2.9795644	1.7261415
12.759531524611454	3.0282104	1.7401754
12.777167638953818	3.0482123	1.745913
12.794804057208072	3.060141	1.7493259
12.812440779807702	3.086441	1.756827
12.830077807186271	3.2411542	1.8003206
12.847715139777405	3.288285	1.813363
12.865352778014795	3.5450923	1.8828416
12.882990722332197	3.6877337	1.9203472
12.90062897316344	3.7619057	1.9395633
12.918267530942412	3.7884989	1.9464066
12.935906396103071	3.6466396	1.9096177
12.953545569079449	3.817616	1.9538721
12.971185050305628	3.62246	1.9032761
12.988824840215775	3.659238	1.9129136
13.006464939244115	3.6038249	1.8983743
13.024105347824943	3.4747167	1.8640592
13.041746066392617	3.5646954	1.8880401
13.05938709538157	3.3615975	1.8334659
13.077028435226296	3.3420584	1.8281298
13.094670086361363	3.249227	1.8025613
13.112312049221401	3.1669428	1.7795906
13.129954324241112	3.0756142	1.7537429
13.147596911855258	2.8869386	1.6990993
13.165239812498685	2.8770764	1.6961946
13.182883026606293	2.8354833	1.6838894
13.200526554613058	2.7746947	1.6657414
13.218170396954017	2.7699406	1.6643139
13.235814554064284	2.7826915	1.6681402
13.253459026379034	2.7842417	1.6686047
13.271103814333523	2.7554374	1.659951
13.288748918363058	2.7302175	1.652337
13.306394338903031	2.6764731	1.635993
13.32404007638889	2.6643696	1.6322896
13.341686131256164	2.673885	1.6352018
13.359332503940449	2.6768603	1.6361114
13.376979194877402	2.7159822	1.6480237
13.394626204502751	2.736853	1.6543436
13.412273533252307	2.7831573	1.6682798
13.429921181561937	2.7394092	1.6551161
13.447569149867581	2.7444236	1.6566302
13.465217438605247	2.735578	1.6539583
13.482866048211022	2.7117834	1.6467494
13.500514979121052	2.7068884	1.6452625
13.518164231771568	2.7138433	1.6473746
13.535813806598844	2.719865	1.6492014
13.553463704039254	2.7489786	1.6580044
13.571113924529229	2.757168	1.6604723
13.588764468505275	2.746806	1.6573491
13.606415336403956	2.7222035	1.6499101
13.624066528661917	2.7367845	1.654323
13.641718045715882	2.7783942	1.6668516
13.659369888002635	2.874269	1.695367
13.67702205595903	2.9262362	1.7106245
13.694674550021993	2.9855819	1.7278837
13.712327370628532	3.0050397	1.733505
13.729980518215713	3.1192317	1.7661346
13.747633993220681	3.2038434	1.7899283
13.765287796080647	3.266089	1.8072324
13.7829419272329	3.3016565	1.817046
13.800596387114801	3.3377495	1.8269509
13.818251176163775	3.3984878	1.8434988
13.835906294817324	3.442846	1.8554908
13.853561743513023	3.4584541	1.859692
13.871217522688525	3.5062785	1.8725059
13.888873632781538	3.512588	1.87419
13.906530074229858	3.575606	1.8909273
13.92418684747135	3.5808125	1.8923035
13.941843952943948	3.5725915	1.89013
13.959501391085665	3.5363598	1.8805212
13.977159162334578	3.4590044	1.8598399
13.994817267128846	3.4245303	1.8505486
14.012475705906693	3.341118	1.8278725
14.030134479106424	3.2487867	1.8024391
14.047793587166414	3.1798022	1.7832
14.065453030525108	3.1686316	1.7800651
14.083112809621026	3.0772746	1.7542162
14.100772924892766	2.9972465	1.7312558
14.118433376778997	2.9251523	1.7103077
14.136094165718458	2.8887978	1.6996464
14.153755292149969	2.832081	1.6828789
14.171416756512416	2.7295823	1.6521448
14.189078559244768	2.6643534	1.6322848
14.20674070078606	2.626302	1.620587
14.224403181575408	2.5797517	1.6061605
14.242066002051999	2.5330129	1.5915442
14.259729162655093	2.5235338	1.5885634
14.277392663824022	2.5291052	1.590316
14.295056505998208	2.509944	1.5842803
14.312720689617128	2.4646127	1.5699085
14.330385215120348	2.440226	1.5621223
14.348050082947497	2.4697902	1.5715566
14.3657152935383	2.4536788	1.5664223
14.383380847332528	2.468304	1.5710837
14.401046744770051	2.440122	1.562089
14.418712986290798	2.3769202	1.5417264
14.436379572334793	2.3680658	1.5388521
14.454046503342123	2.3767312	1.5416651
14.471713779752946	2.4191859	1.5553732
14.489381402007504	2.442326	1.5627943
14.507049370546113	2.4263973	1.5576898
14.524717685809168	2.414511	1.5538697
14.542386348237134	2.4058225	1.5510714
14.560055358270553	2.426057	1.5575805
14.577724716350051	2.5013669	1.581571
14.595394422916325	2.509053	1.583999
14.61306447841015	2.5376847	1.5930111
14.63073488327237	2.5052757	1.5828062
14.648405637943917	2.5295525	1.5904567
14.6660767428658	2.5025377	1.5819411
14.683748198479094	2.5309677	1.5909015
14.701420005224954	2.5620525	1.6006413
14.719092163544628	2.6572413	1.6301047
14.73676467387942	2.7136917	1.6473286
14.754437536670727	2.7460577	1.6571233
14.772110752360014	2.7191975	1.648999
14.78978432138882	2.6765435	1.6360145
14.807458244198777	2.7078996	1.6455697
14.82513252123159	2.7145753	1.6475968
14.842807152929028	2.7503073	1.6584051
14.860482139732962	2.6957192	1.6418645
14.87815748208531	2.6762128	1.6359135
14.8958331804281	2.7240064	1.6504564
14.91350923520342	2.704421	1.6445124
14.931185646853438	2.71552	1.6478834
14.948862415820408	2.686057	1.6389195
14.966539542546656	2.749143	1.658054
14.98421702747459	2.6967995	1.6421936
15.001894871046696	2.6686213	1.6335915
15.019573073705542	2.6615505	1.6314259
15.037251635893766	2.6893096	1.6399114
15.054930558054092	2.7562017	1.6601813
15.072609840629323	2.836753	1.6842663
15.090289484062351	2.9845	1.7275705
15.107969488796124	3.3035123	1.8175567
15.125649855273691	3.7528322	1.9372228
15.14333058393817	4.236519	2.0582805
15.161011675232768	5.103066	2.2589967
15.17869312960076	6.368192	2.5235276
15.196374947485506	8.255177	2.8731823
15.214057129330447	11.414356	3.3785138
15.231739675579114	16.085617	4.010688
15.249422586675102	20.970055	4.579307
15.267105863062092	23.983885	4.8973346
15.284789505183847	24.192204	4.918557
15.302473513484218	22.051949	4.69595
15.320157888407127	18.487936	4.29976
15.337842630396578	14.4014225	3.7949207
15.355527739896656	11.271246	3.3572676
15.37321321735153	8.835971	2.972536
15.39089906320545	6.5085163	2.5511794
15.408585277902748	4.9208183	2.2182918
15.42627186188783	3.8318086	1.9575006
15.443958815605198	3.3435571	1.8285396
15.461646139499424	3.0414624	1.7439789
15.479333834015168	2.8947327	1.7013915
15.497021899597165	2.8239985	1.6804757
15.514710336690234	2.7959895	1.6721213
15.53239914573928	2.7363977	1.654206
15.550088327189297	2.6535404	1.6289691
15.567777881485336	2.5855405	1.6079617
15.58546780907256	2.5455434	1.5954759
15.6031581103962	2.4895995	1.5778464
15.620848785901568	2.5005848	1.5813237
15.638539836034063	2.4848127	1.5763289
15.656231261239173	2.4711185	1.5719792
15.673923061962451	2.4139922	1.5537027
15.691615238649552	2.3885584	1.5454961
15.709307791746202	2.3743713	1.5408995
15.727000721698221	2.4237103	1.5568271
15.744694028951498	2.412082	1.5530878
15.76238771395202	2.405583	1.5509942
15.780081777145844	2.369512	1.5393219
15.797776218979125	2.3517118	1.5335292
15.815471039898094	2.3380275	1.529061
15.833166240349064	2.3464923	1.5318265
15.850861820778437	2.3679917	1.538828
15.868557781632699	2.380896	1.5430152
15.886254123358412	2.3658035	1.5381168
15.903950846402232	2.3841662	1.5440745
15.921647951210897	2.409289	1.5521884
15.939345438231225	2.4248333	1.5571877
15.957043307910133	2.4055462	1.5509824
15.974741560694602	2.3901985	1.5460267
15.992440197031714	2.3891623	1.5456915
16.01013921736862	2.4197218	1.5555456
16.02783862215259	2.4448252	1.5635936
16.045538411830933	2.45499	1.5668408
16.06323858685107	2.4724813	1.5724126
16.080939147660512	2.4604309	1.5685761
16.09864009470684	2.406034	1.5511396
16.11634142843774	2.3970566	1.548243
16.134043149300954	2.409979	1.5524107
16.15174525774433	2.4204626	1.5557836
16.169447754215817	2.4237494	1.5568396
16.18715063916342	2.4178154	1.5549326
16.204853913035244	2.4653993	1.570159
16.222557576279478	2.4915743	1.5784721
16.240261629344403	22.507801	4.744239
16.257966072678386	43.01743	6.5587673
16.275670906729868	38.09949	6.1724787
16.293376131947387	2.494701	1.5794622
16.31108174877957	2.5552063	1.5985013
16.328787757675133	2.6013625	1.612874
16.34649415908287	2.640028	1.6248163
16.364200953451657	2.6357548	1.6235008
16.38190814123048	2.643558	1.6259022
16.39961572286839	2.666109	1.6328224
16.41732369881455	2.6744363	1.6353704
16.43503206951817	2.7019932	1.643774
16.45274083542859	2.779031	1.6670426
16.47044999699522	2.8597653	1.691084
16.488159554667558	2.870686	1.69431
16.505869508895184	2.8596609	1.6910532
16.523579860127786	2.8905816	1.700171
16.541290608815117	2.9805052	1.726414
16.559001755407035	3.073346	1.7530961
16.57671330035348	3.1241627	1.7675301
16.59442524410448	3.1820145	1.7838202
16.61213758711015	3.229084	1.7969652
16.629850329820705	3.2884276	1.8134022
16.647563472686436	3.3513136	1.8306594
16.665277016157724	3.3929965	1.8420088
16.682990960685053	3.424732	1.8506031
16.70070530671898	3.4904187	1.8682662
16.718420054710155	3.5605197	1.8869339
16.736135205109335	3.6115835	1.9004166
16.753850758367335	3.676772	1.9174911
16.771566714935087	3.7627473	1.9397802
16.789283075263597	3.8015478	1.9497558
16.80699983980398	3.8251183	1.955791
16.82471700900741	3.8605154	1.9648194
16.84243458332518	3.9052577	1.9761724
16.860152563208665	3.981976	1.9954889
16.87787094910932	4.0562887	2.014023
16.89558974147871	4.146608	2.036322
16.913308940768466	4.263022	2.0647087
16.931028547430333	4.322445	2.079049
16.94874856191613	4.354247	2.0866833
16.966468984677785	4.3911643	2.0955105
16.98418981616729	4.414728	2.1011255
17.00191105683676	4.490298	2.1190324
17.019632707138374	4.552357	2.1336253
17.03735476752442	4.5368752	2.1299942
17.05507723844728	4.5314517	2.1287208
17.072800120359403	4.596174	2.143869
17.090523413713353	4.674724	2.162111
17.108247118961785	4.7019916	2.1684077
17.125971236557437	4.6673613	2.1604075
17.143695766953133	4.6574893	2.1581218
17.161420710601806	4.662291	2.1592338
17.179146067956477	4.682972	2.1640174
17.19687183947025	4.704836	2.1690633
17.21459802559634	4.692642	2.1662507
17.232324626788028	4.6987586	2.167662
17.25005164349871	4.702365	2.1684937
17.267779076181863	4.6548142	2.157502
17.285506925291074	4.6142097	2.148071
17.30323519127999	4.634889	2.1528792
17.320963874602384	4.6637053	2.1595614
17.33869297571211	4.6770396	2.1626465
17.356422495063114	4.6702156	2.1610682
17.37415243310944	4.613361	2.1478736
17.391882790305218	4.5278964	2.1278853
17.40961356710468	4.4871006	2.1182778
17.42734476396215	4.5148854	2.124826
17.445076381332044	4.5758014	2.1391122
17.462808419668868	4.6466894	2.1556182
17.48054087942723	4.746999	2.1787608
17.498273761061835	5.060664	2.249592
17.51600706502747	5.572062	2.3605216
17.533740791779024	6.353361	2.5205874
17.551474941771485	7.8211026	2.7966235
17.56920951545993	8.90785	2.9846022
17.586944513299528	11.004851	3.317356
17.60467993574556	12.50497	3.5362365
17.622415783253373	13.98033	3.739028
17.64015205627843	15.282012	3.9092214
17.657888755276293	16.30254	4.0376406
17.675625880702604	16.73309	4.09061
17.69336343301311	16.582758	4.072193
17.71110141266366	15.846661	3.9807863
17.728839820110178	14.905238	3.8607302
17.746578655808705	13.916824	3.730526
17.764317920215372	12.60841	3.5508323
17.7820576137864	11.248129	3.353823
17.79979773697811	9.382922	3.0631557
17.81753829024692	7.5845013	2.7539973
17.835279274049356	5.950689	2.4394033
17.85302068884201	4.976731	2.2308588
17.870762535081607	4.3532815	2.086452
17.888504813224934	4.05193	2.0129406
17.90624752372891	3.8597667	1.9646289
17.923990667050536	3.731203	1.9316323
17.941734243646895	3.5829372	1.8928648
17.959478253975185	3.4811256	1.8657775
17.9772226984927	3.4419463	1.8552483
17.994967577656833	3.4133856	1.847535
18.01271289192506	3.3938918	1.8422518
18.030458641754965	3.3372524	1.8268148
18.04820482760425	3.3250914	1.8234833
18.06595144993067	3.32628	1.8238093
18.083698509192125	3.321103	1.8223894
18.101446005846576	3.279178	1.81085
18.119193940352105	3.2567265	1.8046403
18.136942313166887	3.2462344	1.801731
18.1546911247492	3.155864	1.7764752
18.1724403755574	3.1253233	1.7678584
18.19019006604997	3.1086113	1.7631254
18.207940196685467	3.1370206	1.7711636
18.225690767922575	3.10545	1.7622287
18.243441780220046	3.0762138	1.7539139
18.261193234036764	3.0778978	1.7543938
18.278945129831676	3.088082	1.7572939
18.29669746806386	3.109705	1.7634356
18.314450249192483	3.0752475	1.7536384
18.3322034736768	3.0499296	1.7464048
18.349957141976184	3.0106297	1.7351166
18.3677112545501	3.015423	1.7364974
18.385465811858108	3.0652156	1.7507757
18.403220814359884	3.1003358	1.760777
18.420976262515172	3.155669	1.7764202
18.43873215678387	3.2251706	1.795876
18.456488497625923	3.2451675	1.8014349
18.474245285501407	3.3244784	1.8233153
18.492002520870486	3.4015205	1.8443211
18.50976020419343	3.492405	1.8687978
18.527518335930615	3.801054	1.9496292
18.545276916542516	4.3673105	2.089811
18.563035946489688	4.588831	2.1421556
18.580795426232832	5.018517	2.2402046
18.598555356232698	4.900495	2.2137063
18.616315736950185	5.2204394	2.2848282
18.63407656884626	4.8692446	2.2066364
18.65183785238201	5.050567	2.2473466
18.669599588018617	4.7340517	2.1757877
18.68736177621737	4.769066	2.183819
18.705124417439652	4.748983	2.1792161
18.72288751214696	4.553057	2.1337893
18.740651060800886	4.699695	2.167878
18.758415063863115	4.3829274	2.0935442
18.77617952179546	4.5858803	2.1414669
18.793944435059814	4.376462	2.0919995
18.811709804118184	4.4197917	2.10233
18.829475629432675	4.3412666	2.0835707
18.8472419114655	4.076443	2.0190203
18.86500865067897	4.158073	2.0391355
18.88277584753551	3.8699284	1.9672134
18.90054350249763	3.924655	1.9810742
18.918311616027957	3.5930345	1.8955301
18.936080188589226	3.443181	1.855581
18.953849220644265	3.0827248	1.755769
18.971618712656007	2.9053094	1.7044969
18.9893886650875	2.8736901	1.6951962
19.007159078401887	8.040155	2.8355167
19.024929953062408	32.899273	5.735789
19.042701289532435	32.845806	5.7311263
19.060473088275405	25.390774	5.0389256
19.07824534975489	2.6708398	1.6342704
19.096018074434568	2.618343	1.6181295
19.113791262778197	2.6207745	1.6188806
19.13156491524966	2.6003556	1.6125618
19.149339032312945	2.6021228	1.6131097
19.167113614432136	2.606146	1.6143563
19.184888662071433	2.601262	1.6128429
19.202664175695123	2.5885549	1.6088986
19.220440155767623	2.5443356	1.5950974
19.238216602753447	2.5515997	1.5973728
19.2559935171172	2.5220516	1.5880969
19.27377089932361	2.5212321	1.5878388
19.291548749837514	2.5131097	1.5852791
19.309327069123835	2.495524	1.5797228
19.32710585764763	2.4971778	1.5802461
19.344885115874032	2.4862173	1.5767744
19.362664844268313	2.548599	1.5964332
19.380445043295822	2.6001096	1.6124855
19.39822571342203	2.5754719	1.6048276
19.41600685511252	2.5415907	1.5942367
19.43378846883297	2.4999971	1.5811379
19.451570555049173	2.5248127	1.5889659
19.469353114227037	2.5427759	1.5946084
19.48713614683254	2.5475495	1.5961045
19.50491965333182	2.5453098	1.5954027
19.52270363419109	2.54182	1.5943086
19.540488089876686	2.5188978	1.5871036
19.55827302085503	2.5050166	1.5827245
19.576058427592674	2.4991477	1.5808693
19.593844310556282	2.4999144	1.5811118
19.611630670212598	2.4983788	1.580626
19.629417507028506	2.4754765	1.5733647
19.64720482147098	2.4940112	1.5792439
19.6649926140071	2.5270553	1.5896714
19.682780885104084	2.5668168	1.6021289
19.70056963522921	2.5182989	1.5869149
19.718358864849908	2.524041	1.5887231
19.7361485744337	2.5074496	1.5834929
19.753938764448215	2.5336263	1.5917369
19.771729435361202	2.5304322	1.5907333
19.789520587640506	2.5321465	1.591272
19.807312221754092	2.4925241	1.578773
19.825104338170043	2.4940724	1.5792632
19.842896937356517	2.5505798	1.5970535
19.860690019781824	2.5427222	1.5945915
19.87848358591436	2.4984636	1.580653
19.896277636222635	2.445802	1.563906
19.914072171175278	2.4436219	1.5632088
19.931867191241015	2.4457514	1.5638899
19.94966269688869	2.4919236	1.5785828
19.967458688587264	2.5420413	1.594378
19.985255166805807	2.5577164	1.5992862
20.00305213201348	2.4968793	1.5801517
20.020849584679578	2.4658349	1.5702977
20.038647525273507	2.4725413	1.5724317
20.05644595426477	2.4814878	1.5752739
20.07424487212299	2.4739547	1.572881
20.092044279317903	2.4608839	1.5687205
20.109844176319353	2.4649498	1.5700159
20.127644563597304	2.436049	1.5607847
20.145445441621817	2.4242713	1.5570072
20.16324681086307	2.436884	1.5610522
20.181048671791373	2.4713042	1.5720382
20.198851024877122	2.4820464	1.5754511
20.216653870590836	2.4962459	1.5799512
20.234457209403146	2.4364908	1.5609262
20.252261041784802	2.3667934	1.5384387
20.270065368206662	2.3360698	1.5284207
20.287870189139685	2.3540657	1.5342965
20.305675505054968	2.3369975	1.5287242
20.323481316423702	2.3388393	1.5293264
20.341287623717207	2.3613243	1.5366601
20.359094427406884	2.4018183	1.5497801
20.376901727964288	2.3949711	1.5475694
20.39470952586107	2.4290805	1.5585507
20.41251782156899	2.4267142	1.5577915
20.430326615559935	2.4141562	1.5537555
20.448135908305886	2.3995316	1.5490421
20.465945700278965	2.3966885	1.5481242
20.483755991951384	2.4094405	1.5522373
20.50156678379548	2.3935442	1.5471083
20.519378076283708	2.3768046	1.5416889
20.537189869888635	2.3426392	1.5305682
20.55500216508294	2.3337104	1.5276487
20.572814962339415	2.3545141	1.5344427
20.59062826213098	2.376517	1.5415956
20.60844206493066	2.3532085	1.5340171
20.626256371211593	2.3522305	1.5336983
20.644071181447032	2.3554459	1.5347462
20.66188649611036	2.3393717	1.5295005
20.67970231567506	2.3526385	1.5338314
20.697518640614742	2.3639562	1.5375162
20.715335471403122	2.386948	1.5449752
20.73315280851404	2.3681211	1.5388701
20.750970652421447	2.37314	1.5404999
20.768789003599412	2.3602962	1.5363256
20.786607862522136	2.3332803	1.5275079
20.8044272296639	2.325128	1.524837
20.82224710549913	2.3307295	1.5266727
20.84006749050237	2.3521414	1.5336692
20.857888385148268	3.906892	1.976586
20.8757097899116	46.02913	6.784477
20.893531705267254	64.87948	8.05478
20.911354131690224	83.896126	9.159483
20.92917706965566	69.15364	8.315866
20.94700051963877	50.220093	7.0866137
20.96482448211493	29.49442	5.4308763
20.982648957559622	4.2062984	2.0509262
21.00047394644843	2.3370476	1.5287405
21.01829944925707	2.3030221	1.5175711
21.036125466461375	2.3009756	1.5168967
21.053951998537297	2.2817433	1.5105441
21.071779045960906	2.2803931	1.510097
21.089606609208378	2.249529	1.499843
21.10743468875603	2.210323	1.4867156
21.12526328508028	2.2379801	1.495988
21.143092398657675	2.2835646	1.5111468
21.16092202996488	2.2956715	1.5151473
21.17875217947867	2.2236862	1.491203
21.19658284767596	2.137578	1.4620458
21.21441403503377	2.089498	1.4455097
21.232245742029225	2.1395223	1.4627106
21.2500779691396	2.2219021	1.4906046
21.26791071684227	2.2744076	1.508114
21.28574398561475	2.2358928	1.4952902
21.30357777593465	2.188102	1.4792235
21.321412088279704	2.1443126	1.4643471
21.339246923127792	2.1518967	1.4669344
21.357082280956888	2.164953	1.471378
21.3749181622451	2.18885	1.4794762
21.392754567470647	2.1949966	1.4815521
21.41059149711187	2.1953828	1.4816824
21.42842895164726	2.1688614	1.4727055
21.446266931555378	2.1482096	1.4656771
21.464105437314945	2.1407316	1.4631239
21.481944469404798	2.1423857	1.4636891
21.49978402830388	2.1216118	1.4565754
21.51762411449127	2.1178796	1.4552937
21.53546472844617	2.132769	1.4604003
21.553305870647876	2.1518524	1.4669193
21.571147541575865	2.1468856	1.4652255
21.58898974170967	2.1111395	1.4529761
21.60683247152899	2.094214	1.44714
21.62467573151363	2.0893338	1.4454528
21.642519522143523	2.083794	1.4435353
21.660363843898722	2.0606592	1.4354997
21.6782086972594	2.0673246	1.4378194
21.696054082705864	2.0805907	1.4424253
21.713900000718535	2.067905	1.4380212
21.73174645177795	2.065741	1.4372686
21.749593436364794	2.0829558	1.4432449
21.767440954959845	2.0960436	1.4477719
21.785289008044032	2.0976284	1.4483192
21.803137596098388	2.062741	1.4362246
21.820986719604086	2.0442932	1.4297878
21.838836379042412	2.0475116	1.4309129
21.85668657489478	2.0445814	1.4298886
21.87453730764273	2.040247	1.4283721
21.892388577767914	2.0341718	1.4262439
21.91024038575213	2.0132732	1.4188986
21.928092732077285	1.9745959	1.4052031
21.945945617225426	1.9539298	1.3978304
21.963799041678694	1.9606619	1.4002364
21.981653005919398	31.322666	5.596666
21.999507510429943	78.145134	8.839973
22.01736255569286	73.1101	8.550445
22.035218142190818	4.1947184	2.0481012
22.05307427040661	2.047921	1.4310559
22.07093094082315	2.0461988	1.430454
22.088788153923474	2.0714774	1.4392627
22.106645910190746	2.0435185	1.4295169
22.12450421010827	2.020642	1.4214929
22.142363054159464	2.0158248	1.4197974
22.16022244282787	2.0221958	1.4220393
22.178082376597164	2.033184	1.4258976
22.195942855951145	2.016759	1.4201263
22.213803881373742	1.9918205	1.4113187
22.231665453349002	1.9948143	1.4123789
22.24952757236111	2.0076916	1.4169303
22.26739023889438	2.010945	1.418078
22.28525345343323	1.997949	1.4134883
22.30311721646225	1.969343	1.4033328
22.320981528466113	1.9865612	1.4094542
22.33884638992964	2.0027359	1.4151804
22.356711801337788	1.9973769	1.4132859
22.37457776317561	2.0089233	1.417365
22.392444275928337	2.0095584	1.417589
22.410311340081282	1.9973354	1.4132712
22.428178956119904	1.9688352	1.4031519
22.446047124529805	1.9680616	1.4028761
22.46391584579669	1.9493657	1.3961968
22.481785120406414	1.9269773	1.388156
22.49965494884496	1.9185046	1.385101
22.51752533159841	1.9632267	1.4011519
22.53539626915302	2.0113623	1.418225
22.553267761995137	1.9967539	1.4130654
22.571139810611264	1.954897	1.3981763
22.589012415488025	1.959844	1.3999443
22.60688557711216	1.9544004	1.3979987
22.624759295970566	1.9464952	1.3951685
22.642633572550263	1.9289129	1.3888531
22.660508407338362	1.9232033	1.3867961
22.67838380082217	1.9101058	1.3820658
22.696259753489077	1.899511	1.3782275
22.714136265826614	1.8901887	1.3748413
22.73201333832246	1.8903867	1.3749133
22.74989097146439	1.9146613	1.3837129
22.76776916574035	1.9325547	1.3901635
22.785647921638393	1.9128677	1.3830646
22.803527239646712	1.9186511	1.3851538
22.82140712025363	1.9254254	1.387597
22.839287563947593	1.9662186	1.4022192
22.85716857121719	1.9503493	1.3965491
22.875050142551135	1.926746	1.3880727
22.892932278438277	1.9005997	1.3786224
22.910814979367604	1.8781826	1.370468
22.928698245828222	1.8608367	1.3641249
22.946582078309387	1.8833882	1.372366
22.96446647730047	1.9038292	1.3797932
22.98235144329098	1.9228083	1.3866537
23.000236976770562	1.8996872	1.3782914
23.018123078229	1.9060398	1.380594
23.03600974815619	1.9061785	1.3806442
23.053896987042194	1.9206774	1.3858851
23.071784795377173	1.8882738	1.3741448
23.08967317365145	1.8773185	1.3701527
23.10756212235546	1.8680693	1.3667734
23.125451641979787	1.8766811	1.3699201
23.143341733015134	1.8943088	1.376339
23.161232395952357	1.9156992	1.3840879
23.179123631282426	1.9197643	1.3855556
23.197015439496468	1.9136791	1.3833579
23.214907821085717	1.9059278	1.3805535
23.23280077654157	1.9261427	1.3878554
23.250694306355538	1.9267431	1.3880718
23.268588411019277	1.935486	1.3912175
23.28648309102458	1.8888029	1.3743372
23.304378346863356	1.9114777	1.382562
23.322274179027676	1.9097971	1.3819541
23.340170588009723	1.9339372	1.3906608
23.358067574301852	1.9312637	1.3896991
23.37596513839651	1.9243035	1.3871927
23.39386328078629	1.963783	1.4013504
23.411762001963947	1.9620984	1.4007492
23.429661302422353	1.9426869	1.393803
23.4475611826545	1.9226612	1.3866006
23.46546164315356	1.9135371	1.3833066
23.48336268441279	1.9306267	1.38947
23.501264306925638	1.9502989	1.396531
23.51916651118564	1.9635012	1.4012499
23.537069297686497	1.9133785	1.3832493
23.554972666922037	1.911033	1.3824012
23.57287661938623	1.9353249	1.3911595
23.59078115557318	1.9568791	1.398885
23.608686275977128	1.9396437	1.3927109
23.62659198109246	1.954144	1.397907
23.6444982714137	1.9571751	1.3989908
23.66240514743549	1.9713155	1.4040354
23.68031260965263	1.9549402	1.3981918
23.698220658560068	1.9481776	1.3957713
23.716129294652845	1.8988688	1.3779945
23.7340385184262	1.8869989	1.3736808
23.75194833037546	1.9075696	1.381148
23.769858730996123	1.955064	1.398236
23.78776972078382	1.9330366	1.3903369
23.80568130023431	1.9442959	1.3943801
23.823593469843495	1.9905092	1.4108541
23.841506230107424	2.004311	1.4157369
23.859419581522275	1.9847354	1.4088063
23.87733352458438	1.929987	1.3892397
23.89524805979019	1.9136541	1.3833488
23.913163187636318	1.9208351	1.385942
23.931078908619508	1.9550999	1.3982489
23.948995223236633	1.984539	1.4087367
23.966912131984735	2.039168	1.4279944
23.98482963536096	2.0818503	1.4428618
24.002747733862616	2.045925	1.4303583
24.020666427987155	2.0288174	1.4243656
24.038585718232156	2.0254834	1.4231948
24.056505605095353	2.0351355	1.4265817
24.074426089074617	2.0497453	1.4316932
24.092347170667946	2.0937202	1.4469693
24.110268850373515	2.065323	1.4371232
24.128191128689586	2.0931103	1.4467585
24.146114006114626	2.0774913	1.4413505
24.164037483147187	2.0954287	1.4475596
24.181961560286005	2.0659902	1.4373553
24.199886238029926	2.067237	1.4377888
24.21781151687797	2.0630386	1.4363282
24.235737397329274	2.056492	1.4340475
24.253663879883135	2.0557055	1.4337732
24.271590965038975	2.0550592	1.4335477
24.289518653296376	2.0408406	1.4285799
24.30744694515505	2.061734	1.435874
24.32537584111486	2.0440032	1.4296864
24.34330534167581	2.014016	1.4191602
24.361235447338046	1.9689211	1.4031825
24.379166158601876	1.9464182	1.3951409
24.39709747596772	1.965561	1.4019847
24.41502939993615	2.0315657	1.42533
24.432961931007917	2.047669	1.4309678
24.450895069683856	2.0409012	1.4286011
24.468828816465	2.0340405	1.4261979
24.4867631718525	2.0218408	1.4219145
24.504698136347656	2.0137234	1.4190573
24.52263371045192	2.0096636	1.417626
24.540569894666874	1.9824001	1.4079773
24.558506689494266	1.9442955	1.39438
24.57644409543597	1.9080758	1.3813312
24.594382112994012	1.9069581	1.3809265
24.61232074267057	1.9150379	1.3838489
24.630259984967953	1.9652858	1.4018865
24.64819984038863	1.9611218	1.4004006
24.66614030943522	1.9564012	1.3987142
24.684081392610462	1.9369417	1.3917406
24.702023090417274	1.9278983	1.3884878
24.7199654033587	1.9619006	1.4006786
24.737908331937927	1.9887304	1.4102235
24.755851876658305	2.0082378	1.4171231
24.773796038023324	2.0274034	1.4238691
24.79174081653661	2.0626643	1.4361979
24.809686212701962	2.1000533	1.449156
24.827632227023294	2.1289847	1.4591041
24.8455788600047	2.099276	1.4488878
24.8635261121504	2.0685337	1.4382398
24.88147398396475	2.0573907	1.4343607
24.899422475952303	2.0872366	1.4447272
24.917371588617698	2.149993	1.4662855
24.935321322465768	2.2416782	1.4972235
24.953271678001478	2.3163068	1.5219418
24.97122265572994	2.4815035	1.5752789
24.989174256156414	2.7576623	1.660621
25.00712647978632	3.170385	1.7805575
25.02507932712521	3.7026384	1.9242241
25.043032798678798	4.2248373	2.055441
25.060986894952933	4.9193077	2.2179513
25.078941616453637	5.6511374	2.377212
25.096896963687055	6.59494	2.5680616
25.114852937159508	7.6059685	2.7578921
25.132809537377444	8.081307	2.8427641
25.150766764847468	8.168896	2.858128
25.168724620076347	7.6985683	2.7746294
25.186683103570985	6.7661114	2.601175
25.204642215838426	5.5807014	2.3623507
25.222601957385894	4.2554684	2.0628786
25.24056232872074	3.245375	1.8014925
25.25852333035048	2.7283406	1.6517689
25.276484962782778	2.359078	1.535929
25.294447226525435	2.113072	1.4536409
25.312410122086423	2.0226026	1.4221823
25.330373649973843	1.952409	1.3972863
25.348337810695988	1.9471979	1.3954203
25.366302604761245	1.9138277	1.3834116
25.384268032678207	1.896807	1.3772461
25.40223409495558	1.9254438	1.3876036
25.420200792102257	1.9356447	1.3912745
25.438168124627246	1.9384952	1.3922985
25.45613609303974	1.9187423	1.3851868
25.474104697849057	1.9233007	1.3868312
25.492073939564698	1.8772277	1.3701196
25.510043818696285	1.9033529	1.3796206
25.528014335753614	1.9057193	1.3804779
25.54598549124664	1.8664782	1.3661911
25.56395728568544	1.8198704	1.3490257
25.58192971958028	1.811463	1.345906
25.59990279344156	1.8511941	1.3605859
25.617876507779833	1.8824474	1.3720231
25.635850863105826	1.9140536	1.3834933
25.653825859930386	1.9555017	1.3983926
25.671801498764548	1.9355018	1.3912232
25.68977778011949	1.913635	1.383342
25.707754704506524	1.8697711	1.3673958
25.725732272437153	1.8311614	1.3532041
25.743710484423012	1.8111308	1.3457826
25.761689340975888	1.8995026	1.3782245
25.77966884260774	1.9360452	1.3914185
25.797648989830662	1.9129848	1.383107
25.815629783156922	1.9055631	1.3804214
25.83361122309895	1.9408486	1.3931434
25.85159331016929	1.9605616	1.4002006
25.869576044880695	1.9178743	1.3848734
25.887559427746034	1.8931252	1.3759089
25.90554345927836	1.8892094	1.3744851
25.92352813999086	1.9096941	1.3819168
25.94151347039689	1.8756721	1.3695518
25.959499451009965	1.8371129	1.3554014
25.97748608234374	1.8185767	1.3485461
25.995473364912062	1.8441293	1.3579873
26.013461299228904	1.849652	1.3600191
26.03144988580839	1.8837966	1.3725147
26.04943912516483	1.8485249	1.3596047
26.067429017812675	1.7860558	1.336434
26.085419564266537	1.7547424	1.3246669
26.103410765041186	1.7645268	1.328355
26.12140262065155	1.8022698	1.3424864
26.139395131612723	1.8494699	1.3599522
26.157388298439948	1.8819875	1.3718555
26.17538212164861	1.8950967	1.3766251
26.193376601754295	1.8645909	1.3655002
26.211371739272714	1.8409748	1.3568252
26.229367534719746	1.8295939	1.3526248
26.247363988611433	1.806593	1.3440956
26.26536110146397	1.821578	1.3496585
26.283358873793727	1.8048762	1.3434569
26.301357306117204	1.775938	1.3326433
26.319356398951104	1.8031911	1.3428295
26.33735615281224	1.8512623	1.360611
26.35535656821762	1.8596696	1.363697
26.373357645684404	1.8041348	1.3431809
26.39135938572991	1.8209281	1.3494177
26.409361788871614	1.8692889	1.3672194
26.427364855627165	1.9074757	1.3811139
26.445368586514352	1.9055053	1.3804004
26.46337298205115	1.8911786	1.3752013
26.48137804275568	1.8549756	1.3619748
26.499383769146217	1.8970398	1.3773307
26.517390161741215	1.9351618	1.3911009
26.53539722105928	1.9260207	1.3878115
26.553404947619182	1.8712813	1.3679478
26.571413341939856	1.7927432	1.3389336
26.589422404540397	1.7768273	1.3329768
26.60743213594006	1.7815566	1.3347497
26.62544253665827	1.7872477	1.3368798
26.64345360721459	1.8204575	1.3492433
26.66146534812879	1.8492005	1.3598531
26.679477759920758	1.8644092	1.3654337
26.69749084311057	1.8635472	1.365118
26.71550459821847	1.8420243	1.357212
26.733519025764842	1.8456666	1.3585532
26.751534126270258	1.8489674	1.3597674
26.769549900255434	1.8650136	1.3656551
26.787566348241267	1.8866764	1.3735634
26.80558347074881	1.8756207	1.3695331
26.823601268299267	1.8103573	1.3454952
26.841619741414036	1.734871	1.317145
26.85963889061465	1.7420403	1.3198637
26.877658716422832	1.8140683	1.3468735
26.89567921936045	1.8177449	1.3482376
26.913700399949544	1.8027354	1.3426598
26.93172225871233	1.8078701	1.3445706
26.949744796171174	1.8254323	1.3510855
26.967768012848605	1.8528353	1.3611889
26.98579190926733	1.8443607	1.3580724
27.003816485950225	1.7883826	1.3373042
27.021841743420318	1.7266636	1.3140258
27.039867682200814	1.7294394	1.3150815
27.057894302815072	1.7820963	1.3349518
27.07592160578664	1.8358921	1.3549509
27.0939495916392	1.8284543	1.3522035
27.111978260896635	1.8263925	1.3514409
27.13000761408296	1.8367391	1.3552635
27.148037651722397	1.8648381	1.3655908
27.166068374339304	1.8696045	1.3673348
27.184099782458215	1.8425671	1.3574119
27.20213187660384	1.8410423	1.3568501
27.22016465730105	1.795308	1.3398911
27.23819812507487	1.7542766	1.3244911
27.256232280450533	1.7993203	1.3413875
27.274267123953383	1.8382195	1.3558096
27.292302656108987	1.8454325	1.358467
27.31033887744306	1.8484658	1.3595829
27.32837578848146	1.8481741	1.3594756
27.34641338975026	1.790645	1.3381498
27.364451681775673	1.7493783	1.3226407
27.382490665084074	1.7411156	1.3195134
27.400530340202046	1.7702993	1.330526
27.41857070765629	1.8257753	1.3512125
27.436611767973726	1.8368907	1.3553194
27.454653521681404	1.8616272	1.3644146
27.472695969306564	1.8454978	1.3584911
27.490739111376627	1.7955438	1.339979
27.508782948419153	1.7461329	1.3214132
27.526827480961902	1.7399826	1.319084
27.54487270953279	1.8150373	1.3472332
27.562918634659898	1.809257	1.3450862
27.580965256871508	1.772425	1.3313246
27.599012576696026	1.7766834	1.3329229
27.617060594662068	1.7696979	1.3303
27.63510931129842	1.7823486	1.3350463
27.65315872713401	1.8347759	1.354539
27.67120884269797	1.8475052	1.3592297
27.68925965851958	1.8324667	1.3536863
27.707311175128307	1.8845669	1.3727953
27.725363393053787	1.8565494	1.3625525
27.74341631282583	1.8809732	1.3714858
27.7614699349744	1.9110113	1.3823934
27.77952426002968	2.1078613	1.4518476
27.797579288521973	2.183351	1.4776167
27.815635020981784	2.7195575	1.649108
27.83369145793979	2.8223944	1.6799983
27.85174859992682	2.5569184	1.5990367
27.869806447473923	2.3181453	1.5225457
27.887865001112267	2.014083	1.4191839
27.905924261373233	1.9510274	1.3967918
27.92398422878836	1.952564	1.3973417
27.94204490388936	1.934354	1.3908105
27.96010628720813	1.9409746	1.3931886
27.978168379276728	1.8980794	1.3777081
27.9962311806274	1.8681402	1.3667992
28.014294691792568	1.8351284	1.3546691
28.0323589133048	1.825435	1.3510866
28.050423845696887	1.8874398	1.3738413
28.068489489501758	1.9384638	1.3922873
28.086555845252523	1.8895013	1.3745914
28.104622913482487	1.8611091	1.3642248
28.122690694725115	1.8746147	1.3691657
28.14075918951405	1.8851011	1.3729898
28.15882839838312	1.8827059	1.3721173
28.176898321866304	1.8594927	1.3636322
28.1949689604978	1.867147	1.3664359
28.213040314811945	1.8719742	1.3682011
28.23111238534327	1.9131198	1.3831557
28.249185172626493	1.911012	1.3823936
28.267258677196473	1.9335481	1.3905208
28.285332899588294	1.8870693	1.3737065
28.303407840337172	1.9001136	1.3784461
28.321483499978545	1.9242433	1.387171
28.33955987904799	1.9440601	1.3942956
28.357636978081285	1.9311858	1.3896711
28.37571479761439	1.9094582	1.3818314
28.393793338183425	1.9270576	1.388185
28.41187260032469	1.9334643	1.3904907
28.429952584574686	1.9293703	1.3890177
28.448033291470065	1.9600644	1.400023
28.46611472154769	1.9784383	1.4065697
28.484196875344566	1.9491143	1.3961068
28.502279753397914	1.9425721	1.3937619
28.52036335624511	1.990175	1.4107356
28.538447684423716	2.0025868	1.4151279
28.556532738471482	2.0037656	1.4155443
28.574618518926325	2.0200436	1.4212824
28.59270502632635	1.9780694	1.4064386
28.61079226120985	1.9482402	1.3957938
28.628880224115274	1.9558345	1.3985115
28.646968915581287	1.9854041	1.4090437
28.66505833614671	1.9814196	1.407629
28.68314848635055	1.9714143	1.4040706
28.701239366732004	1.995766	1.4127158
28.71933097783044	2.0579343	1.4345502
28.737423320185403	2.0344946	1.4263572
28.75551639433665	2.051183	1.4321952
28.773610200824074	2.1120145	1.4532771
28.791704740187793	2.1538932	1.4676148
28.80980001296809	2.1309059	1.4597622
28.827896019705413	2.1772447	1.475549
28.845992760940433	2.1668937	1.4720373
28.86409023721397	2.1566377	1.4685495
28.88218844906704	2.1556249	1.4682046
28.900287397040845	2.1771524	1.4755176
28.918387081676755	2.2528734	1.5009575
28.936487503516343	2.2861965	1.5120174
28.954588663101365	2.2895975	1.5131416
28.97269056097374	2.2716696	1.5072058
28.990793197675597	2.3380437	1.5290663
29.00889657374923	2.4158669	1.5543059
29.027000689737125	2.447734	1.5645236
29.04510554618196	2.428542	1.558378
29.06321114362659	2.3832107	1.5437651
29.08131748261405	2.4339175	1.5601017
29.099424563687567	2.5433571	1.5947906
29.11753238739057	2.6389415	1.6244819
29.13564095426663	2.6020477	1.6130863
29.15375026485954	2.5975108	1.6116796
29.171860319713275	2.5705788	1.6033025
29.18997111937199	2.612135	1.6162101
29.20808266438002	2.715127	1.6477642
29.226194955281898	2.7859733	1.6691235
29.244307992622335	2.8345866	1.6836231
29.26242177694624	2.871176	1.6944544
29.2805363087987	2.8657873	1.6928636
29.29865158872498	2.8385043	1.6847861
29.316767617270557	2.8742054	1.6953481
29.334884394981064	2.916776	1.7078571
29.353001922402367	2.9889953	1.7288711
29.37112020008047	3.0874498	1.757114
29.389239228561596	3.1852658	1.7847313
29.407359008392152	3.3430636	1.8284047
29.42547954011872	3.698666	1.9231917
29.44360082428809	4.3829427	2.0935478
29.46172286144722	5.343394	2.3115783
29.479845652143283	6.7295055	2.594129
29.497969196923606	8.658076	2.942461
29.516093496335728	11.036862	3.3221774
29.5342185509274	13.753598	3.7085843
29.55234436124651	16.023897	4.002986
29.570470927841175	17.210476	4.148551
29.588598251259686	16.974306	4.1199884
29.60672633205055	15.77802	3.9721556
29.624855170762405	13.805031	3.7155123
29.642984767944146	11.147536	3.3387926
29.66111512414481	8.5413475	2.9225583
29.67924623991366	6.3770714	2.5252864
29.697378115800138	5.0254936	2.2417612
29.71551075235387	4.2175665	2.0536714
29.733644150124675	3.857726	1.9641095
29.751778309662576	3.6347892	1.9065124
29.769913231517766	3.4951694	1.8695372
29.78804891624066	3.3777936	1.8378775
29.806185364381818	3.3293898	1.8246616
29.82432257649206	3.3253267	1.8235478
29.842460553122333	3.2500417	1.8027872
29.86059929482382	3.280057	1.8110927
29.878738802147872	3.3410707	1.8278596
29.896879075646048	3.3614976	1.8334388
29.915020115870114	3.356736	1.8321397
29.933161923371976	3.3314657	1.8252304
29.951304498703777	3.297744	1.8159692
29.969447842417857	3.2356267	1.7987847
29.987591955066733	3.231149	1.7975397
30.005736837203123	3.2655942	1.8070955
30.023882489379943	3.3330364	1.8256606
30.04202891215028	3.320042	1.8220983
30.060176106067455	3.283859	1.8121421
30.078324071684946	3.2620814	1.8061233
30.09647280955646	3.310382	1.8194455
30.114622320235863	3.2356873	1.7988017
30.132772604277257	3.104013	1.7618209
30.1509236622349	3.0891666	1.7576026
30.16907549466328	3.117353	1.7656027
30.18722810211705	3.1182947	1.7658694
30.205381485151097	3.1068437	1.7626241
30.22353564432045	3.0893605	1.7576576
30.241690580180403	3.0122359	1.7355794
30.25984629328638	2.9571245	1.7196292
30.278002784194037	2.9324949	1.7124529
30.296160053459246	2.9697545	1.7232976
30.314318101638033	2.9886665	1.728776
30.332476929286646	3.0158298	1.7366145
30.35063653696153	2.995046	1.7306201
30.368796925219307	2.9030116	1.7038226
30.386958094616844	2.8886967	1.6996167
30.40512004571115	2.8965516	1.7019259
30.423282779059463	2.9095492	1.7057401
30.441446295219233	2.8483431	1.6877035
30.459610594748067	2.7744398	1.665665
30.47777567820382	2.8056426	1.6750052
30.495941546144504	2.9125395	1.7066164
30.51410819912835	2.9091322	1.7056179
30.532275637713795	2.9284725	1.7112781
30.55044386245946	2.8869538	1.6991038
30.56861287392416	2.8825588	1.69781
30.586782672666956	2.865788	1.6928638
30.604953259247047	2.8027735	1.6741486
30.623124634223885	2.768352	1.6638366
30.641296798157075	2.7308733	1.6525354
30.659469751606462	2.698616	1.6427464
30.677643495132074	2.7619371	1.6619077
30.695818029294152	2.7764645	1.6662726
30.713993354653116	2.7631037	1.6622586
30.73216947176962	2.7676482	1.663625
30.75034638120448	2.7759447	1.6661167
30.768524083518756	2.778588	1.6669097
30.786702579273673	2.8125713	1.6770723
30.80488186903069	2.845217	1.6867771
30.82306195335144	2.946597	1.7165655
30.841242832797782	3.0496476	1.7463241
30.85942450793176	3.331062	1.8251197
30.877606979315637	3.7032673	1.9243876
30.895790247511883	4.057445	2.0143101
30.913974313083134	4.38482	2.0939963
30.932159176592283	4.6321907	2.1522524
30.95034483860237	4.7785735	2.1859949
30.968531299676698	4.66065	2.1588538
30.98671856037873	4.3788843	2.0925784
31.00490662127215	3.9938903	1.998472
31.023095482920848	3.5557153	1.8856604
31.04128514588892	3.120298	1.7664365
31.059475610740662	2.7936728	1.6714283
31.07766687804056	2.618027	1.6180319
31.09585894835335	2.5717404	1.6036646
31.11405182224393	2.5180793	1.5868458
31.132245500277417	2.56762	1.6023794
31.15043998301914	2.5465405	1.5957884
31.168635271034628	2.4541607	1.5665761
31.18683136488964	2.3787167	1.5423089
31.20502826515008	2.3426025	1.5305563
31.223225972382135	2.3704822	1.5396371
31.241424487152155	2.4083877	1.5518981
31.259623810026692	2.4069061	1.5514207
31.27782394157253	2.3775923	1.5419444
31.296024882356644	2.4055948	1.550998
31.314226632946237	2.358826	1.535847
31.332429193908684	2.3591714	1.5359595
31.350632565811598	2.4620135	1.5690805
31.368836749222787	2.461697	1.5689796
31.387041744710295	2.4038582	1.550438
31.40524755284232	2.4503298	1.5653529
31.423454174187317	2.5244	1.5888361
31.441661609313922	2.556478	1.598899
31.459869858791002	2.5186276	1.5870185
31.478078923187628	2.4753358	1.57332
31.496288803073064	2.4488096	1.5648673
31.514499499016807	2.3934896	1.5470906
31.532711011588546	2.3314674	1.5269144
31.550923341358178	2.2614934	1.5038263
31.56913648889584	2.2944334	1.5147387
31.587350454771844	2.2894635	1.5130973
31.605565239556732	2.303059	1.5175833
31.62378084382127	2.316822	1.522111
31.641997268136382	2.32921	1.526175
31.660214513073274	2.2906492	1.5134891
31.67843257920331	2.3353992	1.5282012
31.6966514670981	2.3685265	1.5390018
31.71487117732944	2.4025307	1.5500098
31.733091710469346	2.3742223	1.5408511
31.751313067090052	2.2895708	1.5131328
31.769535247764008	2.2014427	1.4837259
31.787758253063878	2.2464993	1.4988327
31.805982083562526	2.3015428	1.5170836
31.824206739833024	2.2985501	1.516097
31.84243222244869	2.2367628	1.495581
31.860658531983013	2.1901019	1.4798993
31.878885669009737	2.205723	1.4851677
31.897113634102784	2.2441132	1.4980365
31.91534242783632	2.2864857	1.512113
31.933572050784694	2.2782328	1.5093817
31.951802503522508	2.2162528	1.4887084
31.970033786624548	2.1595206	1.4695307
31.988265900665834	2.21385	1.4879012
32.006498846221575	2.1660829	1.4717618
32.02473262386724	2.1936114	1.4810846
32.04296723417845	2.2618642	1.5039495
32.0612026777311	2.2612724	1.5037528
32.07943895510129	2.2558641	1.5019535
32.097676066865304	2.2481065	1.4993687
32.115914013599685	2.137026	1.4618571
32.13415279588115	2.085968	1.444288
32.152392414286666	2.129447	1.4592625
32.1706328693934	2.1802492	1.4765667
32.18887416177875	2.1402822	1.4629704
32.20711629202032	2.1191003	1.455713
32.225359260695924	2.136469	1.4616665
32.243603068383614	2.1336389	1.4606981
32.26184771566166	2.1287584	1.4590266
32.28009320310852	2.1627302	1.4706224
32.2983395313029	2.160272	1.4697863
32.31658670082372	2.0852618	1.4440435
32.33483471225012	2.0836174	1.443474
32.35308356616143	2.1213295	1.4564785
32.371333263137245	2.0784264	1.4416748
32.38958380375734	2.065035	1.437023
32.407835188601744	2.1405654	1.4630672
32.42608741825067	2.172527	1.4739494
32.444340493284585	2.18869	1.4794222
32.46259441428416	2.1363957	1.4616414
32.48084918183028	2.040223	1.4283637
32.49910479650405	2.017071	1.4202362
32.51736125888683	2.025866	1.4233292
32.53561856956014	2.0060754	1.4163599
32.5538767291058	2.0153995	1.4196477
32.572135738105764	1.9638261	1.4013658
32.59039559714228	2.026117	1.4234174
32.608656306797776	2.1658835	1.4716941
32.62691786765491	2.1888871	1.4794888
32.645180280296586	2.1447263	1.4644884
32.663443545305896	2.1265185	1.4582587
32.68170766326619	2.114764	1.4542228
32.69997263476099	2.0216904	1.4218615
32.7182384603741	1.9269571	1.3881488
32.7365051406895	1.9838798	1.4085027
32.75477267629144	2.0729516	1.4397749
32.77304106776434	2.0719864	1.4394397
32.79131031569289	2.1451921	1.4646474
32.809580420661966	2.1875525	1.4790376
32.827851383256714	2.0778053	1.4414594
32.84612320406245	1.9605511	1.4001968
32.86439588366476	1.9541006	1.3978915
32.88266942264945	1.9574183	1.3990777
32.9009438216025	1.9119639	1.3827379
32.9192190811102	1.877537	1.3702325
32.937495201758985	1.9149455	1.3838155
32.95577218413556	2.0438688	1.4296393
32.974050028826866	2.0815897	1.4427716
32.992328736420035	2.0691893	1.4384677
33.010608307502444	1.9429848	1.3939099
33.02888874266169	1.9479498	1.3956897
33.047170042485604	1.9700599	1.4035882
33.06545220756225	1.8967588	1.3772286
33.083735238479896	1.8871828	1.3737477
33.10201913582707	1.9609671	1.4003453
33.12030390019248	2.0622869	1.4360665
33.138589532165135	2.096825	1.4480418
33.15687603233419	2.070764	1.4390149
33.17516340128909	2.0270264	1.4237368
33.19345163961947	1.9958544	1.4127471
33.211740747915215	1.9326267	1.3901894
33.23003072676643	1.8773823	1.370176
33.248321576763466	1.8928754	1.3758181
33.266613298496885	1.8574	1.3628646
33.28490589255747	1.8190438	1.3487194
33.30319935953626	1.8310615	1.3531672
33.32149370002451	1.8633898	1.3650603
33.339788914613706	1.8247957	1.35085
33.358085003895575	1.8797189	1.3710284
33.376381968462034	1.874027	1.3689511
33.39467980890529	1.882041	1.3718749
33.41297852581774	1.8944501	1.3763902
33.43127811979204	1.825906	1.3512609
33.44957859142105	1.8370478	1.3553773
33.467879941297866	1.8724394	1.3683711
33.486182170015844	1.9709173	1.4038936
33.50448527816853	2.0234056	1.4224646
33.522789266349754	1.9493343	1.3961856
33.541094135153514	1.7968976	1.3404841
33.55939988517411	1.849461	1.3599489
33.57770651700602	1.8876505	1.3739179
33.59601403124398	1.8942199	1.3763067
33.61432242848296	1.86101	1.3641884
33.632631709318154	1.8670013	1.3663826
33.650941874344994	1.9441481	1.394327
33.66925292415916	1.8869702	1.3736703
33.68756485935654	1.8204218	1.34923
33.70587768053328	1.8691144	1.3671556
33.724191388285746	1.9600911	1.4000325
33.74250598321054	1.9027367	1.3793972
33.760821465904506	1.8459985	1.3586752
33.77913783696474	1.8206013	1.3492966
33.79745509698852	1.8517795	1.360801
33.815773246573414	1.8522727	1.3609823
33.8340922863172	1.9251077	1.3874825
33.852412216817896	1.9825978	1.4080476
33.87073303867377	1.9215121	1.3861861
33.889054752483304	1.8481263	1.3594581
33.907377358845245	1.8713878	1.3679868
33.92570085835853	1.9374468	1.391922
33.94402525162239	1.878133	1.3704499
33.96235053923627	1.8546982	1.361873
33.980676721799824	1.9183898	1.3850595
33.999003799912984	1.927481	1.3883375
34.01733177417592	1.9696933	1.4034576
34.03566064518901	2.1082976	1.4519978
34.0539904135529	2.1116464	1.4531505
34.07232107986846	2.0889254	1.4453115
34.090652644736785	2.1019976	1.4498267
34.108985108759235	2.0505967	1.4319905
34.12731847253742	1.9327109	1.3902197
34.14565273667313	1.8940605	1.3762487
34.16398790176847	1.8770492	1.3700545
34.18232396842574	1.980191	1.4071926
34.20066093724749	1.9768851	1.4060174
34.21899880883651	2.022807	1.4222542
34.23733758379583	2.0903533	1.4458054
34.25567726272874	2.146462	1.4650809
34.27401784623872	2.2345657	1.4948463
34.29235933492957	2.3165896	1.5220346
34.31070172940526	2.0764256	1.4409808
34.32904503027003	1.9658006	1.4020702
34.347389238128386	1.9566786	1.3988132
34.36573435358502	2.0058696	1.4162873
34.38408037724492	2.0033753	1.4154063
34.402427309713296	1.9662769	1.4022399
34.42077515159559	1.9375731	1.3919673
34.43912390349752	2.0736294	1.4400102
34.45747356602499	2.166078	1.4717602
34.47582413978423	2.0139031	1.4191206
34.49417562538163	1.9048504	1.3801632
34.51252802342388	1.9344683	1.3908516
34.53088133451789	1.878207	1.370477
34.54923555927084	1.8261554	1.3513532
34.567590698290104	1.9627858	1.4009945
34.58594675218336	2.182461	1.4773154
34.6043037215585	2.147389	1.4653972
34.62266160702365	1.9370655	1.391785
34.641020409187234	2.0192618	1.4210073
34.65938012865785	2.0018003	1.4148499
34.677740766044394	2.0038154	1.4155619
34.69610232195598	2.0120246	1.4184586
34.714464797002016	2.0594895	1.4350922
34.73282819179208	2.0993211	1.4489034
34.751192506936064	2.1484725	1.4657669
34.76955774304408	2.0456316	1.4302558
34.7879239007265	1.9897357	1.4105799
34.80629098059391	1.89421	1.376303
34.824658983257194	1.9006312	1.3786339
34.843027909327446	2.0720632	1.4394662
34.86139775941603	2.1812816	1.4769162
34.879768534134534	2.02894	1.4244087
34.89814023409483	1.8218964	1.3497764
34.91651285990901	1.815621	1.3474498
34.93488641218944	1.9361058	1.3914402
34.95326089154871	2.046031	1.4303954
34.97163629859967	2.2064183	1.4854017
34.99001263395542	2.2106843	1.486837
35.00838989822934	2.0058758	1.4162894
35.02676809203499	1.8810716	1.3715216
35.04514721598624	1.9887272	1.4102224
35.063527270697215	2.05456	1.4333736
35.081908256782256	1.9665987	1.4023547
35.10029017485597	1.9065639	1.3807838
35.11867302553321	1.9799141	1.4070942
35.137056809429104	2.0327482	1.4257448
35.155441527159006	1.8887043	1.3743014
35.173827179338524	1.8337507	1.3541605
35.19221376658354	1.910184	1.382094
35.21060128951017	1.8543171	1.3617331
35.2289897487348	1.9698312	1.4035068
35.24737914487405	2.182297	1.47726
35.26576947854479	2.188541	1.4793718
35.28416075036418	2.2540355	1.5013446
35.30255296094958	2.2935915	1.5144608
35.32094611091867	2.3393433	1.5294912
35.33934020088932	2.2906494	1.5134891
35.35773523147969	2.172524	1.4739485
35.3761312033082	2.152883	1.4672706
35.394528116993506	2.235024	1.4949996
35.41292597315452	2.2409732	1.496988
35.431324772410434	2.0888054	1.4452701
35.449724515380666	1.7808776	1.3344953
35.46812520268491	1.7595313	1.3264732
35.486526834943106	1.9033095	1.3796048
35.504929412775454	1.9775045	1.4062377
35.52333293680242	1.8825992	1.3720784
35.54173740764471	1.847058	1.3590652
35.560142825923286	1.7970743	1.3405501
35.5785491922594	1.6079807	1.2680618
35.59695650727454	1.7940303	1.3394141
35.61536477159042	2.5998158	1.6123945
