0.008763373481513119	0.0	0.0
0.026290120649546365	0.0	0.0
0.043816868432600686	0.0	0.0
0.06134361724069026	0.0	0.0
0.07887036748382949	0.0	0.0
0.0963971195720331	0.0	0.0
0.11392387391531617	0.0	0.0
0.1314506309236943	0.02323553	0.15243205
0.1489773910071836	0.05966176	0.24425757
0.16650415457580078	0.10754928	0.32794708
0.18403092203956356	0.14758469	0.38416752
0.20155769380849	0.17008352	0.41241184
0.2190844702925996	0.16994025	0.4122381
0.2366112519019124	0.14241676	0.37738144
0.2541380390464497	0.20431758	0.452015
0.27166483213623416	0.19969021	0.4468671
0.28919163158128947	0.2001739	0.447408
0.3067184377916406	0.2098167	0.45805752
0.324245251177314	0.16977715	0.41204023
0.34177207214833777	0.124068335	0.35223335
0.3592989011147415	0.06771016	0.26021177
0.37682573848655654	0.110151336	0.33189055
0.39435258467381573	0.13084576	0.36172608
0.41187944008655414	0.14207354	0.37692645
0.42940630513480854	0.120618045	0.3473011
0.446933180228618	0.1082524	0.3290173
0.4644600657780234	0.11221536	0.3349856
0.48198696219306775	0.15486152	0.3935245
0.49951386988379676	0.14490025	0.38065764
0.5170407892602581	0.1269328	0.3562763
0.5345677207325025	0.11703329	0.34210128
0.5520946647105822	0.11515314	0.3393422
0.5696216216045534	0.14183918	0.37661543
0.5871485918244737	0.13808359	0.371596
0.6046755757804043	0.12465628	0.35306695
0.6222025738824094	0.09950681	0.315447
0.6397295865405557	0.09245718	0.30406773
0.6572566141649129	0.093146294	0.3051988
0.6747836571655547	0.11816049	0.3437448
0.6923107159525568	0.19434215	0.44084254
0.7098377909359992	0.24363658	0.49359557
0.7273648825259653	0.24605294	0.49603724
0.7448919911325411	0.21576728	0.46450758
0.762419117165817	0.20342167	0.45102292
0.7799462610358868	0.17678402	0.42045692
0.7974734231528482	0.17197655	0.41470057
0.8150006039268024	0.19896035	0.44604972
0.8325278037678551	0.1937139	0.44012943
0.8500550230861152	0.19137464	0.43746388
0.8675822622916969	0.18394084	0.42888325
0.8851095217947171	0.20395477	0.45161352
0.9026368020052984	0.16518335	0.40642753
0.9201641033335665	0.16084222	0.4010514
0.9376914261896523	0.1731803	0.41614938
0.9552187709836915	0.2030386	0.45059806
0.9727461381258234	0.22278132	0.47199714
0.990273528026193	0.23737496	0.4872114
1.0078009410949496	0.25350186	0.5034897
1.0253283777422473	0.29949537	0.5472617
1.0428558383782454	0.32230657	0.56772053
1.0603833234131086	0.30382687	0.5512049
1.0779108332570058	0.298491	0.5463433
1.0954383683201119	0.28653362	0.53528833
1.112965929012607	0.34430623	0.58677614
1.1304935157446763	0.4578243	0.67662716
1.1480211289265108	0.51261705	0.7159728
1.1655487689683062	1.4077742	1.1864966
1.1830764362802655	1.7464261	1.3215241
1.200604131272596	2.1612172	1.4701079
1.2181318543555117	2.517474	1.5866549
1.235659605939232	2.4840062	1.576073
1.253187386433982	3.9784012	1.994593
1.270715196249994	6.3108554	2.5121417
1.2882430357975057	11.831456	3.4396884
1.3057709054867608	16.648972	4.080315
1.3232988057280106	22.372108	4.729916
1.3408267369315112	27.118145	5.2075086
1.358354699507526	30.655985	5.5367846
1.3758826938663256	35.051647	5.920443
1.3934107204181858	37.01551	6.0840373
1.410938779573391	37.29342	6.106834
1.4284668717422309	38.284225	6.1874247
1.4459949973350033	37.97298	6.162222
1.4635231567620117	38.183796	6.1793036
1.4810513504335687	37.292416	6.1067514
1.4985795787599925	36.236984	6.0197163
1.5161078421516088	35.57631	5.964588
1.5336361410187505	34.324245	5.85869
1.5511644757717598	34.82235	5.9010463
1.5686928468209842	35.411472	5.950754
1.58622125457678	36.190025	6.015815
1.6037496994495108	37.128994	6.0933566
1.621278181849548	36.542717	6.0450573
1.6388067021872719	37.21557	6.100456
1.6563352608730693	36.720562	6.059749
1.673863858317336	35.933212	5.994432
1.6913924949304753	35.567665	5.9638634
1.7089211711228998	34.65807	5.88711
1.7264498873050296	33.846024	5.817734
1.7439786438872935	32.843933	5.7309628
1.7615074412801288	31.929575	5.650626
1.779036279893981	31.358408	5.599858
1.796565160139305	30.846317	5.553946
1.814094082426564	30.378649	5.511683
1.8316230471662298	29.466824	5.428335
1.849152054768784	28.30889	5.32061
1.8666811056447168	27.412584	5.235703
1.8842102002045273	26.763077	5.173304
1.901739338858724	26.488602	5.146708
1.9192685220178245	25.992786	5.098312
1.9367977500923557	25.168806	5.0168524
1.9543270234928547	24.519945	4.9517617
1.971856342629867	23.465965	4.844168
1.9893857079139496	23.106987	4.806973
2.006915119755667	22.557634	4.749488
2.0244445785655945	22.01786	4.6923194
2.0419740847543175	21.581598	4.6456
2.0595036387324317	21.323246	4.61771
2.0770332409105414	21.057932	4.5888925
2.094562891699263	20.84065	4.565156
2.1120925915092217	20.393715	4.51594
2.129622340751053	19.8606	4.4565234
2.1471521398354043	188.02785	13.712325
2.1646819891729323	444.3544	21.079716
2.182211889174303	440.51843	20.988531
2.1997418402501974	453.12985	21.286846
2.2172718428113023	432.85388	20.805141
2.234801897268317	320.70102	17.908127
2.2523320040319548	17.223774	4.1501536
2.269862163512935	17.056284	4.1299253
2.287392376121992	16.940744	4.1159134
2.304922642269869	16.475271	4.0589743
2.322452962367322	16.18108	4.022571
2.3399833368251164	15.545454	3.9427724
2.357513766054032	15.329313	3.9152668
2.3750442504648586	14.997535	3.8726652
2.3925747904683963	14.88128	3.8576262
2.410105386475459	14.716121	3.8361597
2.4276360388968707	14.322832	3.7845519
2.445166748143469	14.110066	3.756337
2.4626975146261025	13.711863	3.7029533
2.4802283387556323	13.396548	3.6601295
2.4977592209429305	13.179089	3.6303015
2.5152901615988825	12.911048	3.5931947
2.5328211611343865	13.000021	3.605554
2.5503522199603523	12.999971	3.6055472
2.5678833384877024	12.659007	3.5579498
2.5854145171273712	12.349367	3.5141666
2.6029457562903064	12.008696	3.4653566
2.620477056387469	11.778734	3.4320161
2.6380084178298326	11.467841	3.38642
2.655539841028383	11.324544	3.365196
2.673071326394119	11.212894	3.348566
2.6906028743380523	11.1059885	3.3325648
2.708134485271211	11.007694	3.3177845
2.7256661596046325	10.877753	3.2981439
2.743197897749369	10.693789	3.2701359
2.760729700116486	10.406974	3.225984
2.778261567117063	10.216149	3.1962712
2.795793499162193	10.068804	3.173138
2.8133254966629817	9.906123	3.1473994
2.830857560030551	9.852473	3.138865
2.8483896896760337	9.749145	3.122362
2.865921886010578	9.599522	3.0983095
2.883454149445347	9.36802	3.060722
2.9009864803915177	9.237364	3.039303
2.91851887926028	9.152654	3.0253353
2.9360513464628384	9.156504	3.0259714
2.953583882410413	9.061797	3.0102818
2.9711164875142373	8.889176	2.9814723
2.9886491621855606	8.746387	2.957429
3.0061819068356455	8.607866	2.9339166
3.023714721875769	8.689441	2.9477856
3.041247607717225	8.566185	2.9268045
3.0587805647713213	8.420641	2.901834
3.0763135934493806	8.424346	2.9024725
3.0938466941627407	8.276373	2.8768685
3.1113798673227544	8.176958	2.859538
3.1289131133407904	7.9770474	2.8243668
3.1464464326282315	7.865799	2.804603
3.1639798255964786	7.868874	2.8051515
3.1815132926569443	7.7626076	2.7861457
3.1990468342210603	7.714148	2.7774355
3.216580450700272	7.717811	2.7780948
3.2341141425060416	7.5869927	2.7544496
3.251647910049847	7.460284	2.731352
3.2691817537431813	7.25724	2.6939266
3.286715673997555	7.1312575	2.6704414
3.3042496712244938	7.113382	2.6670923
3.32178374583554	7.002354	2.6461961
3.339317898242251	6.941995	2.6347666
3.3568521288562034	6.8261	2.6126807
3.3743864380889876	6.7441187	2.596944
3.3919208263522127	6.7355437	2.5952926
3.4094552940575023	6.750979	2.5982647
3.4269898416164972	6.680429	2.5846527
3.444524469440858	6.5401897	2.5573795
3.4620591779422587	6.414053	2.532598
3.479593967532391	6.379924	2.525851
3.4971288386229658	6.335399	2.517022
3.5146637916257086	6.36347	2.5225918
3.5321988269523628	6.3279305	2.5155377
3.5497339450146903	6.375149	2.5249057
3.5672691462244708	6.403072	2.5304291
3.5848044309934988	6.3611584	2.5221336
3.60233979973359	6.2922173	2.5084293
3.619875252856575	6.3270907	2.5153708
3.6374107907743034	6.3487387	2.5196702
3.6549464138986427	6.354267	2.5207672
3.6724821226414788	6.32658	2.5152693
3.690017917414714	6.3587413	2.5216544
3.7075537986302702	6.374747	2.524826
3.7250897667000857	6.531983	2.5557745
3.7426258220361235	6.633917	2.575639
3.7601619650503553	6.8608727	2.6193268
3.777698196154779	7.27658	2.6975136
3.7952345157614067	8.422643	2.902179
3.8127709242822716	9.311979	3.0515535
3.830307422129425	11.498284	3.390912
3.847844009714936	30.26741	5.5015826
3.8653806874508954	97.67334	9.882982
3.882917455749409	96.997345	9.848723
3.900454315022606	96.85115	9.841298
3.917991265682631	41.49831	6.4419184
3.9355283081416506	11.169319	3.3420532
3.9530654428118495	8.822977	2.9703496
3.970602670105433	7.546553	2.747099
3.9881399904346244	6.6957064	2.5876062
4.005677404211669	6.6736493	2.5833406
4.023214911848827	6.6013575	2.5693107
4.0407525137583855	6.4785514	2.5452998
4.058290210352644	6.3881826	2.5274854
4.075828002043927	6.2645955	2.5029173
4.0933658892445814	6.1812177	2.4862056
4.110903872366966	6.2573547	2.5014706
4.128441951823468	6.1489983	2.4797175
4.145980128026488	6.2734065	2.5046768
4.163518401388452	6.239068	2.4978127
4.181056772321807	6.196481	2.4892733
4.1985952412390155	6.0982533	2.469464
4.216133808552567	6.104014	2.4706302
4.233672474674966	6.2376037	2.4975195
4.251211240018741	6.459505	2.5415556
4.268750104996445	6.649592	2.5786803
4.286289070020643	7.525187	2.7432075
4.303828135503928	9.174522	3.0289474
4.3213673018589125	29.44127	5.425981
4.3389065694982305	90.70472	9.523903
4.356445938834537	166.021	12.884913
4.3739854102805085	171.90393	13.111214
4.391524984248844	172.78531	13.144783
4.409064661152262	136.8066	11.696435
4.426604441403504	97.01287	9.849511
4.444144325415337	75.61346	8.6956
4.461684313600543	21.603666	4.6479745
4.47922440637193	22.040886	4.6947722
4.496764604142329	20.68183	4.547728
4.5143049073245916	18.950165	4.3531785
4.531845316331589	16.871035	4.1074367
4.5493858315762195	13.814487	3.7167845
4.566926453471405	11.340485	3.3675635
4.584467182430081	9.30856	3.0509934
4.602008018865218	8.297758	2.880583
4.619548963189798	7.779535	2.7891817
4.637090015816834	7.251087	2.6927843
4.654631177159353	6.9149394	2.6296272
4.672172447630417	6.486054	2.5467732
4.689713827643102	6.3003225	2.5100443
4.7072553176105085	6.0456367	2.4587877
4.724796917945764	5.9140377	2.4318795
4.742338629062015	5.848131	2.4182909
4.759880451372434	5.7489686	2.3977008
4.777422385290215	5.6658874	2.3803124
4.794964431228581	5.719718	2.3915932
4.812506589600768	5.7458572	2.3970518
4.830048860820047	5.7978415	2.4078708
4.847591245299709	5.8015766	2.408646
4.8651337434530655	5.7194076	2.3915284
4.882676355693457	5.5745664	2.361052
4.900219082434242	5.545204	2.3548257
4.917761924088813	5.567532	2.359562
4.935304881070575	5.6045437	2.3673918
4.952847953792969	5.550098	2.3558645
4.970391142669449	5.430796	2.330407
4.9879344481135055	5.5137434	2.3481362
5.005477870538642	5.4801316	2.3409681
5.023021410358394	5.51363	2.348112
5.040565067986324	5.481159	2.3411875
5.05810884383601	5.4971113	2.3445919
5.075652738321066	5.5443153	2.354637
5.09319675185512	5.4240746	2.3289642
5.110740884851836	5.3951473	2.3227456
5.128285137724894	5.2867603	2.2992957
5.145829510888007	5.3148317	2.3053918
5.163374004754908	5.3846498	2.3204849
5.1809186197393595	5.4169183	2.3274274
5.198463356255145	5.406395	2.3251655
5.216008214716077	5.343888	2.311685
5.233553195535998	5.3084464	2.3040066
5.251098299128764	5.2843237	2.2987657
5.268643525908272	5.2712083	2.2959113
5.286188876288432	5.309005	2.3041277
5.3037343506831895	5.273443	2.296398
5.32127994950651	5.205804	2.2816231
5.3388256731723915	5.222473	2.285273
5.356371522094851	5.3081684	2.3039463
5.373917496687938	5.276865	2.2971427
5.391463597365729	5.1940155	2.2790382
5.40900982454232	5.11467	2.2615635
5.426556178631843	5.1951427	2.2792857
5.444102660048449	5.209048	2.2823339
5.4616492692063225	5.228494	2.28659
5.479196006519669	5.152626	2.2699397
5.496742872402727	5.176068	2.2750974
5.514289867269756	5.2181635	2.28433
5.531836991535049	5.2606144	2.293603
5.549384245612924	5.2499413	2.291275
5.566931629917724	5.229767	2.2868683
5.584479144863822	5.1579013	2.2711012
5.6020267908656205	5.1212564	2.2630193
5.619574568337545	5.1527452	2.269966
5.637122477694054	5.172366	2.2742836
5.654670519349629	5.1176224	2.2622163
5.672218693718784	5.0772853	2.2532833
5.689767001216059	5.016175	2.239682
5.707315442256021	5.019069	2.2403278
5.724864017253266	5.0401864	2.245036
5.7424127266224225	5.0980735	2.2578914
5.75996157077814	5.1597257	2.271503
5.777510550135105	5.2278304	2.286445
5.795059665108022	5.2583013	2.2930987
5.812608916111639	5.2566767	2.2927444
5.830158303560715	5.3894076	2.3215098
5.847707827870055	5.376473	2.3187222
5.86525748945448	5.3909936	2.3218513
5.8828072887288485	5.476815	2.3402596
5.900357226108044	5.4944444	2.3440232
5.917907302006979	5.600754	2.3665912
5.9354575168406	6.1715393	2.4842584
5.9530078710238765	6.67675	2.5839407
5.970558364971812	7.1528387	2.6744792
5.988108999099438	7.52491	2.743157
6.005659773821818	8.071595	2.8410554
6.023210689554039	7.9259443	2.8153055
6.040761746711227	8.367143	2.8926013
6.058312945708531	7.796812	2.7922773
6.075864286961132	7.3861156	2.7177408
6.093415770884244	6.7295604	2.5941396
6.1109673978931065	6.1889844	2.487767
6.128519168402993	5.6445947	2.3758357
6.146071082829204	5.497197	2.3446102
6.163623141587075	5.3988795	2.3235488
6.181175345091969	5.279678	2.297755
6.198727693759281	5.2092505	2.2823782
6.216280188004435	5.2368326	2.2884126
6.233832828242885	5.2352266	2.2880619
6.251385614890126	5.2585454	2.2931519
6.268938548361669	5.2377515	2.2886136
6.286491629073067	5.115628	2.2617753
6.304044857439898	5.0921416	2.2565775
6.321598233877777	5.002301	2.2365825
6.339151758802344	4.9731593	2.2300582
6.356705432629277	4.990069	2.2338462
6.37425925577428	5.006885	2.237607
6.391813228653095	5.062765	2.250059
6.409367351681486	5.05379	2.2480636
6.426921625275259	5.0264525	2.241975
6.44447604985025	5.071842	2.2520752
6.46203062582232	5.0476184	2.2466905
6.47958535360737	5.034159	2.243693
6.497140233621328	5.009314	2.2381496
6.514695266280161	4.9434953	2.2233973
6.532250451999859	4.960351	2.2271845
6.549805791196454	5.0086536	2.238002
6.567361284286002	5.0172105	2.239913
6.584916931684597	4.991094	2.2340758
6.602472733808367	4.9531612	2.22557
6.6200286910734665	4.971004	2.229575
6.637584803896092	5.0540295	2.248117
6.655141072692462	5.041122	2.2452443
6.672697497878842	5.071207	2.251934
6.690254079871514	5.0676956	2.2511542
6.707810819086808	5.0002537	2.2361248
6.725367715941078	5.0186296	2.2402298
6.742924770850719	4.999186	2.2358859
6.760481984232151	5.064173	2.2503717
6.778039356501836	5.0734754	2.2524376
6.795596888076266	5.050031	2.2472274
6.813154579371963	5.027512	2.2422113
6.830712430805492	4.980647	2.2317364
6.84827044279344	5.0166698	2.2397923
6.865828615752445	5.029655	2.2426891
6.883386950099159	5.038898	2.244749
6.900945446250287	5.0291696	2.242581
6.918504104622553	5.0868473	2.255404
6.936062925632727	5.0862703	2.2552762
6.953621909697607	5.0570483	2.248788
6.971181057234028	5.082371	2.2544115
6.988740368658859	5.1098866	2.260506
7.006299844389007	5.2375774	2.2885754
7.023859484841407	5.32115	2.3067617
7.041419290433036	5.3779407	2.3190386
7.058979261580902	5.432822	2.3308415
7.0765393987020495	5.630945	2.3729613
7.094099702213559	6.036035	2.4568343
7.111660172532549	6.4268303	2.5351193
7.129220810076164	6.7690954	2.6017485
7.146781615261595	7.4332013	2.72639
7.16434258850606	7.6730714	2.770031
7.181903730226821	8.169833	2.858292
7.1994650408411704	8.232184	2.8691783
7.217026520766437	8.402584	2.8987212
7.234588170419983	8.62753	2.9372656
7.252149990219215	8.589054	2.930709
7.269711980581568	8.410978	2.9001687
7.2872741419245175	8.178387	2.859788
7.304836474665574	7.789862	2.7910326
7.322398979222286	7.4434257	2.7282643
7.339961656012233	7.1041718	2.6653652
7.357524505453039	6.7684736	2.601629
7.375087527962357	6.5359225	2.556545
7.392650723957886	6.251721	2.5003443
7.410214093857353	5.887026	2.4263194
7.427777638078528	5.6143084	2.3694532
7.445341357039213	5.4191823	2.3279138
7.4629052511572525	5.2772007	2.297216
7.480469320850524	5.210421	2.2826347
7.498033566536948	5.2145743	2.2835443
7.5155979886344735	5.1654086	2.2727535
7.5331625875610975	5.1784863	2.2756288
7.550727363734844	5.195629	2.2793922
7.568292317573788	5.1906285	2.278295
7.585857449496025	5.212694	2.2831326
7.603422759919705	5.227226	2.2863128
7.620988249263007	5.2577996	2.2929893
7.638553917944147	5.263067	2.2941375
7.656119766381391	5.2271004	2.2862852
7.673685794993023	5.2588897	2.293227
7.691252004197388	5.21299	2.2831972
7.70881839441285	5.1934114	2.2789056
7.726384966057826	5.121613	2.263098
7.743951719550762	5.1064367	2.2597427
7.761518655310149	5.146003	2.2684803
7.779085773754511	5.1313634	2.2652514
7.796653075302419	5.2026234	2.280926
7.814220560372475	5.224594	2.285737
7.831788229383323	5.267361	2.2950733
7.8493560827536495	5.295435	2.3011813
7.866924120902174	5.279097	2.2976286
7.884492344247663	5.2889504	2.2997718
7.9020607532089135	5.3097644	2.3042927
7.919629348204771	5.3485465	2.3126924
7.937198129654115	5.352026	2.3134446
7.954767097975865	5.3366303	2.3101149
7.972336253588986	5.339537	2.3107438
7.989905596912472	5.4110074	2.3261573
8.007475128365371	5.4442267	2.3332868
8.025044848366756	5.4751377	2.3399012
8.042614757335754	5.6478395	2.3765182
8.060184855691523	5.734846	2.394754
8.07775514385327	5.851985	2.4190876
8.095325622240228	5.900925	2.429182
8.112896291271687	5.960513	2.4414163
8.130467151366968	6.0108213	2.4516976
8.148038202945436	6.038873	2.457412
8.165609446426497	5.9654603	2.442429
8.183180882229594	5.9918714	2.44783
8.200752510774217	5.929348	2.4350252
8.218324332479893	5.952926	2.439862
8.235896347766193	6.0032673	2.4501567
8.253468557052724	6.0570545	2.4611084
8.27104096075914	6.115145	2.472882
8.288613559305137	6.1117945	2.4722044
8.306186353110448	6.1535807	2.4806411
8.32375934259485	6.193312	2.4886365
8.341332528178162	6.243673	2.4987342
8.358905910280246	6.30538	2.5110517
8.376479489321003	6.2749395	2.504983
8.394053265720377	6.274468	2.5048888
8.411627239898356	6.2372026	2.4974391
8.42920141227497	6.2444134	2.4988825
8.44677578327029	6.2745543	2.504906
8.464350353304427	6.219956	2.493984
8.48192512279754	6.189957	2.4879625
8.499500092169827	6.1914625	2.488265
8.51707526184153	6.199046	2.4897883
8.534650632232934	6.198548	2.4896884
8.552226203764365	6.1297417	2.4758315
8.569801976856192	6.113713	2.4725924
8.587377951928834	6.1665792	2.48326
8.60495412940274	6.2705426	2.504105
8.622530509698416	6.3046007	2.5108964
8.6401070932364	6.378774	2.5256236
8.657683880437283	6.4474807	2.5391889
8.675260871721695	6.6136813	2.571708
8.692838067510303	6.8328047	2.6139634
8.710415468223834	6.9390182	2.6342015
8.727993074283043	7.0827427	2.6613424
8.745570886108737	7.0806527	2.6609497
8.763148904121765	7.1371965	2.6715531
8.78072712874302	7.1617227	2.6761396
8.798305560393441	7.4329557	2.7263448
8.815884199494006	7.667151	2.7689621
8.833463046465745	7.8301044	2.7982323
8.851042101729728	7.909797	2.812436
8.86862136570707	8.185387	2.8610115
8.886200838818924	8.372171	2.8934705
8.903780521486505	8.442817	2.9056525
8.921360414131055	8.516912	2.918375
8.938940517173874	8.604115	2.9332771
8.956520831036297	8.727483	2.9542313
8.97410135613971	9.01245	3.0020742
8.99168209290554	9.241584	3.0399973
9.009263041755265	9.525283	3.0863056
9.026844203110405	9.733652	3.1198802
9.044425577392525	9.906529	3.147464
9.062007165023239	10.045994	3.1695416
9.079588966424197	10.3732605	3.2207546
9.097170982017108	10.436138	3.2305012
9.11475321222372	11.353857	3.3695486
9.132335657465825	12.234198	3.4977417
9.149918318165264	12.326683	3.5109377
9.167501194743924	12.968764	3.601217
9.18508428762374	12.629864	3.5538518
9.202667597226693	12.524735	3.5390303
9.220251123974803	12.100422	3.4785662
9.237834868290143	11.804848	3.4358184
9.255418830594836	11.594295	3.4050395
9.273003011311046	11.102422	3.3320296
9.290587410860985	10.878371	3.2982376
9.308172029666911	10.247998	3.2012496
9.32575686815113	9.976004	3.1584811
9.343341926735997	8.749995	2.958039
9.360927205843916	8.563286	2.9263093
9.378512705897327	8.310417	2.8827794
9.396098427318728	8.0400095	2.835491
9.413684370530664	7.919045	2.8140798
9.431270535955722	7.8547883	2.8026395
9.448856924016539	7.858695	2.8033364
9.466443535135806	7.7456093	2.7830935
9.484030369736251	7.715263	2.7776363
9.501617428240658	7.6715336	2.7697535
9.519204711071852	7.687938	2.7727132
9.536792218652714	7.737961	2.781719
9.55437995140617	7.7629476	2.7862067
9.571967909755191	7.7348266	2.7811556
9.589556094122802	7.7404695	2.7821698
9.60714450493207	7.8368106	2.7994304
9.624733142606116	7.9720354	2.8234794
9.642322007568108	8.026847	2.833169
9.659911100241267	8.047012	2.8367257
9.677500421048851	8.074618	2.8415873
9.695089970414175	8.12319	2.850121
9.712679748760609	8.189093	2.861659
9.730269756511557	8.221553	2.867325
9.747859994090492	8.171457	2.858576
9.765450461920915	8.173212	2.858883
9.78304116042639	8.208691	2.8650813
9.800632090030527	8.266521	2.875156
9.81822325115699	8.317715	2.884045
9.835814644229481	8.344338	2.8886569
9.853406269671762	8.36564	2.8923416
9.870998127907646	8.358396	2.891089
9.888590219360985	8.267256	2.8752837
9.906182544455698	8.245336	2.8714693
9.923775103615734	8.1710205	2.8584998
9.941367897265108	8.245551	2.8715067
9.958960925827878	8.310815	2.8828485
9.97655418972816	8.3543415	2.8903878
9.994147689390106	8.348973	2.889459
10.011741425237934	8.320099	2.884458
10.029335397695904	8.322794	2.8849254
10.04692960718833	8.267552	2.8753352
10.06452405413958	8.253163	2.8728318
10.082118738974064	8.309301	2.882586
10.099713662116246	8.284915	2.8783529
10.117308823990651	8.248272	2.8719804
10.134904225021844	8.237839	2.8701634
10.152499865634445	8.194113	2.8625362
10.170095746253125	8.194888	2.8626716
10.18769186730261	8.168278	2.8580198
10.205288229207675	8.183162	2.8606226
10.222884832393145	8.213779	2.8659692
10.2404816772839	8.137731	2.8526707
10.258078764304868	8.112991	2.8483312
10.275676093881035	8.057106	2.838504
10.293273666437438	8.041898	2.835824
10.310871482399158	8.062663	2.8394828
10.32846954219134	8.0426445	2.8359556
10.346067846239173	8.071605	2.841057
10.363666394967908	8.061418	2.8392637
10.38126518880283	8.130454	2.8513951
10.398864228169298	8.212101	2.8656764
10.416463513492713	8.297912	2.8806095
10.434063045198531	8.234657	2.8696094
10.451662823712262	8.163886	2.8572514
10.469262849459467	8.119108	2.8494048
10.486863122865758	8.0922985	2.8446965
10.504463644356806	8.09965	2.8459885
10.522064414358338	8.003161	2.828986
10.539665433296118	7.9904566	2.8267395
10.557266701595987	7.8602877	2.8036203
10.574868219683818	7.7286754	2.7800496
10.592469987985552	7.6272902	2.761755
10.610072006927185	7.52464	2.7431078
10.627674276934751	7.5325894	2.7445564
10.64527679843435	7.42359	2.7246265
10.662879571852143	7.3101974	2.7037377
10.680482597614331	7.220495	2.687098
10.698085876147173	7.088595	2.6624415
10.715689407876988	6.987087	2.6433098
10.733293193230146	6.8512836	2.6174958
10.750897232633072	6.746411	2.5973854
10.76850152651225	6.7200923	2.592314
10.786106075294207	6.651003	2.5789537
10.803710879405534	6.536098	2.5565794
10.821315939272877	6.4484806	2.5393858
10.83892125532294	6.401449	2.5301085
10.856526827982472	6.3504977	2.5200193
10.874132657678285	6.2553053	2.5010607
10.891738744837243	6.2110977	2.4922073
10.909345089886271	6.184065	2.486778
10.926951693252343	6.1469336	2.479301
10.944558555362494	6.0675035	2.4632304
10.96216567664381	5.948648	2.438985
10.979773057523436	5.8717275	2.4231648
10.997380698428573	5.8500915	2.4186962
11.014988599786477	5.781335	2.4044406
11.032596762024461	5.780347	2.4042351
11.050205185569892	5.7672186	2.4015033
11.067813870850198	5.7030926	2.388115
11.085422818292859	5.6465964	2.3762567
11.10303202832541	5.5401993	2.3537629
11.120641501375454	5.469638	2.3387258
11.138251237870636	5.4236135	2.3288653
11.155861238238671	5.3757405	2.3185644
11.173471502907317	5.2562647	2.2926545
11.191082032304402	5.14079	2.2673311
11.208692826857805	5.082814	2.2545097
11.226303886995465	5.0096526	2.2382252
11.243915213145371	4.9911585	2.23409
11.261526805735578	4.888384	2.210969
11.279138665194196	4.8288565	2.197466
11.296750791949393	4.7534814	2.180248
11.314363186429393	4.718271	2.172158
11.331975849062479	4.6824503	2.163897
11.34958878027699	4.6493526	2.1562357
11.36720198050133	4.653548	2.1572084
11.384815450163948	4.627196	2.1510918
11.402429189693366	4.5570164	2.134717
11.420043199518153	4.4635987	2.112723
11.437657480066942	63.39905	7.9623523
11.455272031768422	85.143906	9.227345
11.472886855051353	107.58191	10.3721695
11.490501950344528	99.15449	9.957635
11.508117318076819	84.51286	9.193088
11.52573295867715	45.924793	6.7767835
11.543348872574514	4.2231936	2.055041
11.560965060197946	4.1636395	2.0405
11.57858152197655	4.09138	2.022716
11.59619825833949	4.0185924	2.0046427
11.613815269715985	4.0453277	2.0113
11.631432556535323	38.528706	6.2071495
11.649050119226837	83.040115	9.112635
11.666667958219929	93.42325	9.66557
11.68428607394406	107.6869	10.37723
11.701904466828756	82.49999	9.082951
11.719523137303586	65.41442	8.087918
11.737142085798196	4.6815453	2.163688
11.754761312742286	3.8235269	1.955384
11.772380818565619	3.7657094	1.9405435
11.790000603698015	3.693793	1.9219244
11.80762066856935	3.6558516	1.9120282
11.825241013609572	3.5798056	1.8920374
11.842861639248683	3.5316412	1.8792661
11.860482545916748	3.4818838	1.8659806
11.878103734043883	3.4810214	1.8657496
11.895725204060282	3.4561706	1.8590779
11.91334695639619	3.4446235	1.8559697
11.930968991481919	3.4096694	1.846529
11.948591309747824	3.393104	1.842038
11.966213911624347	3.34323	1.8284502
11.98383679754198	3.2731643	1.8091888
12.001459967931268	3.2352676	1.798685
12.019083423222835	3.2775068	1.8103886
12.036707163847352	3.2706332	1.8084892
12.05433119023556	3.28225	1.8116981
12.071955502818259	3.2533376	1.803701
12.089580102026313	3.210507	1.7917887
12.107204988290643	3.1702607	1.7805226
12.12483016204224	3.1696177	1.780342
12.142455623712152	3.1532266	1.7757328
12.16008137373149	3.129239	1.7689655
12.177707412531431	3.0839698	1.7561235
12.19533374054321	3.0455768	1.7451581
12.212960358198126	3.0250137	1.7392566
12.230587265927545	3.0692015	1.7519137
12.248214464162889	3.074198	1.753339
12.265841953335649	3.0425532	1.7442915
12.283469733877375	2.9631414	1.7213777
12.301097806219685	2.894119	1.7012111
12.31872617079425	2.8884819	1.6995534
12.336354828032825	2.9169092	1.7078961
12.353983778367205	2.9375226	1.7139202
12.371613022229262	2.9732938	1.7243241
12.389242560050928	2.9567838	1.7195301
12.406872392264201	2.9473362	1.7167808
12.424502519301143	2.9055917	1.7045796
12.442132941593874	2.8667667	1.6931529
12.459763659574586	2.8566153	1.6901524
12.477394673675532	2.8359241	1.6840203
12.49502598432903	2.833309	1.6832436
12.51265759196746	2.8480453	1.6876153
12.530289497023267	2.8432105	1.6861823
12.547921699928967	2.8200133	1.6792895
12.565554201117134	2.7812488	1.6677077
12.583187001020404	2.7727602	1.6651607
12.600820100071486	2.7718627	1.6648912
12.618453498703152	2.7915783	1.6708016
12.636087197348235	2.7829096	1.6682055
12.65372119643964	2.7919388	1.6709095
12.671355496410326	2.8108528	1.6765598
12.68899009769333	2.8328936	1.6831203
12.706625000721749	2.8166704	1.678294
12.724260205928752	2.8391936	1.6849906
12.741895713747551	2.84083	1.6854762
12.759531524611454	2.9115205	1.7063178
12.777167638953818	2.909887	1.7058392
12.794804057208072	2.9384394	1.7141876
12.812440779807702	3.0144083	1.7362051
12.830077807186271	3.230282	1.7972986
12.847715139777405	3.2991655	1.8163605
12.865352778014795	3.555271	1.8855426
12.882990722332197	3.6496375	1.9104024
12.90062897316344	3.6722188	1.9163034
12.918267530942412	3.665902	1.9146545
12.935906396103071	3.539773	1.8814285
12.953545569079449	3.703621	1.9244794
12.971185050305628	3.5339725	1.8798863
12.988824840215775	3.5656636	1.8882965
13.006464939244115	3.6137059	1.900975
13.024105347824943	3.4637754	1.8611221
13.041746066392617	3.5217423	1.8766305
13.05938709538157	3.3253822	1.8235631
13.077028435226296	3.3589742	1.8327504
13.094670086361363	3.2660906	1.8072329
13.112312049221401	3.1921449	1.7866575
13.129954324241112	3.1519675	1.7753781
13.147596911855258	3.002783	1.732854
13.165239812498685	2.9367347	1.7136904
13.182883026606293	2.8204098	1.6794076
13.200526554613058	2.7523518	1.6590214
13.218170396954017	2.7450817	1.6568288
13.235814554064284	2.7411184	1.6556324
13.253459026379034	2.7149339	1.6477057
13.271103814333523	2.6994483	1.6429998
13.288748918363058	2.7148685	1.6476858
13.306394338903031	2.7172184	1.6483988
13.32404007638889	2.6801672	1.6371217
13.341686131256164	2.6762319	1.6359192
13.359332503940449	2.6772826	1.6362404
13.376979194877402	2.687304	1.6392999
13.394626204502751	2.707259	1.645375
13.412273533252307	2.7144523	1.6475595
13.429921181561937	2.703307	1.6441736
13.447569149867581	2.6901677	1.6401731
13.465217438605247	2.6957483	1.6418735
13.482866048211022	2.685053	1.6386132
13.500514979121052	2.7027009	1.6439893
13.518164231771568	2.6846216	1.6384815
13.535813806598844	2.6858022	1.6388417
13.553463704039254	2.6659682	1.6327792
13.571113924529229	2.6469147	1.6269342
13.588764468505275	2.649271	1.6276581
13.606415336403956	2.668687	1.6336117
13.624066528661917	2.6682189	1.6334684
13.641718045715882	2.6965485	1.642117
13.659369888002635	2.784539	1.6686938
13.67702205595903	2.911382	1.7062773
13.694674550021993	2.9977148	1.731391
13.712327370628532	3.0489461	1.7461232
13.729980518215713	3.068313	1.75166
13.747633993220681	3.113216	1.7644308
13.765287796080647	3.187183	1.7852683
13.7829419272329	3.283277	1.8119816
13.800596387114801	3.3187485	1.8217432
13.818251176163775	3.3590856	1.8327808
13.835906294817324	3.4078114	1.8460258
13.853561743513023	3.3984888	1.8434991
13.871217522688525	3.3960989	1.8428507
13.888873632781538	3.3971918	1.8431473
13.906530074229858	3.4541018	1.8585213
13.92418684747135	3.5117435	1.8739647
13.941843952943948	3.568568	1.8890654
13.959501391085665	3.5529578	1.8849291
13.977159162334578	3.469062	1.8625418
13.994817267128846	3.377906	1.837908
14.012475705906693	3.268447	1.8078847
14.030134479106424	3.1942942	1.7872589
14.047793587166414	3.1407225	1.7722083
14.065453030525108	3.0571587	1.7484733
14.083112809621026	2.9912558	1.7295247
14.100772924892766	2.9178696	1.7081772
14.118433376778997	2.9077952	1.7052258
14.136094165718458	2.864107	1.6923672
14.153755292149969	2.8278875	1.6816324
14.171416756512416	2.7563064	1.6602128
14.189078559244768	2.6418335	1.6253718
14.20674070078606	2.5864432	1.6082423
14.224403181575408	2.5477285	1.5961605
14.242066002051999	2.53607	1.5925044
14.259729162655093	2.4955266	1.5797236
14.277392663824022	2.4518805	1.5658481
14.295056505998208	2.4246755	1.5571369
14.312720689617128	2.3965218	1.5480703
14.330385215120348	2.385998	1.5446676
14.348050082947497	2.3845751	1.544207
14.3657152935383	2.3858619	1.5446235
14.383380847332528	2.391275	1.5463748
14.401046744770051	2.3917098	1.5465153
14.418712986290798	2.440562	1.5622299
14.436379572334793	2.4498224	1.5651909
14.454046503342123	2.4241962	1.5569831
14.471713779752946	2.3622594	1.5369643
14.489381402007504	2.3428721	1.5306443
14.507049370546113	2.3574762	1.5354075
14.524717685809168	2.3514924	1.5334576
14.542386348237134	2.3714316	1.5399454
14.560055358270553	2.3934577	1.5470804
14.577724716350051	2.4657013	1.5702552
14.595394422916325	2.4825711	1.5756177
14.61306447841015	2.5045779	1.5825858
14.63073488327237	2.4947267	1.5794704
14.648405637943917	2.5136158	1.5854387
14.6660767428658	2.4970174	1.5801953
14.683748198479094	2.5459368	1.5955992
14.701420005224954	2.5752168	1.6047482
14.719092163544628	2.6540391	1.6291223
14.73676467387942	2.6954799	1.6417917
14.754437536670727	2.723447	1.6502869
14.772110752360014	2.7100897	1.646235
14.78978432138882	2.6654315	1.632615
14.807458244198777	2.6730092	1.634934
14.82513252123159	2.7087245	1.6458203
14.842807152929028	2.7395687	1.6551642
14.860482139732962	2.7449214	1.6567805
14.87815748208531	2.7063706	1.645105
14.8958331804281	2.697265	1.6423352
14.91350923520342	2.6935904	1.6412162
14.931185646853438	2.74133	1.6556962
14.948862415820408	2.6583998	1.63046
14.966539542546656	2.6310287	1.6220446
14.98421702747459	2.5553234	1.5985379
15.001894871046696	2.5959597	1.6111982
15.019573073705542	2.6058583	1.6142671
15.037251635893766	2.5976207	1.6117136
15.054930558054092	2.6700864	1.6340399
15.072609840629323	2.7191327	1.6489793
15.090289484062351	2.873182	1.6950463
15.107969488796124	3.1747313	1.7817775
15.125649855273691	3.5948327	1.8960044
15.14333058393817	4.1155634	2.028685
15.161011675232768	5.1220803	2.2632012
15.17869312960076	6.532475	2.5558708
15.196374947485506	8.41029	2.90005
15.214057129330447	11.40825	3.37761
15.231739675579114	16.141468	4.0176444
15.249422586675102	21.236172	4.608272
15.267105863062092	24.298908	4.9293923
15.284789505183847	24.500078	4.949755
15.302473513484218	22.12207	4.7034106
15.320157888407127	18.477104	4.2985
15.337842630396578	14.262235	3.7765374
15.355527739896656	11.169977	3.3421516
15.37321321735153	8.788778	2.9645875
15.39089906320545	6.5108566	2.5516381
15.408585277902748	4.892879	2.2119853
15.42627186188783	3.7663112	1.9406986
15.443958815605198	3.180643	1.7834357
15.461646139499424	2.855128	1.6897124
15.479333834015168	2.7042413	1.6444577
15.497021899597165	2.6570487	1.6300457
15.514710336690234	2.6056457	1.6142012
15.53239914573928	2.55712	1.5990998
15.550088327189297	2.5465684	1.5957971
15.567777881485336	2.534001	1.5918546
15.58546780907256	2.5427463	1.5945991
15.6031581103962	2.5321145	1.5912619
15.620848785901568	2.5328927	1.5915065
15.638539836034063	2.5375402	1.5929658
15.656231261239173	2.5194194	1.5872679
15.673923061962451	2.4517303	1.5658002
15.691615238649552	2.4393258	1.5618341
15.709307791746202	2.4309323	1.5591447
15.727000721698221	2.4206805	1.5558536
15.744694028951498	2.3848994	1.544312
15.76238771395202	2.404546	1.5506599
15.780081777145844	2.3978572	1.5485016
15.797776218979125	2.3714397	1.539948
15.815471039898094	2.341162	1.5300856
15.833166240349064	2.327896	1.5257444
15.850861820778437	2.344191	1.5310751
15.868557781632699	2.3736339	1.5406603
15.886254123358412	2.3860428	1.5446821
15.903950846402232	2.3788555	1.5423539
15.921647951210897	2.3714716	1.5399584
15.939345438231225	2.3696432	1.5393646
15.957043307910133	2.379075	1.542425
15.974741560694602	2.3767545	1.5416726
15.992440197031714	2.3613052	1.5366539
16.01013921736862	2.3575137	1.5354197
16.02783862215259	2.3531187	1.5339879
16.045538411830933	2.377394	1.54188
16.06323858685107	2.3608055	1.5364913
16.080939147660512	2.3771293	1.5417942
16.09864009470684	2.4080105	1.5517765
16.11634142843774	2.419718	1.5555443
16.134043149300954	2.417075	1.5546945
16.15174525774433	2.3977528	1.5484679
16.169447754215817	2.430679	1.5590636
16.18715063916342	2.437514	1.561254
16.204853913035244	2.4239326	1.5568984
16.222557576279478	2.4090724	1.5521187
16.240261629344403	22.371672	4.7298703
16.257966072678386	42.905487	6.550228
16.275670906729868	38.015587	6.165678
16.293376131947387	2.4660418	1.5703636
16.31108174877957	2.5118513	1.5848821
16.328787757675133	2.5425773	1.5945461
16.34649415908287	2.5959485	1.6111947
16.364200953451657	2.6348157	1.6232115
16.38190814123048	2.6395319	1.6246636
16.39961572286839	2.6173344	1.6178178
16.41732369881455	2.6776657	1.6363574
16.43503206951817	2.6941116	1.641375
16.45274083542859	2.7570326	1.6604315
16.47044999699522	2.7880862	1.6697563
16.488159554667558	2.847993	1.6875998
16.505869508895184	2.891779	1.7005231
16.523579860127786	2.952807	1.7183733
16.541290608815117	3.0347717	1.7420596
16.559001755407035	3.0571966	1.7484841
16.57671330035348	3.061107	1.749602
16.59442524410448	3.139838	1.7719588
16.61213758711015	3.211312	1.7920134
16.629850329820705	3.2630162	1.8063821
16.647563472686436	3.311386	1.8197215
16.665277016157724	3.3574493	1.8323344
16.682990960685053	3.3612633	1.8333749
16.70070530671898	3.4579172	1.8595476
16.718420054710155	3.51503	1.8748413
16.736135205109335	3.591522	1.8951311
16.753850758367335	3.6313107	1.9055998
16.771566714935087	3.670807	1.915935
16.789283075263597	3.7101448	1.9261736
16.80699983980398	3.746966	1.9357082
16.82471700900741	3.7971227	1.9486207
16.84243458332518	3.8500943	1.9621657
16.860152563208665	3.9726045	1.9931394
16.87787094910932	4.0873656	2.0217235
16.89558974147871	4.1701627	2.0420976
16.913308940768466	4.19565	2.0483286
16.931028547430333	4.2442493	2.0601575
16.94874856191613	4.30738	2.075423
16.966468984677785	4.3820534	2.0933354
16.98418981616729	4.426409	2.1039033
17.00191105683676	4.441827	2.1075642
17.019632707138374	4.4848375	2.1177435
17.03735476752442	4.526377	2.1275284
17.05507723844728	4.607596	2.146531
17.072800120359403	4.65835	2.1583211
17.090523413713353	4.6568956	2.1579843
17.108247118961785	4.644952	2.155215
17.125971236557437	4.714295	2.1712427
17.143695766953133	4.708439	2.1698937
17.161420710601806	4.6810064	2.1635633
17.179146067956477	4.646718	2.1556246
17.19687183947025	4.6661215	2.1601207
17.21459802559634	4.682466	2.1639006
17.232324626788028	4.674497	2.1620586
17.25005164349871	4.6621346	2.1591976
17.267779076181863	4.6332474	2.152498
17.285506925291074	4.627692	2.1512072
17.30323519127999	4.6192527	2.1492448
17.320963874602384	4.57474	2.1388643
17.33869297571211	4.596556	2.143958
17.356422495063114	4.5974264	2.144161
17.37415243310944	4.5650425	2.136596
17.391882790305218	4.5015893	2.1216948
17.40961356710468	4.5306177	2.1285248
17.42734476396215	4.5718236	2.1381824
17.445076381332044	4.5553555	2.134328
17.462808419668868	4.5849214	2.141243
17.48054087942723	4.7936006	2.1894293
17.498273761061835	5.082126	2.254357
17.51600706502747	5.549591	2.355757
17.533740791779024	6.289297	2.507847
17.551474941771485	7.677973	2.7709155
17.56920951545993	8.776252	2.9624739
17.586944513299528	10.938776	3.307382
17.60467993574556	12.595268	3.5489812
17.622415783253373	14.278155	3.7786446
17.64015205627843	15.484057	3.9349787
17.657888755276293	16.435879	4.0541186
17.675625880702604	16.959831	4.118232
17.69336343301311	16.729021	4.0901127
17.71110141266366	16.053202	4.0066447
17.728839820110178	15.206036	3.8994918
17.746578655808705	14.417666	3.7970603
17.764317920215372	13.003722	3.6060674
17.7820576137864	11.529806	3.395557
17.79979773697811	9.553589	3.090888
17.81753829024692	7.7065067	2.7760596
17.835279274049356	6.017769	2.453114
17.85302068884201	4.937802	2.2221165
17.870762535081607	4.25458	2.0626633
17.888504813224934	3.8853302	1.971124
17.90624752372891	3.6625671	1.9137834
17.923990667050536	3.5498495	1.8841045
17.941734243646895	3.5162182	1.8751582
17.959478253975185	3.5019732	1.871356
17.9772226984927	3.4375696	1.8540684
17.994967577656833	3.3949947	1.8425511
18.01271289192506	3.3731606	1.8366166
18.030458641754965	3.377563	1.8378147
18.04820482760425	3.3485742	1.829911
18.06595144993067	3.3383648	1.8271192
18.083698509192125	3.308907	1.8190402
18.101446005846576	3.2568448	1.8046731
18.119193940352105	3.219915	1.7944121
18.136942313166887	3.1928155	1.7868451
18.1546911247492	3.1888847	1.7857449
18.1724403755574	3.12824	1.7686832
18.19019006604997	3.105731	1.7623085
18.207940196685467	3.116994	1.765501
18.225690767922575	3.117161	1.7655483
18.243441780220046	3.1195776	1.7662326
18.261193234036764	3.099689	1.7605934
18.278945129831676	3.091947	1.7583933
18.29669746806386	3.0865173	1.7568487
18.314450249192483	3.0527394	1.7472091
18.3322034736768	3.0119438	1.7354952
18.349957141976184	2.993197	1.7300858
18.3677112545501	2.9996316	1.7319444
18.385465811858108	3.016036	1.7366738
18.403220814359884	3.0530388	1.7472947
18.420976262515172	3.0970867	1.7598542
18.43873215678387	3.1514938	1.7752447
18.456488497625923	3.156846	1.7767515
18.474245285501407	3.2058911	1.7905003
18.492002520870486	3.2501175	1.8028083
18.50976020419343	3.310972	1.8196076
18.527518335930615	3.615915	1.901556
18.545276916542516	4.2229404	2.0549793
18.563035946489688	4.4315906	2.1051342
18.580795426232832	4.879352	2.2089255
18.598555356232698	4.732588	2.1754513
18.616315736950185	4.991903	2.2342567
18.63407656884626	4.6212234	2.149703
18.65183785238201	4.862607	2.205132
18.669599588018617	4.668793	2.160739
18.68736177621737	4.630931	2.15196
18.705124417439652	4.6158338	2.1484492
18.72288751214696	4.4071116	2.099312
18.740651060800886	4.5884457	2.1420658
18.758415063863115	4.3160753	2.0775166
18.77617952179546	4.4651656	2.1130939
18.793944435059814	4.1688557	2.0417776
18.811709804118184	4.167625	2.0414762
18.829475629432675	4.131248	2.0325472
18.8472419114655	3.9627895	1.9906757
18.86500865067897	4.044394	2.0110679
18.88277584753551	3.7610211	1.9393352
18.90054350249763	3.790595	1.9469451
18.918311616027957	3.4740257	1.8638738
18.936080188589226	3.3868806	1.840348
18.953849220644265	3.0759943	1.7538513
18.971618712656007	2.8670256	1.6932293
18.9893886650875	2.8239713	1.6804676
19.007159078401887	8.022673	2.8324323
19.024929953062408	32.93454	5.738862
19.042701289532435	32.893383	5.7352753
19.060473088275405	25.441128	5.04392
19.07824534975489	2.6919458	1.640715
19.096018074434568	2.6566532	1.6299243
19.113791262778197	2.6359537	1.623562
19.13156491524966	2.6260087	1.6204964
19.149339032312945	2.614548	1.6169564
19.167113614432136	2.603349	1.6134896
19.184888662071433	2.581928	1.6068379
19.202664175695123	2.533419	1.5916717
19.220440155767623	2.5512483	1.5972627
19.238216602753447	2.5209196	1.5877404
19.2559935171172	2.5336378	1.5917405
19.27377089932361	2.5557008	1.5986559
19.291548749837514	2.550244	1.5969484
19.309327069123835	2.5525255	1.5976626
19.32710585764763	2.5045364	1.5825727
19.344885115874032	2.5054748	1.5828692
19.362664844268313	2.4915354	1.5784599
19.380445043295822	2.4647865	1.5699638
19.39822571342203	2.4839232	1.5760467
19.41600685511252	2.5419707	1.594356
19.43378846883297	2.5631163	1.6009736
19.451570555049173	2.5466504	1.5958228
19.469353114227037	2.5262415	1.5894154
19.48713614683254	2.5246696	1.588921
19.50491965333182	2.5262737	1.5894256
19.52270363419109	2.5283043	1.5900643
19.540488089876686	2.528067	1.5899897
19.55827302085503	2.5271087	1.5896882
19.576058427592674	2.5001025	1.5811713
19.593844310556282	2.497104	1.5802227
19.611630670212598	2.4988227	1.5807664
19.629417507028506	2.5024683	1.5819192
19.64720482147098	2.51094	1.5845946
19.6649926140071	2.4897308	1.5778881
19.682780885104084	2.4413848	1.5624931
19.70056963522921	2.3957627	1.5478251
19.718358864849908	2.4349213	1.5604234
19.7361485744337	2.485186	1.5764472
19.753938764448215	2.5130498	1.5852602
19.771729435361202	2.502872	1.5820467
19.789520587640506	2.4876962	1.5772432
19.807312221754092	2.4650254	1.57004
19.825104338170043	2.4701114	1.5716588
19.842896937356517	2.5066404	1.5832373
19.860690019781824	2.5478513	1.596199
19.87848358591436	2.599591	1.6123247
19.896277636222635	2.5633194	1.601037
19.914072171175278	2.5438914	1.5949582
19.931867191241015	2.5032632	1.5821704
19.94966269688869	2.5084734	1.583816
19.967458688587264	2.51251	1.5850899
19.985255166805807	2.489727	1.5778869
20.00305213201348	2.4612432	1.568835
20.020849584679578	2.4427252	1.562922
20.038647525273507	2.4342492	1.5602081
20.05644595426477	2.4250293	1.5572505
20.07424487212299	2.4557295	1.5670767
20.092044279317903	2.4614992	1.5689166
20.109844176319353	2.4859424	1.5766871
20.127644563597304	2.4968839	1.5801531
20.145445441621817	2.5020368	1.5817828
20.16324681086307	2.4810255	1.5751271
20.181048671791373	2.4349296	1.5604261
20.198851024877122	2.3979974	1.5485469
20.216653870590836	2.4017406	1.549755
20.234457209403146	2.3835196	1.5438652
20.252261041784802	2.3791537	1.5424505
20.270065368206662	2.3743913	1.540906
20.287870189139685	2.388181	1.545374
20.305675505054968	2.3806462	1.5429343
20.323481316423702	2.355217	1.5346717
20.341287623717207	2.3703907	1.5396073
20.359094427406884	2.4142761	1.5537941
20.376901727964288	2.4003108	1.5492936
20.39470952586107	2.3608387	1.5365021
20.41251782156899	2.3156803	1.5217359
20.430326615559935	2.319164	1.5228802
20.448135908305886	2.3221083	1.5238465
20.465945700278965	2.3264713	1.5252775
20.483755991951384	2.3043675	1.5180143
20.50156678379548	2.3185205	1.5226688
20.519378076283708	2.3132684	1.5209433
20.537189869888635	2.2999585	1.5165614
20.55500216508294	2.3121076	1.5205616
20.572814962339415	2.327599	1.525647
20.59062826213098	2.3390703	1.5294019
20.60844206493066	2.3545067	1.5344402
20.626256371211593	2.361776	1.5368071
20.644071181447032	2.3047655	1.5181454
20.66188649611036	2.2728233	1.5075886
20.67970231567506	2.2930229	1.514273
20.697518640614742	2.3183942	1.5226274
20.715335471403122	2.3331695	1.5274715
20.73315280851404	2.3409193	1.5300063
20.750970652421447	2.290303	1.5133747
20.768789003599412	2.2619298	1.5039713
20.786607862522136	2.271538	1.5071622
20.8044272296639	2.3123312	1.5206351
20.82224710549913	2.3163898	1.5219691
20.84006749050237	2.2970915	1.5156158
20.857888385148268	3.8070953	1.951178
20.8757097899116	45.8938	6.774496
20.893531705267254	64.75316	8.046935
20.911354131690224	83.802956	9.154395
20.92917706965566	69.06172	8.310338
20.94700051963877	50.115574	7.0792356
20.96482448211493	29.381895	5.420507
20.982648957559622	4.183454	2.0453494
21.00047394644843	2.3158116	1.5217791
21.01829944925707	2.2892735	1.5130346
21.036125466461375	2.2620108	1.5039983
21.053951998537297	2.2538583	1.5012856
21.071779045960906	2.2487047	1.4995681
21.089606609208378	2.2494655	1.4998218
21.10743468875603	2.2400243	1.4966711
21.12526328508028	2.2381692	1.4960512
21.143092398657675	2.1929052	1.480846
21.16092202996488	2.195528	1.4817314
21.17875217947867	2.2018008	1.4838467
21.19658284767596	2.1785836	1.4760026
21.21441403503377	2.146367	1.4650484
21.232245742029225	2.12528	1.457834
21.2500779691396	2.1502352	1.4663681
21.26791071684227	2.1672833	1.4721696
21.28574398561475	2.1693776	1.4728807
21.30357777593465	2.1581798	1.4690745
21.321412088279704	2.1831017	1.4775323
21.339246923127792	2.1840987	1.4778696
21.357082280956888	2.186225	1.4785888
21.3749181622451	2.1658602	1.4716861
21.392754567470647	2.1705298	1.4732718
21.41059149711187	2.154895	1.4679561
21.42842895164726	2.1207192	1.4562689
21.446266931555378	2.0944471	1.4472204
21.464105437314945	2.0985026	1.4486209
21.481944469404798	2.1209474	1.4563472
21.49978402830388	2.1191905	1.4557439
21.51762411449127	2.1052938	1.450963
21.53546472844617	2.0859177	1.4442706
21.553305870647876	2.072925	1.4397657
21.571147541575865	2.074694	1.4403797
21.58898974170967	2.0583823	1.4347063
21.60683247152899	2.0839953	1.443605
21.62467573151363	2.1011693	1.4495411
21.642519522143523	2.086972	1.4446356
21.660363843898722	2.057281	1.4343225
21.6782086972594	2.0634675	1.4364774
21.696054082705864	2.0663095	1.4374664
21.713900000718535	2.0765626	1.4410284
21.73174645177795	2.0573094	1.4343324
21.749593436364794	2.016354	1.4199839
21.767440954959845	1.9946404	1.4123174
21.785289008044032	1.9895371	1.4105095
21.803137596098388	2.017798	1.4204922
21.820986719604086	2.0291278	1.4244746
21.838836379042412	2.0380564	1.4276052
21.85668657489478	2.0552692	1.433621
21.87453730764273	2.062489	1.4361368
21.892388577767914	2.036379	1.4270176
21.91024038575213	2.006372	1.4164646
21.928092732077285	1.9959735	1.4127892
21.945945617225426	2.014818	1.4194428
21.963799041678694	2.013333	1.4189197
21.981653005919398	31.322933	5.5966897
21.999507510429943	78.103806	8.837636
22.01736255569286	73.05445	8.54719
22.035218142190818	4.1356926	2.0336401
22.05307427040661	1.9818728	1.4077901
22.07093094082315	1.9957443	1.4127082
22.088788153923474	2.0045493	1.4158211
22.106645910190746	2.009577	1.4175955
22.12450421010827	2.011536	1.4182862
22.142363054159464	2.005022	1.415988
22.16022244282787	1.9836166	1.4084092
22.178082376597164	2.004045	1.415643
22.195942855951145	1.9966063	1.4130132
22.213803881373742	1.9579896	1.3992819
22.231665453349002	1.927174	1.3882269
22.24952757236111	1.8969159	1.3772857
22.26739023889438	1.9076191	1.3811659
22.28525345343323	1.9039588	1.3798401
22.30311721646225	1.9140129	1.3834785
22.320981528466113	1.9085222	1.3814927
22.33884638992964	1.9098512	1.3819736
22.356711801337788	1.9499269	1.3963978
22.37457776317561	1.9736303	1.4048595
22.392444275928337	1.9791675	1.4068289
22.410311340081282	1.9513655	1.3969128
22.428178956119904	1.9718072	1.4042106
22.446047124529805	1.9896652	1.4105549
22.46391584579669	1.9859737	1.4092458
22.481785120406414	1.971052	1.4039416
22.49965494884496	1.9410484	1.3932152
22.51752533159841	1.9311742	1.3896669
22.53539626915302	1.9377408	1.3920276
22.553267761995137	1.923876	1.3870386
22.571139810611264	1.9218731	1.3863164
22.589012415488025	1.9335536	1.3905227
22.60688557711216	1.9925399	1.4115735
22.624759295970566	1.9739976	1.4049902
22.642633572550263	1.9593817	1.3997792
22.660508407338362	1.9656943	1.4020323
22.67838380082217	1.9306359	1.3894732
22.696259753489077	1.9083581	1.3814334
22.714136265826614	1.9165114	1.3843813
22.73201333832246	1.921596	1.3862164
22.74989097146439	1.9008201	1.3787023
22.76776916574035	1.9318155	1.3898977
22.785647921638393	1.9430423	1.3939306
22.803527239646712	1.9388492	1.3924257
22.82140712025363	1.9085513	1.3815033
22.839287563947593	1.9115648	1.3825935
22.85716857121719	1.8943217	1.3763436
22.875050142551135	1.9242105	1.3871591
22.892932278438277	1.9447052	1.3945268
22.910814979367604	1.9387558	1.392392
22.928698245828222	1.9494818	1.3962384
22.946582078309387	1.9519947	1.397138
22.96446647730047	1.9397905	1.3927636
22.98235144329098	1.8862842	1.3734206
23.000236976770562	1.873918	1.3689113
23.018123078229	1.8835526	1.3724258
23.03600974815619	1.9146266	1.3837004
23.053896987042194	1.9508568	1.3967308
23.071784795377173	1.9300634	1.3892672
23.08967317365145	1.8935839	1.3760755
23.10756212235546	1.9103239	1.3821447
23.125451641979787	1.9440453	1.3942902
23.143341733015134	1.933776	1.3906027
23.161232395952357	1.8945918	1.3764417
23.179123631282426	1.9124756	1.3829229
23.197015439496468	1.9382168	1.3921986
23.214907821085717	1.9605707	1.4002038
23.23280077654157	1.9479455	1.3956882
23.250694306355538	1.9301128	1.389285
23.268588411019277	1.941429	1.3933517
23.28648309102458	1.9705107	1.4037488
23.304378346863356	1.972909	1.4046028
23.322274179027676	1.9387887	1.392404
23.340170588009723	1.9255393	1.387638
23.358067574301852	1.9070287	1.3809521
23.37596513839651	1.9096526	1.3819019
23.39386328078629	1.882705	1.3721169
23.411762001963947	1.8679011	1.3667117
23.429661302422353	1.904748	1.3801261
23.4475611826545	1.888197	1.3741168
23.46546164315356	1.8994234	1.3781956
23.48336268441279	1.914977	1.383827
23.501264306925638	1.9455673	1.394836
23.51916651118564	1.9528502	1.3974441
23.537069297686497	1.9458882	1.394951
23.554972666922037	1.9289081	1.3888514
23.57287661938623	1.9159524	1.3841794
23.59078115557318	1.923099	1.3867584
23.608686275977128	1.9217315	1.3862653
23.62659198109246	1.9344864	1.3908582
23.6444982714137	1.942156	1.3936125
23.66240514743549	1.9311125	1.3896447
23.68031260965263	1.9308953	1.3895665
23.698220658560068	1.9369333	1.3917375
23.716129294652845	1.9666661	1.4023787
23.7340385184262	1.9422215	1.3936361
23.75194833037546	1.9437215	1.3941741
23.769858730996123	1.9515115	1.3969651
23.78776972078382	1.9518421	1.3970834
23.80568130023431	1.9483956	1.3958495
23.823593469843495	1.9034292	1.3796482
23.841506230107424	1.825281	1.3510296
23.859419581522275	1.8003848	1.3417841
23.87733352458438	1.8237821	1.3504747
23.89524805979019	1.8428231	1.3575063
23.913163187636318	1.8764281	1.3698277
23.931078908619508	1.9315691	1.389809
23.948995223236633	1.9618886	1.4006743
23.966912131984735	1.9753395	1.4054677
23.98482963536096	2.0127957	1.4187303
24.002747733862616	2.033274	1.4259292
24.020666427987155	2.0286934	1.4243221
24.038585718232156	2.036442	1.4270396
24.056505605095353	2.0368452	1.4271809
24.074426089074617	2.0573738	1.4343548
24.092347170667946	2.0707247	1.4390013
24.110268850373515	2.0608163	1.4355544
24.128191128689586	2.0774386	1.4413322
24.146114006114626	2.0367785	1.4271575
24.164037483147187	2.0511417	1.4321808
24.181961560286005	2.0242555	1.4227633
24.199886238029926	2.0380273	1.4275949
24.21781151687797	2.0509214	1.4321039
24.235737397329274	2.0870347	1.4446573
24.253663879883135	2.1006489	1.4493616
24.271590965038975	2.0458946	1.4303477
24.289518653296376	2.0383308	1.4277012
24.30744694515505	2.0741663	1.4401966
24.32537584111486	2.0674317	1.4378567
24.34330534167581	2.0472386	1.4308175
24.361235447338046	2.0121343	1.4184972
24.379166158601876	1.9690686	1.4032351
24.39709747596772	1.9446658	1.3945128
24.41502939993615	1.9815384	1.4076713
24.432961931007917	2.0227833	1.4222459
24.450895069683856	2.0523825	1.4326138
24.468828816465	2.0002544	1.4143035
24.4867631718525	1.9673965	1.4026392
24.504698136347656	1.9413356	1.3933182
24.52263371045192	1.9644014	1.401571
24.540569894666874	1.9483116	1.3958193
24.558506689494266	1.934505	1.3908648
24.57644409543597	1.9487922	1.3959914
24.594382112994012	1.9915274	1.4112148
24.61232074267057	2.024347	1.4227955
24.630259984967953	1.9973383	1.4132721
24.64819984038863	1.9914494	1.4111872
24.66614030943522	1.9415735	1.3934035
24.684081392610462	1.9158249	1.3841332
24.702023090417274	1.9128786	1.3830686
24.7199654033587	1.9296942	1.3891343
24.737908331937927	1.964156	1.4014835
24.755851876658305	1.967523	1.4026842
24.773796038023324	1.9810317	1.4074912
24.79174081653661	2.0229223	1.4222947
24.809686212701962	2.0749967	1.4404849
24.827632227023294	2.0567255	1.4341289
24.8455788600047	2.084726	1.443858
24.8635261121504	2.127119	1.4584646
24.88147398396475	2.1782162	1.4758781
24.899422475952303	2.1582477	1.4690976
24.917371588617698	2.1100047	1.4525855
24.935321322465768	2.1186209	1.4555483
24.953271678001478	2.2296743	1.4932094
24.97122265572994	2.4376178	1.5612872
24.989174256156414	2.7516785	1.6588184
25.00712647978632	3.2317266	1.7977004
25.02507932712521	3.8049164	1.9506195
25.043032798678798	4.2939873	2.0721939
25.060986894952933	4.900423	2.2136898
25.078941616453637	5.6085076	2.368229
25.096896963687055	6.5851116	2.5661473
25.114852937159508	7.813656	2.7952917
25.132809537377444	8.302413	2.8813908
25.150766764847468	8.318366	2.8841577
25.168724620076347	7.711238	2.7769115
25.186683103570985	6.791658	2.606081
25.204642215838426	5.655664	2.378164
25.222601957385894	4.2943506	2.0722816
25.24056232872074	3.248592	1.8023851
25.25852333035048	2.6011612	1.6128116
25.276484962782778	2.2243872	1.4914379
25.294447226525435	2.0434554	1.4294947
25.312410122086423	1.9735941	1.4048467
25.330373649973843	1.9254278	1.3875978
25.348337810695988	1.9660634	1.4021639
25.366302604761245	1.9694774	1.4033808
25.384268032678207	1.9594436	1.3998013
25.40223409495558	1.9457595	1.3949049
25.420200792102257	1.9456847	1.394878
25.438168124627246	1.905598	1.380434
25.45613609303974	1.8727748	1.3684937
25.474104697849057	1.882795	1.3721497
25.492073939564698	1.8576308	1.3629494
25.510043818696285	1.8622425	1.36464
25.528014335753614	1.8692073	1.3671895
25.54598549124664	1.8620528	1.3645705
25.56395728568544	1.8629261	1.3648906
25.58192971958028	1.8737943	1.3688661
25.59990279344156	1.9084251	1.3814576
25.617876507779833	1.8715168	1.3680339
25.635850863105826	1.8777759	1.3703196
25.653825859930386	1.90246	1.3792969
25.671801498764548	1.9211545	1.3860571
25.68977778011949	1.8591801	1.3635175
25.707754704506524	1.7973073	1.3406368
25.725732272437153	1.7723169	1.3312839
25.743710484423012	1.8381414	1.3557807
25.761689340975888	1.8808491	1.3714405
25.77966884260774	1.8647364	1.3655535
25.797648989830662	1.7935754	1.3392444
25.815629783156922	1.823785	1.3504758
25.83361122309895	1.8648292	1.3655875
25.85159331016929	1.8762101	1.3697482
25.869576044880695	1.8650482	1.3656677
25.887559427746034	1.8768979	1.3699993
25.90554345927836	1.8808678	1.3714473
25.92352813999086	1.889586	1.3746221
25.94151347039689	1.8385596	1.355935
25.959499451009965	1.8373876	1.3555027
25.97748608234374	1.8319763	1.3535051
25.995473364912062	1.8282503	1.352128
26.013461299228904	1.785374	1.3361789
26.03144988580839	1.7820346	1.3349288
26.04943912516483	1.827335	1.3517896
26.067429017812675	1.8824703	1.3720315
26.085419564266537	1.8761082	1.3697109
26.103410765041186	1.8538822	1.3615735
26.12140262065155	1.8687952	1.3670388
26.139395131612723	1.81748	1.3481394
26.157388298439948	1.7581402	1.3259488
26.17538212164861	1.7446948	1.320869
26.193376601754295	1.7929354	1.3390054
26.211371739272714	1.8280874	1.3520678
26.229367534719746	1.8115274	1.34593
26.247363988611433	1.8316869	1.3533982
26.26536110146397	1.8110235	1.3457427
26.283358873793727	1.7851577	1.336098
26.301357306117204	1.8293812	1.3525462
26.319356398951104	1.860765	1.3640985
26.33735615281224	1.8477083	1.3593043
26.35535656821762	1.8070935	1.3442818
26.373357645684404	1.8284252	1.3521928
26.39135938572991	1.860114	1.36386
26.409361788871614	1.8560265	1.3623606
26.427364855627165	1.8432932	1.3576794
26.445368586514352	1.7905964	1.3381317
26.46337298205115	1.7580233	1.3259047
26.48137804275568	1.7800537	1.3341866
26.499383769146217	1.791643	1.3385227
26.517390161741215	1.7945652	1.3396138
26.53539722105928	1.7926929	1.3389149
26.553404947619182	1.809695	1.345249
26.571413341939856	1.8026544	1.3426297
26.589422404540397	1.8008833	1.34197
26.60743213594006	1.8131912	1.3465478
26.62544253665827	1.8285354	1.3522335
26.64345360721459	1.8307005	1.3530338
26.66146534812879	1.8305513	1.3529787
26.679477759920758	1.8448381	1.3582482
26.69749084311057	1.874342	1.3690661
26.71550459821847	1.8482362	1.3594985
26.733519025764842	1.7903186	1.3380278
26.751534126270258	1.7955306	1.339974
26.769549900255434	1.8155868	1.3474371
26.787566348241267	1.8222835	1.3499198
26.80558347074881	1.8025432	1.3425882
26.823601268299267	1.7797908	1.334088
26.841619741414036	1.7813603	1.3346761
26.85963889061465	1.8002472	1.3417329
26.877658716422832	1.789989	1.3379047
26.89567921936045	1.7584354	1.32606
26.913700399949544	1.7755663	1.3325038
26.93172225871233	1.8076204	1.3444778
26.949744796171174	1.8638989	1.3652468
26.967768012848605	1.8440928	1.3579738
26.98579190926733	1.8337725	1.3541685
27.003816485950225	1.8128697	1.3464285
27.021841743420318	1.8373531	1.35549
27.039867682200814	1.8236027	1.3504083
27.057894302815072	1.8009638	1.3419999
27.07592160578664	1.7987322	1.3411682
27.0939495916392	1.8134583	1.346647
27.111978260896635	1.7693106	1.3301543
27.13000761408296	1.7581102	1.3259375
27.148037651722397	1.8121898	1.346176
27.166068374339304	1.8432164	1.3576511
27.184099782458215	1.8095537	1.3451965
27.20213187660384	1.8002915	1.3417494
27.22016465730105	1.8199965	1.3490725
27.23819812507487	1.8044618	1.3433026
27.256232280450533	1.7869474	1.3367676
27.274267123953383	1.7287099	1.3148042
27.292302656108987	1.7168651	1.310292
27.31033887744306	1.7526941	1.3238935
27.32837578848146	1.772214	1.3312453
27.34641338975026	1.7772511	1.3331358
27.364451681775673	1.7444189	1.3207645
27.382490665084074	1.7547055	1.324653
27.400530340202046	1.8057983	1.3438
27.41857070765629	1.8472615	1.35914
27.436611767973726	1.8634981	1.3651
27.454653521681404	1.8695368	1.36731
27.472695969306564	1.8714956	1.3680261
27.490739111376627	1.836096	1.3550262
27.508782948419153	1.8203994	1.3492218
27.526827480961902	1.8220304	1.3498261
27.54487270953279	1.8209	1.3494073
27.562918634659898	1.8197008	1.3489629
27.580965256871508	1.8677614	1.3666607
27.599012576696026	1.8647296	1.365551
27.617060594662068	1.8277714	1.351951
27.63510931129842	1.8446307	1.3581718
27.65315872713401	1.8474755	1.3592187
27.67120884269797	1.8633741	1.3650546
27.68925965851958	1.8258644	1.3512455
27.707311175128307	1.7840616	1.3356876
27.725363393053787	1.7640206	1.3281643
27.74341631282583	1.8071941	1.3443192
27.7614699349744	1.8970854	1.3773472
27.77952426002968	2.0987873	1.4487191
27.797579288521973	2.1205897	1.4562244
27.815635020981784	2.5481098	1.59628
27.83369145793979	2.6434731	1.6258761
27.85174859992682	2.5147374	1.5857923
27.869806447473923	2.3723528	1.5402445
27.887865001112267	2.0139823	1.4191484
27.905924261373233	1.8745868	1.3691555
27.92398422878836	1.8582653	1.3631821
27.94204490388936	1.8736901	1.368828
27.96010628720813	1.8629266	1.3648907
27.978168379276728	1.8528847	1.361207
27.9962311806274	1.8480163	1.3594177
28.014294691792568	1.8518459	1.3608254
28.0323589133048	1.8616099	1.3644083
28.050423845696887	1.8551004	1.3620207
28.068489489501758	1.8724043	1.3683583
28.086555845252523	1.8800299	1.3711418
28.104622913482487	1.9040219	1.379863
28.122690694725115	1.8802241	1.3712126
28.14075918951405	1.9000379	1.3784186
28.15882839838312	1.9114376	1.3825475
28.176898321866304	1.9086016	1.3815215
28.1949689604978	1.9080094	1.3813071
28.213040314811945	1.923668	1.3869636
28.23111238534327	1.9090985	1.3817014
28.249185172626493	1.8894111	1.3745584
28.267258677196473	1.9025599	1.3793331
28.285332899588294	1.8691213	1.3671582
28.303407840337172	1.9145666	1.3836787
28.321483499978545	1.9431041	1.3939527
28.33955987904799	1.9571471	1.3989807
28.357636978081285	1.9237667	1.3869991
28.37571479761439	1.9011669	1.378828
28.393793338183425	1.9041467	1.3799082
28.41187260032469	1.8778049	1.3703302
28.429952584574686	1.878953	1.3707491
28.448033291470065	1.885742	1.3732232
28.46611472154769	1.9462279	1.3950727
28.484196875344566	1.9648417	1.4017282
28.502279753397914	1.9832939	1.4082947
28.52036335624511	1.9982541	1.4135962
28.538447684423716	1.982745	1.4080998
28.556532738471482	1.9838728	1.4085002
28.574618518926325	1.9773468	1.4061816
28.59270502632635	2.0369134	1.4272047
28.61079226120985	2.0722535	1.4395324
28.628880224115274	2.047644	1.4309591
28.646968915581287	2.0289207	1.4244019
28.66505833614671	2.040558	1.4284811
28.68314848635055	2.0570042	1.434226
28.701239366732004	2.0550785	1.4335545
28.71933097783044	2.0088544	1.4173406
28.737423320185403	2.0479386	1.4310621
28.75551639433665	2.0602973	1.4353735
28.773610200824074	2.074893	1.4404489
28.791704740187793	2.1008365	1.4494263
28.80980001296809	2.115979	1.4546405
28.827896019705413	2.1427703	1.4638205
28.845992760940433	2.1088316	1.4521817
28.86409023721397	2.1545398	1.4678351
28.88218844906704	2.2218356	1.4905823
28.900287397040845	2.2489417	1.4996471
28.918387081676755	2.2169895	1.4889559
28.936487503516343	2.2493925	1.4997975
28.954588663101365	2.3063955	1.5186821
28.97269056097374	2.2950387	1.5149385
28.990793197675597	2.3065243	1.5187246
29.00889657374923	2.3405607	1.5298891
29.027000689737125	2.3857567	1.5445895
29.04510554618196	2.4801862	1.5748607
29.06321114362659	2.4995022	1.5809814
29.08131748261405	2.442441	1.562831
29.099424563687567	2.4376435	1.5612955
29.11753238739057	2.452721	1.5661166
29.13564095426663	2.5218236	1.5880251
29.15375026485954	2.563264	1.6010196
29.171860319713275	2.6059813	1.6143053
29.18997111937199	2.6667352	1.6330141
29.20808266438002	2.7281034	1.6516972
29.226194955281898	2.7520041	1.6589166
29.244307992622335	2.7813365	1.6677339
29.26242177694624	2.830073	1.6822821
29.2805363087987	2.837841	1.6845893
29.29865158872498	2.8567924	1.6902049
29.316767617270557	2.9023364	1.7036245
29.334884394981064	2.995471	1.7307429
29.353001922402367	3.0250454	1.7392658
29.37112020008047	3.0662704	1.7510769
29.389239228561596	3.1845107	1.7845198
29.407359008392152	3.3643694	1.8342217
29.42547954011872	3.6833563	1.9192072
29.44360082428809	4.3185334	2.078108
29.46172286144722	5.3268285	2.3079922
29.479845652143283	6.9332905	2.633114
29.497969196923606	8.970217	2.995032
29.516093496335728	11.447458	3.3834093
29.5342185509274	14.237976	3.7733243
29.55234436124651	16.598248	4.074095
29.570470927841175	17.976	4.2398114
29.588598251259686	17.740303	4.211924
29.60672633205055	16.238577	4.0297117
29.624855170762405	13.811333	3.71636
29.642984767944146	11.100999	3.3318162
29.66111512414481	8.570968	2.9276216
29.67924623991366	6.404837	2.530778
29.697378115800138	4.987267	2.233219
29.71551075235387	4.1951475	2.0482059
29.733644150124675	3.6934812	1.9218432
29.751778309662576	3.4111745	1.8469366
29.769913231517766	3.345906	1.8291818
29.78804891624066	3.3911016	1.8414944
29.806185364381818	3.3774755	1.837791
29.82432257649206	3.398607	1.8435311
29.842460553122333	3.4397287	1.8546506
29.86059929482382	3.4376657	1.8540943
29.878738802147872	3.3493133	1.8301129
29.896879075646048	3.2422972	1.800638
29.915020115870114	3.2586472	1.8051723
29.933161923371976	3.302439	1.8172613
29.951304498703777	3.2296991	1.7971364
29.969447842417857	3.164177	1.7788134
29.987591955066733	3.1725247	1.7811582
30.005736837203123	3.161112	1.7779516
30.023882489379943	3.0958009	1.7594888
30.04202891215028	3.0653036	1.7508008
30.060176106067455	3.1186316	1.7659647
30.078324071684946	3.211122	1.7919604
30.09647280955646	3.318858	1.8217733
30.114622320235863	3.2809193	1.8113308
30.132772604277257	3.1756892	1.7820463
30.1509236622349	3.1080787	1.7629744
30.16907549466328	3.0859237	1.7566798
30.18722810211705	3.0599844	1.7492812
30.205381485151097	3.0510118	1.7467146
30.22353564432045	3.0663126	1.751089
30.241690580180403	3.1132984	1.7644541
30.25984629328638	3.1077769	1.7628888
30.278002784194037	3.0192933	1.7376114
30.296160053459246	3.0118742	1.7354752
30.314318101638033	3.0628555	1.7501016
30.332476929286646	3.0223281	1.7384844
30.35063653696153	2.9202232	1.7088661
30.368796925219307	2.8768473	1.6961272
30.386958094616844	2.8939774	1.7011694
30.40512004571115	2.9702344	1.7234368
30.423282779059463	2.9412758	1.7150148
30.441446295219233	2.8825998	1.6978221
30.459610594748067	2.8195534	1.6791526
30.47777567820382	2.693232	1.641107
30.495941546144504	2.6970868	1.6422809
30.51410819912835	2.8106053	1.676486
30.532275637713795	2.8379102	1.6846098
30.55044386245946	2.834438	1.683579
30.56861287392416	2.8680744	1.693539
30.586782672666956	2.8317218	1.682772
30.604953259247047	2.744309	1.6565956
30.623124634223885	2.7433531	1.6563071
30.641296798157075	2.7671845	1.6634856
30.659469751606462	2.7891817	1.6700844
30.677643495132074	2.765413	1.6629531
30.695818029294152	2.7074258	1.6454257
30.713993354653116	2.7007108	1.643384
30.73216947176962	2.6837165	1.6382053
30.75034638120448	2.6755881	1.6357225
30.768524083518756	2.6978219	1.6425047
30.786702579273673	2.7087383	1.6458246
30.80488186903069	2.7972145	1.6724875
30.82306195335144	2.9573076	1.7196825
30.841242832797782	3.1469738	1.7739712
30.85942450793176	3.3529384	1.8311031
30.877606979315637	3.70652	1.9252325
30.895790247511883	4.0662394	2.016492
30.913974313083134	4.4951396	2.1201744
30.932159176592283	4.833892	2.1986113
30.95034483860237	4.871101	2.207057
30.968531299676698	4.732724	2.1754825
30.98671856037873	4.3907924	2.0954218
31.00490662127215	4.07592	2.0188909
31.023095482920848	3.654671	1.9117193
31.04128514588892	3.1245234	1.7676321
31.059475610740662	2.7551396	1.6598613
31.07766687804056	2.6574383	1.6301651
31.09585894835335	2.602765	1.6133088
31.11405182224393	2.5999866	1.6124474
31.132245500277417	2.5566983	1.5989679
31.15043998301914	2.4807923	1.5750531
31.168635271034628	2.4314265	1.5593032
31.18683136488964	2.4281654	1.5582572
31.20502826515008	2.4276905	1.5581048
31.223225972382135	2.4460099	1.5639725
31.241424487152155	2.448165	1.5646613
31.259623810026692	2.4313235	1.5592701
31.27782394157253	2.4204986	1.5557952
31.296024882356644	2.334545	1.5279218
31.314226632946237	2.3574276	1.5353917
31.332429193908684	2.4016635	1.5497302
31.350632565811598	2.4203439	1.5557455
31.368836749222787	2.3814552	1.5431964
31.387041744710295	2.3697364	1.5393949
31.40524755284232	2.4565105	1.567326
31.423454174187317	2.5962548	1.6112899
31.441661609313922	2.6354625	1.6234108
31.459869858791002	2.5629654	1.6009264
31.478078923187628	2.4577308	1.5677152
31.496288803073064	2.2992122	1.5163153
31.514499499016807	2.2765691	1.5088304
31.532711011588546	2.3448882	1.5313028
31.550923341358178	2.377811	1.5420152
31.56913648889584	2.387907	1.5452855
31.587350454771844	2.3294046	1.5262387
31.605565239556732	2.289645	1.5131572
31.62378084382127	2.2516184	1.5005394
31.641997268136382	2.2524965	1.500832
31.660214513073274	2.2836497	1.5111749
31.67843257920331	2.3140237	1.5211916
31.6966514670981	2.350748	1.5332149
31.71487117732944	2.316283	1.5219339
31.733091710469346	2.3213634	1.5236021
31.751313067090052	2.3752592	1.5411875
31.769535247764008	2.3064315	1.518694
31.787758253063878	2.2789583	1.5096219
31.805982083562526	2.2867618	1.5122043
31.824206739833024	2.2977028	1.5158175
31.84243222244869	2.274994	1.5083083
31.860658531983013	2.1913369	1.4803165
31.878885669009737	2.1358159	1.4614431
31.897113634102784	2.1692533	1.4728385
31.91534242783632	2.189248	1.4796108
31.933572050784694	2.2416341	1.4972088
31.951802503522508	2.3177636	1.5224203
31.970033786624548	2.2798243	1.5099087
31.988265900665834	2.1548328	1.4679348
32.006498846221575	2.1107821	1.4528531
32.02473262386724	2.112535	1.4534563
32.04296723417845	2.1110916	1.4529597
32.0612026777311	2.203635	1.4844645
32.07943895510129	2.2832303	1.5110362
32.097676066865304	2.279096	1.5096675
32.115914013599685	2.278412	1.509441
32.13415279588115	2.2427158	1.4975699
32.152392414286666	2.1649203	1.4713669
32.1706328693934	2.0620663	1.4359896
32.18887416177875	2.0271912	1.4237946
32.20711629202032	2.1096694	1.4524701
32.225359260695924	2.125778	1.4580048
32.243603068383614	2.142757	1.4638159
32.26184771566166	2.178104	1.4758401
32.28009320310852	2.316597	1.5220371
32.2983395313029	2.2838182	1.5112307
32.31658670082372	2.1414242	1.4633605
32.33483471225012	2.0931153	1.4467603
32.35308356616143	2.1405635	1.4630665
32.371333263137245	2.0961716	1.4478161
32.38958380375734	2.0204036	1.421409
32.407835188601744	2.0644593	1.4368227
32.42608741825067	2.1113613	1.4530524
32.444340493284585	2.1478224	1.465545
32.46259441428416	2.1527736	1.4672333
32.48084918183028	2.107499	1.4517227
32.49910479650405	2.0938978	1.4470307
32.51736125888683	2.0310662	1.4251548
32.53561856956014	1.9950656	1.412468
32.5538767291058	2.0272958	1.4238313
32.572135738105764	2.0517368	1.4323885
32.59039559714228	2.038802	1.4278662
32.608656306797776	2.0504606	1.4319429
32.62691786765491	2.0690987	1.4384362
32.645180280296586	2.0790045	1.4418753
32.663443545305896	2.069118	1.438443
32.68170766326619	2.010672	1.4179817
32.69997263476099	1.9640878	1.4014592
32.7182384603741	1.9593973	1.3997847
32.7365051406895	1.9202833	1.3857429
32.75477267629144	1.8827007	1.3721154
32.77304106776434	1.9103891	1.3821683
32.79131031569289	1.9677436	1.4027629
32.809580420661966	1.977953	1.4063971
32.827851383256714	2.0413458	1.4287567
32.84612320406245	2.044885	1.4299947
32.86439588366476	2.057457	1.4343839
32.88266942264945	2.0307164	1.425032
32.9009438216025	1.9915242	1.4112138
32.9192190811102	1.9721053	1.4043167
32.937495201758985	1.9771074	1.4060965
32.95577218413556	2.1063967	1.451343
32.974050028826866	2.099302	1.4488969
32.992328736420035	1.9653282	1.4019016
33.010608307502444	1.9401606	1.3928965
33.02888874266169	1.9919603	1.4113683
33.047170042485604	2.0081563	1.4170943
33.06545220756225	1.9360014	1.3914027
33.083735238479896	1.9174719	1.3847281
33.10201913582707	1.9571773	1.3989915
33.12030390019248	2.0312028	1.4252027
33.138589532165135	2.0550632	1.4335492
33.15687603233419	2.0312648	1.4252244
33.17516340128909	1.9620638	1.4007369
33.19345163961947	1.8954579	1.3767563
33.211740747915215	1.9366562	1.3916379
33.23003072676643	2.0112019	1.4181685
33.248321576763466	1.9278417	1.3884674
33.266613298496885	1.7906303	1.3381444
33.28490589255747	1.8052684	1.3436028
33.30319935953626	1.8801602	1.3711894
33.32149370002451	1.9762833	1.4058034
33.339788914613706	2.0630915	1.4363465
33.358085003895575	1.9775784	1.406264
33.376381968462034	1.9046097	1.3800759
33.39467980890529	1.8817922	1.3717843
33.41297852581774	1.8721558	1.3682674
33.43127811979204	1.8365266	1.3551852
33.44957859142105	1.8467314	1.358945
33.467879941297866	1.9200282	1.3856509
33.486182170015844	1.9634234	1.4012221
33.50448527816853	2.0003402	1.4143338
33.522789266349754	1.9775316	1.4062474
33.541094135153514	1.8352655	1.3547198
33.55939988517411	1.8192211	1.348785
33.57770651700602	1.8106648	1.3456094
33.59601403124398	1.9298875	1.3892039
33.61432242848296	1.962283	1.4008151
33.632631709318154	1.8964705	1.3771241
33.650941874344994	1.8773681	1.3701708
33.66925292415916	1.8950143	1.3765951
33.68756485935654	1.9030026	1.3794936
33.70587768053328	1.9041195	1.3798983
33.724191388285746	1.9686124	1.4030725
33.74250598321054	2.0319328	1.4254588
33.760821465904506	1.9828136	1.4081241
33.77913783696474	1.9478774	1.3956637
33.79745509698852	1.9113957	1.3825324
33.815773246573414	1.9017767	1.3790492
33.8340922863172	1.8819518	1.3718425
33.852412216817896	1.8760355	1.3696845
33.87073303867377	1.9039198	1.3798261
33.889054752483304	1.8774787	1.3702112
33.907377358845245	1.8246045	1.3507792
33.92570085835853	1.7656896	1.3287926
33.94402525162239	1.8485832	1.3596262
33.96235053923627	1.9126701	1.3829932
33.980676721799824	1.8777821	1.3703219
33.999003799912984	1.8353628	1.3547556
34.01733177417592	1.8743987	1.3690869
34.03566064518901	1.9463252	1.3951076
34.0539904135529	1.9563375	1.3986913
34.07232107986846	1.9667376	1.4024042
34.090652644736785	2.0523257	1.4325941
34.108985108759235	1.984582	1.408752
34.12731847253742	1.8340378	1.3542665
34.14565273667313	1.7372575	1.3180506
34.16398790176847	1.833604	1.3541063
34.18232396842574	1.9554759	1.3983834
34.20066093724749	1.8615682	1.364393
34.21899880883651	1.7832223	1.3353735
34.23733758379583	1.924143	1.3871348
34.25567726272874	2.0803843	1.4423537
34.27401784623872	2.0370667	1.4272585
34.29235933492957	2.0351398	1.4265833
34.31070172940526	2.1043196	1.4506273
34.32904503027003	2.1575298	1.4688532
34.347389238128386	2.1037397	1.4504274
34.36573435358502	2.0924518	1.4465309
34.38408037724492	2.0500405	1.4317962
34.402427309713296	2.1328154	1.4604162
34.42077515159559	2.156367	1.4684573
34.43912390349752	1.9752766	1.4054453
34.45747356602499	1.8845859	1.3728021
34.47582413978423	1.8670115	1.3663863
34.49417562538163	1.8320134	1.3535188
34.51252802342388	1.9066133	1.3808017
34.53088133451789	1.8696018	1.3673339
34.54923555927084	1.8677901	1.3666712
34.567590698290104	1.8020866	1.3424182
34.58594675218336	1.8156363	1.3474555
34.6043037215585	2.0010138	1.4145719
34.62266160702365	2.0845037	1.443781
34.641020409187234	1.9861943	1.409324
34.65938012865785	2.0420725	1.429011
34.677740766044394	1.8904693	1.3749434
34.69610232195598	1.7629197	1.3277498
34.714464797002016	1.6640011	1.2899617
34.73282819179208	1.7629701	1.3277688
34.751192506936064	1.8309064	1.3531098
34.76955774304408	1.7023457	1.3047397
34.7879239007265	1.660521	1.288612
34.80629098059391	1.7811551	1.3345993
34.824658983257194	1.9522351	1.3972241
34.843027909327446	1.8906381	1.3750048
34.86139775941603	1.6701018	1.2923242
34.879768534134534	1.7143971	1.3093499
34.89814023409483	1.8698784	1.367435
34.91651285990901	1.9190816	1.3853092
34.93488641218944	1.7450587	1.3210067
34.95326089154871	1.7806836	1.3344226
34.97163629859967	1.9036888	1.3797423
34.99001263395542	2.0313654	1.4252597
35.00838989822934	2.0677555	1.4379692
35.02676809203499	2.0051332	1.4160272
35.04514721598624	1.9947193	1.4123453
35.063527270697215	1.8343745	1.3543909
35.081908256782256	1.8201705	1.349137
35.10029017485597	1.9786634	1.4066497
35.11867302553321	2.0108042	1.4180282
35.137056809429104	2.0494144	1.4315776
35.155441527159006	2.160829	1.4699758
35.173827179338524	1.9542634	1.3979497
35.19221376658354	2.0604424	1.4354241
35.21060128951017	2.2185614	1.4894836
35.2289897487348	2.0844932	1.4437774
35.24737914487405	1.8278215	1.3519695
35.26576947854479	1.7680389	1.3296763
35.28416075036418	2.1238391	1.4573398
35.30255296094958	2.2399693	1.4966527
35.32094611091867	2.1893594	1.4796485
35.33934020088932	2.1188638	1.4556317
35.35773523147969	2.0173924	1.4203494
35.3761312033082	1.8674297	1.3665394
35.394528116993506	1.7598646	1.3265989
35.41292597315452	1.6899753	1.2999905
35.431324772410434	1.6722888	1.2931701
35.449724515380666	1.9368454	1.391706
35.46812520268491	2.0498962	1.4317459
35.486526834943106	2.3044488	1.5180411
35.504929412775454	2.3159094	1.5218112
35.52333293680242	2.0386167	1.4278014
35.54173740764471	1.7975031	1.3407099
35.560142825923286	1.7167876	1.3102624
35.5785491922594	1.6389401	1.280211
35.59695650727454	1.3014784	1.1408236
35.61536477159042	1.0391313	1.019378
