0.008763373481513119	0.0	0.0
0.026290120649546365	0.14626539	0.3824466
0.043816868432600686	0.41231465	0.6421173
0.06134361724069026	0.58017117	0.76168966
0.07887036748382949	0.4629951	0.68043745
0.0963971195720331	0.31406534	0.5604153
0.11392387391531617	0.16662717	0.4081999
0.1314506309236943	0.09485201	0.30798054
0.1489773910071836	0.09960906	0.31560904
0.16650415457580078	0.14928137	0.38636947
0.18403092203956356	0.17821322	0.4221531
0.20155769380849	0.16687723	0.4085061
0.2190844702925996	0.123467684	0.3513797
0.2366112519019124	0.095951624	0.3097606
0.2541380390464497	0.06261146	0.25022283
0.27166483213623416	0.048414193	0.22003226
0.28919163158128947	0.021786595	0.14760283
0.3067184377916406	0.032895327	0.18137069
0.324245251177314	0.067454614	0.25972027
0.34177207214833777	0.089351594	0.29891738
0.3592989011147415	0.116232425	0.34092876
0.37682573848655654	0.13370825	0.36566138
0.39435258467381573	0.13931872	0.37325424
0.41187944008655414	0.1504142	0.3878327
0.42940630513480854	0.1490522	0.38607278
0.446933180228618	0.1431419	0.378341
0.4644600657780234	0.13300824	0.36470294
0.48198696219306775	0.14999771	0.38729537
0.49951386988379676	0.16800028	0.40987837
0.5170407892602581	0.2070312	0.4550068
0.5345677207325025	0.24311835	0.49307033
0.5520946647105822	0.26620844	0.5159539
0.5696216216045534	0.2469557	0.49694636
0.5871485918244737	0.1938379	0.44027025
0.6046755757804043	0.18097381	0.42541018
0.6222025738824094	0.18449119	0.42952436
0.6397295865405557	0.19005314	0.43595085
0.6572566141649129	0.18945986	0.43526986
0.6747836571655547	0.16476901	0.4059175
0.6923107159525568	0.15677707	0.39595085
0.7098377909359992	0.14225747	0.37717035
0.7273648825259653	0.13762194	0.3709743
0.7448919911325411	0.16013466	0.4001683
0.762419117165817	0.2041978	0.4518825
0.7799462610358868	0.25531724	0.50528926
0.7974734231528482	0.3002421	0.54794353
0.8150006039268024	0.30600592	0.553178
0.8325278037678551	0.27997226	0.529124
0.8500550230861152	0.22479233	0.4741227
0.8675822622916969	0.17007121	0.4123969
0.8851095217947171	0.16610377	0.4075583
0.9026368020052984	0.17106572	0.41360092
0.9201641033335665	0.18086797	0.42528576
0.9376914261896523	0.19641866	0.44319144
0.9552187709836915	0.22079496	0.46988824
0.9727461381258234	0.22685021	0.47628796
0.990273528026193	0.23809843	0.4879533
1.0078009410949496	0.2534954	0.50348324
1.0253283777422473	0.22576383	0.4751461
1.0428558383782454	0.24955326	0.49955305
1.0603833234131086	0.2529307	0.5029222
1.0779108332570058	0.30994815	0.55672985
1.0954383683201119	0.34812498	0.5900212
1.112965929012607	0.39942476	0.6320006
1.1304935157446763	0.5125796	0.7159467
1.1480211289265108	0.5412377	0.7356886
1.1655487689683062	1.4308753	1.196192
1.1830764362802655	1.766528	1.329108
1.200604131272596	2.221122	1.490343
1.2181318543555117	2.4573536	1.5675949
1.235659605939232	2.4375725	1.5612727
1.253187386433982	3.8345902	1.958211
1.270715196249994	6.259938	2.5019867
1.2882430357975057	11.747214	3.4274209
1.3057709054867608	16.57794	4.071602
1.3232988057280106	22.394764	4.732311
1.3408267369315112	27.209898	5.216311
1.358354699507526	30.984493	5.5663714
1.3758826938663256	35.06222	5.921336
1.3934107204181858	37.379047	6.1138406
1.410938779573391	37.95165	6.160491
1.4284668717422309	38.51731	6.2062316
1.4459949973350033	37.888546	6.1553674
1.4635231567620117	37.44132	6.1189313
1.4810513504335687	36.775284	6.064263
1.4985795787599925	36.336338	6.027963
1.5161078421516088	36.247246	6.0205684
1.5336361410187505	35.661755	5.9717464
1.5511644757717598	35.713478	5.9760756
1.5686928468209842	36.28449	6.0236607
1.58622125457678	36.57475	6.047706
1.6037496994495108	37.887253	6.155262
1.621278181849548	37.42577	6.1176605
1.6388067021872719	38.19011	6.179815
1.6563352608730693	37.590813	6.1311345
1.673863858317336	36.82428	6.068301
1.6913924949304753	35.920845	5.9934
1.7089211711228998	34.897366	5.907399
1.7264498873050296	33.8821	5.820833
1.7439786438872935	33.14678	5.7573237
1.7615074412801288	32.27666	5.6812553
1.779036279893981	31.46321	5.6092076
1.796565160139305	30.550903	5.527287
1.814094082426564	30.011433	5.478269
1.8316230471662298	29.450209	5.4268045
1.849152054768784	28.925648	5.378257
1.8666811056447168	28.417591	5.3308153
1.8842102002045273	27.31708	5.2265744
1.901739338858724	26.583332	5.155903
1.9192685220178245	26.108715	5.1096687
1.9367977500923557	25.466244	5.046409
1.9543270234928547	25.045961	5.004594
1.971856342629867	24.127756	4.912001
1.9893857079139496	23.62917	4.8609843
2.006915119755667	22.881552	4.7834663
2.0244445785655945	22.076618	4.698576
2.0419740847543175	21.661669	4.6542096
2.0595036387324317	21.594927	4.647034
2.0770332409105414	21.372496	4.6230397
2.094562891699263	20.912056	4.57297
2.1120925915092217	20.12057	4.4855957
2.129622340751053	19.576996	4.42459
2.1471521398354043	187.82523	13.704934
2.1646819891729323	444.42175	21.081312
2.182211889174303	440.8638	20.996758
2.1997418402501974	453.32523	21.291435
2.2172718428113023	433.16168	20.812536
2.234801897268317	320.92215	17.9143
2.2523320040319548	17.377398	4.1686206
2.269862163512935	17.201262	4.1474404
2.287392376121992	16.806128	4.099528
2.304922642269869	16.450462	4.055917
2.322452962367322	16.012737	4.0015917
2.3399833368251164	15.623655	3.952677
2.357513766054032	15.49523	3.936398
2.3750442504648586	15.183052	3.8965435
2.3925747904683963	14.927595	3.8636246
2.410105386475459	14.689285	3.8326604
2.4276360388968707	14.35236	3.788451
2.445166748143469	14.181109	3.7657814
2.4626975146261025	13.929223	3.7321875
2.4802283387556323	13.690772	3.7001042
2.4977592209429305	13.573753	3.6842575
2.5152901615988825	13.376914	3.6574464
2.5328211611343865	13.279081	3.6440475
2.5503522199603523	13.01128	3.6071153
2.5678833384877024	12.719785	3.5664806
2.5854145171273712	12.47968	3.532659
2.6029457562903064	12.1247225	3.4820573
2.620477056387469	11.9462385	3.4563332
2.6380084178298326	11.779422	3.4321163
2.655539841028383	11.56773	3.4011366
2.673071326394119	11.293634	3.3606002
2.6906028743380523	11.261473	3.3558118
2.708134485271211	11.226937	3.3506622
2.7256661596046325	11.133862	3.336744
2.743197897749369	10.954118	3.3097005
2.760729700116486	10.764573	3.2809408
2.778261567117063	10.645904	3.2628062
2.795793499162193	10.399995	3.2249024
2.8133254966629817	10.218143	3.196583
2.830857560030551	9.92474	3.1503556
2.8483896896760337	9.816082	3.1330626
2.865921886010578	9.571371	3.0937634
2.883454149445347	9.448839	3.0738964
2.9009864803915177	9.341156	3.0563304
2.91851887926028	9.18629	3.0308893
2.9360513464628384	9.061375	3.0102117
2.953583882410413	8.893683	2.982228
2.9711164875142373	8.77699	2.9625986
2.9886491621855606	8.715072	2.95213
3.0061819068356455	8.519996	2.918903
3.023714721875769	8.520342	2.9189625
3.041247607717225	8.375373	2.8940237
3.0587805647713213	8.21262	2.8657668
3.0763135934493806	8.255535	2.8732448
3.0938466941627407	8.240523	2.8706312
3.1113798673227544	8.232109	2.8691652
3.1289131133407904	8.043001	2.8360186
3.1464464326282315	7.8701935	2.8053865
3.1639798255964786	7.7854724	2.790246
3.1815132926569443	7.69587	2.774143
3.1990468342210603	7.7820992	2.7896414
3.216580450700272	7.7650256	2.7865796
3.2341141425060416	7.667329	2.768994
3.251647910049847	7.3782773	2.7162983
3.2691817537431813	7.235366	2.6898634
3.286715673997555	7.169942	2.6776748
3.3042496712244938	7.1651926	2.6767879
3.32178374583554	7.177641	2.679112
3.339317898242251	7.1194153	2.6682231
3.3568521288562034	6.9906673	2.643987
3.3743864380889876	6.930021	2.6324933
3.3919208263522127	6.843138	2.6159394
3.4094552940575023	6.7633414	2.6006424
3.4269898416164972	6.6541357	2.5795612
3.444524469440858	6.5599546	2.561241
3.4620591779422587	6.4491787	2.5395234
3.479593967532391	6.443432	2.5383916
3.4971288386229658	6.38532	2.5269191
3.5146637916257086	6.388309	2.5275104
3.5321988269523628	6.464041	2.5424478
3.5497339450146903	6.4808364	2.5457487
3.5672691462244708	6.4558773	2.5408418
3.5848044309934988	6.3197064	2.5139027
3.60233979973359	6.1967726	2.4893317
3.619875252856575	6.153035	2.4805312
3.6374107907743034	6.1752386	2.4850028
3.6549464138986427	6.2759433	2.5051832
3.6724821226414788	6.3779187	2.525454
3.690017917414714	6.4006376	2.5299482
3.7075537986302702	6.4547205	2.5406141
3.7250897667000857	6.572453	2.5636797
3.7426258220361235	6.652814	2.579305
3.7601619650503553	6.889181	2.6247249
3.777698196154779	7.346171	2.710382
3.7952345157614067	8.355193	2.890535
3.8127709242822716	9.330426	3.0545747
3.830307422129425	11.541447	3.3972704
3.847844009714936	30.399038	5.513532
3.8653806874508954	97.88877	9.893875
3.882917455749409	97.18508	9.85825
3.900454315022606	96.95248	9.846445
3.917991265682631	41.49661	6.4417863
3.9355283081416506	11.06818	3.3268874
3.9530654428118495	8.86029	2.9766238
3.970602670105433	7.6211042	2.7606347
3.9881399904346244	6.692632	2.5870123
4.005677404211669	6.6376476	2.5763633
4.023214911848827	6.5282874	2.5550513
4.0407525137583855	6.4802804	2.5456395
4.058290210352644	6.4593515	2.5415254
4.075828002043927	6.363253	2.522549
4.0933658892445814	6.255526	2.501105
4.110903872366966	6.187617	2.487492
4.128441951823468	6.165044	2.4829507
4.145980128026488	6.2856994	2.5071297
4.163518401388452	6.2899737	2.507982
4.181056772321807	6.238772	2.4977534
4.1985952412390155	6.1260777	2.4750915
4.216133808552567	6.100128	2.4698439
4.233672474674966	6.2481017	2.4996202
4.251211240018741	6.4666853	2.5429678
4.268750104996445	6.639272	2.5766785
4.286289070020643	7.4963536	2.737947
4.303828135503928	9.148918	3.0247178
4.3213673018589125	29.528564	5.434019
4.3389065694982305	90.799644	9.528885
4.356445938834537	166.16708	12.890581
4.3739854102805085	171.4061	13.092216
4.391524984248844	172.17136	13.121408
4.409064661152262	136.21147	11.670967
4.426604441403504	96.55309	9.826143
4.444144325415337	75.76536	8.7043295
4.461684313600543	21.7786	4.6667547
4.47922440637193	22.207344	4.7124667
4.496764604142329	20.582401	4.536783
4.5143049073245916	18.634974	4.3168244
4.531845316331589	16.493279	4.0611916
4.5493858315762195	13.560627	3.6824756
4.566926453471405	11.276644	3.3580713
4.584467182430081	9.21279	3.0352578
4.602008018865218	8.077783	2.842144
4.619548963189798	7.504529	2.7394395
4.637090015816834	7.073661	2.6596355
4.654631177159353	6.847761	2.6168227
4.672172447630417	6.623291	2.5735755
4.689713827643102	6.4894567	2.5474412
4.7072553176105085	6.1947045	2.4889164
4.724796917945764	5.974124	2.4442022
4.742338629062015	5.8454604	2.4177387
4.759880451372434	5.712627	2.3901103
4.777422385290215	5.6940193	2.3862145
4.794964431228581	5.6883507	2.3850265
4.812506589600768	5.757563	2.3994923
4.830048860820047	5.788767	2.4059856
4.847591245299709	5.6961684	2.3866646
4.8651337434530655	5.6237884	2.3714528
4.882676355693457	5.492967	2.343708
4.900219082434242	5.572109	2.3605316
4.917761924088813	5.560926	2.3581614
4.935304881070575	5.5796857	2.362136
4.952847953792969	5.578024	2.361784
4.970391142669449	5.5159907	2.3486147
4.9879344481135055	5.538395	2.3533795
5.005477870538642	5.5232725	2.3501644
5.023021410358394	5.539537	2.3536222
5.040565067986324	5.574639	2.3610673
5.05810884383601	5.516324	2.3486855
5.075652738321066	5.492494	2.3436072
5.09319675185512	5.515247	2.3484564
5.110740884851836	5.521197	2.3497226
5.128285137724894	5.409035	2.3257332
5.145829510888007	5.2865195	2.2992432
5.163374004754908	5.27762	2.297307
5.1809186197393595	5.3489337	2.312776
5.198463356255145	5.4000716	2.3238053
5.216008214716077	5.337358	2.3102722
5.233553195535998	5.215982	2.2838523
5.251098299128764	5.2344127	2.287884
5.268643525908272	5.2539816	2.2921565
5.286188876288432	5.331686	2.3090444
5.3037343506831895	5.3222876	2.3070083
5.32127994950651	5.229125	2.286728
5.3388256731723915	5.167954	2.2733135
5.356371522094851	5.1450686	2.2682743
5.373917496687938	5.1966987	2.2796268
5.391463597365729	5.2675633	2.2951174
5.40900982454232	5.3070884	2.303712
5.426556178631843	5.3668027	2.316636
5.444102660048449	5.3365736	2.3101025
5.4616492692063225	5.259662	2.2933953
5.479196006519669	5.1396313	2.2670755
5.496742872402727	5.0635905	2.2502422
5.514289867269756	5.0920577	2.256559
5.531836991535049	5.137498	2.266605
5.549384245612924	5.1632524	2.272279
5.566931629917724	5.182738	2.2765627
5.584479144863822	5.1407485	2.2673218
5.6020267908656205	5.17667	2.2752297
5.619574568337545	5.201552	2.2806911
5.637122477694054	5.1732426	2.2744763
5.654670519349629	5.140354	2.2672348
5.672218693718784	5.1592035	2.271388
5.689767001216059	5.1698585	2.2737322
5.707315442256021	5.2131395	2.28323
5.724864017253266	5.240062	2.2891183
5.7424127266224225	5.2818966	2.2982378
5.75996157077814	5.3127236	2.3049347
5.777510550135105	5.2466097	2.2905478
5.795059665108022	5.2173643	2.2841551
5.812608916111639	5.1452985	2.268325
5.830158303560715	5.284669	2.2988408
5.847707827870055	5.318718	2.3062346
5.86525748945448	5.3803806	2.3195648
5.8828072887288485	5.4599805	2.3366601
5.900357226108044	5.5880146	2.3638983
5.917907302006979	5.719435	2.391534
5.9354575168406	6.373072	2.5244944
5.9530078710238765	6.9767685	2.6413574
5.970558364971812	7.51815	2.7419245
5.988108999099438	7.8689213	2.8051598
6.005659773821818	8.360056	2.891376
6.023210689554039	8.138576	2.852819
6.040761746711227	8.527028	2.9201076
6.058312945708531	7.803507	2.7934759
6.075864286961132	7.2836723	2.698828
6.093415770884244	6.630364	2.5749493
6.1109673978931065	6.223905	2.4947755
6.128519168402993	5.5761795	2.3613935
6.146071082829204	5.371745	2.3177025
6.163623141587075	5.195765	2.279422
6.181175345091969	5.221909	2.2851496
6.198727693759281	5.2680244	2.2952178
6.216280188004435	5.2318673	2.2873275
6.233832828242885	5.129778	2.2649014
6.251385614890126	5.079008	2.2536654
6.268938548361669	5.120396	2.2628293
6.286491629073067	5.060599	2.2495775
6.304044857439898	5.108994	2.2603085
6.321598233877777	5.0743074	2.2526224
6.339151758802344	5.0825257	2.2544458
6.356705432629277	5.0458336	2.2462933
6.37425925577428	4.9775987	2.2310534
6.391813228653095	4.968138	2.2289321
6.409367351681486	4.991242	2.2341087
6.426921625275259	5.019524	2.2404294
6.44447604985025	4.959705	2.2270396
6.46203062582232	4.9935236	2.2346194
6.47958535360737	4.9606457	2.2272508
6.497140233621328	5.0182247	2.2401395
6.514695266280161	5.0504603	2.247323
6.532250451999859	5.1002507	2.2583735
6.549805791196454	5.1081314	2.2601175
6.567361284286002	5.0826893	2.254482
6.584916931684597	5.1179085	2.2622795
6.602472733808367	5.0822296	2.25438
6.6200286910734665	5.081178	2.2541468
6.637584803896092	5.152406	2.2698913
6.655141072692462	5.166827	2.2730656
6.672697497878842	5.169126	2.2735713
6.690254079871514	5.056421	2.2486486
6.707810819086808	5.0660405	2.2507865
6.725367715941078	5.0761137	2.2530231
6.742924770850719	5.110092	2.2605512
6.760481984232151	5.062277	2.2499504
6.778039356501836	5.0292807	2.2426057
6.795596888076266	5.0124345	2.2388468
6.813154579371963	5.033966	2.2436502
6.830712430805492	5.0210752	2.2407756
6.84827044279344	5.046592	2.246462
6.865828615752445	4.980526	2.2317092
6.883386950099159	5.028077	2.2423375
6.900945446250287	5.0543466	2.2481873
6.918504104622553	5.0871363	2.2554681
6.936062925632727	5.0432367	2.2457151
6.953621909697607	5.0063367	2.2374845
6.971181057234028	5.031103	2.243012
6.988740368658859	5.141514	2.2674906
7.006299844389007	5.2800426	2.2978344
7.023859484841407	5.3126564	2.30492
7.041419290433036	5.364419	2.3161216
7.058979261580902	5.4203563	2.3281658
7.0765393987020495	5.7026587	2.388024
7.094099702213559	6.045049	2.4586682
7.111660172532549	6.4951224	2.548553
7.129220810076164	6.859329	2.6190321
7.146781615261595	7.446422	2.7288134
7.16434258850606	7.617148	2.7599182
7.181903730226821	7.9740167	2.8238301
7.1994650408411704	8.019349	2.8318455
7.217026520766437	8.175469	2.8592777
7.234588170419983	8.478482	2.9117835
7.252149990219215	8.553882	2.924702
7.269711980581568	8.439451	2.9050734
7.2872741419245175	8.223676	2.867695
7.304836474665574	7.801713	2.7931547
7.322398979222286	7.5312567	2.7443135
7.339961656012233	7.2555094	2.6936052
7.357524505453039	6.9451666	2.6353683
7.375087527962357	6.6511707	2.5789864
7.392650723957886	6.3155656	2.513079
7.410214093857353	5.9469237	2.4386315
7.427777638078528	5.7195506	2.3915582
7.445341357039213	5.593585	2.365076
7.4629052511572525	5.414571	2.3269231
7.480469320850524	5.3355126	2.3098729
7.498033566536948	5.2414002	2.2894104
7.5155979886344735	5.2085876	2.282233
7.5331625875610975	5.181529	2.2762973
7.550727363734844	5.195228	2.2793043
7.568292317573788	5.229402	2.2867887
7.585857449496025	5.2233195	2.2854583
7.603422759919705	5.2297916	2.2868738
7.620988249263007	5.2405295	2.2892203
7.638553917944147	5.2680283	2.2952185
7.656119766381391	5.2611575	2.2937214
7.673685794993023	5.2697473	2.295593
7.691252004197388	5.285383	2.2989962
7.70881839441285	5.288745	2.2997272
7.726384966057826	5.28441	2.2987845
7.743951719550762	5.3021264	2.3026347
7.761518655310149	5.351011	2.3132253
7.779085773754511	5.4172997	2.3275094
7.796653075302419	5.394015	2.322502
7.814220560372475	5.345384	2.3120086
7.831788229383323	5.332781	2.3092813
7.8493560827536495	5.428933	2.330007
7.866924120902174	5.4601564	2.3366978
7.884492344247663	5.4229317	2.328719
7.9020607532089135	5.3671885	2.3167193
7.919629348204771	5.3844357	2.3204386
7.937198129654115	5.4384613	2.3320508
7.954767097975865	5.451375	2.334818
7.972336253588986	5.4730077	2.339446
7.989905596912472	5.4109964	2.326155
8.007475128365371	5.377319	2.3189046
8.025044848366756	5.4096336	2.325862
8.042614757335754	5.5452733	2.3548405
8.060184855691523	5.6596885	2.37901
8.07775514385327	5.8318224	2.4149168
8.095325622240228	5.932799	2.4357338
8.112896291271687	6.001007	2.4496953
8.130467151366968	5.9621983	2.4417613
8.148038202945436	5.9470053	2.4386482
8.165609446426497	5.930194	2.435199
8.183180882229594	5.9565806	2.4406106
8.200752510774217	5.9515357	2.4395769
8.218324332479893	5.9671597	2.4427772
8.235896347766193	5.9342084	2.436023
8.253468557052724	5.9607625	2.4414673
8.27104096075914	5.952228	2.439719
8.288613559305137	6.022045	2.4539855
8.306186353110448	6.1312284	2.4761317
8.32375934259485	6.26469	2.5029364
8.341332528178162	6.2484493	2.4996898
8.358905910280246	6.232864	2.4965703
8.376479489321003	6.1825147	2.4864664
8.394053265720377	6.2139077	2.4927711
8.411627239898356	6.216409	2.4932728
8.42920141227497	6.257295	2.5014586
8.44677578327029	6.2500596	2.500012
8.464350353304427	6.2266245	2.4953206
8.48192512279754	6.180796	2.4861207
8.499500092169827	6.161974	2.4823325
8.51707526184153	6.192099	2.4883928
8.534650632232934	6.196885	2.4893544
8.552226203764365	6.167402	2.4834254
8.569801976856192	6.228264	2.495649
8.587377951928834	6.2312164	2.4962404
8.60495412940274	6.3292565	2.5158014
8.622530509698416	6.3583703	2.521581
8.6401070932364	6.503198	2.5501368
8.657683880437283	6.615213	2.5720055
8.675260871721695	6.8218584	2.6118689
8.692838067510303	7.0674853	2.6584742
8.710415468223834	7.1977954	2.6828706
8.727993074283043	7.3499727	2.7110834
8.745570886108737	7.283587	2.6988122
8.763148904121765	7.3150887	2.704642
8.78072712874302	7.336068	2.7085178
8.798305560393441	7.5453444	2.746879
8.815884199494006	7.6718774	2.7698154
8.833463046465745	7.8258634	2.7974744
8.851042101729728	7.9739895	2.8238254
8.86862136570707	8.283512	2.8781092
8.886200838818924	8.475285	2.9112341
8.903780521486505	8.533387	2.9211962
8.921360414131055	8.646115	2.9404278
8.938940517173874	8.7325945	2.9550962
8.956520831036297	8.84278	2.9736812
8.97410135613971	9.059515	3.0099027
8.99168209290554	9.239834	3.0397096
9.009263041755265	9.508282	3.0835502
9.026844203110405	9.718059	3.1173801
9.044425577392525	9.857528	3.13967
9.062007165023239	9.9395075	3.1526985
9.079588966424197	10.135364	3.1836085
9.097170982017108	10.247341	3.2011468
9.11475321222372	11.322442	3.3648837
9.132335657465825	12.294815	3.5063963
9.149918318165264	12.355176	3.514993
9.167501194743924	13.014846	3.6076095
9.18508428762374	12.747014	3.570296
9.202667597226693	12.780585	3.5749946
9.220251123974803	12.4572	3.529476
9.237834868290143	12.116389	3.4808605
9.255418830594836	11.842239	3.4412556
9.273003011311046	11.313947	3.363621
9.290587410860985	11.001767	3.3168912
9.308172029666911	10.420419	3.2280674
9.32575686815113	10.176251	3.1900237
9.343341926735997	8.8370495	2.9727175
9.360927205843916	8.619806	2.9359508
9.378512705897327	8.3701105	2.8931143
9.396098427318728	8.226585	2.8682024
9.413684370530664	8.165517	2.8575368
9.431270535955722	8.025117	2.8328638
9.448856924016539	7.9008536	2.8108456
9.466443535135806	7.7833643	2.789868
9.484030369736251	7.9097476	2.8124273
9.501617428240658	7.942231	2.8181965
9.519204711071852	7.9905496	2.826756
9.536792218652714	7.992144	2.827038
9.55437995140617	7.993416	2.8272629
9.571967909755191	8.0023985	2.828851
9.589556094122802	8.020275	2.832009
9.60714450493207	8.101658	2.8463411
9.624733142606116	8.063262	2.8395884
9.642322007568108	8.074385	2.8415463
9.659911100241267	8.076055	2.84184
9.677500421048851	8.058657	2.8387773
9.695089970414175	8.094635	2.8451073
9.712679748760609	8.048372	2.8369653
9.730269756511557	8.145716	2.85407
9.747859994090492	8.155733	2.8558245
9.765450461920915	8.250955	2.8724475
9.78304116042639	8.294142	2.879955
9.800632090030527	8.342738	2.8883798
9.81822325115699	8.327075	2.885667
9.835814644229481	8.334018	2.88687
9.853406269671762	8.361626	2.8916476
9.870998127907646	8.410521	2.9000897
9.888590219360985	8.400554	2.898371
9.906182544455698	8.382692	2.895288
9.923775103615734	8.357952	2.8910122
9.941367897265108	8.361378	2.8916047
9.958960925827878	8.300335	2.88103
9.97655418972816	8.341416	2.888151
9.994147689390106	8.356983	2.8908448
10.011741425237934	8.407764	2.8996146
10.029335397695904	8.450602	2.906992
10.04692960718833	8.393575	2.8971667
10.06452405413958	8.397803	2.8978963
10.082118738974064	8.323488	2.8850455
10.099713662116246	8.3082	2.8823948
10.117308823990651	8.298859	2.880774
10.134904225021844	8.352323	2.8900385
10.152499865634445	8.364246	2.8921006
10.170095746253125	8.296533	2.8803701
10.18769186730261	8.210198	2.8653443
10.205288229207675	8.131369	2.8515556
10.222884832393145	8.139316	2.8529487
10.2404816772839	8.152198	2.8552053
10.258078764304868	8.11197	2.848152
10.275676093881035	8.121804	2.8498778
10.293273666437438	8.135292	2.8522434
10.310871482399158	8.2404	2.8706098
10.32846954219134	8.292796	2.8797216
10.346067846239173	8.276199	2.8768384
10.363666394967908	8.285302	2.87842
10.38126518880283	8.297647	2.8805637
10.398864228169298	8.3949795	2.8974092
10.416463513492713	8.411517	2.9002616
10.434063045198531	8.274971	2.8766248
10.451662823712262	8.224444	2.8678293
10.469262849459467	8.258711	2.8737972
10.486863122865758	8.21832	2.8667612
10.504463644356806	8.266979	2.8752356
10.522064414358338	8.096754	2.8454795
10.539665433296118	7.9809365	2.8250551
10.557266701595987	7.873583	2.8059905
10.574868219683818	7.790478	2.7911427
10.592469987985552	7.700729	2.7750187
10.610072006927185	7.621059	2.7606266
10.627674276934751	7.5372205	2.7454
10.64527679843435	7.443206	2.728224
10.662879571852143	7.332097	2.7077844
10.680482597614331	7.303531	2.7025046
10.698085876147173	7.1640434	2.676573
10.715689407876988	7.0573387	2.6565652
10.733293193230146	6.929348	2.6323655
10.750897232633072	6.8277664	2.6129994
10.76850152651225	6.7823653	2.6042974
10.786106075294207	6.680853	2.5847347
10.803710879405534	6.559063	2.5610669
10.821315939272877	6.437019	2.537128
10.83892125532294	6.3543344	2.5207806
10.856526827982472	6.2893806	2.5078638
10.874132657678285	6.2972727	2.5094366
10.891738744837243	6.3257694	2.5151083
10.909345089886271	6.2898507	2.5079575
10.926951693252343	6.2632637	2.5026515
10.944558555362494	6.1393814	2.4777775
10.96216567664381	6.0683217	2.4633963
10.979773057523436	5.9303613	2.4352334
10.997380698428573	5.819508	2.4123657
11.014988599786477	5.733034	2.3943756
11.032596762024461	5.7083807	2.3892217
11.050205185569892	5.6882486	2.385005
11.067813870850198	5.647005	2.3763428
11.085422818292859	5.6156077	2.3697274
11.10303202832541	5.582642	2.3627615
11.120641501375454	5.561118	2.3582022
11.138251237870636	5.442559	2.3329291
11.155861238238671	5.3534813	2.313759
11.173471502907317	5.248284	2.2909133
11.191082032304402	5.135329	2.2661264
11.208692826857805	5.08997	2.2560961
11.226303886995465	5.0812154	2.2541552
11.243915213145371	5.038887	2.2447464
11.261526805735578	4.9658003	2.2284076
11.279138665194196	4.871284	2.2070985
11.296750791949393	4.8439536	2.2008984
11.314363186429393	4.789379	2.188465
11.331975849062479	4.735062	2.17602
11.34958878027699	4.6478744	2.1558928
11.36720198050133	4.6092496	2.1469164
11.384815450163948	4.620486	2.1495316
11.402429189693366	4.597071	2.1440783
11.420043199518153	4.5622897	2.1359518
11.437657480066942	63.452293	7.965695
11.455272031768422	85.16065	9.228253
11.472886855051353	107.54277	10.370283
11.490501950344528	99.13297	9.956554
11.508117318076819	84.41837	9.187947
11.52573295867715	45.810905	6.7683754
11.543348872574514	4.149873	2.0371237
11.560965060197946	4.20245	2.0499878
11.57858152197655	4.177077	2.0437899
11.59619825833949	4.1169696	2.0290318
11.613815269715985	4.011715	2.0029266
11.631432556535323	38.491142	6.204123
11.649050119226837	83.01444	9.111226
11.666667958219929	93.42966	9.665902
11.68428607394406	107.74815	10.38018
11.701904466828756	82.58168	9.087446
11.719523137303586	65.47126	8.091432
11.737142085798196	4.6919413	2.1660888
11.754761312742286	3.768549	1.9412751
11.772380818565619	3.6824229	1.918964
11.790000603698015	3.6105528	1.9001454
11.80762066856935	3.597279	1.8966495
11.825241013609572	3.5952456	1.8961133
11.842861639248683	3.5767312	1.8912247
11.860482545916748	3.5626044	1.8874862
11.878103734043883	3.492369	1.8687881
11.895725204060282	3.4627373	1.8608432
11.91334695639619	3.4500523	1.8574317
11.930968991481919	3.415114	1.8480027
11.948591309747824	3.3876412	1.8405546
11.966213911624347	3.3380914	1.8270445
11.98383679754198	3.3115945	1.8197787
12.001459967931268	3.2935765	1.8148214
12.019083423222835	3.267723	1.8076844
12.036707163847352	3.2508135	1.8030013
12.05433119023556	3.2414572	1.8004048
12.071955502818259	3.2111583	1.7919705
12.089580102026313	3.2375267	1.7993128
12.107204988290643	3.2318964	1.7977476
12.12483016204224	3.2327814	1.7979937
12.142455623712152	3.1560314	1.7765223
12.16008137373149	3.0881946	1.757326
12.177707412531431	3.0607135	1.7494895
12.19533374054321	3.075914	1.7538284
12.212960358198126	3.0439658	1.7446965
12.230587265927545	3.007181	1.7341225
12.248214464162889	3.0149846	1.7363712
12.265841953335649	3.0093625	1.7347515
12.283469733877375	3.029081	1.7404256
12.301097806219685	3.0299304	1.7406695
12.31872617079425	3.0249908	1.7392501
12.336354828032825	3.0288582	1.7403615
12.353983778367205	2.9608111	1.7207007
12.371613022229262	2.9361129	1.713509
12.389242560050928	2.9206681	1.7089962
12.406872392264201	2.9153123	1.7074286
12.424502519301143	2.8910937	1.7003217
12.442132941593874	2.8928638	1.700842
12.459763659574586	2.9120493	1.7064728
12.477394673675532	2.9322445	1.7123798
12.49502598432903	2.9301796	1.7117767
12.51265759196746	2.9116175	1.7063463
12.530289497023267	2.9401608	1.7146897
12.547921699928967	2.9169238	1.7079004
12.565554201117134	2.93921	1.7144125
12.583187001020404	2.9014745	1.7033715
12.600820100071486	2.8658843	1.6928923
12.618453498703152	2.8184533	1.678825
12.636087197348235	2.8215241	1.6797394
12.65372119643964	2.8280554	1.6816823
12.671355496410326	2.8257172	1.680987
12.68899009769333	2.8162923	1.6781813
12.706625000721749	2.8655896	1.6928053
12.724260205928752	2.9322922	1.7123938
12.741895713747551	2.983256	1.7272105
12.759531524611454	2.9994628	1.7318957
12.777167638953818	2.987006	1.7282957
12.794804057208072	3.0251224	1.7392879
12.812440779807702	3.0775852	1.7543048
12.830077807186271	3.227264	1.7964587
12.847715139777405	3.248793	1.8024408
12.865352778014795	3.4494019	1.8572565
12.882990722332197	3.5418484	1.88198
12.90062897316344	3.6607869	1.9133183
12.918267530942412	3.7722063	1.9422169
12.935906396103071	3.6149893	1.9013125
12.953545569079449	3.761695	1.9395089
12.971185050305628	3.5811512	1.892393
12.988824840215775	3.6326945	1.9059628
13.006464939244115	3.6722796	1.9163193
13.024105347824943	3.5064662	1.8725561
13.041746066392617	3.5756063	1.8909274
13.05938709538157	3.3452954	1.8290149
13.077028435226296	3.3204486	1.8222098
13.094670086361363	3.2695343	1.8081853
13.112312049221401	3.1979399	1.7882785
13.129954324241112	3.1375806	1.7713218
13.147596911855258	2.9672797	1.7225794
13.165239812498685	2.9244866	1.710113
13.182883026606293	2.8642135	1.6923988
13.200526554613058	2.7775927	1.6666111
13.218170396954017	2.7490308	1.6580201
13.235814554064284	2.7257993	1.6509995
13.253459026379034	2.744481	1.6566476
13.271103814333523	2.7237165	1.6503686
13.288748918363058	2.7137275	1.6473395
13.306394338903031	2.723883	1.650419
13.32404007638889	2.7080474	1.6456146
13.341686131256164	2.7173545	1.64844
13.359332503940449	2.690803	1.6403668
13.376979194877402	2.7045128	1.6445403
13.394626204502751	2.7479029	1.6576799
13.412273533252307	2.7416697	1.6557988
13.429921181561937	2.7297068	1.6521825
13.447569149867581	2.7147443	1.6476481
13.465217438605247	2.7496428	1.6582047
13.482866048211022	2.7621133	1.6619607
13.500514979121052	2.7449467	1.6567881
13.518164231771568	2.7028363	1.6440305
13.535813806598844	2.691791	1.6406679
13.553463704039254	2.718173	1.6486883
13.571113924529229	2.7129297	1.6470973
13.588764468505275	2.7169945	1.6483308
13.606415336403956	2.7359087	1.6540582
13.624066528661917	2.7381356	1.6547313
13.641718045715882	2.7900019	1.6703298
13.659369888002635	2.8310738	1.6825795
13.67702205595903	2.9045212	1.7042656
13.694674550021993	2.9570696	1.7196132
13.712327370628532	3.0349977	1.7421244
13.729980518215713	3.1235209	1.7673485
13.747633993220681	3.2035723	1.7898526
13.765287796080647	3.245617	1.8015596
13.7829419272329	3.2980666	1.816058
13.800596387114801	3.3059976	1.8182403
13.818251176163775	3.3383636	1.827119
13.835906294817324	3.372207	1.836357
13.853561743513023	3.4431927	1.8555841
13.871217522688525	3.5365257	1.8805653
13.888873632781538	3.5798812	1.8920574
13.906530074229858	3.6068068	1.8991594
13.92418684747135	3.5908575	1.8949558
13.941843952943948	3.5964236	1.8964239
13.959501391085665	3.5577538	1.8862009
13.977159162334578	3.4875407	1.8674959
13.994817267128846	3.3878405	1.8406087
14.012475705906693	3.2824745	1.8117601
14.030134479106424	3.1715803	1.7808931
14.047793587166414	3.1276863	1.7685266
14.065453030525108	3.112103	1.7641153
14.083112809621026	3.0277069	1.7400308
14.100772924892766	2.944607	1.7159858
14.118433376778997	2.8575308	1.6904233
14.136094165718458	2.8020866	1.6739434
14.153755292149969	2.7708223	1.6645787
14.171416756512416	2.740359	1.655403
14.189078559244768	2.7272806	1.651448
14.20674070078606	2.676766	1.6360825
14.224403181575408	2.6137655	1.6167144
14.242066002051999	2.5452619	1.5953877
14.259729162655093	2.496512	1.5800354
14.277392663824022	2.4492517	1.5650085
14.295056505998208	2.45974	1.5683558
14.312720689617128	2.425652	1.5574505
14.330385215120348	2.4350653	1.5604695
14.348050082947497	2.4569857	1.5674775
14.3657152935383	2.4414167	1.5625033
14.383380847332528	2.4392476	1.5618091
14.401046744770051	2.4235249	1.5567675
14.418712986290798	2.4559662	1.5671523
14.436379572334793	2.4699671	1.571613
14.454046503342123	2.4675481	1.5708431
14.471713779752946	2.4207532	1.555877
14.489381402007504	2.3949664	1.5475678
14.507049370546113	2.3855073	1.5445088
14.524717685809168	2.3957984	1.5478367
14.542386348237134	2.4240842	1.5569471
14.560055358270553	2.4513905	1.5656917
14.577724716350051	2.4815657	1.5752987
14.595394422916325	2.4823725	1.5755547
14.61306447841015	2.4940326	1.5792507
14.63073488327237	2.4954872	1.5797111
14.648405637943917	2.5213768	1.5878844
14.6660767428658	2.5056572	1.5829268
14.683748198479094	2.555389	1.5985584
14.701420005224954	2.6011806	1.6128175
14.719092163544628	2.6675172	1.6332536
14.73676467387942	2.694218	1.6414073
14.754437536670727	2.7014194	1.6435995
14.772110752360014	2.7143836	1.6475387
14.78978432138882	2.7279181	1.651641
14.807458244198777	2.724857	1.6507142
14.82513252123159	2.7053668	1.6448
14.842807152929028	2.7118084	1.646757
14.860482139732962	2.7051613	1.6447375
14.87815748208531	2.7078326	1.6455493
14.8958331804281	2.711817	1.6467595
14.91350923520342	2.6886647	1.6397148
14.931185646853438	2.714209	1.6474857
14.948862415820408	2.7073371	1.6453987
14.966539542546656	2.6965578	1.6421199
14.98421702747459	2.623307	1.6196626
15.001894871046696	2.6089237	1.6152163
15.019573073705542	2.6126678	1.6163749
15.037251635893766	2.6305509	1.6218973
15.054930558054092	2.676209	1.6359123
15.072609840629323	2.767937	1.6637118
15.090289484062351	2.877709	1.6963811
15.107969488796124	3.1400788	1.7720268
15.125649855273691	3.568393	1.889019
15.14333058393817	4.094243	2.0234237
15.161011675232768	5.0309076	2.2429686
15.17869312960076	6.341949	2.5183227
15.196374947485506	8.209438	2.8652117
15.214057129330447	11.336537	3.3669775
15.231739675579114	16.227737	4.0283666
15.249422586675102	21.442684	4.630625
15.267105863062092	24.676908	4.9675856
15.284789505183847	25.046616	5.004659
15.302473513484218	23.075209	4.803666
15.320157888407127	19.53724	4.420095
15.337842630396578	15.271722	3.907905
15.355527739896656	11.882466	3.4470954
15.37321321735153	9.169119	3.0280552
15.39089906320545	6.632676	2.5753982
15.408585277902748	4.9289293	2.2201192
15.42627186188783	3.8069253	1.9511343
15.443958815605198	3.2568073	1.8046627
15.461646139499424	2.9934886	1.7301701
15.479333834015168	2.828686	1.6818697
15.497021899597165	2.7731285	1.6652713
15.514710336690234	2.709107	1.6459365
15.53239914573928	2.6950786	1.6416695
15.550088327189297	2.6315618	1.622209
15.567777881485336	2.598749	1.6120635
15.58546780907256	2.5402775	1.5938247
15.6031581103962	2.5306988	1.590817
15.620848785901568	2.497697	1.5804105
15.638539836034063	2.482451	1.5755795
15.656231261239173	2.493258	1.5790054
15.673923061962451	2.4739952	1.5728939
15.691615238649552	2.4529293	1.566183
15.709307791746202	2.4005575	1.5493733
15.727000721698221	2.3878083	1.5452535
15.744694028951498	2.3850842	1.5443717
15.76238771395202	2.3740811	1.5408053
15.780081777145844	2.38389	1.5439851
15.797776218979125	2.3561082	1.5349619
15.815471039898094	2.4095428	1.5522702
15.833166240349064	2.415867	1.554306
15.850861820778437	2.4256241	1.5574416
15.868557781632699	2.393906	1.5472252
15.886254123358412	2.3925557	1.5467888
15.903950846402232	2.3679948	1.5388291
15.921647951210897	2.3416934	1.5302593
15.939345438231225	2.3445039	1.5311773
15.957043307910133	2.3558578	1.5348804
15.974741560694602	2.4002464	1.5492729
15.992440197031714	2.3770368	1.5417641
16.01013921736862	2.3941557	1.547306
16.02783862215259	2.3924499	1.5467546
16.045538411830933	2.4204454	1.555778
16.06323858685107	2.4138465	1.5536559
16.080939147660512	2.4204674	1.5557852
16.09864009470684	2.4554486	1.5669872
16.11634142843774	2.4968026	1.5801274
16.134043149300954	2.4744968	1.5730534
16.15174525774433	2.4674048	1.5707976
16.169447754215817	2.4622133	1.5691441
16.18715063916342	2.4736848	1.5727953
16.204853913035244	2.4847748	1.5763168
16.222557576279478	2.4862883	1.5767969
16.240261629344403	22.45491	4.7386613
16.257966072678386	42.986816	6.556433
16.275670906729868	38.096355	6.1722245
16.293376131947387	2.537721	1.5930226
16.31108174877957	2.5268521	1.5896076
16.328787757675133	2.5546315	1.5983214
16.34649415908287	2.5844536	1.6076236
16.364200953451657	2.633605	1.6228386
16.38190814123048	2.644775	1.6262764
16.39961572286839	2.6371956	1.6239444
16.41732369881455	2.655703	1.6296328
16.43503206951817	2.7055664	1.6448606
16.45274083542859	2.7637002	1.662438
16.47044999699522	2.8091223	1.6760436
16.488159554667558	2.8513458	1.6885928
16.505869508895184	2.9055834	1.7045772
16.523579860127786	2.9488497	1.7172215
16.541290608815117	2.9435575	1.7156799
16.559001755407035	2.9614263	1.7208796
16.57671330035348	3.034541	1.7419933
16.59442524410448	3.1350904	1.7706187
16.61213758711015	3.2343433	1.798428
16.629850329820705	3.265185	1.8069823
16.647563472686436	3.3366003	1.8266363
16.665277016157724	3.3726535	1.8364786
16.682990960685053	3.4144595	1.8478256
16.70070530671898	3.4607155	1.8602998
16.718420054710155	3.4914482	1.8685417
16.736135205109335	3.5428324	1.8822414
16.753850758367335	3.5657966	1.8883317
16.771566714935087	3.6493793	1.9103348
16.789283075263597	3.7123837	1.9267547
16.80699983980398	3.7715309	1.942043
16.82471700900741	3.8497393	1.9620752
16.84243458332518	3.9609795	1.9902209
16.860152563208665	4.0361657	2.009021
16.87787094910932	4.102476	2.025457
16.89558974147871	4.1210437	2.0300355
16.913308940768466	4.2139316	2.0527864
16.931028547430333	4.28607	2.0702825
16.94874856191613	4.371206	2.0907428
16.966468984677785	4.403778	2.0985181
16.98418981616729	4.4267426	2.1039824
17.00191105683676	4.4265566	2.1039383
17.019632707138374	4.443342	2.1079237
17.03735476752442	4.498214	2.1208992
17.05507723844728	4.5523148	2.1336155
17.072800120359403	4.6181893	2.1489973
17.090523413713353	4.679022	2.1631048
17.108247118961785	4.654586	2.157449
17.125971236557437	4.629494	2.1516259
17.143695766953133	4.6821	2.163816
17.161420710601806	4.7155313	2.1715274
17.179146067956477	4.7149954	2.1714041
17.19687183947025	4.7411995	2.1774297
17.21459802559634	4.7754216	2.185274
17.232324626788028	4.7655025	2.1830032
17.25005164349871	4.729918	2.1748374
17.267779076181863	4.761628	2.1821156
17.285506925291074	4.691732	2.1660407
17.30323519127999	4.605497	2.146042
17.320963874602384	4.505627	2.1226463
17.33869297571211	4.559101	2.1352053
17.356422495063114	4.5641885	2.1363962
17.37415243310944	4.5324326	2.128951
17.391882790305218	4.5210423	2.1262743
17.40961356710468	4.523499	2.1268518
17.42734476396215	4.5955915	2.143733
17.445076381332044	4.6417017	2.154461
17.462808419668868	4.7090006	2.1700232
17.48054087942723	4.810575	2.1933024
17.498273761061835	5.0769105	2.2532
17.51600706502747	5.5623446	2.3584623
17.533740791779024	6.270134	2.5040236
17.551474941771485	7.6760306	2.770565
17.56920951545993	8.683167	2.9467216
17.586944513299528	10.926965	3.3055959
17.60467993574556	12.62949	3.5537994
17.622415783253373	14.410126	3.7960672
17.64015205627843	15.9891205	3.9986398
17.657888755276293	17.270643	4.1557965
17.675625880702604	17.78475	4.217197
17.69336343301311	17.515123	4.185107
17.71110141266366	16.601397	4.074481
17.728839820110178	15.613022	3.9513316
17.746578655808705	14.521413	3.810697
17.764317920215372	12.8712845	3.5876572
17.7820576137864	11.288677	3.3598626
17.79979773697811	9.299908	3.049575
17.81753829024692	7.467181	2.7326143
17.835279274049356	5.8120637	2.4108222
17.85302068884201	4.7847247	2.1874013
17.870762535081607	4.1736736	2.042957
17.888504813224934	3.8400977	1.9596167
17.90624752372891	3.6327536	1.9059784
17.923990667050536	3.5638602	1.8878189
17.941734243646895	3.5148141	1.8747838
17.959478253975185	3.4990754	1.8705816
17.9772226984927	3.5059628	1.8724216
17.994967577656833	3.4498422	1.8573751
18.01271289192506	3.3729703	1.8365648
18.030458641754965	3.318138	1.8215756
18.04820482760425	3.2768745	1.8102139
18.06595144993067	3.3273027	1.8240895
18.083698509192125	3.3289492	1.8245409
18.101446005846576	3.337788	1.8269614
18.119193940352105	3.2797828	1.811017
18.136942313166887	3.23295	1.7980406
18.1546911247492	3.1649065	1.7790184
18.1724403755574	3.1766973	1.7823292
18.19019006604997	3.1928897	1.7868658
18.207940196685467	3.170916	1.7807066
18.225690767922575	3.1234622	1.767332
18.243441780220046	3.067064	1.7513036
18.261193234036764	3.0747783	1.7535046
18.278945129831676	3.103819	1.7617658
18.29669746806386	3.086418	1.7568204
18.314450249192483	3.0640156	1.750433
18.3322034736768	3.0800662	1.7550118
18.349957141976184	3.078608	1.7545962
18.3677112545501	3.0898356	1.7577928
18.385465811858108	3.102753	1.7614633
18.403220814359884	3.0990188	1.760403
18.420976262515172	3.1069283	1.7626481
18.43873215678387	3.1425636	1.7727277
18.456488497625923	3.1877947	1.7854396
18.474245285501407	3.2583363	1.8050863
18.492002520870486	3.2964587	1.8156153
18.50976020419343	3.3573513	1.8323077
18.527518335930615	3.6578088	1.9125398
18.545276916542516	4.253971	2.0625157
18.563035946489688	4.4043593	2.0986567
18.580795426232832	4.8384576	2.1996493
18.598555356232698	4.7178297	2.1720567
18.616315736950185	5.042703	2.2455964
18.63407656884626	4.7082934	2.1698601
18.65183785238201	4.9049616	2.2147148
18.669599588018617	4.6890826	2.1654289
18.68736177621737	4.6900134	2.165644
18.705124417439652	4.6352177	2.1529555
18.72288751214696	4.4309335	2.1049783
18.740651060800886	4.5867987	2.1416812
18.758415063863115	4.3521876	2.0861897
18.77617952179546	4.5575013	2.1348305
18.793944435059814	4.3458586	2.0846722
18.811709804118184	4.3280816	2.0804043
18.829475629432675	4.2685194	2.0660396
18.8472419114655	4.0202894	2.005066
18.86500865067897	4.0955253	2.0237405
18.88277584753551	3.8005707	1.9495052
18.90054350249763	3.854637	1.9633229
18.918311616027957	3.5298383	1.8787864
18.936080188589226	3.417354	1.8486087
18.953849220644265	3.1069515	1.7626547
18.971618712656007	2.9645674	1.7217919
18.9893886650875	2.8965666	1.7019303
19.007159078401887	8.059766	2.8389726
19.024929953062408	32.88813	5.7348175
19.042701289532435	32.857754	5.732168
19.060473088275405	25.4382	5.0436296
19.07824534975489	2.7330422	1.6531916
19.096018074434568	2.7186763	1.6488409
19.113791262778197	2.6885498	1.6396798
19.13156491524966	2.6443064	1.6261324
19.149339032312945	2.6196425	1.618531
19.167113614432136	2.5988088	1.6120821
19.184888662071433	2.5885854	1.6089082
19.202664175695123	2.5710268	1.6034422
19.220440155767623	2.5673702	1.6023015
19.238216602753447	2.5508018	1.5971229
19.2559935171172	2.5400498	1.5937533
19.27377089932361	2.552719	1.5977231
19.291548749837514	2.5401897	1.5937973
19.309327069123835	2.4940724	1.5792632
19.32710585764763	2.5225322	1.5882481
19.344885115874032	2.5650933	1.6015909
19.362664844268313	2.5714958	1.6035885
19.380445043295822	2.5282092	1.5900344
19.39822571342203	2.5011897	1.581515
19.41600685511252	2.517209	1.5865715
19.43378846883297	2.5236483	1.5885994
19.451570555049173	2.535565	1.5923457
19.469353114227037	2.5492127	1.5966254
19.48713614683254	2.5981734	1.6118851
19.50491965333182	2.599019	1.6121473
19.52270363419109	2.5642211	1.6013186
19.540488089876686	2.5094843	1.5841352
19.55827302085503	2.4858654	1.5766628
19.576058427592674	2.488375	1.5774584
19.593844310556282	2.5279138	1.5899415
19.611630670212598	2.5438507	1.5949453
19.629417507028506	2.528806	1.590222
19.64720482147098	2.502798	1.5820234
19.6649926140071	2.5098426	1.5842483
19.682780885104084	2.543809	1.5949323
19.70056963522921	2.552997	1.5978101
19.718358864849908	2.5655239	1.6017252
19.7361485744337	2.553712	1.5980338
19.753938764448215	2.5243602	1.5888236
19.771729435361202	2.4996579	1.5810306
19.789520587640506	2.4779348	1.5741458
19.807312221754092	2.490033	1.5779839
19.825104338170043	2.4887192	1.5775675
19.842896937356517	2.5198476	1.5874028
19.860690019781824	2.5568783	1.5990242
19.87848358591436	2.5451145	1.5953416
19.896277636222635	2.5673823	1.6023053
19.914072171175278	2.5392392	1.5934991
19.931867191241015	2.5262382	1.5894145
19.94966269688869	2.4815087	1.5752805
19.967458688587264	2.4629333	1.5693735
19.985255166805807	2.4836876	1.575972
20.00305213201348	2.4762373	1.5736065
20.020849584679578	2.4574232	1.567617
20.038647525273507	2.4388947	1.5616962
20.05644595426477	2.4702764	1.5717113
20.07424487212299	2.4810135	1.5751233
20.092044279317903	2.4689026	1.5712742
20.109844176319353	2.4623244	1.5691795
20.127644563597304	2.4475188	1.5644548
20.145445441621817	2.427743	1.5581216
20.16324681086307	2.4191582	1.5553644
20.181048671791373	2.4211907	1.5560176
20.198851024877122	2.4449036	1.5636188
20.216653870590836	2.4481184	1.5646465
20.234457209403146	2.425741	1.557479
20.252261041784802	2.393409	1.5470647
20.270065368206662	2.390004	1.5459638
20.287870189139685	2.3814	1.5431786
20.305675505054968	2.3941123	1.547292
20.323481316423702	2.3721256	1.5401707
20.341287623717207	2.3677685	1.5387555
20.359094427406884	2.3350897	1.5281
20.376901727964288	2.3695807	1.5393443
20.39470952586107	2.3976004	1.5484186
20.41251782156899	2.4055698	1.55099
20.430326615559935	2.3852873	1.5444375
20.448135908305886	2.37855	1.5422548
20.465945700278965	2.3451252	1.5313802
20.483755991951384	2.326423	1.5252616
20.50156678379548	2.337607	1.5289234
20.519378076283708	2.3476434	1.5322021
20.537189869888635	2.3395462	1.5295575
20.55500216508294	2.344207	1.5310804
20.572814962339415	2.3298657	1.5263897
20.59062826213098	2.3244216	1.5246054
20.60844206493066	2.3338897	1.5277073
20.626256371211593	2.3302605	1.5265191
20.644071181447032	2.325993	1.5251206
20.66188649611036	2.3438134	1.5309519
20.67970231567506	2.3421755	1.5304167
20.697518640614742	2.3328128	1.5273548
20.715335471403122	2.2951367	1.5149709
20.73315280851404	2.3220775	1.5238365
20.750970652421447	2.3391523	1.5294287
20.768789003599412	2.3428721	1.5306443
20.786607862522136	2.3361034	1.5284317
20.8044272296639	2.3187542	1.5227456
20.82224710549913	2.3119466	1.5205086
20.84006749050237	2.323032	1.5241495
20.857888385148268	3.913605	1.9782833
20.8757097899116	45.97414	6.780423
20.893531705267254	64.816505	8.05087
20.911354131690224	83.8397	9.156402
20.92917706965566	69.139565	8.315021
20.94700051963877	50.197582	7.0850253
20.96482448211493	29.445202	5.4263434
20.982648957559622	4.1789937	2.0442588
21.00047394644843	2.280066	1.5099888
21.01829944925707	2.2842996	1.51139
21.036125466461375	2.2866905	1.5121807
21.053951998537297	2.2724435	1.5074626
21.071779045960906	2.2424908	1.4974948
21.089606609208378	2.2508633	1.5002878
21.10743468875603	2.3050592	1.5182421
21.12526328508028	2.316259	1.521926
21.143092398657675	2.3048995	1.5181895
21.16092202996488	2.2715597	1.5071695
21.17875217947867	2.2735872	1.507842
21.19658284767596	2.2600064	1.5033318
21.21441403503377	2.275796	1.5085741
21.232245742029225	2.2279716	1.4926391
21.2500779691396	2.1915257	1.4803803
21.26791071684227	2.1789002	1.4761099
21.28574398561475	2.1933742	1.4810045
21.30357777593465	2.1701725	1.4731505
21.321412088279704	2.130163	1.4595078
21.339246923127792	2.1103542	1.4527059
21.357082280956888	2.1248367	1.457682
21.3749181622451	2.183582	1.4776949
21.392754567470647	2.1897187	1.4797698
21.41059149711187	2.1532195	1.4673853
21.42842895164726	2.1014216	1.4496281
21.446266931555378	2.1130736	1.4536415
21.464105437314945	2.1112745	1.4530225
21.481944469404798	2.1192248	1.4557557
21.49978402830388	2.1251645	1.4577944
21.51762411449127	2.1387727	1.4624543
21.53546472844617	2.1435971	1.4641029
21.553305870647876	2.1144695	1.4541216
21.571147541575865	2.1214552	1.4565216
21.58898974170967	2.1227722	1.4569737
21.60683247152899	2.116318	1.454757
21.62467573151363	2.0823967	1.4430512
21.642519522143523	2.0779195	1.441499
21.660363843898722	2.1306946	1.4596899
21.6782086972594	2.1226907	1.4569457
21.696054082705864	2.1019168	1.4497988
21.713900000718535	2.1112962	1.45303
21.73174645177795	2.1073575	1.451674
21.749593436364794	2.072987	1.4397871
21.767440954959845	2.0232532	1.4224111
21.785289008044032	2.0186644	1.4207971
21.803137596098388	2.0040972	1.4156615
21.820986719604086	2.0339475	1.4261653
21.838836379042412	2.0344512	1.4263419
21.85668657489478	2.0143635	1.4192828
21.87453730764273	1.9982165	1.4135829
21.892388577767914	2.0397232	1.4281888
21.91024038575213	2.047022	1.4307418
21.928092732077285	2.0326548	1.425712
21.945945617225426	2.0131054	1.4188395
21.963799041678694	2.0146434	1.4193814
21.981653005919398	31.349998	5.599107
21.999507510429943	78.15775	8.840688
22.01736255569286	73.12909	8.551555
22.035218142190818	4.210566	2.0519664
22.05307427040661	2.0337448	1.4260943
22.07093094082315	2.0301092	1.424819
22.088788153923474	2.0160344	1.4198712
22.106645910190746	1.9825512	1.408031
22.12450421010827	1.9984435	1.4136631
22.142363054159464	2.0046735	1.415865
22.16022244282787	1.9875839	1.409817
22.178082376597164	1.936698	1.391653
22.195942855951145	1.974414	1.4051384
22.213803881373742	2.0070171	1.4166924
22.231665453349002	2.012713	1.4187012
22.24952757236111	2.0050237	1.4159886
22.26739023889438	1.9746044	1.4052062
22.28525345343323	1.943807	1.3942047
22.30311721646225	1.9545193	1.3980412
22.320981528466113	1.9598724	1.3999544
22.33884638992964	1.9566191	1.398792
22.356711801337788	1.9483818	1.3958445
22.37457776317561	1.9570534	1.3989472
22.392444275928337	1.965945	1.4021217
22.410311340081282	1.9428376	1.3938571
22.428178956119904	1.922815	1.386656
22.446047124529805	1.9241858	1.3871502
22.46391584579669	1.976	1.4057027
22.481785120406414	1.9752004	1.4054183
22.49965494884496	1.9595495	1.3998392
22.51752533159841	1.953567	1.3977007
22.53539626915302	1.9735798	1.4048415
22.553267761995137	1.9784768	1.4065833
22.571139810611264	1.979233	1.4068521
22.589012415488025	1.9587638	1.3995584
22.60688557711216	1.9270489	1.3881819
22.624759295970566	1.9179076	1.3848854
22.642633572550263	1.9286482	1.3887578
22.660508407338362	1.9249724	1.3874338
22.67838380082217	1.915874	1.384151
22.696259753489077	1.9241955	1.3871537
22.714136265826614	1.967182	1.4025626
22.73201333832246	2.004701	1.4158746
22.74989097146439	1.9942343	1.4121736
22.76776916574035	1.9504421	1.3965822
22.785647921638393	1.924858	1.3873925
22.803527239646712	1.9175531	1.3847574
22.82140712025363	1.9432453	1.3940034
22.839287563947593	1.9421939	1.3936262
22.85716857121719	1.9855974	1.4091122
22.875050142551135	1.9971334	1.4131997
22.892932278438277	1.9866278	1.4094778
22.910814979367604	1.9323417	1.3900869
22.928698245828222	1.9005922	1.3786197
22.946582078309387	1.8809394	1.3714734
22.96446647730047	1.874997	1.3693053
22.98235144329098	1.8873837	1.3738208
23.000236976770562	1.8861163	1.3733594
23.018123078229	1.9135834	1.3833233
23.03600974815619	1.916588	1.3844088
23.053896987042194	1.9185927	1.3851328
23.071784795377173	1.9136629	1.383352
23.08967317365145	1.9206383	1.3858709
23.10756212235546	1.9098612	1.3819773
23.125451641979787	1.8800365	1.3711442
23.143341733015134	1.8701926	1.3675499
23.161232395952357	1.9028124	1.3794247
23.179123631282426	1.9535043	1.3976781
23.197015439496468	1.9825574	1.4080331
23.214907821085717	2.0105095	1.4179244
23.23280077654157	1.9600674	1.400024
23.250694306355538	1.9140896	1.3835063
23.268588411019277	1.9028943	1.3794544
23.28648309102458	1.9327703	1.390241
23.304378346863356	1.9480853	1.3957382
23.322274179027676	1.9233336	1.3868431
23.340170588009723	1.88591	1.3732843
23.358067574301852	1.9092958	1.3817728
23.37596513839651	1.9356275	1.3912683
23.39386328078629	1.9238058	1.3870133
23.411762001963947	1.8947386	1.376495
23.429661302422353	1.9197034	1.3855336
23.4475611826545	1.9636568	1.4013054
23.46546164315356	1.9722742	1.4043767
23.48336268441279	1.9638275	1.4013664
23.501264306925638	1.9448222	1.3945688
23.51916651118564	1.9624133	1.4008616
23.537069297686497	1.964319	1.4015416
23.554972666922037	1.9915812	1.4112339
23.57287661938623	2.0068328	1.4166273
23.59078115557318	1.9964229	1.4129483
23.608686275977128	1.9561706	1.3986317
23.62659198109246	1.9327418	1.3902308
23.6444982714137	1.9059502	1.3805616
23.66240514743549	1.9186311	1.3851466
23.68031260965263	1.9137081	1.3833684
23.698220658560068	1.8837872	1.3725113
23.716129294652845	1.9143225	1.3835905
23.7340385184262	1.9146345	1.3837031
23.75194833037546	1.9631525	1.4011254
23.769858730996123	1.9471366	1.3953984
23.78776972078382	1.9135648	1.3833166
23.80568130023431	1.9136007	1.3833295
23.823593469843495	1.8793614	1.370898
23.841506230107424	1.8950381	1.3766038
23.859419581522275	1.8874736	1.3738536
23.87733352458438	1.9190261	1.3852892
23.89524805979019	1.9438744	1.3942289
23.913163187636318	1.9778996	1.4063781
23.931078908619508	1.9738346	1.4049323
23.948995223236633	1.9717853	1.4042027
23.966912131984735	1.9829603	1.4081763
23.98482963536096	2.0194175	1.4210621
24.002747733862616	2.0397837	1.42821
24.020666427987155	2.056838	1.4341681
24.038585718232156	2.0492282	1.4315126
24.056505605095353	2.0553277	1.4336414
24.074426089074617	2.075567	1.4406828
24.092347170667946	2.0695624	1.4385974
24.110268850373515	2.0813403	1.4426851
24.128191128689586	2.1306865	1.4596871
24.146114006114626	2.13215	1.4601883
24.164037483147187	2.108133	1.4519411
24.181961560286005	2.0669768	1.4376985
24.199886238029926	2.0525985	1.4326892
24.21781151687797	2.065974	1.4373497
24.235737397329274	2.1269534	1.4584078
24.253663879883135	2.1686776	1.472643
24.271590965038975	2.0992012	1.4488621
24.289518653296376	2.0224123	1.4221154
24.30744694515505	2.0329819	1.4258268
24.32537584111486	2.0526254	1.4326986
24.34330534167581	2.0262232	1.4234546
24.361235447338046	2.037284	1.4273345
24.379166158601876	2.0547566	1.4334422
24.39709747596772	2.0634131	1.4364586
24.41502939993615	2.0793505	1.4419953
24.432961931007917	2.101696	1.4497228
24.450895069683856	2.0551107	1.4335657
24.468828816465	2.00814	1.4170886
24.4867631718525	1.9677262	1.4027567
24.504698136347656	1.9944389	1.412246
24.52263371045192	2.0213273	1.4217339
24.540569894666874	2.025944	1.4233567
24.558506689494266	1.9915477	1.4112221
24.57644409543597	1.9675801	1.4027046
24.594382112994012	2.002401	1.4150622
24.61232074267057	2.0299606	1.4247669
24.630259984967953	2.0228076	1.4222544
24.64819984038863	1.9938484	1.412037
24.66614030943522	1.9859897	1.4092515
24.684081392610462	1.999748	1.4141245
24.702023090417274	2.0421236	1.4290289
24.7199654033587	2.0301425	1.4248307
24.737908331937927	2.0608299	1.435559
24.755851876658305	2.0931642	1.4467772
24.773796038023324	2.0734525	1.4399488
24.79174081653661	2.0749834	1.4404802
24.809686212701962	2.032175	1.4255438
24.827632227023294	2.1124597	1.4534303
24.8455788600047	2.139219	1.4626069
24.8635261121504	2.152832	1.4672532
24.88147398396475	2.1109767	1.4529201
24.899422475952303	2.105259	1.4509511
24.917371588617698	2.134965	1.461152
24.935321322465768	2.2163374	1.4887369
24.953271678001478	2.3226352	1.5240194
24.97122265572994	2.5115378	1.5847832
24.989174256156414	2.834582	1.6836218
25.00712647978632	3.2741773	1.8094687
25.02507932712521	3.7895215	1.9466693
25.043032798678798	4.347093	2.0849683
25.060986894952933	5.0600615	2.249458
25.078941616453637	5.923117	2.4337454
25.096896963687055	6.8584	2.6188548
25.114852937159508	7.9513974	2.8198223
25.132809537377444	8.366593	2.8925064
25.150766764847468	8.421072	2.9019084
25.168724620076347	7.873624	2.8059978
25.186683103570985	6.834668	2.6143198
25.204642215838426	5.661497	2.37939
25.222601957385894	4.2579665	2.0634842
25.24056232872074	3.2231092	1.795302
25.25852333035048	2.614125	1.6168256
25.276484962782778	2.2340171	1.4946629
25.294447226525435	2.0488865	1.4313933
25.312410122086423	1.9810627	1.4075023
25.330373649973843	1.9625117	1.4008968
25.348337810695988	1.9640317	1.4014392
25.366302604761245	1.9357553	1.3913143
25.384268032678207	1.9285203	1.3887117
25.40223409495558	1.9502205	1.396503
25.420200792102257	1.9266238	1.3880287
25.438168124627246	1.8932447	1.3759524
25.45613609303974	1.9299569	1.3892289
25.474104697849057	1.966367	1.4022721
25.492073939564698	1.9666756	1.4023821
25.510043818696285	1.916127	1.3842424
25.528014335753614	1.8954043	1.3767369
25.54598549124664	1.8595382	1.3636489
25.56395728568544	1.8409723	1.3568244
25.58192971958028	1.9085641	1.3815079
25.59990279344156	1.9603584	1.400128
25.617876507779833	1.9506961	1.3966732
25.635850863105826	1.896331	1.3770733
25.653825859930386	1.8493176	1.3598962
25.671801498764548	1.818144	1.3483857
25.68977778011949	1.8864484	1.3734804
25.707754704506524	1.9218781	1.3863182
25.725732272437153	1.934086	1.3907142
25.743710484423012	1.9326959	1.3902143
25.761689340975888	1.9205219	1.385829
25.77966884260774	1.9023277	1.379249
25.797648989830662	1.9021497	1.3791844
25.815629783156922	1.8966173	1.3771772
25.83361122309895	1.8854645	1.3731222
25.85159331016929	1.8347734	1.3545381
25.869576044880695	1.8398073	1.356395
25.887559427746034	1.8377223	1.3556261
25.90554345927836	1.8828747	1.3721788
25.92352813999086	1.8710341	1.3678575
25.94151347039689	1.8624673	1.3647224
25.959499451009965	1.8926588	1.3757393
25.97748608234374	1.912721	1.3830116
25.995473364912062	1.9170386	1.3845717
26.013461299228904	1.8628656	1.3648683
26.03144988580839	1.8588539	1.363398
26.04943912516483	1.8607254	1.3640841
26.067429017812675	1.8498836	1.3601042
26.085419564266537	1.8642447	1.3653735
26.103410765041186	1.8956656	1.3768318
26.12140262065155	1.860351	1.3639468
26.139395131612723	1.8229702	1.3501741
26.157388298439948	1.8498666	1.360098
26.17538212164861	1.8808984	1.3714585
26.193376601754295	1.8350483	1.3546395
26.211371739272714	1.839413	1.3562496
26.229367534719746	1.8596964	1.3637068
26.247363988611433	1.8533673	1.3613844
26.26536110146397	1.8209872	1.3494396
26.283358873793727	1.835737	1.3548937
26.301357306117204	1.8737442	1.3688477
26.319356398951104	1.8806216	1.3713576
26.33735615281224	1.8434775	1.3577472
26.35535656821762	1.786849	1.3367307
26.373357645684404	1.819836	1.349013
26.39135938572991	1.8606827	1.3640684
26.409361788871614	1.8641839	1.3653512
26.427364855627165	1.8093405	1.3451173
26.445368586514352	1.8207327	1.3493453
26.46337298205115	1.8523694	1.3610178
26.48137804275568	1.8535284	1.3614435
26.499383769146217	1.8134667	1.3466501
26.517390161741215	1.8093561	1.345123
26.53539722105928	1.8340415	1.3542678
26.553404947619182	1.8346206	1.3544817
26.571413341939856	1.8304845	1.352954
26.589422404540397	1.8615564	1.3643887
26.60743213594006	1.8696849	1.3673643
26.62544253665827	1.8414905	1.3570153
26.64345360721459	1.8013114	1.3421295
26.66146534812879	1.8039322	1.3431054
26.679477759920758	1.8721149	1.3682525
26.69749084311057	1.9287611	1.3887985
26.71550459821847	1.8661104	1.3660566
26.733519025764842	1.7786953	1.3336774
26.751534126270258	1.790889	1.338241
26.769549900255434	1.806756	1.3441563
26.787566348241267	1.801774	1.3423017
26.80558347074881	1.7857584	1.3363227
26.823601268299267	1.8633301	1.3650385
26.841619741414036	1.9112706	1.382487
26.85963889061465	1.9350369	1.3910561
26.877658716422832	1.8843311	1.3727094
26.89567921936045	1.8280407	1.3520505
26.913700399949544	1.8281015	1.3520731
26.93172225871233	1.8513175	1.3606313
26.949744796171174	1.886811	1.3736124
26.967768012848605	1.8599449	1.363798
26.98579190926733	1.8495871	1.3599952
27.003816485950225	1.8614988	1.3643676
27.021841743420318	1.8536794	1.361499
27.039867682200814	1.8144445	1.3470132
27.057894302815072	1.7452691	1.3210863
27.07592160578664	1.7279878	1.3145295
27.0939495916392	1.7451758	1.321051
27.111978260896635	1.7848562	1.3359851
27.13000761408296	1.7736347	1.3317788
27.148037651722397	1.8354937	1.3548039
27.166068374339304	1.8304237	1.3529315
27.184099782458215	1.8259971	1.3512946
27.20213187660384	1.8124788	1.3462833
27.22016465730105	1.7987418	1.3411719
27.23819812507487	1.759838	1.3265889
27.256232280450533	1.7744272	1.3320763
27.274267123953383	1.787268	1.3368875
27.292302656108987	1.8023906	1.3425314
27.31033887744306	1.764121	1.3282022
27.32837578848146	1.7879869	1.3371563
27.34641338975026	1.7753268	1.3324139
27.364451681775673	1.7927787	1.3389468
27.382490665084074	1.8382288	1.355813
27.400530340202046	1.8472179	1.359124
27.41857070765629	1.8582036	1.3631594
27.436611767973726	1.8471602	1.3591027
27.454653521681404	1.8422693	1.3573022
27.472695969306564	1.8141242	1.3468943
27.490739111376627	1.7978147	1.3408262
27.508782948419153	1.8254815	1.3511038
27.526827480961902	1.8145792	1.3470632
27.54487270953279	1.7662725	1.3290119
27.562918634659898	1.8105462	1.3455653
27.580965256871508	1.8735067	1.368761
27.599012576696026	1.8538197	1.3615505
27.617060594662068	1.8180219	1.3483404
27.63510931129842	1.8182174	1.3484129
27.65315872713401	1.8244308	1.3507149
27.67120884269797	1.8013246	1.3421344
27.68925965851958	1.8009297	1.3419873
27.707311175128307	1.8429254	1.357544
27.725363393053787	1.8861394	1.3733679
27.74341631282583	1.887479	1.3738555
27.7614699349744	1.9127792	1.3830326
27.77952426002968	2.0841038	1.4436425
27.797579288521973	2.1255574	1.4579291
27.815635020981784	2.458304	1.5678979
27.83369145793979	2.543986	1.5949878
27.85174859992682	2.5424228	1.5944977
27.869806447473923	2.4528446	1.566156
27.887865001112267	2.0537388	1.4330871
27.905924261373233	1.9751693	1.4054072
27.92398422878836	1.9701326	1.4036142
27.94204490388936	1.9321475	1.390017
27.96010628720813	1.9296677	1.3891248
27.978168379276728	1.9703732	1.4036998
27.9962311806274	1.9474415	1.3955076
28.014294691792568	1.8397131	1.3563602
28.0323589133048	1.8173845	1.348104
28.050423845696887	1.8855802	1.3731643
28.068489489501758	1.9666383	1.4023688
28.086555845252523	1.9776547	1.4062911
28.104622913482487	1.9470142	1.3953545
28.122690694725115	1.9410051	1.3931996
28.14075918951405	1.9672292	1.4025795
28.15882839838312	1.9576455	1.3991588
28.176898321866304	1.9384024	1.3922652
28.1949689604978	1.9318026	1.389893
28.213040314811945	1.9614483	1.4005171
28.23111238534327	1.98423	1.408627
28.249185172626493	1.9499302	1.396399
28.267258677196473	1.8637208	1.3651816
28.285332899588294	1.8751338	1.3693552
28.303407840337172	1.9264449	1.3879642
28.321483499978545	1.9138688	1.3834264
28.33955987904799	1.9153728	1.3839699
28.357636978081285	1.9557936	1.3984969
28.37571479761439	1.9982028	1.413578
28.393793338183425	1.9547975	1.3981408
28.41187260032469	1.9421402	1.3936069
28.429952584574686	1.955308	1.3983233
28.448033291470065	1.9486318	1.395934
28.46611472154769	1.9345354	1.3908758
28.484196875344566	1.9874524	1.4097704
28.502279753397914	2.04508	1.4300629
28.52036335624511	2.0608318	1.4355597
28.538447684423716	2.0024061	1.415064
28.556532738471482	2.0129504	1.4187849
28.574618518926325	1.9548328	1.3981533
28.59270502632635	1.958933	1.3996189
28.61079226120985	2.000176	1.4142758
28.628880224115274	2.0939548	1.4470503
28.646968915581287	2.114981	1.4542974
28.66505833614671	2.0970845	1.4481314
28.68314848635055	2.0340028	1.4261847
28.701239366732004	2.0115857	1.4183038
28.71933097783044	2.0483847	1.4312179
28.737423320185403	2.1134996	1.453788
28.75551639433665	2.1676514	1.4722946
28.773610200824074	2.1807096	1.4767226
28.791704740187793	2.123762	1.4573133
28.80980001296809	2.1289482	1.4590915
28.827896019705413	2.1488495	1.4658954
28.845992760940433	2.1455731	1.4647775
28.86409023721397	2.1539261	1.467626
28.88218844906704	2.2123277	1.4873896
28.900287397040845	2.283209	1.5110291
28.918387081676755	2.2873597	1.5124019
28.936487503516343	2.256972	1.5023222
28.954588663101365	2.2521849	1.5007281
28.97269056097374	2.2974799	1.515744
28.990793197675597	2.364009	1.5375334
29.00889657374923	2.4094362	1.5522358
29.027000689737125	2.4253862	1.5573652
29.04510554618196	2.421383	1.5560794
29.06321114362659	2.4216576	1.5561676
29.08131748261405	2.4600434	1.5684526
29.099424563687567	2.512853	1.585198
29.11753238739057	2.4928637	1.5788805
29.13564095426663	2.4577227	1.5677125
29.15375026485954	2.5388317	1.5933712
29.171860319713275	2.6713233	1.6344184
29.18997111937199	2.7033782	1.6441953
29.20808266438002	2.7072337	1.6453674
29.226194955281898	2.7700753	1.6643543
29.244307992622335	2.8824103	1.6977663
29.26242177694624	2.9318624	1.7122682
29.2805363087987	2.9464438	1.7165208
29.29865158872498	2.985393	1.727829
29.316767617270557	3.0668638	1.7512463
29.334884394981064	3.0957816	1.7594833
29.353001922402367	3.0218408	1.7383443
29.37112020008047	3.0265574	1.7397004
29.389239228561596	3.1685998	1.7800561
29.407359008392152	3.3558276	1.8318918
29.42547954011872	3.6552582	1.911873
29.44360082428809	4.278303	2.0684059
29.46172286144722	5.3561716	2.3143404
29.479845652143283	7.033689	2.6521103
29.497969196923606	9.0922985	3.015344
29.516093496335728	11.589909	3.4043956
29.5342185509274	14.44437	3.800575
29.55234436124651	16.975454	4.120128
29.570470927841175	18.405153	4.290123
29.588598251259686	18.209131	4.2672157
29.60672633205055	16.992332	4.1221757
29.624855170762405	14.802038	3.8473418
29.642984767944146	11.961773	3.4585795
29.66111512414481	9.083761	3.013928
29.67924623991366	6.7221565	2.5927122
29.697378115800138	5.187342	2.2775738
29.71551075235387	4.2317953	2.0571327
29.733644150124675	3.765173	1.9404054
29.751778309662576	3.4908147	1.8683722
29.769913231517766	3.438756	1.8543884
29.78804891624066	3.4436579	1.8557096
29.806185364381818	3.4342449	1.8531716
29.82432257649206	3.3726468	1.8364767
29.842460553122333	3.251396	1.8031628
29.86059929482382	3.2854846	1.8125906
29.878738802147872	3.3284044	1.8243915
29.896879075646048	3.3598595	1.832992
29.915020115870114	3.3839216	1.8395438
29.933161923371976	3.3563285	1.8320285
29.951304498703777	3.312109	1.8199201
29.969447842417857	3.3289237	1.8245338
29.987591955066733	3.332139	1.8254148
30.005736837203123	3.2775173	1.8103914
30.023882489379943	3.1722045	1.7810683
30.04202891215028	3.1603377	1.7777339
30.060176106067455	3.208497	1.7912278
30.078324071684946	3.1812756	1.7836131
30.09647280955646	3.1450274	1.7734225
30.114622320235863	3.1104844	1.7636565
30.132772604277257	3.0659852	1.7509955
30.1509236622349	3.137151	1.7712004
30.16907549466328	3.1259022	1.7680221
30.18722810211705	3.0588796	1.7489653
30.205381485151097	3.013326	1.7358934
30.22353564432045	2.9831991	1.727194
30.241690580180403	3.0025246	1.7327795
30.25984629328638	3.038364	1.7430904
30.278002784194037	3.0346704	1.7420305
30.296160053459246	3.0419862	1.7441291
30.314318101638033	2.9925091	1.729887
30.332476929286646	2.9564157	1.719423
30.35063653696153	2.972093	1.723976
30.368796925219307	3.0343525	1.7419393
30.386958094616844	3.059099	1.749028
30.40512004571115	3.0182233	1.7373035
30.423282779059463	2.959971	1.7204566
30.441446295219233	2.9366286	1.7136594
30.459610594748067	2.8599355	1.6911343
30.47777567820382	2.832531	1.6830125
30.495941546144504	2.8601081	1.6911855
30.51410819912835	2.8894703	1.6998442
30.532275637713795	2.8724113	1.694819
30.55044386245946	2.846963	1.6872946
30.56861287392416	2.8023126	1.674011
30.586782672666956	2.7134361	1.6472511
30.604953259247047	2.7258317	1.6510093
30.623124634223885	2.7536035	1.6593986
30.641296798157075	2.7884142	1.6698545
30.659469751606462	2.7985938	1.6728998
30.677643495132074	2.8291018	1.6819934
30.695818029294152	2.850401	1.688313
30.713993354653116	2.8486836	1.6878043
30.73216947176962	2.746941	1.6573899
30.75034638120448	2.7449908	1.6568013
30.768524083518756	2.7458146	1.65705
30.786702579273673	2.736068	1.6541064
30.80488186903069	2.8027482	1.674141
30.82306195335144	2.9004257	1.7030636
30.841242832797782	3.111749	1.764015
30.85942450793176	3.432039	1.8525764
30.877606979315637	3.8030102	1.9501308
30.895790247511883	4.149536	2.037041
30.913974313083134	4.557867	2.134916
30.932159176592283	4.8932624	2.212072
30.95034483860237	4.9592686	2.2269416
30.968531299676698	4.7699904	2.1840308
30.98671856037873	4.4425035	2.1077247
31.00490662127215	4.063415	2.0157914
31.023095482920848	3.5660205	1.888391
31.04128514588892	3.0472739	1.7456442
31.059475610740662	2.7698963	1.6643006
31.07766687804056	2.6719785	1.6346188
31.09585894835335	2.573093	1.6040863
31.11405182224393	2.419808	1.5555732
31.132245500277417	2.41548	1.5541815
31.15043998301914	2.4688287	1.5712507
31.168635271034628	2.4772468	1.5739272
31.18683136488964	2.4417841	1.5626209
31.20502826515008	2.379469	1.5425527
31.223225972382135	2.3783228	1.5421813
31.241424487152155	2.4126823	1.5532812
31.259623810026692	2.4211864	1.5560162
31.27782394157253	2.3942711	1.5473433
31.296024882356644	2.3605092	1.5363948
31.314226632946237	2.3475287	1.5321647
31.332429193908684	2.385696	1.5445698
31.350632565811598	2.404832	1.550752
31.368836749222787	2.5086741	1.5838795
31.387041744710295	2.5010126	1.581459
31.40524755284232	2.5110946	1.5846434
31.423454174187317	2.5011625	1.5815064
31.441661609313922	2.4499424	1.5652292
31.459869858791002	2.4566066	1.5673566
31.478078923187628	2.4836538	1.5759612
31.496288803073064	2.3821168	1.5434108
31.514499499016807	2.2617562	1.5039136
31.532711011588546	2.2262933	1.4920769
31.550923341358178	2.248124	1.4993745
31.56913648889584	2.2752182	1.5083827
31.587350454771844	2.378733	1.5423142
31.605565239556732	2.449629	1.565129
31.62378084382127	2.4354186	1.5605828
31.641997268136382	2.3529491	1.5339326
31.660214513073274	2.3820245	1.5433809
31.67843257920331	2.3948424	1.5475278
31.6966514670981	2.36117	1.5366099
31.71487117732944	2.304688	1.5181199
31.733091710469346	2.284592	1.5114866
31.751313067090052	2.2562873	1.5020943
31.769535247764008	2.3070247	1.5188893
31.787758253063878	2.3113654	1.5203176
31.805982083562526	2.3700488	1.5394963
31.824206739833024	2.4013093	1.5496159
31.84243222244869	2.3580713	1.5356013
31.860658531983013	2.2810209	1.5103049
31.878885669009737	2.3386896	1.5292774
31.897113634102784	2.287545	1.5124632
31.91534242783632	2.2285895	1.4928461
31.933572050784694	2.1667979	1.4720048
31.951802503522508	2.1635711	1.4709083
31.970033786624548	2.23332	1.4944297
31.988265900665834	2.2463222	1.4987736
32.006498846221575	2.2427256	1.4975733
32.02473262386724	2.234444	1.4948057
32.04296723417845	2.1733556	1.4742305
32.0612026777311	2.1920652	1.4805624
32.07943895510129	2.2501495	1.5000498
32.097676066865304	2.252413	1.5008042
32.115914013599685	2.2462993	1.498766
32.13415279588115	2.3395913	1.5295722
32.152392414286666	2.2727623	1.5075684
32.1706328693934	2.1010876	1.4495128
32.18887416177875	2.1134603	1.4537745
32.20711629202032	2.2257626	1.491899
32.225359260695924	2.2226837	1.4908668
32.243603068383614	2.1623077	1.4704788
32.26184771566166	2.1549459	1.4679734
32.28009320310852	2.0818326	1.4428557
32.2983395313029	1.9805655	1.4073256
32.31658670082372	1.9302032	1.3893175
32.33483471225012	1.9937143	1.4119895
32.35308356616143	2.0679736	1.438045
32.371333263137245	2.1113186	1.4530377
32.38958380375734	2.1602085	1.4697647
32.407835188601744	2.1693778	1.4728808
32.42608741825067	2.1570594	1.4686931
32.444340493284585	2.127047	1.45844
32.46259441428416	2.0762603	1.4409235
32.48084918183028	2.048292	1.4311855
32.49910479650405	2.0371158	1.4272757
32.51736125888683	2.0451264	1.4300792
32.53561856956014	2.1371686	1.4619058
32.5538767291058	2.189895	1.4798293
32.572135738105764	2.109817	1.452521
32.59039559714228	2.1062987	1.4513093
32.608656306797776	2.0731122	1.4398307
32.62691786765491	2.0743911	1.4402747
32.645180280296586	2.0195146	1.4210962
32.663443545305896	1.9104973	1.3822074
32.68170766326619	1.9281354	1.3885732
32.69997263476099	1.9816645	1.407716
32.7182384603741	1.9799805	1.4071178
32.7365051406895	1.9302684	1.389341
32.75477267629144	1.9179476	1.3848999
32.77304106776434	2.000761	1.4144826
32.79131031569289	2.0875678	1.4448417
32.809580420661966	2.1843174	1.4779437
32.827851383256714	2.2234554	1.4911256
32.84612320406245	2.1254048	1.4578768
32.86439588366476	2.0715754	1.4392968
32.88266942264945	2.0986876	1.4486848
32.9009438216025	2.0615995	1.4358271
32.9192190811102	1.967128	1.4025434
32.937495201758985	1.9163127	1.3843094
32.95577218413556	1.9764627	1.4058672
32.974050028826866	1.9769368	1.4060359
32.992328736420035	1.9382864	1.3922236
33.010608307502444	1.8699605	1.367465
33.02888874266169	1.8810549	1.3715155
33.047170042485604	1.8596513	1.3636904
33.06545220756225	1.8011148	1.3420562
33.083735238479896	1.8208832	1.349401
33.10201913582707	1.9302483	1.3893337
33.12030390019248	1.9542994	1.3979626
33.138589532165135	1.9270103	1.388168
33.15687603233419	1.9641832	1.4014932
33.17516340128909	1.9911035	1.4110646
33.19345163961947	2.0352972	1.4266384
33.211740747915215	2.0081534	1.4170933
33.23003072676643	1.892076	1.3755275
33.248321576763466	1.8017766	1.3423028
33.266613298496885	1.893648	1.3760989
33.28490589255747	1.9588399	1.3995856
33.30319935953626	1.9777889	1.4063388
33.32149370002451	1.997646	1.4133811
33.339788914613706	2.0191517	1.4209685
33.358085003895575	2.0242982	1.4227784
33.376381968462034	1.924303	1.3871925
33.39467980890529	1.9046333	1.3800845
33.41297852581774	2.0094879	1.417564
33.43127811979204	2.0824673	1.4430757
33.44957859142105	2.0069456	1.4166671
33.467879941297866	1.9481164	1.3957494
33.486182170015844	2.0050619	1.416002
33.50448527816853	1.9782313	1.4064962
33.522789266349754	1.9268618	1.3881145
33.541094135153514	1.8883044	1.3741559
33.55939988517411	1.8926895	1.3757505
33.57770651700602	1.9629387	1.4010491
33.59601403124398	1.9042906	1.3799603
33.61432242848296	1.8188357	1.3486422
33.632631709318154	1.7718288	1.3311006
33.650941874344994	1.7365512	1.3177826
33.66925292415916	1.6952754	1.3020275
33.68756485935654	1.6995108	1.3036529
33.70587768053328	1.7919747	1.3386465
33.724191388285746	1.9098997	1.3819913
33.74250598321054	2.022431	1.422122
33.760821465904506	2.0032048	1.4153461
33.77913783696474	1.8545687	1.3618255
33.79745509698852	1.8702416	1.3675678
33.815773246573414	1.9651365	1.4018333
33.8340922863172	2.001583	1.4147731
33.852412216817896	1.9416999	1.393449
33.87073303867377	1.9368382	1.3917034
33.889054752483304	1.9664245	1.4022926
33.907377358845245	1.9529777	1.3974898
33.92570085835853	1.9955392	1.4126356
33.94402525162239	1.9538118	1.3977882
33.96235053923627	2.0120835	1.4184793
33.980676721799824	2.0862358	1.4443808
33.999003799912984	2.0901535	1.4457363
34.01733177417592	2.0121481	1.4185021
34.03566064518901	1.9479462	1.3956884
34.0539904135529	1.9435521	1.3941134
34.07232107986846	1.9345906	1.3908956
34.090652644736785	2.0183823	1.4206978
34.108985108759235	2.0608938	1.4355813
34.12731847253742	2.0701017	1.4387848
34.14565273667313	2.0486858	1.431323
34.16398790176847	1.9775023	1.4062369
34.18232396842574	1.9541395	1.3979053
34.20066093724749	1.9327135	1.3902206
34.21899880883651	1.9159446	1.3841765
34.23733758379583	1.9556464	1.3984443
34.25567726272874	2.0651896	1.4370768
34.27401784623872	2.1277251	1.4586724
34.29235933492957	2.0616426	1.4358422
34.31070172940526	2.0000825	1.4142427
34.32904503027003	1.9539325	1.3978313
34.347389238128386	1.8946215	1.3764524
34.36573435358502	1.848571	1.3596216
34.38408037724492	1.9807742	1.4073998
34.402427309713296	2.034342	1.4263036
34.42077515159559	1.9645431	1.4016216
34.43912390349752	1.9014935	1.3789465
34.45747356602499	1.9475933	1.395562
34.47582413978423	2.071319	1.4392078
34.49417562538163	2.1451354	1.4646281
34.51252802342388	2.1708677	1.4733865
34.53088133451789	2.2000685	1.4832628
34.54923555927084	2.0583737	1.4347034
34.567590698290104	2.012284	1.41855
34.58594675218336	2.07931	1.4419812
34.6043037215585	2.139624	1.4627454
34.62266160702365	1.9879133	1.4099338
34.641020409187234	1.9205462	1.3858377
34.65938012865785	1.950558	1.3966237
34.677740766044394	1.9445672	1.3944774
34.69610232195598	1.9018865	1.379089
34.714464797002016	2.0026586	1.4151533
34.73282819179208	2.0823274	1.4430271
34.751192506936064	1.9977363	1.413413
34.76955774304408	1.8365024	1.3551762
34.7879239007265	1.7771388	1.3330938
34.80629098059391	1.9804015	1.4072675
34.824658983257194	2.1160474	1.454664
34.843027909327446	2.0235815	1.4225265
34.86139775941603	2.0443208	1.4297975
34.879768534134534	1.9974813	1.4133228
34.89814023409483	1.9045215	1.380044
34.91651285990901	1.8424454	1.357367
34.93488641218944	1.837038	1.3553737
34.95326089154871	1.782478	1.3350947
34.97163629859967	1.8500975	1.3601829
34.99001263395542	1.9385501	1.3923182
35.00838989822934	1.9684545	1.4030162
35.02676809203499	1.8612181	1.3642647
35.04514721598624	1.8995298	1.3782343
35.063527270697215	2.005739	1.4162412
35.081908256782256	1.8742522	1.3690333
35.10029017485597	1.7552845	1.3248715
35.11867302553321	1.7526349	1.3238711
35.137056809429104	1.8786005	1.3706205
35.155441527159006	2.0826373	1.4431345
35.173827179338524	2.1422029	1.4636266
35.19221376658354	1.9879192	1.4099358
35.21060128951017	1.9079711	1.3812933
35.2289897487348	2.1576464	1.4688929
35.24737914487405	2.4390292	1.5617392
35.26576947854479	2.376822	1.5416945
35.28416075036418	1.9711802	1.4039873
35.30255296094958	1.6255205	1.274959
35.32094611091867	1.5696299	1.2528487
35.33934020088932	1.9333647	1.3904549
35.35773523147969	2.186908	1.4788198
35.3761312033082	2.0577185	1.434475
35.394528116993506	2.246489	1.4988292
35.41292597315452	2.002603	1.4151336
35.431324772410434	1.8856182	1.3731781
35.449724515380666	2.3191717	1.5228827
35.46812520268491	2.4965093	1.5800346
35.486526834943106	2.2035463	1.4844347
35.504929412775454	2.2288253	1.492925
35.52333293680242	2.2793338	1.5097463
35.54173740764471	2.10745	1.4517059
35.560142825923286	1.9716924	1.4041697
35.5785491922594	1.8146633	1.3470944
35.59695650727454	1.5176302	1.2319213
35.61536477159042	1.0391313	1.019378
