0.008763373481513119	0.0	0.0
0.026290120649546365	0.0	0.0
0.043816868432600686	0.13170215	0.36290792
0.06134361724069026	0.09919149	0.3149468
0.07887036748382949	0.07748628	0.27836356
0.0963971195720331	0.0036183195	0.060152467
0.11392387391531617	0.06075899	0.24649338
0.1314506309236943	0.09375457	0.30619368
0.1489773910071836	0.19053829	0.43650693
0.16650415457580078	0.1857559	0.43099406
0.18403092203956356	0.18135285	0.42585543
0.20155769380849	0.11762811	0.34296954
0.2190844702925996	0.09705317	0.31153357
0.2366112519019124	0.109749936	0.33128527
0.2541380390464497	0.14456685	0.3802195
0.27166483213623416	0.14142038	0.376059
0.28919163158128947	0.17221999	0.41499397
0.3067184377916406	0.14288689	0.37800384
0.324245251177314	0.12877932	0.35885835
0.34177207214833777	0.1349958	0.36741775
0.3592989011147415	0.13816191	0.3717014
0.37682573848655654	0.09759624	0.31240398
0.39435258467381573	0.07924205	0.28149965
0.41187944008655414	0.08778987	0.29629356
0.42940630513480854	0.10294753	0.32085437
0.446933180228618	0.119815215	0.34614334
0.4644600657780234	0.13690145	0.37000197
0.48198696219306775	0.14930095	0.3863948
0.49951386988379676	0.13373587	0.36569914
0.5170407892602581	0.12524603	0.35390118
0.5345677207325025	0.13667043	0.36968964
0.5520946647105822	0.16338566	0.4042099
0.5696216216045534	0.17990945	0.42415735
0.5871485918244737	0.19895348	0.446042
0.6046755757804043	0.19864455	0.44569558
0.6222025738824094	0.19687252	0.44370317
0.6397295865405557	0.22353259	0.47279233
0.6572566141649129	0.17768508	0.4215271
0.6747836571655547	0.1538059	0.39218095
0.6923107159525568	0.13855465	0.3722293
0.7098377909359992	0.1278889	0.3576156
0.7273648825259653	0.13870344	0.3724291
0.7448919911325411	0.14466126	0.38034362
0.762419117165817	0.15866876	0.39833248
0.7799462610358868	0.18611215	0.43140718
0.7974734231528482	0.17306565	0.4160116
0.8150006039268024	0.16437504	0.40543193
0.8325278037678551	0.19527109	0.4418949
0.8500550230861152	0.2338825	0.483614
0.8675822622916969	0.2492568	0.49925625
0.8851095217947171	0.18479343	0.42987606
0.9026368020052984	0.16454795	0.4056451
0.9201641033335665	0.16439585	0.4054576
0.9376914261896523	0.18729071	0.43277097
0.9552187709836915	0.18894444	0.4346774
0.9727461381258234	0.17857349	0.42257956
0.990273528026193	0.19526523	0.44188827
1.0078009410949496	0.22929819	0.4788509
1.0253283777422473	0.2728586	0.52235866
1.0428558383782454	0.31229576	0.5588343
1.0603833234131086	0.3566243	0.5971803
1.0779108332570058	0.4184343	0.64686495
1.0954383683201119	0.39850855	0.63127536
1.112965929012607	0.39730132	0.6303184
1.1304935157446763	0.46755964	0.68378335
1.1480211289265108	0.48732683	0.698088
1.1655487689683062	1.2648809	1.1246692
1.1830764362802655	1.5247058	1.2347897
1.200604131272596	1.9793054	1.4068779
1.2181318543555117	2.3668673	1.5384626
1.235659605939232	2.3830974	1.5437285
1.253187386433982	3.983131	1.9957783
1.270715196249994	6.3686385	2.523616
1.2882430357975057	12.0954895	3.477857
1.3057709054867608	17.00121	4.1232524
1.3232988057280106	22.804634	4.7754197
1.3408267369315112	27.586615	5.252296
1.358354699507526	31.3873	5.602437
1.3758826938663256	35.35275	5.945818
1.3934107204181858	37.47412	6.121611
1.410938779573391	37.83249	6.150812
1.4284668717422309	38.70013	6.220943
1.4459949973350033	38.19755	6.1804166
1.4635231567620117	38.16094	6.177454
1.4810513504335687	37.140675	6.094315
1.4985795787599925	36.452835	6.037618
1.5161078421516088	36.12418	6.0103393
1.5336361410187505	35.3688	5.9471674
1.5511644757717598	35.303	5.9416327
1.5686928468209842	35.54539	5.9619956
1.58622125457678	36.3492	6.02903
1.6037496994495108	37.702164	6.1402087
1.621278181849548	37.652996	6.136204
1.6388067021872719	38.23214	6.183214
1.6563352608730693	37.313774	6.1085
1.673863858317336	36.563618	6.046786
1.6913924949304753	36.34474	6.02866
1.7089211711228998	35.329556	5.943867
1.7264498873050296	34.741898	5.8942256
1.7439786438872935	33.487034	5.786798
1.7615074412801288	32.47679	5.698841
1.779036279893981	31.659567	5.626683
1.796565160139305	30.534775	5.525828
1.814094082426564	29.910364	5.469037
1.8316230471662298	29.090393	5.393551
1.849152054768784	28.189884	5.309415
1.8666811056447168	27.50891	5.2448936
1.8842102002045273	26.738346	5.1709137
1.901739338858724	26.336838	5.1319427
1.9192685220178245	25.896887	5.088898
1.9367977500923557	25.175905	5.0175595
1.9543270234928547	24.431673	4.9428406
1.971856342629867	23.730526	4.871399
1.9893857079139496	23.36415	4.8336477
2.006915119755667	23.076181	4.803767
2.0244445785655945	22.506908	4.7441444
2.0419740847543175	22.039406	4.6946144
2.0595036387324317	21.503262	4.637161
2.0770332409105414	20.850473	4.5662317
2.094562891699263	20.454645	4.522681
2.1120925915092217	19.838743	4.4540706
2.129622340751053	19.67072	4.4351683
2.1471521398354043	187.97418	13.710368
2.1646819891729323	444.1809	21.0756
2.182211889174303	440.43796	20.986614
2.1997418402501974	452.75845	21.278122
2.2172718428113023	432.80005	20.803846
2.234801897268317	320.63223	17.906206
2.2523320040319548	17.1169	4.1372576
2.269862163512935	16.920858	4.1134973
2.287392376121992	16.803879	4.0992537
2.304922642269869	16.598045	4.07407
2.322452962367322	16.136934	4.0170803
2.3399833368251164	15.616778	3.951807
2.357513766054032	15.309765	3.9127696
2.3750442504648586	14.918365	3.8624299
2.3925747904683963	14.755734	3.8413193
2.410105386475459	14.614798	3.8229306
2.4276360388968707	14.384782	3.7927275
2.445166748143469	14.159181	3.7628686
2.4626975146261025	13.882682	3.7259471
2.4802283387556323	13.639964	3.6932323
2.4977592209429305	13.44827	3.6671882
2.5152901615988825	13.111318	3.6209555
2.5328211611343865	12.97562	3.6021688
2.5503522199603523	12.7172575	3.5661263
2.5678833384877024	12.54105	3.5413344
2.5854145171273712	12.25809	3.5011556
2.6029457562903064	11.969945	3.459761
2.620477056387469	11.752208	3.4281492
2.6380084178298326	11.659177	3.4145536
2.655539841028383	11.580453	3.4030066
2.673071326394119	11.631563	3.4105077
2.6906028743380523	11.563631	3.400534
2.708134485271211	11.34262	3.3678806
2.7256661596046325	11.183421	3.3441622
2.743197897749369	11.002457	3.3169951
2.760729700116486	10.850553	3.2940178
2.778261567117063	10.496004	3.2397537
2.795793499162193	10.236065	3.1993852
2.8133254966629817	10.075769	3.1742353
2.830857560030551	9.897532	3.1460345
2.8483896896760337	9.827108	3.134822
2.865921886010578	9.792821	3.1293483
2.883454149445347	9.75256	3.1229088
2.9009864803915177	9.787088	3.1284323
2.91851887926028	9.466518	3.0767708
2.9360513464628384	9.287855	3.0475984
2.953583882410413	9.076313	3.012692
2.9711164875142373	9.070219	3.0116804
2.9886491621855606	9.036482	3.0060742
3.0061819068356455	8.844873	2.974033
3.023714721875769	8.588766	2.9306598
3.041247607717225	8.456092	2.907936
3.0587805647713213	8.41433	2.9007463
3.0763135934493806	8.345907	2.8889284
3.0938466941627407	8.25658	2.8734267
3.1113798673227544	8.083145	2.8430872
3.1289131133407904	7.935287	2.8169641
3.1464464326282315	7.754584	2.7847054
3.1639798255964786	7.6959457	2.7741568
3.1815132926569443	7.5870466	2.7544594
3.1990468342210603	7.50292	2.739146
3.216580450700272	7.4298034	2.7257667
3.2341141425060416	7.367156	2.7142506
3.251647910049847	7.36144	2.7131975
3.2691817537431813	7.182556	2.6800292
3.286715673997555	7.1297593	2.670161
3.3042496712244938	7.035526	2.6524565
3.32178374583554	7.04164	2.6536088
3.339317898242251	7.019659	2.649464
3.3568521288562034	6.91406	2.62946
3.3743864380889876	6.9296665	2.632426
3.3919208263522127	6.969861	2.6400495
3.4094552940575023	6.9643626	2.6390078
3.4269898416164972	6.899514	2.6266925
3.444524469440858	6.7882977	2.605436
3.4620591779422587	6.714841	2.591301
3.479593967532391	6.6124845	2.5714753
3.4971288386229658	6.553893	2.5600572
3.5146637916257086	6.3023114	2.5104406
3.5321988269523628	6.1559825	2.4811254
3.5497339450146903	6.0829525	2.4663641
3.5672691462244708	6.149243	2.4797666
3.5848044309934988	6.258297	2.501659
3.60233979973359	6.2684064	2.5036786
3.619875252856575	6.2897725	2.507942
3.6374107907743034	6.2551355	2.5010269
3.6549464138986427	6.402293	2.5302753
3.6724821226414788	6.387454	2.5273414
3.690017917414714	6.3243723	2.5148304
3.7075537986302702	6.279286	2.5058503
3.7250897667000857	6.4254255	2.5348423
3.7426258220361235	6.5923114	2.5675497
3.7601619650503553	6.897981	2.6264007
3.777698196154779	7.490875	2.7369463
3.7952345157614067	8.585225	2.9300554
3.8127709242822716	9.369622	3.060984
3.830307422129425	11.510898	3.3927715
3.847844009714936	30.316511	5.506043
3.8653806874508954	97.855415	9.89219
3.882917455749409	97.230934	9.860575
3.900454315022606	96.948044	9.84622
3.917991265682631	41.438496	6.437274
3.9355283081416506	10.919936	3.3045328
3.9530654428118495	8.770704	2.9615376
3.970602670105433	7.4892354	2.7366467
3.9881399904346244	6.670548	2.5827403
4.005677404211669	6.526369	2.5546758
4.023214911848827	6.473496	2.5443065
4.0407525137583855	6.4622345	2.5420926
4.058290210352644	6.464172	2.5424736
4.075828002043927	6.3821096	2.5262837
4.0933658892445814	6.3827314	2.5264068
4.110903872366966	6.334953	2.5169332
4.128441951823468	6.240805	2.4981604
4.145980128026488	6.21568	2.4931266
4.163518401388452	6.075145	2.4647808
4.181056772321807	6.1194	2.473742
4.1985952412390155	6.1170974	2.4732766
4.216133808552567	6.1915145	2.4882753
4.233672474674966	6.2581697	2.5016334
4.251211240018741	6.5367303	2.556703
4.268750104996445	6.801131	2.6078978
4.286289070020643	7.7094245	2.776585
4.303828135503928	9.33176	3.0547931
4.3213673018589125	29.653961	5.445545
4.3389065694982305	90.89746	9.534016
4.356445938834537	166.13663	12.8894
4.3739854102805085	171.55719	13.097984
4.391524984248844	172.34552	13.128043
4.409064661152262	136.38531	11.678412
4.426604441403504	96.78338	9.837854
4.444144325415337	75.837654	8.708482
4.461684313600543	21.93231	4.6831946
4.47922440637193	21.939466	4.6839585
4.496764604142329	20.248255	4.499806
4.5143049073245916	18.49888	4.3010325
4.531845316331589	16.565514	4.0700755
4.5493858315762195	13.826748	3.7184336
4.566926453471405	11.456922	3.3848073
4.584467182430081	9.41763	3.0688157
4.602008018865218	8.25304	2.8728106
4.619548963189798	7.502778	2.73912
4.637090015816834	7.04547	2.6543305
4.654631177159353	6.802781	2.6082141
4.672172447630417	6.5544868	2.5601733
4.689713827643102	6.3444667	2.5188224
4.7072553176105085	6.0698404	2.4637046
4.724796917945764	5.891572	2.427256
4.742338629062015	5.781591	2.4044938
4.759880451372434	5.7875185	2.4057262
4.777422385290215	5.7868295	2.405583
4.794964431228581	5.713125	2.3902144
4.812506589600768	5.64936	2.3768382
4.830048860820047	5.568927	2.3598573
4.847591245299709	5.5962567	2.3656409
4.8651337434530655	5.71634	2.3908868
4.882676355693457	5.695756	2.3865783
4.900219082434242	5.724738	2.3926425
4.917761924088813	5.593769	2.365115
4.935304881070575	5.5659933	2.3592358
4.952847953792969	5.5448365	2.3547478
4.970391142669449	5.507084	2.3467176
4.9879344481135055	5.517028	2.3488355
5.005477870538642	5.4918137	2.343462
5.023021410358394	5.4555445	2.3357108
5.040565067986324	5.4452634	2.3335087
5.05810884383601	5.446105	2.3336892
5.075652738321066	5.493707	2.3438659
5.09319675185512	5.35881	2.3149104
5.110740884851836	5.4559484	2.335797
5.128285137724894	5.4759865	2.3400826
5.145829510888007	5.516063	2.3486302
5.163374004754908	5.504662	2.3462017
5.1809186197393595	5.435352	2.3313842
5.198463356255145	5.427975	2.3298016
5.216008214716077	5.3242984	2.307444
5.233553195535998	5.2753587	2.296815
5.251098299128764	5.339251	2.310682
5.268643525908272	5.309395	2.3042123
5.286188876288432	5.3426075	2.311408
5.3037343506831895	5.3294725	2.3085651
5.32127994950651	5.323954	2.3073695
5.3388256731723915	5.3066874	2.3036249
5.356371522094851	5.255078	2.2923956
5.373917496687938	5.255979	2.2925923
5.391463597365729	5.180524	2.2760763
5.40900982454232	5.126439	2.2641642
5.426556178631843	5.1126437	2.2611156
5.444102660048449	5.1544175	2.2703342
5.4616492692063225	5.2386894	2.2888184
5.479196006519669	5.2203383	2.284806
5.496742872402727	5.2042603	2.2812848
5.514289867269756	5.1197925	2.2626958
5.531836991535049	5.054894	2.2483091
5.549384245612924	5.075499	2.2528868
5.566931629917724	5.067041	2.2510087
5.584479144863822	5.081534	2.2542257
5.6020267908656205	5.1347866	2.2660067
5.619574568337545	5.1320443	2.2654016
5.637122477694054	5.241937	2.2895277
5.654670519349629	5.1989655	2.280124
5.672218693718784	5.156967	2.2708957
5.689767001216059	5.13315	2.2656457
5.707315442256021	5.1244993	2.2637358
5.724864017253266	5.1558847	2.2706573
5.7424127266224225	5.2149887	2.283635
5.75996157077814	5.242727	2.2897003
5.777510550135105	5.2452507	2.2902513
5.795059665108022	5.261457	2.2937865
5.812608916111639	5.2454195	2.290288
5.830158303560715	5.3720694	2.3177724
5.847707827870055	5.36642	2.3165534
5.86525748945448	5.4014916	2.324111
5.8828072887288485	5.5240226	2.350324
5.900357226108044	5.5824966	2.3627307
5.917907302006979	5.6362147	2.3740714
5.9354575168406	6.194581	2.4888916
5.9530078710238765	6.7724285	2.602389
5.970558364971812	7.3597507	2.712886
5.988108999099438	7.683094	2.7718394
6.005659773821818	8.284629	2.878303
6.023210689554039	8.003631	2.829069
6.040761746711227	8.440385	2.905234
6.058312945708531	7.8268266	2.7976465
6.075864286961132	7.318471	2.7052672
6.093415770884244	6.701459	2.5887177
6.1109673978931065	6.192401	2.4884536
6.128519168402993	5.6382136	2.3744924
6.146071082829204	5.504897	2.3462517
6.163623141587075	5.331121	2.308922
6.181175345091969	5.2398124	2.2890637
6.198727693759281	5.2508845	2.2914808
6.216280188004435	5.2794714	2.29771
6.233832828242885	5.233041	2.287584
6.251385614890126	5.196822	2.279654
6.268938548361669	5.1639476	2.272432
6.286491629073067	5.132096	2.265413
6.304044857439898	5.094584	2.2571185
6.321598233877777	5.02749	2.2422066
6.339151758802344	4.959931	2.2270901
6.356705432629277	5.0206003	2.2406697
6.37425925577428	5.058395	2.2490876
6.391813228653095	5.096231	2.2574832
6.409367351681486	5.12218	2.2632234
6.426921625275259	5.149769	2.2693102
6.44447604985025	5.133198	2.2656562
6.46203062582232	5.067416	2.2510922
6.47958535360737	5.04359	2.2457938
6.497140233621328	5.0735774	2.2524602
6.514695266280161	5.018981	2.2403083
6.532250451999859	5.0782948	2.2535071
6.549805791196454	5.0979896	2.2578728
6.567361284286002	5.1449122	2.26824
6.584916931684597	5.1022015	2.2588053
6.602472733808367	5.055796	2.2485096
6.6200286910734665	5.036612	2.2442398
6.637584803896092	5.0371256	2.2443542
6.655141072692462	5.112687	2.261125
6.672697497878842	5.1055593	2.2595484
6.690254079871514	5.045656	2.2462537
6.707810819086808	5.03534	2.2439563
6.725367715941078	4.9753222	2.2305431
6.742924770850719	4.9773984	2.2310083
6.760481984232151	4.9857726	2.2328844
6.778039356501836	5.0511622	2.2474792
6.795596888076266	5.0635324	2.2502294
6.813154579371963	5.0487094	2.2469332
6.830712430805492	4.974616	2.2303848
6.84827044279344	4.964422	2.2280984
6.865828615752445	4.9589853	2.226878
6.883386950099159	4.9732428	2.2300768
6.900945446250287	5.024679	2.2415795
6.918504104622553	5.0692954	2.2515097
6.936062925632727	5.050423	2.2473147
6.953621909697607	5.057056	2.2487898
6.971181057234028	5.1034217	2.2590754
6.988740368658859	5.1803803	2.2760448
7.006299844389007	5.269547	2.2955494
7.023859484841407	5.3188605	2.3062656
7.041419290433036	5.378637	2.3191888
7.058979261580902	5.485985	2.342218
7.0765393987020495	5.682951	2.383894
7.094099702213559	6.094019	2.4686067
7.111660172532549	6.5151453	2.5524783
7.129220810076164	6.923686	2.6312897
7.146781615261595	7.496441	2.737963
7.16434258850606	7.623018	2.7609813
7.181903730226821	7.985783	2.8259127
7.1994650408411704	8.122092	2.8499284
7.217026520766437	8.328233	2.8858678
7.234588170419983	8.586179	2.9302182
7.252149990219215	8.596122	2.9319143
7.269711980581568	8.452872	2.9073825
7.2872741419245175	8.219743	2.8670094
7.304836474665574	7.788852	2.7908516
7.322398979222286	7.4560647	2.7305796
7.339961656012233	7.1546183	2.6748118
7.357524505453039	6.8239913	2.612277
7.375087527962357	6.534864	2.556338
7.392650723957886	6.2542787	2.5008557
7.410214093857353	5.9715996	2.4436858
7.427777638078528	5.723483	2.3923802
7.445341357039213	5.540362	2.3537974
7.4629052511572525	5.372013	2.3177605
7.480469320850524	5.319721	2.306452
7.498033566536948	5.3354316	2.3098552
7.5155979886344735	5.2940907	2.300889
7.5331625875610975	5.2428894	2.2897356
7.550727363734844	5.2256546	2.285969
7.568292317573788	5.2162256	2.2839057
7.585857449496025	5.23727	2.2885082
7.603422759919705	5.167025	2.2731092
7.620988249263007	5.1918316	2.2785592
7.638553917944147	5.2372904	2.2885127
7.656119766381391	5.3175	2.3059704
7.673685794993023	5.3286715	2.3083916
7.691252004197388	5.2542763	2.2922208
7.70881839441285	5.2244377	2.285703
7.726384966057826	5.2049665	2.2814395
7.743951719550762	5.190505	2.278268
7.761518655310149	5.1913614	2.278456
7.779085773754511	5.2616386	2.293826
7.796653075302419	5.310911	2.3045413
7.814220560372475	5.362633	2.315736
7.831788229383323	5.30407	2.3030567
7.8493560827536495	5.3368306	2.3101583
7.866924120902174	5.331271	2.3089545
7.884492344247663	5.3597608	2.3151157
7.9020607532089135	5.3821673	2.3199499
7.919629348204771	5.421352	2.3283796
7.937198129654115	5.4507556	2.3346853
7.954767097975865	5.439875	2.332354
7.972336253588986	5.422211	2.3285642
7.989905596912472	5.3441176	2.3117347
8.007475128365371	5.416038	2.3272383
8.025044848366756	5.501397	2.3455057
8.042614757335754	5.711852	2.3899481
8.060184855691523	5.8001356	2.4083471
8.07775514385327	5.892031	2.4273508
8.095325622240228	5.8594933	2.420639
8.112896291271687	5.8513656	2.4189596
8.130467151366968	5.9011183	2.4292216
8.148038202945436	6.003245	2.450152
8.165609446426497	6.0042186	2.4503508
8.183180882229594	6.026011	2.4547935
8.200752510774217	5.979367	2.4452744
8.218324332479893	5.9354444	2.4362767
8.235896347766193	5.909165	2.4308774
8.253468557052724	5.9328036	2.4357347
8.27104096075914	5.9961195	2.4486976
8.288613559305137	6.1020374	2.4702303
8.306186353110448	6.1467934	2.4792728
8.32375934259485	6.2560663	2.501213
8.341332528178162	6.3026075	2.5104995
8.358905910280246	6.365965	2.5230863
8.376479489321003	6.295031	2.50899
8.394053265720377	6.3590612	2.521718
8.411627239898356	6.3611255	2.5221272
8.42920141227497	6.408467	2.531495
8.44677578327029	6.3918633	2.5282135
8.464350353304427	6.3116956	2.5123088
8.48192512279754	6.284854	2.506961
8.499500092169827	6.293128	2.5086107
8.51707526184153	6.290236	2.5080342
8.534650632232934	6.3003483	2.5100493
8.552226203764365	6.2577653	2.5015526
8.569801976856192	6.2685	2.5036972
8.587377951928834	6.3868923	2.5272303
8.60495412940274	6.470454	2.5437088
8.622530509698416	6.4536085	2.5403953
8.6401070932364	6.4655304	2.5427408
8.657683880437283	6.4528904	2.540254
8.675260871721695	6.636001	2.5760436
8.692838067510303	6.8061314	2.6088564
8.710415468223834	6.9699626	2.6400688
8.727993074283043	7.150238	2.6739929
8.745570886108737	7.2111053	2.6853502
8.763148904121765	7.284451	2.6989722
8.78072712874302	7.278969	2.6979563
8.798305560393441	7.5856686	2.7542093
8.815884199494006	7.791127	2.791259
8.833463046465745	7.959632	2.821282
8.851042101729728	7.9632125	2.8219163
8.86862136570707	8.215444	2.8662596
8.886200838818924	8.412622	2.9004521
8.903780521486505	8.531245	2.9208295
8.921360414131055	8.647715	2.9406996
8.938940517173874	8.751948	2.9583693
8.956520831036297	8.786397	2.9641857
8.97410135613971	8.986183	2.9976964
8.99168209290554	9.129388	3.0214877
9.009263041755265	9.515193	3.0846705
9.026844203110405	9.82085	3.1338236
9.044425577392525	10.056698	3.1712296
9.062007165023239	10.157413	3.1870697
9.079588966424197	10.38874	3.2231567
9.097170982017108	10.450225	3.2326808
9.11475321222372	11.409361	3.3777745
9.132335657465825	12.358693	3.5154934
9.149918318165264	12.453318	3.528926
9.167501194743924	13.052249	3.6127896
9.18508428762374	12.690232	3.5623353
9.202667597226693	12.615069	3.55177
9.220251123974803	12.267739	3.5025332
9.237834868290143	11.9653425	3.4590957
9.255418830594836	11.804771	3.4358072
9.273003011311046	11.223266	3.3501143
9.290587410860985	10.963184	3.31107
9.308172029666911	10.336217	3.2149987
9.32575686815113	10.133804	3.1833637
9.343341926735997	8.922835	2.9871116
9.360927205843916	8.725341	2.9538689
9.378512705897327	8.49945	2.9153817
9.396098427318728	8.301634	2.8812556
9.413684370530664	8.213807	2.865974
9.431270535955722	8.065511	2.8399842
9.448856924016539	7.9956164	2.8276522
9.466443535135806	7.849235	2.8016486
9.484030369736251	7.7779994	2.7889066
9.501617428240658	7.722935	2.779017
9.519204711071852	7.698714	2.7746556
9.536792218652714	7.738754	2.7818615
9.55437995140617	7.810146	2.794664
9.571967909755191	7.8140864	2.7953687
9.589556094122802	7.832454	2.7986522
9.60714450493207	7.828556	2.7979558
9.624733142606116	7.9129004	2.8129878
9.642322007568108	7.9297104	2.8159742
9.659911100241267	7.9869585	2.8261209
9.677500421048851	8.043601	2.8361242
9.695089970414175	8.092713	2.8447695
9.712679748760609	8.100348	2.846111
9.730269756511557	8.128028	2.8509696
9.747859994090492	8.126388	2.850682
9.765450461920915	8.15932	2.8564522
9.78304116042639	8.186849	2.8612669
9.800632090030527	8.253672	2.8729205
9.81822325115699	8.336178	2.887244
9.835814644229481	8.294743	2.8800595
9.853406269671762	8.296721	2.880403
9.870998127907646	8.299341	2.8808577
9.888590219360985	8.316253	2.8837914
9.906182544455698	8.281988	2.8778443
9.923775103615734	8.274219	2.8764942
9.941367897265108	8.279305	2.8773782
9.958960925827878	8.280134	2.8775222
9.97655418972816	8.290411	2.8793073
9.994147689390106	8.283925	2.8781807
10.011741425237934	8.24623	2.871625
10.029335397695904	8.290295	2.8792872
10.04692960718833	8.328037	2.885834
10.06452405413958	8.381008	2.8949971
10.082118738974064	8.394378	2.8973053
10.099713662116246	8.364859	2.8922064
10.117308823990651	8.345885	2.8889246
10.134904225021844	8.3352995	2.8870919
10.152499865634445	8.293501	2.879844
10.170095746253125	8.330865	2.8863237
10.18769186730261	8.320267	2.8844872
10.205288229207675	8.31268	2.8831718
10.222884832393145	8.30118	2.8811767
10.2404816772839	8.240609	2.8706462
10.258078764304868	8.158126	2.8562434
10.275676093881035	8.108623	2.8475642
10.293273666437438	8.008657	2.8299572
10.310871482399158	8.063943	2.8397083
10.32846954219134	8.003372	2.8290231
10.346067846239173	8.048253	2.8369443
10.363666394967908	8.067775	2.8403828
10.38126518880283	8.087715	2.843891
10.398864228169298	8.178932	2.8598833
10.416463513492713	8.183665	2.8607106
10.434063045198531	8.149548	2.8547413
10.451662823712262	8.163898	2.8572536
10.469262849459467	8.227082	2.868289
10.486863122865758	8.182623	2.8605285
10.504463644356806	8.2443	2.8712888
10.522064414358338	8.209629	2.865245
10.539665433296118	8.12444	2.8503404
10.557266701595987	8.039458	2.835394
10.574868219683818	7.8582006	2.8032482
10.592469987985552	7.701906	2.775231
10.610072006927185	7.572419	2.751803
10.627674276934751	7.518778	2.742039
10.64527679843435	7.3759427	2.7158687
10.662879571852143	7.340051	2.7092528
10.680482597614331	7.2928123	2.7005208
10.698085876147173	7.209713	2.6850908
10.715689407876988	7.075621	2.660004
10.733293193230146	6.900139	2.6268115
10.750897232633072	6.865235	2.6201594
10.76850152651225	6.7492876	2.597939
10.786106075294207	6.6930904	2.5871007
10.803710879405534	6.572181	2.5636265
10.821315939272877	6.470466	2.5437112
10.83892125532294	6.3867064	2.5271933
10.856526827982472	6.3352423	2.5169907
10.874132657678285	6.293695	2.5087237
10.891738744837243	6.2795825	2.5059094
10.909345089886271	6.2604933	2.5020978
10.926951693252343	6.2315946	2.4963162
10.944558555362494	6.2011094	2.4902027
10.96216567664381	6.0912285	2.4680414
10.979773057523436	5.9693923	2.443234
10.997380698428573	5.8537936	2.4194615
11.014988599786477	5.823628	2.4132195
11.032596762024461	5.8154945	2.4115336
11.050205185569892	5.763172	2.4006608
11.067813870850198	5.6568255	2.3784082
11.085422818292859	5.566955	2.3594396
11.10303202832541	5.4747267	2.3398135
11.120641501375454	5.4314694	2.3305514
11.138251237870636	5.35039	2.313091
11.155861238238671	5.3284583	2.3083453
11.173471502907317	5.2904043	2.300088
11.191082032304402	5.2566266	2.2927334
11.208692826857805	5.141066	2.267392
11.226303886995465	5.0567575	2.2487235
11.243915213145371	4.995092	2.2349703
11.261526805735578	4.92031	2.218177
11.279138665194196	4.8294964	2.1976116
11.296750791949393	4.786379	2.1877794
11.314363186429393	4.7741528	2.1849835
11.331975849062479	4.742067	2.1776288
11.34958878027699	4.6562247	2.1578288
11.36720198050133	4.578195	2.1396718
11.384815450163948	4.5451403	2.1319335
11.402429189693366	4.486605	2.1181607
11.420043199518153	4.44893	2.1092486
11.437657480066942	63.426548	7.9640784
11.455272031768422	85.17381	9.228966
11.472886855051353	107.60229	10.373152
11.490501950344528	99.17219	9.958524
11.508117318076819	84.51414	9.193157
11.52573295867715	45.903877	6.77524
11.543348872574514	4.1966367	2.0485694
11.560965060197946	4.157391	2.038968
11.57858152197655	4.0851727	2.021181
11.59619825833949	4.0772977	2.019232
11.613815269715985	4.040655	2.010138
11.631432556535323	38.58455	6.211646
11.649050119226837	83.123955	9.117234
11.666667958219929	93.526474	9.670909
11.68428607394406	107.78695	10.38205
11.701904466828756	82.63464	9.09036
11.719523137303586	65.44615	8.08988
11.737142085798196	4.666427	2.1601915
11.754761312742286	3.7232318	1.9295678
11.772380818565619	3.6582775	1.9126624
11.790000603698015	3.6445837	1.9090793
11.80762066856935	3.6223674	1.9032518
11.825241013609572	3.6123052	1.9006065
11.842861639248683	3.5678504	1.8888754
11.860482545916748	3.5454879	1.8829466
11.878103734043883	3.5285962	1.8784558
11.895725204060282	3.5045624	1.8720477
11.91334695639619	3.4857974	1.8670291
11.930968991481919	3.4448318	1.8560258
11.948591309747824	3.4174926	1.8486462
11.966213911624347	3.3438985	1.828633
11.98383679754198	3.2753053	1.8097805
12.001459967931268	3.2108653	1.7918887
12.019083423222835	3.1625948	1.7783686
12.036707163847352	3.1586463	1.777258
12.05433119023556	3.2085166	1.7912333
12.071955502818259	3.2061224	1.7905648
12.089580102026313	3.2058656	1.7904931
12.107204988290643	3.109705	1.7634356
12.12483016204224	3.0596194	1.7491767
12.142455623712152	3.0526047	1.7471704
12.16008137373149	3.0855393	1.7565703
12.177707412531431	3.0841167	1.7561654
12.19533374054321	3.1123848	1.7641952
12.212960358198126	3.1231866	1.767254
12.230587265927545	3.0875063	1.7571301
12.248214464162889	3.0653143	1.750804
12.265841953335649	3.0571222	1.7484628
12.283469733877375	3.0569758	1.748421
12.301097806219685	3.003742	1.7331307
12.31872617079425	2.9571872	1.7196474
12.336354828032825	2.9164515	1.7077621
12.353983778367205	2.8981993	1.7024099
12.371613022229262	2.9074738	1.7051316
12.389242560050928	2.9105742	1.7060405
12.406872392264201	2.8787298	1.696682
12.424502519301143	2.8670988	1.693251
12.442132941593874	2.8435826	1.6862925
12.459763659574586	2.8369596	1.6843276
12.477394673675532	2.8778496	1.6964226
12.49502598432903	2.8806038	1.6972342
12.51265759196746	2.8877525	1.6993388
12.530289497023267	2.8701165	1.6941419
12.547921699928967	2.8940423	1.7011884
12.565554201117134	2.8771503	1.6962165
12.583187001020404	2.8192532	1.6790632
12.600820100071486	2.7570336	1.6604317
12.618453498703152	2.7655451	1.6629928
12.636087197348235	2.781917	1.667908
12.65372119643964	2.7956564	1.6720216
12.671355496410326	2.7784429	1.6668662
12.68899009769333	2.789525	1.6701871
12.706625000721749	2.8406224	1.6854147
12.724260205928752	2.9114268	1.7062904
12.741895713747551	2.937692	1.7139696
12.759531524611454	2.9663334	1.7223047
12.777167638953818	2.9798582	1.7262266
12.794804057208072	3.0291314	1.74044
12.812440779807702	3.113961	1.7646419
12.830077807186271	3.2378845	1.7994123
12.847715139777405	3.2650256	1.8069382
12.865352778014795	3.448473	1.8570064
12.882990722332197	3.5808284	1.8923078
12.90062897316344	3.6820154	1.9188578
12.918267530942412	3.7496312	1.9363965
12.935906396103071	3.650556	1.9106429
12.953545569079449	3.800319	1.9494407
12.971185050305628	3.6513796	1.9108584
12.988824840215775	3.6546307	1.9117088
13.006464939244115	3.6873734	1.9202535
13.024105347824943	3.526903	1.878005
13.041746066392617	3.563693	1.8877746
13.05938709538157	3.3230717	1.8229294
13.077028435226296	3.3560727	1.8319587
13.094670086361363	3.2891822	1.8136103
13.112312049221401	3.226267	1.7961812
13.129954324241112	3.1549006	1.776204
13.147596911855258	2.9640834	1.7216513
13.165239812498685	2.9220173	1.7093909
13.182883026606293	2.801277	1.6737015
13.200526554613058	2.7422028	1.6559597
13.218170396954017	2.6922572	1.6408099
13.235814554064284	2.7030318	1.6440899
13.253459026379034	2.7495363	1.6581726
13.271103814333523	2.7604907	1.6614724
13.288748918363058	2.7743807	1.6656473
13.306394338903031	2.7565417	1.6602837
13.32404007638889	2.7266827	1.6512669
13.341686131256164	2.7101486	1.6462529
13.359332503940449	2.6639054	1.6321474
13.376979194877402	2.671704	1.6345348
13.394626204502751	2.7132077	1.6471817
13.412273533252307	2.7391727	1.6550447
13.429921181561937	2.7262728	1.6511428
13.447569149867581	2.7363305	1.6541858
13.465217438605247	2.7449427	1.6567868
13.482866048211022	2.7498229	1.658259
13.500514979121052	2.7387142	1.6549062
13.518164231771568	2.696856	1.6422107
13.535813806598844	2.6403327	1.6249101
13.553463704039254	2.6226	1.6194444
13.571113924529229	2.602002	1.6130722
13.588764468505275	2.6413753	1.6252308
13.606415336403956	2.6831617	1.6380359
13.624066528661917	2.7115653	1.6466831
13.641718045715882	2.7755744	1.6660055
13.659369888002635	2.8439004	1.6863868
13.67702205595903	2.89389	1.7011437
13.694674550021993	2.9902098	1.7292223
13.712327370628532	3.0895023	1.757698
13.729980518215713	3.1575892	1.7769606
13.747633993220681	3.2552786	1.804239
13.765287796080647	3.2614899	1.8059596
13.7829419272329	3.283893	1.8121516
13.800596387114801	3.2847502	1.812388
13.818251176163775	3.305569	1.8181224
13.835906294817324	3.3529909	1.8311174
13.853561743513023	3.4277308	1.8514131
13.871217522688525	3.4396963	1.8546418
13.888873632781538	3.4299786	1.8520201
13.906530074229858	3.475134	1.8641711
13.92418684747135	3.533336	1.879717
13.941843952943948	3.542762	1.8822227
13.959501391085665	3.4810345	1.865753
13.977159162334578	3.4479787	1.8568734
13.994817267128846	3.3689494	1.8354698
14.012475705906693	3.280749	1.8112838
14.030134479106424	3.2293878	1.7970498
14.047793587166414	3.1935387	1.7870475
14.065453030525108	3.1428676	1.7728134
14.083112809621026	3.0366414	1.7425961
14.100772924892766	2.9743056	1.7246175
14.118433376778997	2.9328089	1.7125446
14.136094165718458	2.8654473	1.6927632
14.153755292149969	2.7990794	1.6730449
14.171416756512416	2.7234297	1.6502817
14.189078559244768	2.6946013	1.6415241
14.20674070078606	2.628704	1.6213279
14.224403181575408	2.5686347	1.6026961
14.242066002051999	2.505778	1.582965
14.259729162655093	2.4659185	1.5703243
14.277392663824022	2.4584098	1.5679317
14.295056505998208	2.4277153	1.5581127
14.312720689617128	2.420884	1.5559189
14.330385215120348	2.4501998	1.5653114
14.348050082947497	2.4888892	1.5776213
14.3657152935383	2.470152	1.5716717
14.383380847332528	2.450843	1.5655168
14.401046744770051	2.4258194	1.5575042
14.418712986290798	2.4054575	1.5509537
14.436379572334793	2.408061	1.5517929
14.454046503342123	2.4123313	1.5531682
14.471713779752946	2.4217951	1.5562118
14.489381402007504	2.3754199	1.5412397
14.507049370546113	2.3287058	1.5260098
14.524717685809168	2.3424196	1.5304965
14.542386348237134	2.3994818	1.5490261
14.560055358270553	2.440788	1.5623021
14.577724716350051	2.4955833	1.5797415
14.595394422916325	2.4911573	1.57834
14.61306447841015	2.4952834	1.5796466
14.63073488327237	2.4706624	1.5718341
14.648405637943917	2.4823818	1.5755576
14.6660767428658	2.4597843	1.56837
14.683748198479094	2.4812148	1.5751872
14.701420005224954	2.5363355	1.5925877
14.719092163544628	2.6096778	1.6154497
14.73676467387942	2.6702094	1.6340775
14.754437536670727	2.690525	1.640282
14.772110752360014	2.676203	1.6359105
14.78978432138882	2.632916	1.6226263
14.807458244198777	2.6494226	1.6277047
14.82513252123159	2.6517258	1.628412
14.842807152929028	2.677211	1.6362185
14.860482139732962	2.6873364	1.6393098
14.87815748208531	2.6705785	1.6341904
14.8958331804281	2.6397011	1.6247157
14.91350923520342	2.6016564	1.6129651
14.931185646853438	2.6690857	1.6337336
14.948862415820408	2.669327	1.6338075
14.966539542546656	2.6841862	1.6383486
14.98421702747459	2.6214602	1.6190923
15.001894871046696	2.65487	1.6293772
15.019573073705542	2.6745467	1.6354041
15.037251635893766	2.6511564	1.6282372
15.054930558054092	2.650616	1.6280712
15.072609840629323	2.688189	1.6395698
15.090289484062351	2.82015	1.6793302
15.107969488796124	3.092967	1.7586833
15.125649855273691	3.457979	1.8595642
15.14333058393817	3.9969237	1.9992307
15.161011675232768	5.0123143	2.2388198
15.17869312960076	6.4060655	2.5310206
15.196374947485506	8.330306	2.886227
15.214057129330447	11.500032	3.3911698
15.231739675579114	16.299313	4.0372405
15.249422586675102	21.306215	4.6158657
15.267105863062092	24.308748	4.9303904
15.284789505183847	24.501099	4.9498587
15.302473513484218	22.344416	4.726988
15.320157888407127	18.74288	4.3293047
15.337842630396578	14.533377	3.8122666
15.355527739896656	11.300697	3.361651
15.37321321735153	8.867986	2.9779162
15.39089906320545	6.4997663	2.549464
15.408585277902748	4.8737636	2.2076602
15.42627186188783	3.7478945	1.935948
15.443958815605198	3.2411242	1.8003123
15.461646139499424	2.9751701	1.7248682
15.479333834015168	2.7961764	1.6721772
15.497021899597165	2.7099173	1.6461827
15.514710336690234	2.664549	1.6323447
15.53239914573928	2.6234539	1.619708
15.550088327189297	2.5650644	1.6015818
15.567777881485336	2.5096586	1.5841902
15.58546780907256	2.4624598	1.5692227
15.6031581103962	2.4546497	1.5667322
15.620848785901568	2.435574	1.5606326
15.638539836034063	2.4522533	1.5659672
15.656231261239173	2.4252458	1.55732
15.673923061962451	2.4507189	1.5654773
15.691615238649552	2.467842	1.5709367
15.709307791746202	2.483059	1.5757725
15.727000721698221	2.449228	1.565001
15.744694028951498	2.4195747	1.5554982
15.76238771395202	2.3926156	1.5468082
15.780081777145844	2.374108	1.540814
15.797776218979125	2.3806381	1.5429317
15.815471039898094	2.3983161	1.5486498
15.833166240349064	2.4049122	1.5507779
15.850861820778437	2.3872936	1.5450869
15.868557781632699	2.339504	1.5295438
15.886254123358412	2.3441975	1.5310773
15.903950846402232	2.3523216	1.533728
15.921647951210897	2.3997877	1.5491248
15.939345438231225	2.433925	1.5601041
15.957043307910133	2.4306207	1.5590448
15.974741560694602	2.4240358	1.5569315
15.992440197031714	2.424218	1.55699
16.01013921736862	2.4373004	1.5611856
16.02783862215259	2.4139273	1.5536819
16.045538411830933	2.3934958	1.5470927
16.06323858685107	2.398749	1.5487896
16.080939147660512	2.4045537	1.5506623
16.09864009470684	2.412245	1.5531404
16.11634142843774	2.4150846	1.5540543
16.134043149300954	2.4110663	1.5527608
16.15174525774433	2.4105656	1.5525997
16.169447754215817	2.436282	1.5608593
16.18715063916342	2.4141989	1.5537692
16.204853913035244	2.417653	1.5548804
16.222557576279478	2.429102	1.5585576
16.240261629344403	22.42339	4.735334
16.257966072678386	42.96749	6.5549593
16.275670906729868	38.071598	6.1702185
16.293376131947387	2.4898865	1.5779375
16.31108174877957	2.5272212	1.5897236
16.328787757675133	2.563245	1.6010138
16.34649415908287	2.5887535	1.6089604
16.364200953451657	2.5756152	1.6048723
16.38190814123048	2.5738328	1.604317
16.39961572286839	2.5922391	1.6100432
16.41732369881455	2.6807864	1.6373107
16.43503206951817	2.7501385	1.6583542
16.45274083542859	2.8098543	1.676262
16.47044999699522	2.8020244	1.6739248
16.488159554667558	2.8066916	1.6753184
16.505869508895184	2.8415225	1.6856816
16.523579860127786	2.8967917	1.7019963
16.541290608815117	2.939187	1.7144058
16.559001755407035	2.9855688	1.7278799
16.57671330035348	3.0734718	1.753132
16.59442524410448	3.174355	1.781672
16.61213758711015	3.2482305	1.8022848
16.629850329820705	3.2922897	1.8144668
16.647563472686436	3.3792868	1.8382837
16.665277016157724	3.4722452	1.8633962
16.682990960685053	3.5566225	1.885901
16.70070530671898	3.5653975	1.888226
16.718420054710155	3.533356	1.8797224
16.736135205109335	3.5602243	1.8868557
16.753850758367335	3.6213367	1.902981
16.771566714935087	3.6778524	1.9177728
16.789283075263597	3.7278726	1.9307699
16.80699983980398	3.8339584	1.9580497
16.82471700900741	3.9223208	1.980485
16.84243458332518	4.009588	2.0023954
16.860152563208665	4.0157185	2.0039258
16.87787094910932	4.0375357	2.009362
16.89558974147871	4.1102242	2.0273688
16.913308940768466	4.196752	2.0485976
16.931028547430333	4.2491493	2.0613465
16.94874856191613	4.3039274	2.074591
16.966468984677785	4.319377	2.078311
16.98418981616729	4.363875	2.088989
17.00191105683676	4.4138193	2.1009092
17.019632707138374	4.4982667	2.1209118
17.03735476752442	4.5366583	2.1299434
17.05507723844728	4.5397325	2.1306648
17.072800120359403	4.544892	2.1318753
17.090523413713353	4.6227965	2.150069
17.108247118961785	4.6505246	2.1565075
17.125971236557437	4.6561594	2.1578135
17.143695766953133	4.6187067	2.1491177
17.161420710601806	4.59945	2.1446328
17.179146067956477	4.6045604	2.145824
17.19687183947025	4.6609	2.1589117
17.21459802559634	4.71621	2.1716835
17.232324626788028	4.7601037	2.1817663
17.25005164349871	4.7693768	2.1838903
17.267779076181863	4.731928	2.1752994
17.285506925291074	4.693139	2.1663654
17.30323519127999	4.644104	2.1550183
17.320963874602384	4.5873313	2.1418056
17.33869297571211	4.578475	2.1397371
17.356422495063114	4.535411	2.1296504
17.37415243310944	4.499249	2.1211433
17.391882790305218	4.413041	2.100724
17.40961356710468	4.46366	2.1127374
17.42734476396215	4.5029564	2.1220171
17.445076381332044	4.5509543	2.1332965
17.462808419668868	4.582393	2.1406524
17.48054087942723	4.6924543	2.1662073
17.498273761061835	4.997028	2.2354033
17.51600706502747	5.5406637	2.3538613
17.533740791779024	6.3100967	2.5119905
17.551474941771485	7.772415	2.7879052
17.56920951545993	8.863909	2.9772317
17.586944513299528	10.954268	3.3097234
17.60467993574556	12.598616	3.5494528
17.622415783253373	14.285561	3.7796245
17.64015205627843	15.67963	3.9597514
17.657888755276293	16.789368	4.097483
17.675625880702604	17.310432	4.1605806
17.69336343301311	17.232407	4.1511936
17.71110141266366	16.397911	4.049433
17.728839820110178	15.472347	3.9334905
17.746578655808705	14.485882	3.8060322
17.764317920215372	12.988274	3.6039248
17.7820576137864	11.478404	3.3879793
17.79979773697811	9.48359	3.0795438
17.81753829024692	7.5346355	2.744929
17.835279274049356	5.8217044	2.4128208
17.85302068884201	4.762348	2.1822805
17.870762535081607	4.1745443	2.0431702
17.888504813224934	3.8891098	1.9720826
17.90624752372891	3.7377613	1.9333291
17.923990667050536	3.6522546	1.9110873
17.941734243646895	3.5679905	1.8889126
17.959478253975185	3.5247471	1.877431
17.9772226984927	3.4882252	1.8676791
17.994967577656833	3.4740329	1.8638757
18.01271289192506	3.4251804	1.8507243
18.030458641754965	3.3716774	1.8362128
18.04820482760425	3.3466856	1.8293949
18.06595144993067	3.336113	1.8265029
18.083698509192125	3.313853	1.8203992
18.101446005846576	3.2673268	1.8075749
18.119193940352105	3.2230244	1.7952783
18.136942313166887	3.224869	1.795792
18.1546911247492	3.2567482	1.8046463
18.1724403755574	3.2688842	1.8080056
18.19019006604997	3.207624	1.790984
18.207940196685467	3.189405	1.7858906
18.225690767922575	3.150473	1.7749572
18.243441780220046	3.1199455	1.7663368
18.261193234036764	3.1011474	1.7610075
18.278945129831676	3.1041408	1.7618572
18.29669746806386	3.0714686	1.7525606
18.314450249192483	3.0584574	1.7488446
18.3322034736768	3.0615888	1.7497396
18.349957141976184	3.097816	1.7600614
18.3677112545501	3.1193902	1.7661796
18.385465811858108	3.1201205	1.7663863
18.403220814359884	3.0746057	1.7534554
18.420976262515172	3.0802925	1.7550762
18.43873215678387	3.1041186	1.761851
18.456488497625923	3.145747	1.7736254
18.474245285501407	3.2128222	1.7924347
18.492002520870486	3.3187246	1.8217367
18.50976020419343	3.4216106	1.8497596
18.527518335930615	3.7387059	1.9335734
18.545276916542516	4.2925243	2.0718408
18.563035946489688	4.4543695	2.1105378
18.580795426232832	4.9327645	2.2209828
18.598555356232698	4.7900496	2.1886182
18.616315736950185	5.1004257	2.2584121
18.63407656884626	4.7437744	2.1780207
18.65183785238201	4.956659	2.2263556
18.669599588018617	4.6705313	2.1611412
18.68736177621737	4.663121	2.1594262
18.705124417439652	4.6662354	2.1601472
18.72288751214696	4.5115633	2.1240442
18.740651060800886	4.691926	2.1660855
18.758415063863115	4.3783555	2.092452
18.77617952179546	4.544908	2.131879
18.793944435059814	4.274402	2.0674627
18.811709804118184	4.296463	2.072791
18.829475629432675	4.281656	2.0692163
18.8472419114655	4.119614	2.0296834
18.86500865067897	4.2031255	2.0501525
18.88277584753551	3.85354	1.9630436
18.90054350249763	3.87012	1.967262
18.918311616027957	3.4954433	1.8696104
18.936080188589226	3.3538928	1.8313637
18.953849220644265	3.0233934	1.7387908
18.971618712656007	2.8786168	1.6966487
18.9893886650875	2.8671558	1.6932678
19.007159078401887	8.100533	2.8461435
19.024929953062408	32.932926	5.738722
19.042701289532435	32.825085	5.729318
19.060473088275405	25.40304	5.040143
19.07824534975489	2.710629	1.6463988
19.096018074434568	2.655959	1.6297113
19.113791262778197	2.5982149	1.611898
19.13156491524966	2.5753741	1.6047972
19.149339032312945	2.57155	1.6036053
19.167113614432136	2.5394466	1.5935642
19.184888662071433	2.539446	1.5935639
19.202664175695123	2.5509496	1.5971693
19.220440155767623	2.5441158	1.5950284
19.238216602753447	2.5511196	1.5972224
19.2559935171172	2.5582263	1.5994456
19.27377089932361	2.5858338	1.6080528
19.291548749837514	2.6058314	1.6142588
19.309327069123835	2.5907586	1.6095834
19.32710585764763	2.5613132	1.6004103
19.344885115874032	2.5282755	1.5900552
19.362664844268313	2.540012	1.5937414
19.380445043295822	2.5266004	1.5895283
19.39822571342203	2.5616348	1.6005108
19.41600685511252	2.5326865	1.5914416
19.43378846883297	2.5508478	1.5971373
19.451570555049173	2.5552619	1.5985186
19.469353114227037	2.593221	1.6103481
19.48713614683254	2.5867724	1.6083447
19.50491965333182	2.5416267	1.594248
19.52270363419109	2.497307	1.580287
19.540488089876686	2.4853394	1.5764959
19.55827302085503	2.509058	1.5840006
19.576058427592674	2.5114932	1.5847691
19.593844310556282	2.5214934	1.5879211
19.611630670212598	2.515981	1.5861844
19.629417507028506	2.5433025	1.5947735
19.64720482147098	2.5266044	1.5895296
19.6649926140071	2.5135212	1.5854088
19.682780885104084	2.4885857	1.5775251
19.70056963522921	2.4696765	1.5715204
19.718358864849908	2.4775887	1.5740358
19.7361485744337	2.5041246	1.5824426
19.753938764448215	2.535982	1.5924766
19.771729435361202	2.5521448	1.5975434
19.789520587640506	2.5404744	1.5938866
19.807312221754092	2.5262876	1.58943
19.825104338170043	2.5185742	1.5870017
19.842896937356517	2.5122032	1.5849931
19.860690019781824	2.5413995	1.5941768
19.87848358591436	2.5402906	1.5938289
19.896277636222635	2.5814698	1.6066953
19.914072171175278	2.563017	1.6009425
19.931867191241015	2.5144303	1.5856955
19.94966269688869	2.4654741	1.5701828
19.967458688587264	2.4774778	1.5740006
19.985255166805807	2.4809763	1.5751115
20.00305213201348	2.4477687	1.5645347
20.020849584679578	2.456161	1.5672144
20.038647525273507	2.4527137	1.5661142
20.05644595426477	2.4468157	1.5642301
20.07424487212299	2.419415	1.5554469
20.092044279317903	2.4245853	1.557108
20.109844176319353	2.4189436	1.5552953
20.127644563597304	2.426634	1.5577657
20.145445441621817	2.4522982	1.5659815
20.16324681086307	2.4591348	1.5681629
20.181048671791373	2.456628	1.5673634
20.198851024877122	2.4404747	1.5622019
20.216653870590836	2.4284184	1.5583384
20.234457209403146	2.4330032	1.5598087
20.252261041784802	2.4390213	1.5617367
20.270065368206662	2.4607153	1.5686667
20.287870189139685	2.4421802	1.5627476
20.305675505054968	2.3961554	1.5479519
20.323481316423702	2.3426967	1.5305871
20.341287623717207	2.3416848	1.5302565
20.359094427406884	2.3766215	1.5416294
20.376901727964288	2.3898075	1.5459002
20.39470952586107	2.3861163	1.5447059
20.41251782156899	2.3616736	1.5367738
20.430326615559935	2.3576062	1.5354499
20.448135908305886	2.3775625	1.5419346
20.465945700278965	2.3787808	1.5423297
20.483755991951384	2.3492382	1.5327225
20.50156678379548	2.334143	1.5277902
20.519378076283708	2.3195486	1.5230064
20.537189869888635	2.3252554	1.5248789
20.55500216508294	2.313309	1.5209566
20.572814962339415	2.3473806	1.5321164
20.59062826213098	2.3386633	1.5292689
20.60844206493066	2.354144	1.534322
20.626256371211593	2.3456278	1.5315442
20.644071181447032	2.3556118	1.5348003
20.66188649611036	2.3719478	1.5401129
20.67970231567506	2.3575919	1.5354452
20.697518640614742	2.34872	1.5325534
20.715335471403122	2.3568575	1.5352061
20.73315280851404	2.339914	1.5296777
20.750970652421447	2.2905116	1.5134436
20.768789003599412	2.2574255	1.5024731
20.786607862522136	2.2423837	1.497459
20.8044272296639	2.2551305	1.5017092
20.82224710549913	2.2783194	1.5094103
20.84006749050237	2.3034883	1.5177248
20.857888385148268	3.888912	1.9720324
20.8757097899116	46.021255	6.783897
20.893531705267254	64.86772	8.05405
20.911354131690224	83.850105	9.15697
20.92917706965566	69.06055	8.310267
20.94700051963877	50.113194	7.079067
20.96482448211493	29.4021	5.4223704
20.982648957559622	4.1794095	2.0443604
21.00047394644843	2.2867708	1.5122073
21.01829944925707	2.2467542	1.4989177
21.036125466461375	2.2282262	1.4927244
21.053951998537297	2.2293274	1.4930933
21.071779045960906	2.215433	1.488433
21.089606609208378	2.2164934	1.4887892
21.10743468875603	2.2204182	1.4901068
21.12526328508028	2.2541356	1.5013779
21.143092398657675	2.2243855	1.4914374
21.16092202996488	2.1925197	1.4807159
21.17875217947867	2.1597154	1.469597
21.19658284767596	2.1823366	1.4772733
21.21441403503377	2.2077796	1.4858599
21.232245742029225	2.2183633	1.4894171
21.2500779691396	2.2016098	1.4837823
21.26791071684227	2.1710882	1.4734613
21.28574398561475	2.179736	1.4763929
21.30357777593465	2.1842184	1.4779102
21.321412088279704	2.2109172	1.4869153
21.339246923127792	2.1893132	1.4796327
21.357082280956888	2.16989	1.4730546
21.3749181622451	2.1483579	1.4657278
21.392754567470647	2.1389759	1.4625238
21.41059149711187	2.1296341	1.4593266
21.42842895164726	2.1549292	1.4679677
21.446266931555378	2.1608522	1.4699837
21.464105437314945	2.1509132	1.4665992
21.481944469404798	2.114555	1.4541509
21.49978402830388	2.1088061	1.4521729
21.51762411449127	2.1184213	1.4554797
21.53546472844617	2.1480143	1.4656105
21.553305870647876	2.1369426	1.4618285
21.571147541575865	2.124629	1.4576107
21.58898974170967	2.0843232	1.4437186
21.60683247152899	2.051585	1.4323355
21.62467573151363	2.0425057	1.4291626
21.642519522143523	2.0642297	1.4367428
21.660363843898722	2.1082757	1.4519902
21.6782086972594	2.0881696	1.44505
21.696054082705864	2.0896292	1.445555
21.713900000718535	2.1174068	1.4551312
21.73174645177795	2.126041	1.458095
21.749593436364794	2.0918741	1.4463313
21.767440954959845	2.0781248	1.4415703
21.785289008044032	2.0600154	1.4352754
21.803137596098388	2.0538003	1.4331087
21.820986719604086	2.0411592	1.4286914
21.838836379042412	2.0595965	1.4351294
21.85668657489478	2.0686	1.4382628
21.87453730764273	2.063453	1.4364724
21.892388577767914	2.029729	1.4246856
21.91024038575213	1.9885823	1.410171
21.928092732077285	2.0042942	1.415731
21.945945617225426	1.9938401	1.412034
21.963799041678694	1.9966586	1.4130317
21.981653005919398	31.324438	5.5968237
21.999507510429943	78.13702	8.839515
22.01736255569286	73.09172	8.54937
22.035218142190818	4.205371	2.0507002
22.05307427040661	2.0186224	1.4207823
22.07093094082315	1.9640859	1.4014585
22.088788153923474	1.9357541	1.3913138
22.106645910190746	1.9674217	1.4026481
22.12450421010827	1.986643	1.4094832
22.142363054159464	1.9763677	1.4058335
22.16022244282787	1.955723	1.3984717
22.178082376597164	1.9696624	1.4034467
22.195942855951145	1.9942588	1.4121822
22.213803881373742	2.0061285	1.4163786
22.231665453349002	1.9996798	1.4141004
22.24952757236111	1.9938772	1.4120471
22.26739023889438	1.970869	1.4038764
22.28525345343323	1.9499416	1.3964031
22.30311721646225	1.9636166	1.401291
22.320981528466113	1.9548181	1.3981481
22.33884638992964	1.9390718	1.3925055
22.356711801337788	1.9470823	1.395379
22.37457776317561	1.9324545	1.3901275
22.392444275928337	1.9439292	1.3942486
22.410311340081282	1.9303313	1.3893636
22.428178956119904	1.9566001	1.3987852
22.446047124529805	1.952263	1.3972341
22.46391584579669	1.9429401	1.3938938
22.481785120406414	1.9176224	1.3847824
22.49965494884496	1.9256529	1.387679
22.51752533159841	1.9544941	1.3980322
22.53539626915302	1.9662157	1.4022181
22.553267761995137	1.9546584	1.398091
22.571139810611264	1.9411463	1.3932502
22.589012415488025	1.9698997	1.4035312
22.60688557711216	2.000461	1.4143766
22.624759295970566	1.9900162	1.4106793
22.642633572550263	1.9835815	1.4083968
22.660508407338362	1.9890898	1.4103509
22.67838380082217	1.9834493	1.4083499
22.696259753489077	1.9716647	1.4041598
22.714136265826614	1.9366568	1.3916382
22.73201333832246	1.9514227	1.3969333
22.74989097146439	1.9546039	1.3980715
22.76776916574035	1.9369105	1.3917294
22.785647921638393	1.912158	1.382808
22.803527239646712	1.9129634	1.3830992
22.82140712025363	1.8919175	1.3754699
22.839287563947593	1.9025054	1.3793133
22.85716857121719	1.8874519	1.3738457
22.875050142551135	1.93316	1.3903812
22.892932278438277	1.9054179	1.3803687
22.910814979367604	1.9155688	1.3840407
22.928698245828222	1.885434	1.3731111
22.946582078309387	1.8687693	1.3670293
22.96446647730047	1.8592256	1.3635342
22.98235144329098	1.8756188	1.3695323
23.000236976770562	1.8928294	1.3758013
23.018123078229	1.9122137	1.3828281
23.03600974815619	1.9131778	1.3831767
23.053896987042194	1.9300826	1.3892741
23.071784795377173	1.917991	1.3849156
23.08967317365145	1.8967012	1.3772078
23.10756212235546	1.9025185	1.3793181
23.125451641979787	1.9046603	1.3800943
23.143341733015134	1.9581246	1.39933
23.161232395952357	1.9560802	1.3985994
23.179123631282426	1.9517635	1.3970553
23.197015439496468	1.913625	1.3833383
23.214907821085717	1.9422756	1.3936555
23.23280077654157	1.9752759	1.4054451
23.250694306355538	1.9678749	1.4028096
23.268588411019277	1.9768513	1.4060055
23.28648309102458	1.9877799	1.4098865
23.304378346863356	1.9634801	1.4012424
23.322274179027676	1.9507066	1.396677
23.340170588009723	1.9630886	1.4011027
23.358067574301852	2.0038424	1.4155713
23.37596513839651	1.9921912	1.41145
23.39386328078629	1.9558728	1.3985252
23.411762001963947	1.9336472	1.3905565
23.429661302422353	1.9696196	1.4034314
23.4475611826545	1.9762027	1.4057748
23.46546164315356	1.9473959	1.3954912
23.48336268441279	1.8775988	1.370255
23.501264306925638	1.8827018	1.3721159
23.51916651118564	1.9068992	1.3809053
23.537069297686497	1.9363348	1.3915225
23.554972666922037	1.9245528	1.3872825
23.57287661938623	1.8998045	1.3783339
23.59078115557318	1.891916	1.3754694
23.608686275977128	1.948315	1.3958205
23.62659198109246	1.9613377	1.4004776
23.6444982714137	1.9559895	1.398567
23.66240514743549	1.9350272	1.3910526
23.68031260965263	1.9285234	1.3887129
23.698220658560068	1.9181529	1.384974
23.716129294652845	1.9313799	1.389741
23.7340385184262	1.9072738	1.3810408
23.75194833037546	1.9084522	1.3814673
23.769858730996123	1.8974994	1.3774976
23.78776972078382	1.8844528	1.3727537
23.80568130023431	1.853177	1.3613144
23.823593469843495	1.8462013	1.3587499
23.841506230107424	1.8223966	1.3499618
23.859419581522275	1.838351	1.3558581
23.87733352458438	1.8619478	1.3645321
23.89524805979019	1.9171623	1.3846163
23.913163187636318	1.925847	1.387749
23.931078908619508	1.9058491	1.380525
23.948995223236633	1.9301506	1.3892986
23.966912131984735	2.0001311	1.4142599
23.98482963536096	2.0428066	1.4292679
24.002747733862616	2.0675313	1.4378912
24.020666427987155	2.0642416	1.436747
24.038585718232156	2.0856233	1.4441687
24.056505605095353	2.0776165	1.441394
24.074426089074617	2.0479991	1.4310832
24.092347170667946	2.0579803	1.4345663
24.110268850373515	2.0771656	1.4412376
24.128191128689586	2.1204906	1.4561905
24.146114006114626	2.0872927	1.4447466
24.164037483147187	2.0871284	1.4446898
24.181961560286005	2.124099	1.4574289
24.199886238029926	2.100841	1.4494278
24.21781151687797	2.096271	1.4478505
24.235737397329274	2.0921242	1.4464177
24.253663879883135	2.0977273	1.4483533
24.271590965038975	2.0878184	1.4449285
24.289518653296376	2.0425537	1.4291793
24.30744694515505	2.013056	1.418822
24.32537584111486	2.0027657	1.415191
24.34330534167581	1.9988097	1.4137926
24.361235447338046	1.989819	1.4106095
24.379166158601876	1.991119	1.4110702
24.39709747596772	1.9956542	1.4126762
24.41502939993615	2.0226738	1.4222074
24.432961931007917	2.0153036	1.4196138
24.450895069683856	1.9702638	1.4036609
24.468828816465	1.9170672	1.3845819
24.4867631718525	1.9090877	1.3816974
24.504698136347656	1.9557842	1.3984935
24.52263371045192	1.9513836	1.3969194
24.540569894666874	1.9105473	1.3822255
24.558506689494266	1.8954018	1.3767359
24.57644409543597	1.8796549	1.371005
24.594382112994012	1.9148916	1.3837961
24.61232074267057	1.9519564	1.3971243
24.630259984967953	1.9633721	1.4012038
24.64819984038863	1.9422556	1.3936483
24.66614030943522	1.9255396	1.3876381
24.684081392610462	1.9485478	1.395904
24.702023090417274	1.9693997	1.403353
24.7199654033587	1.9787751	1.4066894
24.737908331937927	1.9866816	1.4094969
24.755851876658305	2.0541036	1.4332144
24.773796038023324	2.134186	1.4608854
24.79174081653661	2.148045	1.465621
24.809686212701962	2.1209173	1.456337
24.827632227023294	2.1070647	1.4515731
24.8455788600047	2.09506	1.4474323
24.8635261121504	2.1155708	1.4545002
24.88147398396475	2.122801	1.4569836
24.899422475952303	2.1298566	1.4594028
24.917371588617698	2.0856628	1.4441824
24.935321322465768	2.1283188	1.4588759
24.953271678001478	2.2883673	1.512735
24.97122265572994	2.5017512	1.5816925
24.989174256156414	2.7989848	1.6730167
25.00712647978632	3.2305338	1.7973686
25.02507932712521	3.7556405	1.9379475
25.043032798678798	4.287906	2.070726
25.060986894952933	4.9797077	2.231526
25.078941616453637	5.7457504	2.3970294
25.096896963687055	6.7293763	2.594104
25.114852937159508	7.826088	2.7975147
25.132809537377444	8.248452	2.872012
25.150766764847468	8.156248	2.8559146
25.168724620076347	7.5871277	2.7544742
25.186683103570985	6.619858	2.5729084
25.204642215838426	5.4561853	2.3358479
25.222601957385894	4.1545053	2.0382605
25.24056232872074	3.195644	1.7876364
25.25852333035048	2.6395144	1.6246582
25.276484962782778	2.30007	1.5165982
25.294447226525435	2.1332364	1.4605603
25.312410122086423	2.0305254	1.424965
25.330373649973843	1.9854019	1.4090428
25.348337810695988	1.951127	1.3968275
25.366302604761245	1.9123865	1.3828907
25.384268032678207	1.9116641	1.3826294
25.40223409495558	1.9162279	1.3842789
25.420200792102257	1.9247494	1.3873534
25.438168124627246	1.9024817	1.3793048
25.45613609303974	1.9291021	1.3889211
25.474104697849057	1.974031	1.4050021
25.492073939564698	1.9746823	1.4052339
25.510043818696285	1.9517474	1.3970495
25.528014335753614	1.9481076	1.3957462
25.54598549124664	1.9388125	1.3924124
25.56395728568544	1.9442217	1.3943535
25.58192971958028	1.8876942	1.3739339
25.59990279344156	1.8458215	1.3586102
25.617876507779833	1.8129692	1.3464655
25.635850863105826	1.8367391	1.3552635
25.653825859930386	1.8488426	1.3597215
25.671801498764548	1.8935877	1.3760769
25.68977778011949	1.8644856	1.3654617
25.707754704506524	1.8465611	1.3588823
25.725732272437153	1.8324153	1.3536674
25.743710484423012	1.8540528	1.361636
25.761689340975888	1.8170152	1.347967
25.77966884260774	1.8028097	1.3426875
25.797648989830662	1.8221816	1.349882
25.815629783156922	1.8270297	1.3516766
25.83361122309895	1.8478991	1.3593745
25.85159331016929	1.8639268	1.365257
25.869576044880695	1.8586485	1.3633226
25.887559427746034	1.8565159	1.3625402
25.90554345927836	1.8499513	1.3601291
25.92352813999086	1.814078	1.3468771
25.94151347039689	1.8126842	1.3463596
25.959499451009965	1.8153055	1.3473327
25.97748608234374	1.8089093	1.344957
25.995473364912062	1.7605425	1.3268543
26.013461299228904	1.8062248	1.3439586
26.03144988580839	1.8844852	1.3727655
26.04943912516483	1.9026222	1.3793557
26.067429017812675	1.8936754	1.3761088
26.085419564266537	1.8812567	1.3715891
26.103410765041186	1.9080365	1.3813169
26.12140262065155	1.8660233	1.3660246
26.139395131612723	1.8863919	1.3734598
26.157388298439948	1.8295906	1.3526236
26.17538212164861	1.8368322	1.3552978
26.193376601754295	1.8570573	1.362739
26.211371739272714	1.8690298	1.3671247
26.229367534719746	1.832755	1.3537928
26.247363988611433	1.8089553	1.344974
26.26536110146397	1.827592	1.3518846
26.283358873793727	1.8531126	1.3612908
26.301357306117204	1.8854817	1.3731284
26.319356398951104	1.8741913	1.369011
26.33735615281224	1.8634533	1.3650836
26.35535656821762	1.8569245	1.3626902
26.373357645684404	1.8441287	1.357987
26.39135938572991	1.8199503	1.3490554
26.409361788871614	1.7568427	1.3254595
26.427364855627165	1.7386732	1.3185875
26.445368586514352	1.7730207	1.3315482
26.46337298205115	1.771367	1.3309271
26.48137804275568	1.7459788	1.3213549
26.499383769146217	1.7381334	1.3183829
26.517390161741215	1.7875234	1.336983
26.53539722105928	1.8410307	1.3568459
26.553404947619182	1.8294275	1.3525633
26.571413341939856	1.8360674	1.3550156
26.589422404540397	1.827993	1.3520329
26.60743213594006	1.7752855	1.3323984
26.62544253665827	1.7799127	1.3341337
26.64345360721459	1.7796628	1.33404
26.66146534812879	1.798748	1.3411741
26.679477759920758	1.820687	1.3493284
26.69749084311057	1.8227495	1.3500924
26.71550459821847	1.8246902	1.350811
26.733519025764842	1.8391355	1.3561473
26.751534126270258	1.8126347	1.3463413
26.769549900255434	1.8006376	1.3418784
26.787566348241267	1.7864517	1.3365821
26.80558347074881	1.7851044	1.336078
26.823601268299267	1.8004364	1.3418034
26.841619741414036	1.8041041	1.3431695
26.85963889061465	1.8034309	1.3429188
26.877658716422832	1.815132	1.3472683
26.89567921936045	1.8117727	1.346021
26.913700399949544	1.767751	1.3295679
26.93172225871233	1.7328689	1.3163848
26.949744796171174	1.7471675	1.3218046
26.967768012848605	1.7785894	1.3336376
26.98579190926733	1.7803404	1.334294
27.003816485950225	1.7726591	1.3314124
27.021841743420318	1.7984382	1.3410586
27.039867682200814	1.8150086	1.3472226
27.057894302815072	1.8227856	1.3501058
27.07592160578664	1.8449755	1.3582988
27.0939495916392	1.821313	1.3495603
27.111978260896635	1.8160124	1.3475951
27.13000761408296	1.7700996	1.3304509
27.148037651722397	1.7912589	1.3383793
27.166068374339304	1.8428762	1.3575257
27.184099782458215	1.8590213	1.3634593
27.20213187660384	1.8339316	1.3542273
27.22016465730105	1.8081857	1.3446879
27.23819812507487	1.7927988	1.3389543
27.256232280450533	1.8041116	1.3431722
27.274267123953383	1.8205043	1.3492607
27.292302656108987	1.8185824	1.3485483
27.31033887744306	1.779201	1.333867
27.32837578848146	1.7608228	1.32696
27.34641338975026	1.7907317	1.3381822
27.364451681775673	1.8308002	1.3530706
27.382490665084074	1.811382	1.345876
27.400530340202046	1.819418	1.348858
27.41857070765629	1.8226875	1.3500694
27.436611767973726	1.8415616	1.3570415
27.454653521681404	1.8369352	1.3553358
27.472695969306564	1.7979962	1.3408937
27.490739111376627	1.852259	1.3609773
27.508782948419153	1.881746	1.3717675
27.526827480961902	1.876147	1.3697251
27.54487270953279	1.8472238	1.3591261
27.562918634659898	1.8567648	1.3626316
27.580965256871508	1.8552905	1.3620905
27.599012576696026	1.8250393	1.3509401
27.617060594662068	1.795292	1.3398851
27.63510931129842	1.7743474	1.3320463
27.65315872713401	1.8139912	1.3468449
27.67120884269797	1.8639723	1.3652737
27.68925965851958	1.8542875	1.3617222
27.707311175128307	1.8635135	1.3651056
27.725363393053787	1.8646885	1.365536
27.74341631282583	1.8517298	1.3607827
27.7614699349744	1.8882086	1.3741211
27.77952426002968	2.111369	1.453055
27.797579288521973	2.2196114	1.489836
27.815635020981784	2.579013	1.6059306
27.83369145793979	2.592323	1.6100693
27.85174859992682	2.5206473	1.5876546
27.869806447473923	2.4175134	1.5548354
27.887865001112267	2.1154323	1.4544525
27.905924261373233	1.9586172	1.3995061
27.92398422878836	1.8897609	1.3746858
27.94204490388936	1.8329569	1.3538674
27.96010628720813	1.8073337	1.3443711
27.978168379276728	1.7974145	1.3406769
27.9962311806274	1.8113557	1.3458662
28.014294691792568	1.7974232	1.3406801
28.0323589133048	1.8163651	1.3477259
28.050423845696887	1.8309126	1.3531122
28.068489489501758	1.8135512	1.3466816
28.086555845252523	1.8046536	1.343374
28.104622913482487	1.7960156	1.3401551
28.122690694725115	1.8434236	1.3577274
28.14075918951405	1.8675694	1.3665905
28.15882839838312	1.912747	1.383021
28.176898321866304	1.8671789	1.3664476
28.1949689604978	1.8167902	1.3478836
28.213040314811945	1.8519232	1.3608539
28.23111238534327	1.8559203	1.3623216
28.249185172626493	1.8781772	1.370466
28.267258677196473	1.8713654	1.3679786
28.285332899588294	1.9429872	1.3939108
28.303407840337172	1.944352	1.3944002
28.321483499978545	1.9527887	1.3974222
28.33955987904799	1.953259	1.3975904
28.357636978081285	1.9393585	1.3926085
28.37571479761439	1.9161693	1.3842577
28.393793338183425	1.9075735	1.3811493
28.41187260032469	1.9348781	1.390999
28.429952584574686	1.9212524	1.3860924
28.448033291470065	1.9141227	1.3835182
28.46611472154769	1.9640064	1.4014301
28.484196875344566	2.0292518	1.4245181
28.502279753397914	2.0121017	1.4184856
28.52036335624511	1.9892212	1.4103975
28.538447684423716	2.0040653	1.4156501
28.556532738471482	2.0303097	1.4248893
28.574618518926325	2.037209	1.4273083
28.59270502632635	2.039998	1.428285
28.61079226120985	2.0498886	1.4317433
28.628880224115274	2.1018188	1.4497651
28.646968915581287	2.0760174	1.4408392
28.66505833614671	2.025455	1.4231848
28.68314848635055	2.0364375	1.4270381
28.701239366732004	2.0676448	1.4379307
28.71933097783044	2.0938904	1.4470282
28.737423320185403	2.1171815	1.4550538
28.75551639433665	2.13766	1.4620739
28.773610200824074	2.0993493	1.4489131
28.791704740187793	2.0426729	1.429221
28.80980001296809	2.0588644	1.4348743
28.827896019705413	2.076804	1.441112
28.845992760940433	2.103533	1.4503561
28.86409023721397	2.188928	1.4795026
28.88218844906704	2.243451	1.4978155
28.900287397040845	2.2429464	1.4976469
28.918387081676755	2.2801423	1.510014
28.936487503516343	2.265056	1.5050102
28.954588663101365	2.2437818	1.4979259
28.97269056097374	2.2739546	1.5079638
28.990793197675597	2.28149	1.5104603
29.00889657374923	2.2604856	1.5034912
29.027000689737125	2.2838798	1.5112511
29.04510554618196	2.3115246	1.5203699
29.06321114362659	2.3451467	1.5313872
29.08131748261405	2.3567102	1.535158
29.099424563687567	2.4009132	1.5494881
29.11753238739057	2.4278736	1.5581635
29.13564095426663	2.4410827	1.5623964
29.15375026485954	2.4798248	1.5747459
29.171860319713275	2.4946406	1.5794431
29.18997111937199	2.5888243	1.6089823
29.20808266438002	2.659007	1.6306462
29.226194955281898	2.7590566	1.6610408
29.244307992622335	2.8190863	1.6790135
29.26242177694624	2.8703907	1.6942227
29.2805363087987	2.8574903	1.6904113
29.29865158872498	2.856172	1.6900213
29.316767617270557	2.8227913	1.6801164
29.334884394981064	2.853409	1.6892036
29.353001922402367	2.9376884	1.7139686
29.37112020008047	3.026336	1.7396368
29.389239228561596	3.1882663	1.7855717
29.407359008392152	3.4227495	1.8500674
29.42547954011872	3.8200116	1.954485
29.44360082428809	4.4298267	2.1047153
29.46172286144722	5.414434	2.3268936
29.479845652143283	7.0114784	2.6479197
29.497969196923606	9.099352	3.016513
29.516093496335728	11.66457	3.4153433
29.5342185509274	14.500038	3.8078916
29.55234436124651	16.775883	4.095837
29.570470927841175	18.03525	4.246793
29.588598251259686	17.79842	4.218817
29.60672633205055	16.37238	4.04628
29.624855170762405	14.170226	3.764336
29.642984767944146	11.29888	3.3613806
29.66111512414481	8.577684	2.9287684
29.67924623991366	6.3788867	2.5256457
29.697378115800138	4.9583907	2.2267444
29.71551075235387	4.130238	2.0322988
29.733644150124675	3.701328	1.9238836
29.751778309662576	3.4985383	1.870438
29.769913231517766	3.4635837	1.8610706
29.78804891624066	3.422806	1.8500828
29.806185364381818	3.3497515	1.8302326
29.82432257649206	3.3409615	1.8278297
29.842460553122333	3.3693352	1.8355749
29.86059929482382	3.353025	1.8311267
29.878738802147872	3.3086553	1.8189709
29.896879075646048	3.2305043	1.7973604
29.915020115870114	3.2462535	1.8017362
29.933161923371976	3.2704575	1.8084407
29.951304498703777	3.2414632	1.8004063
29.969447842417857	3.2096908	1.791561
29.987591955066733	3.2198198	1.7943857
30.005736837203123	3.1944456	1.7873012
30.023882489379943	3.1792686	1.7830504
30.04202891215028	3.1455271	1.7735634
30.060176106067455	3.174511	1.7817158
30.078324071684946	3.237795	1.7993875
30.09647280955646	3.2256854	1.7960193
30.114622320235863	3.0940418	1.7589889
30.132772604277257	3.082418	1.7556816
30.1509236622349	3.1559536	1.7765003
30.16907549466328	3.2499197	1.8027533
30.18722810211705	3.1693666	1.7802715
30.205381485151097	3.0933013	1.7587783
30.22353564432045	3.1045403	1.7619706
30.241690580180403	3.1012392	1.7610335
30.25984629328638	3.0459135	1.7452545
30.278002784194037	2.9622223	1.7211108
30.296160053459246	2.9387453	1.7142769
30.314318101638033	2.9639935	1.7216252
30.332476929286646	2.967807	1.7227324
30.35063653696153	2.9512095	1.7179085
30.368796925219307	2.986599	1.7281779
30.386958094616844	2.9704955	1.7235125
30.40512004571115	2.9434798	1.7156572
30.423282779059463	2.949268	1.7173433
30.441446295219233	2.9462934	1.716477
30.459610594748067	2.9116073	1.7063433
30.47777567820382	2.8666687	1.6931239
30.495941546144504	2.8197367	1.6792072
30.51410819912835	2.8107257	1.6765219
30.532275637713795	2.85397	1.6893697
30.55044386245946	2.896462	1.7018995
30.56861287392416	2.8812125	1.6974134
30.586782672666956	2.9069493	1.7049778
30.604953259247047	2.8730564	1.6950092
30.623124634223885	2.8619406	1.6917272
30.641296798157075	2.8364205	1.6841676
30.659469751606462	2.764443	1.6626614
30.677643495132074	2.8076046	1.6755908
30.695818029294152	2.8365486	1.6842057
30.713993354653116	2.8113124	1.6766969
30.73216947176962	2.7487128	1.6579243
30.75034638120448	2.7208662	1.6495048
30.768524083518756	2.761856	1.6618832
30.786702579273673	2.750188	1.6583691
30.80488186903069	2.7629428	1.6622102
30.82306195335144	2.9269	1.7108185
30.841242832797782	3.1863213	1.7850269
30.85942450793176	3.4870887	1.8673748
30.877606979315637	3.7299871	1.9313174
30.895790247511883	4.1040287	2.0258403
30.913974313083134	4.4547505	2.110628
30.932159176592283	4.7913275	2.18891
30.95034483860237	4.937434	2.2220337
30.968531299676698	4.7676244	2.183489
30.98671856037873	4.3980575	2.0971546
31.00490662127215	3.9675508	1.9918711
31.023095482920848	3.546934	1.8833306
31.04128514588892	3.137745	1.7713681
31.059475610740662	2.7842891	1.6686189
31.07766687804056	2.5899692	1.6093382
31.09585894835335	2.5264103	1.5894686
31.11405182224393	2.5451574	1.5953549
31.132245500277417	2.5102792	1.5843861
31.15043998301914	2.470701	1.5718464
31.168635271034628	2.4324903	1.5596443
31.18683136488964	2.404276	1.5505728
31.20502826515008	2.3679736	1.5388222
31.223225972382135	2.3725996	1.5403246
31.241424487152155	2.3810241	1.5430567
31.259623810026692	2.3720806	1.540156
31.27782394157253	2.4044542	1.5506302
31.296024882356644	2.4250624	1.5572612
31.314226632946237	2.4135942	1.5535747
31.332429193908684	2.4244735	1.557072
31.350632565811598	2.4611397	1.568802
31.368836749222787	2.4937117	1.579149
31.387041744710295	2.564782	1.6014936
31.40524755284232	2.5318074	1.5911654
31.423454174187317	2.4766293	1.573731
31.441661609313922	2.4755692	1.5733942
31.459869858791002	2.4646866	1.5699321
31.478078923187628	2.389967	1.5459518
31.496288803073064	2.3379471	1.5290347
31.514499499016807	2.409643	1.5523025
31.532711011588546	2.3526413	1.5338322
31.550923341358178	2.3175695	1.5223565
31.56913648889584	2.2717695	1.507239
31.587350454771844	2.3415298	1.5302058
31.605565239556732	2.365575	1.5380427
31.62378084382127	2.3918474	1.5465598
31.641997268136382	2.3871527	1.5450413
31.660214513073274	2.3508623	1.5332522
31.67843257920331	2.2944388	1.5147405
31.6966514670981	2.2489257	1.4996419
31.71487117732944	2.2134051	1.4877517
31.733091710469346	2.2566082	1.5022011
31.751313067090052	2.3383636	1.5291709
31.769535247764008	2.3389597	1.5293658
31.787758253063878	2.3020859	1.5172626
31.805982083562526	2.3227994	1.5240734
31.824206739833024	2.324193	1.5245304
31.84243222244869	2.306543	1.5187308
31.860658531983013	2.3161511	1.5218906
31.878885669009737	2.316943	1.5221508
31.897113634102784	2.259216	1.5030689
31.91534242783632	2.2674186	1.505795
31.933572050784694	2.357957	1.5355641
31.951802503522508	2.351027	1.5333059
31.970033786624548	2.2582154	1.502736
31.988265900665834	2.2127702	1.4875383
32.006498846221575	2.2110221	1.4869506
32.02473262386724	2.2567163	1.5022371
32.04296723417845	2.2858045	1.5118878
32.0612026777311	2.1821244	1.4772016
32.07943895510129	2.1148834	1.4542639
32.097676066865304	2.1364985	1.4616766
32.115914013599685	2.094809	1.4473455
32.13415279588115	2.0797865	1.4421465
32.152392414286666	2.108232	1.4519752
32.1706328693934	2.101603	1.4496907
32.18887416177875	2.091843	1.4463204
32.20711629202032	2.1315813	1.4599936
32.225359260695924	2.107501	1.4517235
32.243603068383614	2.1175203	1.4551702
32.26184771566166	2.112908	1.4535846
32.28009320310852	2.1175349	1.4551752
32.2983395313029	2.1277208	1.4586709
32.31658670082372	2.133173	1.4605386
32.33483471225012	2.0832477	1.443346
32.35308356616143	2.0949898	1.447408
32.371333263137245	2.1102712	1.4526772
32.38958380375734	2.145466	1.464741
32.407835188601744	2.1265357	1.4582646
32.42608741825067	2.0535998	1.4330387
32.444340493284585	2.0388815	1.4278941
32.46259441428416	2.1415389	1.4633998
32.48084918183028	2.259068	1.5030197
32.49910479650405	2.1873488	1.4789689
32.51736125888683	2.0820596	1.4429344
32.53561856956014	2.0405858	1.4284908
32.5538767291058	2.0917864	1.446301
32.572135738105764	2.078371	1.4416556
32.59039559714228	2.0860608	1.4443202
32.608656306797776	2.062793	1.4362427
32.62691786765491	2.0913434	1.4461478
32.645180280296586	2.102761	1.45009
32.663443545305896	2.0844288	1.4437551
32.68170766326619	2.1280637	1.4587884
32.69997263476099	2.1138916	1.4539229
32.7182384603741	1.9942602	1.4121828
32.7365051406895	2.0005705	1.4144152
32.75477267629144	2.026635	1.4235992
32.77304106776434	1.9781078	1.4064522
32.79131031569289	1.9678833	1.4028126
32.809580420661966	1.962925	1.4010442
32.827851383256714	1.9930017	1.4117371
32.84612320406245	2.0186672	1.4207981
32.86439588366476	2.0860207	1.4443063
32.88266942264945	2.082394	1.4430501
32.9009438216025	2.0438037	1.4296166
32.9192190811102	1.9484956	1.3958852
32.937495201758985	1.9036609	1.3797321
32.95577218413556	1.9346943	1.3909329
32.974050028826866	1.9180139	1.3849238
32.992328736420035	1.9308176	1.3895386
33.010608307502444	2.0271761	1.4237894
33.02888874266169	2.065225	1.4370891
33.047170042485604	2.0686314	1.4382738
33.06545220756225	2.038491	1.4277574
33.083735238479896	2.0355158	1.426715
33.10201913582707	2.0301151	1.4248211
33.12030390019248	1.9818205	1.4077715
33.138589532165135	1.9384545	1.3922839
33.15687603233419	1.9480238	1.3957162
33.17516340128909	1.953413	1.3976455
33.19345163961947	2.082767	1.4431795
33.211740747915215	2.0317578	1.4253974
33.23003072676643	1.950848	1.3967276
33.248321576763466	1.8989698	1.3780311
33.266613298496885	1.9207312	1.3859044
33.28490589255747	1.9264139	1.3879532
33.30319935953626	2.0169308	1.4201869
33.32149370002451	2.1196494	1.4559016
33.339788914613706	2.1462166	1.4649972
33.358085003895575	2.1052942	1.4509633
33.376381968462034	2.0199296	1.4212422
33.39467980890529	1.9585555	1.399484
33.41297852581774	1.9617773	1.4006346
33.43127811979204	2.021682	1.4218587
33.44957859142105	1.9977986	1.413435
33.467879941297866	1.9215405	1.3861964
33.486182170015844	1.8551842	1.3620515
33.50448527816853	1.9458513	1.3949378
33.522789266349754	2.0814774	1.4427326
33.541094135153514	2.0761335	1.4408795
33.55939988517411	1.9749495	1.405329
33.57770651700602	2.0204237	1.421416
33.59601403124398	2.0802474	1.4423063
33.61432242848296	2.0489755	1.4314243
33.632631709318154	2.029081	1.4244581
33.650941874344994	2.0303934	1.4249188
33.66925292415916	2.0269792	1.4237202
33.68756485935654	2.063703	1.4365594
33.70587768053328	2.1234643	1.4572111
33.724191388285746	2.0814373	1.4427187
33.74250598321054	1.9933375	1.411856
33.760821465904506	1.9989979	1.4138592
33.77913783696474	1.9459026	1.3949561
33.79745509698852	1.9487275	1.3959683
33.815773246573414	1.8811572	1.3715528
33.8340922863172	1.864172	1.3653468
33.852412216817896	1.8595544	1.3636549
33.87073303867377	1.9519817	1.3971334
33.889054752483304	1.9155699	1.3840412
33.907377358845245	1.8913361	1.3752586
33.92570085835853	1.9762053	1.4057757
33.94402525162239	2.0370026	1.427236
33.96235053923627	2.0076072	1.4169005
33.980676721799824	1.9768488	1.4060045
33.999003799912984	1.9505659	1.3966266
34.01733177417592	1.8939666	1.3762146
34.03566064518901	1.9365892	1.3916138
34.0539904135529	1.977684	1.4063015
34.07232107986846	1.9726088	1.404496
34.090652644736785	1.7889928	1.3375323
34.108985108759235	1.8344426	1.354416
34.12731847253742	2.0026312	1.4151435
34.14565273667313	2.012009	1.418453
34.16398790176847	2.0366564	1.4271147
34.18232396842574	1.9378275	1.3920587
34.20066093724749	1.6846116	1.2979258
34.21899880883651	1.7848972	1.3360004
34.23733758379583	2.0504303	1.4319323
34.25567726272874	2.1015522	1.4496732
34.27401784623872	1.9859027	1.4092206
34.29235933492957	1.8639016	1.3652478
34.31070172940526	1.8351624	1.3546816
34.32904503027003	1.8883368	1.3741677
34.347389238128386	2.048814	1.4313679
34.36573435358502	2.0765715	1.4410313
34.38408037724492	1.9695766	1.403416
34.402427309713296	1.8540869	1.3616486
34.42077515159559	1.8616275	1.3644147
34.43912390349752	1.9244019	1.3872281
34.45747356602499	1.8778265	1.3703381
34.47582413978423	1.7796946	1.334052
34.49417562538163	1.8212937	1.3495531
34.51252802342388	1.855971	1.3623402
34.53088133451789	1.8359802	1.3549834
34.54923555927084	1.9207698	1.3859184
34.567590698290104	1.9664533	1.4023029
34.58594675218336	2.0293832	1.4245642
34.6043037215585	1.9739025	1.4049563
34.62266160702365	1.9893972	1.4104599
34.641020409187234	2.0116055	1.4183108
34.65938012865785	1.965135	1.4018327
34.677740766044394	1.8602597	1.3639134
34.69610232195598	2.0216968	1.4218638
34.714464797002016	2.319068	1.5228486
34.73282819179208	2.3402236	1.529779
34.751192506936064	2.0923004	1.4464786
34.76955774304408	2.009163	1.4174495
34.7879239007265	2.0649908	1.4370075
34.80629098059391	2.0245647	1.422872
34.824658983257194	1.937859	1.39207
34.843027909327446	1.8860345	1.3733298
34.86139775941603	1.7802697	1.3342675
34.879768534134534	1.6724067	1.2932156
34.89814023409483	1.7155563	1.3097924
34.91651285990901	1.97873	1.4066733
34.93488641218944	2.3351526	1.5281206
34.95326089154871	2.385877	1.5446284
34.97163629859967	2.304718	1.5181298
34.99001263395542	2.1812565	1.4769077
35.00838989822934	2.0492182	1.431509
35.02676809203499	1.9677329	1.4027591
35.04514721598624	1.9340935	1.3907169
35.063527270697215	1.9045886	1.3800683
35.081908256782256	1.9169781	1.3845497
35.10029017485597	1.8509157	1.3604836
35.11867302553321	1.771571	1.3310038
35.137056809429104	1.8120388	1.3461199
35.155441527159006	2.0825913	1.4431186
35.173827179338524	2.1107519	1.4528427
35.19221376658354	1.9540008	1.3978558
35.21060128951017	1.7913166	1.3384007
35.2289897487348	2.015676	1.4197451
35.24737914487405	2.2309582	1.4936392
35.26576947854479	2.2513387	1.5004462
35.28416075036418	1.9585202	1.3994714
35.30255296094958	2.0574658	1.4343868
35.32094611091867	2.2673843	1.5057836
35.33934020088932	2.4826896	1.5756553
35.35773523147969	2.3967447	1.5481423
35.3761312033082	2.2416906	1.4972277
35.394528116993506	2.0440338	1.429697
35.41292597315452	2.1944978	1.4813838
35.431324772410434	1.980303	1.4072324
35.449724515380666	1.8398082	1.3563954
35.46812520268491	1.7632293	1.3278664
35.486526834943106	1.8740722	1.3689675
35.504929412775454	2.2564569	1.5021508
35.52333293680242	2.5886781	1.6089369
35.54173740764471	2.595103	1.6109324
35.560142825923286	2.3873396	1.5451018
35.5785491922594	1.9003266	1.3785233
35.59695650727454	1.7832526	1.3353848
35.61536477159042	1.8569168	1.3626873
