0.008763373481513119	0.56609195	0.7523908
0.026290120649546365	0.33515513	0.57892585
0.043816868432600686	0.2164704	0.4652638
0.06134361724069026	0.09818326	0.3133421
0.07887036748382949	0.1384499	0.37208858
0.0963971195720331	0.14074135	0.3751551
0.11392387391531617	0.17908989	0.42319015
0.1314506309236943	0.15046564	0.387899
0.1489773910071836	0.24527384	0.4952513
0.16650415457580078	0.25469652	0.5046747
0.18403092203956356	0.22611728	0.4755179
0.20155769380849	0.1709357	0.4134437
0.2190844702925996	0.10918466	0.330431
0.2366112519019124	0.114271306	0.33804038
0.2541380390464497	0.087817974	0.29634097
0.27166483213623416	0.09029663	0.300494
0.28919163158128947	0.1247358	0.35317957
0.3067184377916406	0.1836013	0.42848724
0.324245251177314	0.16277161	0.40344965
0.34177207214833777	0.11507614	0.33922875
0.3592989011147415	0.13953145	0.3735391
0.37682573848655654	0.1316808	0.3628785
0.39435258467381573	0.16810465	0.41000566
0.41187944008655414	0.18142793	0.42594358
0.42940630513480854	0.17319533	0.41616744
0.446933180228618	0.15089719	0.38845488
0.4644600657780234	0.15993026	0.3999128
0.48198696219306775	0.1691144	0.4112352
0.49951386988379676	0.22272122	0.47193348
0.5170407892602581	0.21662243	0.46542713
0.5345677207325025	0.16435002	0.40540105
0.5520946647105822	0.14273088	0.3777974
0.5696216216045534	0.15532985	0.39411908
0.5871485918244737	0.13768746	0.3710626
0.6046755757804043	0.11318101	0.33642384
0.6222025738824094	0.12959096	0.35998744
0.6397295865405557	0.15356183	0.39186966
0.6572566141649129	0.15258406	0.3906201
0.6747836571655547	0.15941878	0.3992728
0.6923107159525568	0.17595929	0.41947502
0.7098377909359992	0.19518997	0.4418031
0.7273648825259653	0.23054345	0.48014942
0.7448919911325411	0.19700953	0.44385755
0.762419117165817	0.14077537	0.37520045
0.7799462610358868	0.11852141	0.3442694
0.7974734231528482	0.12602468	0.35499954
0.8150006039268024	0.17492096	0.41823554
0.8325278037678551	0.18597351	0.43124646
0.8500550230861152	0.19541559	0.44205835
0.8675822622916969	0.199585	0.4467494
0.8851095217947171	0.2000518	0.4472715
0.9026368020052984	0.21714045	0.46598333
0.9201641033335665	0.2499653	0.49996528
0.9376914261896523	0.29868183	0.5465179
0.9552187709836915	0.30457535	0.55188346
0.9727461381258234	0.27686948	0.5261839
0.990273528026193	0.20461185	0.45234042
1.0078009410949496	0.21159543	0.45999503
1.0253283777422473	0.26212716	0.5119836
1.0428558383782454	0.3218921	0.5673554
1.0603833234131086	0.34952682	0.5912079
1.0779108332570058	0.37088597	0.6090041
1.0954383683201119	0.36440235	0.6036575
1.112965929012607	0.43773434	0.66161495
1.1304935157446763	0.52918446	0.72745067
1.1480211289265108	0.5585018	0.7473298
1.1655487689683062	1.4075756	1.1864129
1.1830764362802655	1.6807581	1.2964406
1.200604131272596	2.0660472	1.4373751
1.2181318543555117	2.2617297	1.5039048
1.235659605939232	2.3001666	1.51663
1.253187386433982	3.732562	1.931984
1.270715196249994	6.1506405	2.4800484
1.2882430357975057	11.703192	3.4209929
1.3057709054867608	16.632147	4.078253
1.3232988057280106	22.668669	4.7611628
1.3408267369315112	27.813253	5.273827
1.358354699507526	31.681192	5.628605
1.3758826938663256	35.671326	5.9725475
1.3934107204181858	37.27731	6.1055145
1.410938779573391	37.285587	6.1061926
1.4284668717422309	37.998993	6.1643324
1.4459949973350033	37.409584	6.1163373
1.4635231567620117	37.678684	6.1382966
1.4810513504335687	36.82937	6.0687203
1.4985795787599925	36.334843	6.027839
1.5161078421516088	36.12033	6.0100193
1.5336361410187505	35.42265	5.951693
1.5511644757717598	35.10613	5.9250426
1.5686928468209842	35.352966	5.945836
1.58622125457678	35.335484	5.9443655
1.6037496994495108	36.541058	6.04492
1.621278181849548	36.785442	6.0651
1.6388067021872719	37.68317	6.138662
1.6563352608730693	37.120358	6.092648
1.673863858317336	36.326088	6.027113
1.6913924949304753	35.487835	5.9571667
1.7089211711228998	34.366745	5.8623157
1.7264498873050296	33.36761	5.7764707
1.7439786438872935	32.593952	5.709111
1.7615074412801288	31.94556	5.6520405
1.779036279893981	31.689756	5.6293654
1.796565160139305	31.06957	5.5740085
1.814094082426564	29.995352	5.4768014
1.8316230471662298	28.737158	5.360705
1.849152054768784	27.609188	5.2544446
1.8666811056447168	27.208494	5.216176
1.8842102002045273	26.728983	5.170008
1.901739338858724	26.395721	5.1376767
1.9192685220178245	25.87369	5.086619
1.9367977500923557	25.238117	5.023755
1.9543270234928547	24.667484	4.966637
1.971856342629867	23.994768	4.8984456
1.9893857079139496	23.611454	4.859162
2.006915119755667	23.162132	4.8127055
2.0244445785655945	22.341896	4.7267213
2.0419740847543175	21.732174	4.661778
2.0595036387324317	21.37732	4.6235614
2.0770332409105414	21.002605	4.58286
2.094562891699263	20.669405	4.546362
2.1120925915092217	19.952944	4.4668717
2.129622340751053	19.797039	4.4493866
2.1471521398354043	188.20639	13.718833
2.1646819891729323	444.64252	21.086548
2.182211889174303	440.81268	20.995539
2.1997418402501974	453.05212	21.28502
2.2172718428113023	432.9663	20.807842
2.234801897268317	320.94977	17.915071
2.2523320040319548	17.23922	4.152014
2.269862163512935	16.75935	4.0938187
2.287392376121992	16.334026	4.041538
2.304922642269869	16.174746	4.021784
2.322452962367322	15.964881	3.9956076
2.3399833368251164	15.795856	3.9744
2.357513766054032	15.567303	3.945542
2.3750442504648586	15.25387	3.9056203
2.3925747904683963	14.788533	3.8455863
2.410105386475459	14.639537	3.8261647
2.4276360388968707	14.428095	3.7984333
2.445166748143469	14.250061	3.7749252
2.4626975146261025	13.937563	3.7333045
2.4802283387556323	13.553103	3.681454
2.4977592209429305	13.375493	3.657252
2.5152901615988825	13.137214	3.6245294
2.5328211611343865	12.939572	3.5971618
2.5503522199603523	12.709839	3.5650861
2.5678833384877024	12.478964	3.5325577
2.5854145171273712	12.3056555	3.5079417
2.6029457562903064	11.970867	3.4598942
2.620477056387469	11.614359	3.4079845
2.6380084178298326	11.362519	3.3708336
2.655539841028383	11.193663	3.345693
2.673071326394119	11.167224	3.3417397
2.6906028743380523	10.984177	3.3142385
2.708134485271211	11.079454	3.3285813
2.7256661596046325	10.933401	3.3065693
2.743197897749369	10.749137	3.2785876
2.760729700116486	10.561734	3.2498822
2.778261567117063	10.294648	3.2085273
2.795793499162193	10.122554	3.181596
2.8133254966629817	9.950281	3.1544065
2.830857560030551	9.803979	3.1311307
2.8483896896760337	9.711487	3.1163259
2.865921886010578	9.48855	3.080349
2.883454149445347	9.353177	3.0582964
2.9009864803915177	9.271197	3.0448642
2.91851887926028	9.1313925	3.0218194
2.9360513464628384	8.938823	2.9897864
2.953583882410413	8.78115	2.9633005
2.9711164875142373	8.709322	2.9511561
2.9886491621855606	8.701379	2.94981
3.0061819068356455	8.655883	2.9420881
3.023714721875769	8.562656	2.9262018
3.041247607717225	8.457083	2.9081063
3.0587805647713213	8.382947	2.8953319
3.0763135934493806	8.186532	2.8612115
3.0938466941627407	7.961723	2.8216524
3.1113798673227544	7.878216	2.8068159
3.1289131133407904	7.7983017	2.792544
3.1464464326282315	7.7799654	2.789259
3.1639798255964786	7.730023	2.7802918
3.1815132926569443	7.6675177	2.7690282
3.1990468342210603	7.578324	2.7528756
3.216580450700272	7.5290413	2.7439098
3.2341141425060416	7.4269714	2.7252471
3.251647910049847	7.4646316	2.7321477
3.2691817537431813	7.4547215	2.7303336
3.286715673997555	7.3225083	2.7060134
3.3042496712244938	7.132351	2.6706462
3.32178374583554	6.9235134	2.631257
3.339317898242251	6.961413	2.638449
3.3568521288562034	6.91118	2.6289122
3.3743864380889876	6.890151	2.6249096
3.3919208263522127	6.8085456	2.609319
3.4094552940575023	6.7195745	2.592214
3.4269898416164972	6.635899	2.5760238
3.444524469440858	6.557049	2.5606735
3.4620591779422587	6.4871254	2.5469835
3.479593967532391	6.42111	2.5339909
3.4971288386229658	6.409675	2.5317335
3.5146637916257086	6.420322	2.5338354
3.5321988269523628	6.4269285	2.5351388
3.5497339450146903	6.4299316	2.535731
3.5672691462244708	6.4529037	2.5402567
3.5848044309934988	6.504284	2.5503497
3.60233979973359	6.563665	2.561965
3.619875252856575	6.5562315	2.560514
3.6374107907743034	6.4617867	2.5420046
3.6549464138986427	6.368122	2.5235138
3.6724821226414788	6.3356657	2.5170748
3.690017917414714	6.331263	2.5162
3.7075537986302702	6.310442	2.5120592
3.7250897667000857	6.400346	2.5298905
3.7426258220361235	6.598703	2.568794
3.7601619650503553	6.8414755	2.6156213
3.777698196154779	7.3231406	2.7061303
3.7952345157614067	8.242808	2.8710291
3.8127709242822716	9.22373	3.0370595
3.830307422129425	11.264045	3.356195
3.847844009714936	12.589265	3.5481355
3.8653806874508954	15.930009	3.9912415
3.882917455749409	15.5396805	3.9420402
3.900454315022606	15.701039	3.9624536
3.917991265682631	12.638205	3.5550253
3.9355283081416506	10.69125	3.2697477
3.9530654428118495	8.61219	2.9346533
3.970602670105433	7.4103694	2.7221994
3.9881399904346244	6.624852	2.5738788
4.005677404211669	6.5050745	2.5505047
4.023214911848827	6.479502	2.5454867
4.0407525137583855	6.520401	2.5535076
4.058290210352644	6.605867	2.570188
4.075828002043927	6.5225673	2.5539317
4.0933658892445814	6.3686514	2.5236187
4.110903872366966	6.2220297	2.4943995
4.128441951823468	6.239443	2.4978876
4.145980128026488	6.281943	2.5063803
4.163518401388452	6.2620573	2.5024104
4.181056772321807	6.2121334	2.4924152
4.1985952412390155	6.157102	2.481351
4.216133808552567	6.219728	2.4939382
4.233672474674966	6.31902	2.513766
4.251211240018741	6.4331846	2.5363724
4.268750104996445	6.650731	2.578901
4.286289070020643	7.611065	2.7588158
4.303828135503928	9.290818	3.0480843
4.3213673018589125	29.561083	5.4370103
4.3389065694982305	90.747574	9.526152
4.356445938834537	166.07155	12.886875
4.3739854102805085	171.86229	13.109626
4.391524984248844	172.67146	13.140451
4.409064661152262	136.70341	11.692023
4.426604441403504	97.02063	9.849905
4.444144325415337	76.04369	8.720304
4.461684313600543	22.03932	4.6946054
4.47922440637193	22.177135	4.7092605
4.496764604142329	20.215664	4.4961834
4.5143049073245916	18.390787	4.2884483
4.531845316331589	16.292488	4.0363955
4.5493858315762195	13.574936	3.684418
4.566926453471405	11.239502	3.3525367
4.584467182430081	9.285499	3.0472116
4.602008018865218	7.9673376	2.8226473
4.619548963189798	7.2760673	2.6974187
4.637090015816834	6.8789744	2.6227798
4.654631177159353	6.710803	2.5905218
4.672172447630417	6.548768	2.559056
4.689713827643102	6.330518	2.516052
4.7072553176105085	6.046498	2.4589627
4.724796917945764	5.811379	2.4106803
4.742338629062015	5.691798	2.385749
4.759880451372434	5.6779304	2.3828409
4.777422385290215	5.6167	2.369958
4.794964431228581	5.544832	2.3547468
4.812506589600768	5.5768995	2.361546
4.830048860820047	5.5869246	2.3636675
4.847591245299709	5.627564	2.3722486
4.8651337434530655	5.683939	2.3841014
4.882676355693457	5.7043285	2.3883736
4.900219082434242	5.7577786	2.399537
4.917761924088813	5.6380267	2.3744528
4.935304881070575	5.570777	2.3602493
4.952847953792969	5.5373473	2.3531568
4.970391142669449	5.5198193	2.3494296
4.9879344481135055	5.547878	2.3553934
5.005477870538642	5.52503	2.3505383
5.023021410358394	5.5709023	2.360276
5.040565067986324	5.5221868	2.3499334
5.05810884383601	5.5157394	2.348561
5.075652738321066	5.378579	2.3191764
5.09319675185512	5.348869	2.3127623
5.110740884851836	5.3219013	2.3069246
5.128285137724894	5.380287	2.3195446
5.145829510888007	5.3592772	2.3150113
5.163374004754908	5.3343377	2.3096185
5.1809186197393595	5.337932	2.3103964
5.198463356255145	5.387131	2.3210194
5.216008214716077	5.386754	2.320938
5.233553195535998	5.3732963	2.3180373
5.251098299128764	5.3260155	2.3078163
5.268643525908272	5.2484508	2.2909498
5.286188876288432	5.201768	2.2807384
5.3037343506831895	5.1954193	2.2793462
5.32127994950651	5.287679	2.2994955
5.3388256731723915	5.3652	2.3162901
5.356371522094851	5.3164196	2.3057363
5.373917496687938	5.266577	2.2949023
5.391463597365729	5.272902	2.2962801
5.40900982454232	5.229985	2.286916
5.426556178631843	5.2699246	2.2956316
5.444102660048449	5.304018	2.3030453
5.4616492692063225	5.299385	2.3020394
5.479196006519669	5.289828	2.2999625
5.496742872402727	5.208701	2.2822578
5.514289867269756	5.2033987	2.281096
5.531836991535049	5.1983776	2.2799952
5.549384245612924	5.1948323	2.2792175
5.566931629917724	5.1983876	2.2799973
5.584479144863822	5.144046	2.268049
5.6020267908656205	5.09611	2.2574565
5.619574568337545	5.0480914	2.246796
5.637122477694054	5.017083	2.2398846
5.654670519349629	5.1003475	2.258395
5.672218693718784	5.146909	2.26868
5.689767001216059	5.178381	2.2756057
5.707315442256021	5.1389213	2.266919
5.724864017253266	5.183903	2.2768188
5.7424127266224225	5.2154846	2.2837436
5.75996157077814	5.202791	2.2809627
5.777510550135105	5.211059	2.2827744
5.795059665108022	5.191041	2.2783856
5.812608916111639	5.197067	2.2797077
5.830158303560715	5.2444324	2.2900727
5.847707827870055	5.2269216	2.286246
5.86525748945448	5.3278174	2.3082066
5.8828072887288485	5.4764137	2.340174
5.900357226108044	5.607151	2.3679423
5.917907302006979	5.755555	2.3990738
5.9354575168406	6.2860913	2.5072079
5.9530078710238765	6.800484	2.6077738
5.970558364971812	7.227282	2.6883605
5.988108999099438	7.5805726	2.753284
6.005659773821818	8.083141	2.8430865
6.023210689554039	7.918637	2.8140073
6.040761746711227	8.364549	2.892153
6.058312945708531	7.818979	2.7962437
6.075864286961132	7.405552	2.7213144
6.093415770884244	6.762853	2.6005485
6.1109673978931065	6.2449036	2.4989805
6.128519168402993	5.576043	2.3613646
6.146071082829204	5.386542	2.3208926
6.163623141587075	5.302316	2.302676
6.181175345091969	5.310565	2.3044662
6.198727693759281	5.314282	2.3052726
6.216280188004435	5.2713847	2.2959497
6.233832828242885	5.200868	2.2805412
6.251385614890126	5.1416087	2.2675116
6.268938548361669	5.0794024	2.253753
6.286491629073067	5.0585694	2.2491264
6.304044857439898	5.13895	2.266925
6.321598233877777	5.13906	2.2669494
6.339151758802344	5.1054792	2.2595308
6.356705432629277	5.0800457	2.2538958
6.37425925577428	4.9999886	2.2360654
6.391813228653095	4.9896984	2.2337632
6.409367351681486	4.9563823	2.2262933
6.426921625275259	4.994427	2.2348216
6.44447604985025	4.9872117	2.2332065
6.46203062582232	5.00135	2.2363698
6.47958535360737	4.9263587	2.21954
6.497140233621328	4.9386334	2.2223036
6.514695266280161	4.9284654	2.2200148
6.532250451999859	4.9644327	2.2281008
6.549805791196454	5.003143	2.2367706
6.567361284286002	5.0698195	2.251626
6.584916931684597	5.0684676	2.2513258
6.602472733808367	5.0230823	2.2412233
6.6200286910734665	5.035217	2.243929
6.637584803896092	5.0273514	2.2421756
6.655141072692462	5.058698	2.249155
6.672697497878842	5.0930924	2.256788
6.690254079871514	5.1264415	2.2641647
6.707810819086808	5.0873213	2.2555091
6.725367715941078	5.0395513	2.2448945
6.742924770850719	4.946317	2.2240317
6.760481984232151	4.9431033	2.223309
6.778039356501836	5.0056767	2.2373369
6.795596888076266	5.034419	2.243751
6.813154579371963	5.038935	2.2447572
6.830712430805492	5.022777	2.2411554
6.84827044279344	5.063336	2.2501857
6.865828615752445	5.0336623	2.2435825
6.883386950099159	4.997677	2.2355485
6.900945446250287	4.957244	2.226487
6.918504104622553	4.985825	2.232896
6.936062925632727	5.0108757	2.2384984
6.953621909697607	5.0240517	2.2414396
6.971181057234028	5.006551	2.2375324
6.988740368658859	5.0586567	2.2491457
7.006299844389007	5.0832357	2.2546031
7.023859484841407	5.1882305	2.2777689
7.041419290433036	5.322859	2.3071322
7.058979261580902	5.51545	2.3484995
7.0765393987020495	5.7089653	2.3893442
7.094099702213559	6.0565505	2.461006
7.111660172532549	6.339065	2.51775
7.129220810076164	6.714164	2.5911703
7.146781615261595	7.3672004	2.7142587
7.16434258850606	7.617059	2.759902
7.181903730226821	8.143735	2.853723
7.1994650408411704	8.19331	2.8623958
7.217026520766437	8.397307	2.8978107
7.234588170419983	8.564986	2.9265997
7.252149990219215	8.496376	2.9148543
7.269711980581568	8.304261	2.8817115
7.2872741419245175	8.183062	2.860605
7.304836474665574	7.8179193	2.7960541
7.322398979222286	7.5705314	2.7514598
7.339961656012233	7.252896	2.69312
7.357524505453039	6.9485283	2.636006
7.375087527962357	6.6602354	2.580743
7.392650723957886	6.3406	2.5180547
7.410214093857353	6.011345	2.4518044
7.427777638078528	5.7906237	2.4063714
7.445341357039213	5.6063175	2.3677664
7.4629052511572525	5.438337	2.332024
7.480469320850524	5.3224764	2.3070493
7.498033566536948	5.330337	2.3087523
7.5155979886344735	5.271454	2.2959647
7.5331625875610975	5.2069497	2.2818742
7.550727363734844	5.1678677	2.2732944
7.568292317573788	5.152488	2.2699094
7.585857449496025	5.23753	2.2885652
7.603422759919705	5.215852	2.283824
7.620988249263007	5.213908	2.2833984
7.638553917944147	5.171606	2.2741165
7.656119766381391	5.1382484	2.2667706
7.673685794993023	5.2161283	2.2838845
7.691252004197388	5.2540884	2.2921798
7.70881839441285	5.290239	2.300052
7.726384966057826	5.233807	2.2877514
7.743951719550762	5.261536	2.293804
7.761518655310149	5.327127	2.308057
7.779085773754511	5.338806	2.3105857
7.796653075302419	5.3805814	2.319608
7.814220560372475	5.300595	2.3023021
7.831788229383323	5.2991996	2.301999
7.8493560827536495	5.298391	2.3018234
7.866924120902174	5.2771683	2.2972088
7.884492344247663	5.301011	2.3023925
7.9020607532089135	5.348992	2.3127887
7.919629348204771	5.4016266	2.32414
7.937198129654115	5.474657	2.3397985
7.954767097975865	5.457182	2.3360612
7.972336253588986	5.3893404	2.3214953
7.989905596912472	5.401685	2.3241525
8.007475128365371	5.4412403	2.3326466
8.025044848366756	5.4933224	2.3437839
8.042614757335754	5.5183816	2.3491235
8.060184855691523	5.6043177	2.367344
8.07775514385327	5.7587137	2.399732
8.095325622240228	5.8934803	2.427649
8.112896291271687	5.9038315	2.4297802
8.130467151366968	6.028116	2.4552221
8.148038202945436	6.084707	2.4667199
8.165609446426497	6.0683446	2.463401
8.183180882229594	6.0704947	2.4638374
8.200752510774217	6.0458727	2.4588356
8.218324332479893	6.059018	2.4615073
8.235896347766193	6.061772	2.4620667
8.253468557052724	6.063734	2.462465
8.27104096075914	6.0899773	2.467788
8.288613559305137	6.1300297	2.4758897
8.306186353110448	6.13962	2.4778256
8.32375934259485	6.2750545	2.5050058
8.341332528178162	6.290464	2.5080798
8.358905910280246	6.408693	2.5315397
8.376479489321003	6.3480635	2.5195363
8.394053265720377	6.3600965	2.521923
8.411627239898356	6.3739667	2.5246716
8.42920141227497	6.287683	2.5075252
8.44677578327029	6.2932816	2.5086415
8.464350353304427	6.2342095	2.49684
8.48192512279754	6.29911	2.5098028
8.499500092169827	6.2684507	2.5036874
8.51707526184153	6.203033	2.490589
8.534650632232934	6.1509895	2.4801188
8.552226203764365	6.116922	2.473241
8.569801976856192	6.1884365	2.4876568
8.587377951928834	6.265525	2.503103
8.60495412940274	6.358476	2.521602
8.622530509698416	6.3081684	2.5116067
8.6401070932364	6.356219	2.5211542
8.657683880437283	6.494398	2.548411
8.675260871721695	6.700446	2.588522
8.692838067510303	6.8569436	2.6185765
8.710415468223834	7.020475	2.649618
8.727993074283043	7.190267	2.6814673
8.745570886108737	7.1499844	2.6739454
8.763148904121765	7.20548	2.6843026
8.78072712874302	7.1899395	2.6814063
8.798305560393441	7.4904757	2.7368734
8.815884199494006	7.605305	2.7577717
8.833463046465745	7.761164	2.7858865
8.851042101729728	7.8889093	2.8087204
8.86862136570707	8.194895	2.8626726
8.886200838818924	8.311057	2.8828905
8.903780521486505	8.373972	2.8937817
8.921360414131055	8.476248	2.9113996
8.938940517173874	8.619407	2.9358826
8.956520831036297	8.76646	2.960821
8.97410135613971	8.991414	2.9985688
8.99168209290554	9.211207	3.034997
9.009263041755265	9.495181	3.0814252
9.026844203110405	9.702582	3.1148968
9.044425577392525	9.864703	3.1408124
9.062007165023239	9.911234	3.1482112
9.079588966424197	10.189502	3.1920998
9.097170982017108	10.269757	3.204646
9.11475321222372	11.269147	3.356955
9.132335657465825	12.2083645	3.494047
9.149918318165264	12.279218	3.5041714
9.167501194743924	12.790236	3.576344
9.18508428762374	12.490904	3.5342474
9.202667597226693	12.441377	3.5272336
9.220251123974803	12.044325	3.4704936
9.237834868290143	11.776997	3.431763
9.255418830594836	11.568831	3.4012985
9.273003011311046	11.039057	3.3225076
9.290587410860985	10.844238	3.293059
9.308172029666911	10.221507	3.1971092
9.32575686815113	9.963887	3.1565626
9.343341926735997	8.832124	2.971889
9.360927205843916	8.6068125	2.933737
9.378512705897327	8.480177	2.9120743
9.396098427318728	8.268164	2.8754416
9.413684370530664	8.152928	2.8553333
9.431270535955722	7.9868035	2.8260934
9.448856924016539	7.8861547	2.80823
9.466443535135806	7.7344084	2.7810805
9.484030369736251	7.73827	2.7817745
9.501617428240658	7.734321	2.7810647
9.519204711071852	7.7935286	2.7916892
9.536792218652714	7.84193	2.8003447
9.55437995140617	7.8884444	2.8086374
9.571967909755191	7.9181294	2.8139172
9.589556094122802	7.9339952	2.8167348
9.60714450493207	7.910568	2.8125732
9.624733142606116	7.947345	2.8191035
9.642322007568108	7.9691067	2.8229606
9.659911100241267	8.03948	2.8353977
9.677500421048851	8.043163	2.8360472
9.695089970414175	8.078196	2.8422167
9.712679748760609	8.089967	2.8442867
9.730269756511557	8.116969	2.8490295
9.747859994090492	8.133476	2.851925
9.765450461920915	8.135512	2.852282
9.78304116042639	8.161889	2.8569021
9.800632090030527	8.2964735	2.88036
9.81822325115699	8.335976	2.887209
9.835814644229481	8.326023	2.885485
9.853406269671762	8.267722	2.8753648
9.870998127907646	8.229305	2.8686767
9.888590219360985	8.230835	2.8689432
9.906182544455698	8.254441	2.8730543
9.923775103615734	8.254978	2.8731477
9.941367897265108	8.308434	2.8824353
9.958960925827878	8.298684	2.8807437
9.97655418972816	8.340206	2.8879416
9.994147689390106	8.351158	2.889837
10.011741425237934	8.392846	2.8970408
10.029335397695904	8.33007	2.886186
10.04692960718833	8.274636	2.8765666
10.06452405413958	8.201982	2.8639102
10.082118738974064	8.1746855	2.8591406
10.099713662116246	8.178716	2.8598454
10.117308823990651	8.144055	2.853779
10.134904225021844	8.11701	2.8490367
10.152499865634445	8.073597	2.8414075
10.170095746253125	8.085412	2.8434858
10.18769186730261	8.120326	2.8496187
10.205288229207675	8.138025	2.8527224
10.222884832393145	8.19156	2.86209
10.2404816772839	8.177448	2.859624
10.258078764304868	8.104603	2.8468585
10.275676093881035	8.089496	2.844204
10.293273666437438	7.9847546	2.8257308
10.310871482399158	8.064296	2.8397703
10.32846954219134	8.0866165	2.8436978
10.346067846239173	8.1458845	2.8540995
10.363666394967908	8.132227	2.851706
10.38126518880283	8.150869	2.8549728
10.398864228169298	8.247767	2.8718927
10.416463513492713	8.320509	2.8845294
10.434063045198531	8.262712	2.8744934
10.451662823712262	8.192845	2.8623147
10.469262849459467	8.130638	2.8514273
10.486863122865758	8.0822315	2.8429265
10.504463644356806	8.13891	2.8528776
10.522064414358338	8.047176	2.8367546
10.539665433296118	7.872761	2.805844
10.557266701595987	7.78075	2.7893996
10.574868219683818	7.737265	2.781594
10.592469987985552	7.675559	2.77048
10.610072006927185	7.590511	2.755088
10.627674276934751	7.4850216	2.7358768
10.64527679843435	7.3522706	2.711507
10.662879571852143	7.25671	2.693828
10.680482597614331	7.109916	2.6664426
10.698085876147173	7.028845	2.651197
10.715689407876988	6.9595027	2.638087
10.733293193230146	6.86961	2.620994
10.750897232633072	6.813764	2.6103187
10.76850152651225	6.70658	2.5897067
10.786106075294207	6.5766973	2.5645072
10.803710879405534	6.416149	2.533012
10.821315939272877	6.340167	2.517969
10.83892125532294	6.3242445	2.514805
10.856526827982472	6.3279395	2.5155396
10.874132657678285	6.3162036	2.5132058
10.891738744837243	6.311467	2.5122633
10.909345089886271	6.2549324	2.5009863
10.926951693252343	6.1714377	2.484238
10.944558555362494	6.0657353	2.4628713
10.96216567664381	5.9754944	2.4444823
10.979773057523436	5.8328776	2.4151351
10.997380698428573	5.780077	2.404179
11.014988599786477	5.760839	2.4001749
11.032596762024461	5.7257557	2.3928552
11.050205185569892	5.627946	2.3723292
11.067813870850198	5.5451074	2.3548052
11.085422818292859	5.4724493	2.3393266
11.10303202832541	5.436496	2.3316295
11.120641501375454	5.3618236	2.3155613
11.138251237870636	5.3158445	2.3056116
11.155861238238671	5.317749	2.3060246
11.173471502907317	5.290088	2.3000193
11.191082032304402	5.2247376	2.2857685
11.208692826857805	5.1323996	2.26548
11.226303886995465	5.058003	2.2490005
11.243915213145371	5.012826	2.238934
11.261526805735578	4.9559307	2.226192
11.279138665194196	4.9050517	2.214735
11.296750791949393	4.8615565	2.2048938
11.314363186429393	4.828596	2.1974068
11.331975849062479	4.7877407	2.1880906
11.34958878027699	4.7017236	2.168346
11.36720198050133	4.635488	2.1530182
11.384815450163948	4.554211	2.1340597
11.402429189693366	4.502207	2.1218405
11.420043199518153	4.5000863	2.1213408
11.437657480066942	63.50283	7.9688663
11.455272031768422	85.2034	9.230569
11.472886855051353	107.58883	10.372503
11.490501950344528	99.19831	9.959835
11.508117318076819	84.51716	9.193321
11.52573295867715	45.860485	6.772037
11.543348872574514	4.156183	2.0386717
11.560965060197946	4.096254	2.0239205
11.57858152197655	4.1277003	2.0316744
11.59619825833949	4.102839	2.0255466
11.613815269715985	4.058637	2.014606
11.631432556535323	38.56664	6.2102046
11.649050119226837	83.066734	9.114096
11.666667958219929	93.47346	9.668167
11.68428607394406	107.774345	10.381442
11.701904466828756	82.642334	9.090783
11.719523137303586	65.48361	8.092195
11.737142085798196	4.706071	2.169348
11.754761312742286	3.788688	1.9464552
11.772380818565619	3.7422817	1.9344978
11.790000603698015	3.7121637	1.9266976
11.80762066856935	3.6209192	1.9028714
11.825241013609572	3.560861	1.8870244
11.842861639248683	3.5168858	1.8753362
11.860482545916748	3.5251322	1.8775336
11.878103734043883	3.5082924	1.8730437
11.895725204060282	3.4447167	1.8559948
11.91334695639619	3.4220483	1.849878
11.930968991481919	3.3889723	1.8409162
11.948591309747824	3.3959365	1.8428067
11.966213911624347	3.3433824	1.8284918
11.98383679754198	3.3037117	1.8176116
12.001459967931268	3.2633271	1.8064681
12.019083423222835	3.2525816	1.8034915
12.036707163847352	3.2239518	1.7955366
12.05433119023556	3.1986353	1.7884729
12.071955502818259	3.1856318	1.7848338
12.089580102026313	3.1664033	1.7794391
12.107204988290643	3.1284647	1.7687466
12.12483016204224	3.11841	1.765902
12.142455623712152	3.1442912	1.7732149
12.16008137373149	3.1482627	1.7743344
12.177707412531431	3.1480513	1.7742748
12.19533374054321	3.0568514	1.7483853
12.212960358198126	3.001684	1.7325369
12.230587265927545	2.9970598	1.7312019
12.248214464162889	3.0296252	1.7405819
12.265841953335649	3.0186565	1.7374281
12.283469733877375	2.9839506	1.7274115
12.301097806219685	2.975555	1.7249796
12.31872617079425	2.9817047	1.7267613
12.336354828032825	3.0317688	1.7411975
12.353983778367205	3.0347075	1.7420412
12.371613022229262	2.981492	1.7266997
12.389242560050928	2.9506361	1.7177416
12.406872392264201	2.9043343	1.7042108
12.424502519301143	2.9281049	1.7111707
12.442132941593874	2.9304307	1.71185
12.459763659574586	2.8700497	1.6941221
12.477394673675532	2.854076	1.689401
12.49502598432903	2.8355827	1.6839188
12.51265759196746	2.840544	1.6853913
12.530289497023267	2.8050709	1.6748346
12.547921699928967	2.7784812	1.6668777
12.565554201117134	2.7859502	1.6691166
12.583187001020404	2.806145	1.6751552
12.600820100071486	2.8197167	1.6792012
12.618453498703152	2.8163817	1.6782079
12.636087197348235	2.8020287	1.6739261
12.65372119643964	2.785021	1.6688383
12.671355496410326	2.7378297	1.6546389
12.68899009769333	2.763055	1.662244
12.706625000721749	2.8025968	1.6740959
12.724260205928752	2.8595905	1.6910324
12.741895713747551	2.873836	1.6952392
12.759531524611454	2.9375212	1.7139199
12.777167638953818	3.0124393	1.735638
12.794804057208072	3.0445483	1.7448634
12.812440779807702	3.0665867	1.7511673
12.830077807186271	3.2277465	1.7965931
12.847715139777405	3.294872	1.8151783
12.865352778014795	3.4857194	1.8670082
12.882990722332197	3.6015487	1.8977747
12.90062897316344	3.6603048	1.9131923
12.918267530942412	3.7514465	1.9368651
12.935906396103071	3.6269312	1.9044504
12.953545569079449	3.8019202	1.9498513
12.971185050305628	3.6070852	1.8992327
12.988824840215775	3.6180158	1.9021082
13.006464939244115	3.5932128	1.8955772
13.024105347824943	3.4471283	1.8566444
13.041746066392617	3.5471053	1.883376
13.05938709538157	3.365231	1.8344566
13.077028435226296	3.390514	1.8413348
13.094670086361363	3.283305	1.8119892
13.112312049221401	3.2173228	1.7936897
13.129954324241112	3.0987139	1.7603164
13.147596911855258	2.8836234	1.6981235
13.165239812498685	2.8360603	1.6840607
13.182883026606293	2.775451	1.6659684
13.200526554613058	2.736346	1.6541904
13.218170396954017	2.6842232	1.6383599
13.235814554064284	2.6782722	1.6365428
13.253459026379034	2.6758733	1.6358097
13.271103814333523	2.6592648	1.6307253
13.288748918363058	2.6595902	1.630825
13.306394338903031	2.6691298	1.6337472
13.32404007638889	2.6816988	1.6375893
13.341686131256164	2.6769671	1.636144
13.359332503940449	2.6688242	1.6336536
13.376979194877402	2.6754422	1.6356779
13.394626204502751	2.7027287	1.6439978
13.412273533252307	2.7047052	1.6445988
13.429921181561937	2.6939664	1.6413307
13.447569149867581	2.7122998	1.6469061
13.465217438605247	2.7289267	1.6519463
13.482866048211022	2.7368844	1.6543531
13.500514979121052	2.7194228	1.6490673
13.518164231771568	2.690216	1.6401879
13.535813806598844	2.6715753	1.6344954
13.553463704039254	2.7115855	1.6466893
13.571113924529229	2.7214053	1.6496682
13.588764468505275	2.719574	1.649113
13.606415336403956	2.7549276	1.6597974
13.624066528661917	2.7485006	1.6578603
13.641718045715882	2.7972229	1.67249
13.659369888002635	2.819687	1.6791923
13.67702205595903	2.917932	1.7081956
13.694674550021993	2.9809313	1.7265373
13.712327370628532	3.0197737	1.7377496
13.729980518215713	3.1014738	1.7611002
13.747633993220681	3.2171319	1.7936364
13.765287796080647	3.2931864	1.8147138
13.7829419272329	3.3009307	1.8168464
13.800596387114801	3.3013644	1.8169657
13.818251176163775	3.2977304	1.8159654
13.835906294817324	3.3378756	1.8269854
13.853561743513023	3.4060206	1.8455408
13.871217522688525	3.451056	1.8577018
13.888873632781538	3.4987452	1.8704933
13.906530074229858	3.5067153	1.8726226
13.92418684747135	3.5027587	1.8715658
13.941843952943948	3.4966447	1.8699317
13.959501391085665	3.4973178	1.8701117
13.977159162334578	3.4657996	1.8616658
13.994817267128846	3.364611	1.8342875
14.012475705906693	3.2156687	1.7932285
14.030134479106424	3.1094255	1.7633563
14.047793587166414	3.0937235	1.7588984
14.065453030525108	3.0522056	1.7470562
14.083112809621026	2.9787626	1.7259092
14.100772924892766	2.9433594	1.7156222
14.118433376778997	2.9547498	1.7189386
14.136094165718458	2.8756533	1.6957752
14.153755292149969	2.7525043	1.6590673
14.171416756512416	2.6721063	1.6346579
14.189078559244768	2.6604004	1.6310734
14.20674070078606	2.6052563	1.6140807
14.224403181575408	2.5314138	1.5910417
14.242066002051999	2.4670284	1.5706776
14.259729162655093	2.4490528	1.564945
14.277392663824022	2.4372149	1.5611582
14.295056505998208	2.4486845	1.5648273
14.312720689617128	2.419613	1.5555105
14.330385215120348	2.4440773	1.5633545
14.348050082947497	2.425046	1.5572559
14.3657152935383	2.4173934	1.5547969
14.383380847332528	2.3914227	1.5464226
14.401046744770051	2.3837726	1.5439471
14.418712986290798	2.4077253	1.5516846
14.436379572334793	2.4197764	1.5555631
14.454046503342123	2.4181483	1.5550396
14.471713779752946	2.3989625	1.5488584
14.489381402007504	2.3900647	1.5459834
14.507049370546113	2.3717265	1.5400411
14.524717685809168	2.400828	1.5494605
14.542386348237134	2.3937814	1.547185
14.560055358270553	2.3941538	1.5473053
14.577724716350051	2.425505	1.5574032
14.595394422916325	2.4368606	1.5610447
14.61306447841015	2.4731355	1.5726206
14.63073488327237	2.4382393	1.5614862
14.648405637943917	2.4209633	1.5559444
14.6660767428658	2.4362025	1.5608339
14.683748198479094	2.4951396	1.579601
14.701420005224954	2.578687	1.605829
14.719092163544628	2.6310337	1.6220461
14.73676467387942	2.6593106	1.6307393
14.754437536670727	2.6850016	1.6385975
14.772110752360014	2.6980393	1.642571
14.78978432138882	2.693894	1.6413085
14.807458244198777	2.6973076	1.6423482
14.82513252123159	2.6953995	1.6417671
14.842807152929028	2.7737665	1.6654629
14.860482139732962	2.7700465	1.6643456
14.87815748208531	2.7093542	1.6460116
14.8958331804281	2.6555567	1.6295879
14.91350923520342	2.6093197	1.6153389
14.931185646853438	2.6402256	1.6248771
14.948862415820408	2.627274	1.6208868
14.966539542546656	2.6392815	1.6245866
14.98421702747459	2.6240559	1.6198938
15.001894871046696	2.6111333	1.6159002
15.019573073705542	2.623025	1.6195755
15.037251635893766	2.6728582	1.6348878
15.054930558054092	2.7069051	1.6452675
15.072609840629323	2.791445	1.6707618
15.090289484062351	2.9298742	1.7116876
15.107969488796124	3.2185116	1.794021
15.125649855273691	3.5946555	1.8959577
15.14333058393817	4.1076903	2.026744
15.161011675232768	5.125073	2.2638624
15.17869312960076	6.4292083	2.5355883
15.196374947485506	8.191208	2.8620286
15.214057129330447	11.172073	3.3424652
15.231739675579114	15.745447	3.9680533
15.249422586675102	20.619282	4.540846
15.267105863062092	23.621685	4.8602147
15.284789505183847	23.91008	4.8897934
15.302473513484218	21.960283	4.68618
15.320157888407127	18.51124	4.3024693
15.337842630396578	14.501866	3.8081317
15.355527739896656	11.344763	3.3681986
15.37321321735153	8.886402	2.9810069
15.39089906320545	6.5370812	2.5567718
15.408585277902748	4.8662634	2.205961
15.42627186188783	3.7440276	1.934949
15.443958815605198	3.2289724	1.7969341
15.461646139499424	2.9801612	1.7263143
15.479333834015168	2.8308625	1.6825167
15.497021899597165	2.7681904	1.663788
15.514710336690234	2.7247002	1.6506666
15.53239914573928	2.6867514	1.6391313
15.550088327189297	2.63729	1.6239735
15.567777881485336	2.548898	1.5965269
15.58546780907256	2.498816	1.5807644
15.6031581103962	2.4921856	1.5786657
15.620848785901568	2.4944532	1.5793839
15.638539836034063	2.477926	1.5741429
15.656231261239173	2.4558723	1.5671223
15.673923061962451	2.4475293	1.5644581
15.691615238649552	2.4223447	1.5563884
15.709307791746202	2.402475	1.549992
15.727000721698221	2.4023468	1.5499506
15.744694028951498	2.4094675	1.552246
15.76238771395202	2.4039516	1.5504682
15.780081777145844	2.3916767	1.5465046
15.797776218979125	2.3733578	1.5405706
15.815471039898094	2.340166	1.5297601
15.833166240349064	2.3116658	1.5204163
15.850861820778437	2.320656	1.52337
15.868557781632699	2.365134	1.5378993
15.886254123358412	2.3826375	1.5435795
15.903950846402232	2.3507588	1.5332184
15.921647951210897	2.3337407	1.5276586
15.939345438231225	2.377465	1.541903
15.957043307910133	2.4191592	1.5553646
15.974741560694602	2.4007716	1.5494424
15.992440197031714	2.3885972	1.5455087
16.01013921736862	2.388049	1.5453314
16.02783862215259	2.3941045	1.5472894
16.045538411830933	2.3912747	1.5463747
16.06323858685107	2.3627822	1.5371344
16.080939147660512	2.3747828	1.541033
16.09864009470684	2.4068139	1.5513909
16.11634142843774	2.4460638	1.5639896
16.134043149300954	2.4317534	1.5594081
16.15174525774433	2.393035	1.5469438
16.169447754215817	2.388939	1.5456192
16.18715063916342	2.3915136	1.5464519
16.204853913035244	2.4346325	1.5603309
16.222557576279478	2.452438	1.5660262
16.240261629344403	22.414007	4.7343435
16.257966072678386	42.964188	6.554707
16.275670906729868	38.08666	6.1714387
16.293376131947387	2.5372934	1.5928884
16.31108174877957	2.5724874	1.6038976
16.328787757675133	2.5910811	1.6096835
16.34649415908287	2.5848715	1.6077535
16.364200953451657	2.60922	1.615308
16.38190814123048	2.635002	1.6232688
16.39961572286839	2.6860805	1.6389266
16.41732369881455	2.7121253	1.6468532
16.43503206951817	2.7532473	1.6592911
16.45274083542859	2.792478	1.6710709
16.47044999699522	2.8136575	1.677396
16.488159554667558	2.8469288	1.6872845
16.505869508895184	2.890535	1.7001574
16.523579860127786	2.9148917	1.7073054
16.541290608815117	2.9682055	1.722848
16.559001755407035	3.0495749	1.7463032
16.57671330035348	3.0809495	1.7552633
16.59442524410448	3.107411	1.762785
16.61213758711015	3.2247248	1.7957518
16.629850329820705	3.326603	1.8238977
16.647563472686436	3.395788	1.8427664
16.665277016157724	3.3838434	1.8395226
16.682990960685053	3.4030337	1.8447313
16.70070530671898	3.4459627	1.8563304
16.718420054710155	3.4877813	1.8675603
16.736135205109335	3.5298882	1.8787997
16.753850758367335	3.5478628	1.8835771
16.771566714935087	3.5929563	1.8955095
16.789283075263597	3.6587665	1.9127903
16.80699983980398	3.7278972	1.9307764
16.82471700900741	3.8278174	1.9564809
16.84243458332518	3.8972826	1.9741536
16.860152563208665	3.9500816	1.9874812
16.87787094910932	4.0120506	2.0030103
16.89558974147871	4.086697	2.021558
16.913308940768466	4.180177	2.0445483
16.931028547430333	4.2791543	2.0686116
16.94874856191613	4.378872	2.0925753
16.966468984677785	4.46347	2.1126926
16.98418981616729	4.444652	2.1082344
17.00191105683676	4.438153	2.1066923
17.019632707138374	4.471126	2.1145039
17.03735476752442	4.5411434	2.130996
17.05507723844728	4.6082387	2.1466808
17.072800120359403	4.6184154	2.1490498
17.090523413713353	4.5910263	2.142668
17.108247118961785	4.5848885	2.1412354
17.125971236557437	4.610937	2.1473093
17.143695766953133	4.6300054	2.1517448
17.161420710601806	4.643754	2.154937
17.179146067956477	4.6636367	2.1595454
17.19687183947025	4.6723065	2.161552
17.21459802559634	4.655542	2.1576705
17.232324626788028	4.6554036	2.1576385
17.25005164349871	4.654405	2.157407
17.267779076181863	4.6148543	2.1482213
17.285506925291074	4.5866404	2.1416442
17.30323519127999	4.568031	2.1372952
17.320963874602384	4.586502	2.141612
17.33869297571211	4.5784574	2.139733
17.356422495063114	4.514429	2.1247187
17.37415243310944	4.4489727	2.109259
17.391882790305218	4.45867	2.1115563
17.40961356710468	4.450983	2.1097353
17.42734476396215	4.4817395	2.117012
17.445076381332044	4.469909	2.114216
17.462808419668868	4.6267033	2.1509774
17.48054087942723	4.7604876	2.1818542
17.498273761061835	5.0328283	2.2433965
17.51600706502747	5.48859	2.342774
17.533740791779024	6.2365103	2.4973006
17.551474941771485	7.6635966	2.76832
17.56920951545993	8.668047	2.9441547
17.586944513299528	10.743117	3.2776694
17.60467993574556	12.305261	3.5078855
17.622415783253373	13.883487	3.7260551
17.64015205627843	15.031007	3.8769844
17.657888755276293	16.069395	4.008665
17.675625880702604	16.508066	4.063012
17.69336343301311	16.406376	4.0504785
17.71110141266366	15.753771	3.969102
17.728839820110178	14.831395	3.851155
17.746578655808705	13.96186	3.7365572
17.764317920215372	12.624299	3.5530689
17.7820576137864	11.314901	3.363763
17.79979773697811	9.458586	3.0754814
17.81753829024692	7.6295195	2.7621584
17.835279274049356	5.953904	2.4400623
17.85302068884201	4.913124	2.2165568
17.870762535081607	4.2617626	2.0644038
17.888504813224934	3.924596	1.9810593
17.90624752372891	3.723771	1.9297075
17.923990667050536	3.6179676	1.9020956
17.941734243646895	3.5447874	1.8827605
17.959478253975185	3.497969	1.8702857
17.9772226984927	3.4737494	1.8637997
17.994967577656833	3.4618816	1.8606132
18.01271289192506	3.4768193	1.8646231
18.030458641754965	3.4666429	1.8618922
18.04820482760425	3.43	1.852026
18.06595144993067	3.3698308	1.8357099
18.083698509192125	3.3319407	1.8253604
18.101446005846576	3.270389	1.8084217
18.119193940352105	3.2217054	1.794911
18.136942313166887	3.2045407	1.7901231
18.1546911247492	3.1520717	1.7754074
18.1724403755574	3.1260417	1.7680615
18.19019006604997	3.1030195	1.761539
18.207940196685467	3.0990222	1.760404
18.225690767922575	3.1011934	1.7610205
18.243441780220046	3.0862236	1.7567651
18.261193234036764	3.0486767	1.7460461
18.278945129831676	3.0111144	1.7352563
18.29669746806386	2.9913068	1.7295395
18.314450249192483	3.004935	1.7334749
18.3322034736768	3.0189996	1.7375269
18.349957141976184	3.023665	1.7388688
18.3677112545501	3.043326	1.744513
18.385465811858108	3.0478642	1.7458134
18.403220814359884	3.0368354	1.7426518
18.420976262515172	3.0462813	1.7453599
18.43873215678387	3.071132	1.7524645
18.456488497625923	3.1192126	1.7661293
18.474245285501407	3.216095	1.7933475
18.492002520870486	3.288046	1.8132969
18.50976020419343	3.3652277	1.8344557
18.527518335930615	3.6818473	1.9188141
18.545276916542516	4.274669	2.0675273
18.563035946489688	4.480844	2.1168003
18.580795426232832	4.938476	2.2222683
18.598555356232698	4.8478093	2.2017741
18.616315736950185	5.135076	2.2660706
18.63407656884626	4.798061	2.1904476
18.65183785238201	4.9721713	2.2298367
18.669599588018617	4.745369	2.1783867
18.68736177621737	4.7596893	2.1816711
18.705124417439652	4.7268147	2.174124
18.72288751214696	4.534327	2.129396
18.740651060800886	4.669549	2.160914
18.758415063863115	4.340274	2.0833323
18.77617952179546	4.5090504	2.1234524
18.793944435059814	4.2545958	2.0626671
18.811709804118184	4.214852	2.0530105
18.829475629432675	4.154512	2.038262
18.8472419114655	3.9777415	1.9944276
18.86500865067897	4.165872	2.0410469
18.88277584753551	3.8999941	1.9748403
18.90054350249763	3.9554079	1.9888207
18.918311616027957	3.5502694	1.8842158
18.936080188589226	3.4071515	1.8458471
18.953849220644265	3.0690014	1.7518566
18.971618712656007	2.8873203	1.6992117
18.9893886650875	2.816434	1.6782235
19.007159078401887	8.004927	2.829298
19.024929953062408	32.87146	5.7333636
19.042701289532435	32.81209	5.728184
19.060473088275405	25.38749	5.0386
19.07824534975489	2.68485	1.6385512
19.096018074434568	2.6864884	1.6390511
19.113791262778197	2.654266	1.6291919
19.13156491524966	2.5834239	1.6073033
19.149339032312945	2.5439649	1.5949812
19.167113614432136	2.5121117	1.5849643
19.184888662071433	2.4861689	1.576759
19.202664175695123	2.4589572	1.5681063
19.220440155767623	2.4836876	1.575972
19.238216602753447	2.5062792	1.5831232
19.2559935171172	2.5327997	1.5914772
19.27377089932361	2.5269217	1.5896294
19.291548749837514	2.5082529	1.5837464
19.309327069123835	2.4938157	1.5791819
19.32710585764763	2.487947	1.5773227
19.344885115874032	2.5114243	1.5847474
19.362664844268313	2.5101163	1.5843346
19.380445043295822	2.5231602	1.5884459
19.39822571342203	2.5266042	1.5895295
19.41600685511252	2.4929338	1.5789027
19.43378846883297	2.451027	1.5655756
19.451570555049173	2.4008932	1.5494816
19.469353114227037	2.4383795	1.5615312
19.48713614683254	2.494765	1.5794826
19.50491965333182	2.5247822	1.5889564
19.52270363419109	2.5144877	1.5857136
19.540488089876686	2.4752421	1.5732902
19.55827302085503	2.437293	1.5611832
19.576058427592674	2.4181933	1.5550541
19.593844310556282	2.442426	1.5628263
19.611630670212598	2.4742532	1.5729759
19.629417507028506	2.476647	1.5737365
19.64720482147098	2.4818351	1.5753841
19.6649926140071	2.4485674	1.5647899
19.682780885104084	2.4617949	1.5690107
19.70056963522921	2.4839792	1.5760645
19.718358864849908	2.4717052	1.5721657
19.7361485744337	2.4622095	1.5691429
19.753938764448215	2.468904	1.5712746
19.771729435361202	2.53863	1.5933079
19.789520587640506	2.5631642	1.6009885
19.807312221754092	2.5583804	1.5994937
19.825104338170043	2.5145235	1.585725
19.842896937356517	2.514802	1.5858127
19.860690019781824	2.5524096	1.5976262
19.87848358591436	2.5415995	1.5942395
19.896277636222635	2.4962473	1.5799516
19.914072171175278	2.4611275	1.5687981
19.931867191241015	2.4460783	1.5639943
19.94966269688869	2.4674566	1.570814
19.967458688587264	2.470768	1.5718677
19.985255166805807	2.4906394	1.578176
20.00305213201348	2.4687207	1.5712163
20.020849584679578	2.4552653	1.5669286
20.038647525273507	2.4349487	1.5604322
20.05644595426477	2.4305625	1.5590261
20.07424487212299	2.4645374	1.5698845
20.092044279317903	2.478464	1.5743138
20.109844176319353	2.4988294	1.5807686
20.127644563597304	2.453285	1.5662966
20.145445441621817	2.415057	1.5540453
20.16324681086307	2.3618681	1.5368371
20.181048671791373	2.3593304	1.5360112
20.198851024877122	2.3875177	1.5451595
20.216653870590836	2.4024189	1.5499738
20.234457209403146	2.4014087	1.5496479
20.252261041784802	2.3928044	1.5468693
20.270065368206662	2.37122	1.5398767
20.287870189139685	2.360543	1.5364059
20.305675505054968	2.32552	1.5249656
20.323481316423702	2.292433	1.5140783
20.341287623717207	2.2948027	1.5148606
20.359094427406884	2.312742	1.5207702
20.376901727964288	2.3183665	1.5226183
20.39470952586107	2.3145707	1.5213714
20.41251782156899	2.3242989	1.5245651
20.430326615559935	2.3394752	1.5295343
20.448135908305886	2.3748062	1.5410407
20.465945700278965	2.387212	1.5450605
20.483755991951384	2.352457	1.5337721
20.50156678379548	2.3215976	1.523679
20.519378076283708	2.3120608	1.5205462
20.537189869888635	2.3228118	1.5240774
20.55500216508294	2.3437123	1.5309188
20.572814962339415	2.3204982	1.5233182
20.59062826213098	2.3294075	1.5262396
20.60844206493066	2.350439	1.5331142
20.626256371211593	2.3731527	1.5405041
20.644071181447032	2.3311274	1.526803
20.66188649611036	2.2880588	1.5126331
20.67970231567506	2.2894433	1.5130906
20.697518640614742	2.2761202	1.5086817
20.715335471403122	2.2837138	1.5111961
20.73315280851404	2.3044674	1.5180472
20.750970652421447	2.356639	1.5351348
20.768789003599412	2.3502352	1.5330477
20.786607862522136	2.3271637	1.5255044
20.8044272296639	2.2971368	1.5156308
20.82224710549913	2.2930884	1.5142947
20.84006749050237	2.3085144	1.5193796
20.857888385148268	3.8710663	1.9675026
20.8757097899116	45.957726	6.779213
20.893531705267254	64.80043	8.049871
20.911354131690224	83.80597	9.15456
20.92917706965566	69.04817	8.309523
20.94700051963877	50.10073	7.078187
20.96482448211493	29.370817	5.419485
20.982648957559622	4.1111393	2.0275946
21.00047394644843	2.2177758	1.4892199
21.01829944925707	2.211127	1.4869859
21.036125466461375	2.2295592	1.4931709
21.053951998537297	2.2063537	1.4853799
21.071779045960906	2.2163594	1.4887443
21.089606609208378	2.225004	1.4916447
21.10743468875603	2.2432446	1.4977465
21.12526328508028	2.218235	1.489374
21.143092398657675	2.1934993	1.4810467
21.16092202996488	2.1979198	1.4825383
21.17875217947867	2.203583	1.484447
21.19658284767596	2.231584	1.4938488
21.21441403503377	2.223483	1.4911349
21.232245742029225	2.2417085	1.4972336
21.2500779691396	2.2045681	1.4847788
21.26791071684227	2.2089016	1.4862374
21.28574398561475	2.151167	1.4666857
21.30357777593465	2.1237128	1.4572964
21.321412088279704	2.1190455	1.4556942
21.339246923127792	2.1450102	1.4645853
21.357082280956888	2.1425438	1.4637431
21.3749181622451	2.1471293	1.4653085
21.392754567470647	2.148534	1.4657879
21.41059149711187	2.1364918	1.4616743
21.42842895164726	2.1640978	1.4710873
21.446266931555378	2.141813	1.4634935
21.464105437314945	2.1352737	1.4612576
21.481944469404798	2.0886786	1.4452262
21.49978402830388	2.1126907	1.4535098
21.51762411449127	2.1366513	1.4617288
21.53546472844617	2.127837	1.4587107
21.553305870647876	2.125134	1.4577839
21.571147541575865	2.1168194	1.4549294
21.58898974170967	2.0755095	1.4406629
21.60683247152899	2.0344138	1.4263288
21.62467573151363	2.03577	1.4268041
21.642519522143523	2.0430331	1.429347
21.660363843898722	2.0658863	1.4373192
21.6782086972594	2.0539498	1.4331608
21.696054082705864	2.0561993	1.4339454
21.713900000718535	2.0483065	1.4311906
21.73174645177795	2.0600493	1.4352872
21.749593436364794	2.0528831	1.4327886
21.767440954959845	2.06778	1.4379778
21.785289008044032	2.034818	1.4264704
21.803137596098388	2.005495	1.416155
21.820986719604086	2.003969	1.4156162
21.838836379042412	1.9952224	1.4125234
21.85668657489478	2.0259912	1.4233732
21.87453730764273	2.007462	1.4168494
21.892388577767914	2.0088692	1.4173458
21.91024038575213	1.9968784	1.4131094
21.928092732077285	2.0092275	1.4174722
21.945945617225426	2.03166	1.4253632
21.963799041678694	2.0454934	1.4302075
21.981653005919398	31.351295	5.5992227
21.999507510429943	78.11274	8.838141
22.01736255569286	73.04323	8.546533
22.035218142190818	4.178037	2.0440247
22.05307427040661	2.026471	1.4235417
22.07093094082315	1.9910215	1.4110357
22.088788153923474	1.9842345	1.4086286
22.106645910190746	2.0074346	1.4168396
22.12450421010827	2.0231764	1.422384
22.142363054159464	1.9894166	1.4104668
22.16022244282787	1.9749221	1.4053192
22.178082376597164	1.973234	1.4047185
22.195942855951145	1.9560683	1.3985951
22.213803881373742	1.9483728	1.3958412
22.231665453349002	1.9454615	1.394798
22.24952757236111	1.9750363	1.4053599
22.26739023889438	1.9917675	1.4113
22.28525345343323	1.9808818	1.407438
22.30311721646225	1.9423931	1.3936976
22.320981528466113	1.9001803	1.3784703
22.33884638992964	1.925912	1.3877723
22.356711801337788	1.954636	1.398083
22.37457776317561	1.9540025	1.3978564
22.392444275928337	1.9625561	1.4009126
22.410311340081282	1.9499233	1.3963965
22.428178956119904	1.960117	1.4000418
22.446047124529805	1.9476674	1.3955885
22.46391584579669	1.929241	1.3889712
22.481785120406414	1.9282705	1.3886218
22.49965494884496	1.9270508	1.3881825
22.51752533159841	1.9331533	1.3903788
22.53539626915302	1.9400407	1.3928535
22.553267761995137	1.9393593	1.3926088
22.571139810611264	1.930772	1.3895222
22.589012415488025	1.9094101	1.3818141
22.60688557711216	1.8967526	1.3772265
22.624759295970566	1.915626	1.3840615
22.642633572550263	1.9443882	1.3944132
22.660508407338362	1.9702748	1.4036648
22.67838380082217	1.9617699	1.400632
22.696259753489077	1.9409932	1.3931953
22.714136265826614	1.9020896	1.3791627
22.73201333832246	1.8683758	1.3668854
22.74989097146439	1.9029799	1.3794854
22.76776916574035	1.9023724	1.3792652
22.785647921638393	1.8850058	1.3729552
22.803527239646712	1.908841	1.3816081
22.82140712025363	1.9478614	1.395658
22.839287563947593	1.9474182	1.3954992
22.85716857121719	1.9256318	1.3876714
22.875050142551135	1.9175926	1.3847717
22.892932278438277	1.887314	1.3737955
22.910814979367604	1.8994673	1.3782116
22.928698245828222	1.9253155	1.3875574
22.946582078309387	1.9320862	1.3899951
22.96446647730047	1.877205	1.3701113
22.98235144329098	1.892163	1.3755592
23.000236976770562	1.963895	1.4013903
23.018123078229	1.9579284	1.3992599
23.03600974815619	1.8972439	1.3774048
23.053896987042194	1.8437183	1.3578359
23.071784795377173	1.8859009	1.373281
23.08967317365145	1.9098057	1.3819572
23.10756212235546	1.9300524	1.3892633
23.125451641979787	1.9271886	1.3882322
23.143341733015134	1.9284725	1.3886945
23.161232395952357	1.9488932	1.3960277
23.179123631282426	1.9233367	1.3868442
23.197015439496468	1.8981794	1.3777443
23.214907821085717	1.9215262	1.3861912
23.23280077654157	1.9573389	1.3990493
23.250694306355538	1.9757103	1.4055996
23.268588411019277	1.9408904	1.3931584
23.28648309102458	1.9166336	1.3844254
23.304378346863356	1.9290897	1.3889167
23.322274179027676	1.9182434	1.3850067
23.340170588009723	1.8907037	1.3750286
23.358067574301852	1.8911214	1.3751805
23.37596513839651	1.8990517	1.3780608
23.39386328078629	1.9156909	1.3840848
23.411762001963947	1.9178478	1.3848639
23.429661302422353	1.9100894	1.3820598
23.4475611826545	1.9152861	1.3839386
23.46546164315356	1.9317163	1.389862
23.48336268441279	1.9347237	1.3909435
23.501264306925638	1.9202878	1.3857445
23.51916651118564	1.9293242	1.3890011
23.537069297686497	1.9215186	1.3861885
23.554972666922037	1.9323786	1.3901002
23.57287661938623	1.9184414	1.3850781
23.59078115557318	1.9007877	1.3786906
23.608686275977128	1.8875028	1.3738642
23.62659198109246	1.902824	1.3794289
23.6444982714137	1.8803189	1.3712472
23.66240514743549	1.8920132	1.3755047
23.68031260965263	1.8862851	1.373421
23.698220658560068	1.8915491	1.375336
23.716129294652845	1.9196763	1.3855238
23.7340385184262	1.9396471	1.3927121
23.75194833037546	1.9587635	1.3995583
23.769858730996123	1.9348196	1.390978
23.78776972078382	1.883307	1.3723363
23.80568130023431	1.8761239	1.3697168
23.823593469843495	1.8956653	1.3768317
23.841506230107424	1.8980173	1.3776854
23.859419581522275	1.8834109	1.3723742
23.87733352458438	1.8802978	1.3712395
23.89524805979019	1.9104217	1.3821801
23.913163187636318	1.897735	1.377583
23.931078908619508	1.9275458	1.3883609
23.948995223236633	1.9815308	1.4076686
23.966912131984735	2.0374827	1.4274042
23.98482963536096	2.067887	1.438015
24.002747733862616	2.0495956	1.4316409
24.020666427987155	2.053879	1.4331361
24.038585718232156	2.0650764	1.4370373
24.056505605095353	2.0389905	1.4279323
24.074426089074617	2.0631874	1.4363799
24.092347170667946	2.0977533	1.4483622
24.110268850373515	2.0981803	1.4485097
24.128191128689586	2.070743	1.4390076
24.146114006114626	2.0173297	1.4203273
24.164037483147187	2.0044556	1.4157879
24.181961560286005	2.0048993	1.4159447
24.199886238029926	2.045458	1.4301951
24.21781151687797	2.0896478	1.4455614
24.235737397329274	2.0723555	1.4395678
24.253663879883135	2.045409	1.4301779
24.271590965038975	2.025096	1.4230586
24.289518653296376	1.9923067	1.4114909
24.30744694515505	2.022014	1.4219754
24.32537584111486	2.0163896	1.4199964
24.34330534167581	2.0325177	1.425664
24.361235447338046	2.0320036	1.4254837
24.379166158601876	2.0334742	1.4259994
24.39709747596772	2.0770242	1.4411885
24.41502939993615	2.0534399	1.4329828
24.432961931007917	2.0227945	1.4222498
24.450895069683856	2.0076883	1.4169291
24.468828816465	2.0116372	1.418322
24.4867631718525	1.9394797	1.392652
24.504698136347656	1.911133	1.3824373
24.52263371045192	1.8786644	1.3706437
24.540569894666874	1.8828752	1.372179
24.558506689494266	1.9038029	1.3797836
24.57644409543597	1.9322965	1.3900707
24.594382112994012	1.9201691	1.3857017
24.61232074267057	1.9178247	1.3848555
24.630259984967953	1.9090817	1.3816953
24.64819984038863	1.933635	1.390552
24.66614030943522	1.9596479	1.3998742
24.684081392610462	1.958362	1.3994149
24.702023090417274	2.003831	1.4155674
24.7199654033587	2.0146353	1.4193785
24.737908331937927	2.029189	1.424496
24.755851876658305	2.0319161	1.425453
24.773796038023324	2.0512447	1.4322168
24.79174081653661	2.0823624	1.4430393
24.809686212701962	2.127702	1.4586644
24.827632227023294	2.087797	1.4449211
24.8455788600047	2.0688438	1.4383476
24.8635261121504	2.1053245	1.4509736
24.88147398396475	2.1158333	1.4545904
24.899422475952303	2.0519254	1.4324543
24.917371588617698	2.032884	1.4257923
24.935321322465768	2.1266518	1.4583044
24.953271678001478	2.245866	1.4986213
24.97122265572994	2.4089167	1.5520685
24.989174256156414	2.6790125	1.6367689
25.00712647978632	3.1418097	1.772515
25.02507932712521	3.696358	1.9225914
25.043032798678798	4.2377033	2.0585682
25.060986894952933	4.781897	2.186755
25.078941616453637	5.5127244	2.3479192
25.096896963687055	6.418566	2.533489
25.114852937159508	7.517977	2.741893
25.132809537377444	7.9196577	2.8141887
25.150766764847468	7.910174	2.812503
25.168724620076347	7.468116	2.7327855
25.186683103570985	6.5840135	2.5659332
25.204642215838426	5.541814	2.3541057
25.222601957385894	4.2471137	2.0608528
25.24056232872074	3.1862783	1.785015
25.25852333035048	2.638548	1.6243608
25.276484962782778	2.2806284	1.510175
25.294447226525435	2.086642	1.4445214
25.312410122086423	2.0116317	1.4183201
25.330373649973843	1.948395	1.3958492
25.348337810695988	1.8970973	1.3773515
25.366302604761245	1.9223461	1.386487
25.384268032678207	1.9387674	1.3923963
25.40223409495558	1.9242733	1.3871818
25.420200792102257	1.9236838	1.3869693
25.438168124627246	1.9349002	1.391007
25.45613609303974	1.9190154	1.3852853
25.474104697849057	1.854244	1.3617063
25.492073939564698	1.8387939	1.3560213
25.510043818696285	1.8335675	1.3540928
25.528014335753614	1.8421549	1.3572601
25.54598549124664	1.8611445	1.3642377
25.56395728568544	1.8779945	1.3703994
25.58192971958028	1.9182739	1.3850176
25.59990279344156	1.9046211	1.3800801
25.617876507779833	1.8889285	1.374383
25.635850863105826	1.8794796	1.3709412
25.653825859930386	1.8951979	1.3766619
25.671801498764548	1.8910942	1.3751706
25.68977778011949	1.8735647	1.3687822
25.707754704506524	1.8356712	1.3548695
25.725732272437153	1.7766916	1.3329259
25.743710484423012	1.7716923	1.3310493
25.761689340975888	1.790751	1.3381895
25.77966884260774	1.8390602	1.3561195
25.797648989830662	1.8254535	1.3510934
25.815629783156922	1.8264413	1.3514589
25.83361122309895	1.8235188	1.3503773
25.85159331016929	1.7939852	1.3393973
25.869576044880695	1.8201176	1.3491173
25.887559427746034	1.8573638	1.3628514
25.90554345927836	1.8348651	1.3545719
25.92352813999086	1.7993437	1.3413962
25.94151347039689	1.775284	1.3323978
25.959499451009965	1.7655293	1.3287323
25.97748608234374	1.7749089	1.332257
25.995473364912062	1.7699953	1.3304117
26.013461299228904	1.7915177	1.338476
26.03144988580839	1.7944883	1.3395852
26.04943912516483	1.8073173	1.344365
26.067429017812675	1.8077431	1.3445233
26.085419564266537	1.8117776	1.3460228
26.103410765041186	1.8313471	1.3532728
26.12140262065155	1.8403946	1.3566115
26.139395131612723	1.8501393	1.3601983
26.157388298439948	1.8654133	1.3658013
26.17538212164861	1.8118465	1.3460485
26.193376601754295	1.8345425	1.3544528
26.211371739272714	1.872425	1.3683658
26.229367534719746	1.8829594	1.3722097
26.247363988611433	1.8203967	1.3492208
26.26536110146397	1.8238983	1.3505177
26.283358873793727	1.8145627	1.347057
26.301357306117204	1.8044568	1.3433007
26.319356398951104	1.7953868	1.3399204
26.33735615281224	1.8115017	1.3459204
26.35535656821762	1.8381402	1.3557804
26.373357645684404	1.8579656	1.3630722
26.39135938572991	1.8452315	1.358393
26.409361788871614	1.8318398	1.3534547
26.427364855627165	1.8305362	1.3529731
26.445368586514352	1.8292016	1.3524798
26.46337298205115	1.8356054	1.3548452
26.48137804275568	1.8852433	1.3730416
26.499383769146217	1.880035	1.3711437
26.517390161741215	1.804554	1.3433369
26.53539722105928	1.7942778	1.3395065
26.553404947619182	1.8292723	1.3525059
26.571413341939856	1.8210341	1.3494569
26.589422404540397	1.7994586	1.341439
26.60743213594006	1.8485664	1.35962
26.62544253665827	1.8479573	1.3593959
26.64345360721459	1.7978415	1.3408362
26.66146534812879	1.8020742	1.3424135
26.679477759920758	1.8425792	1.3574164
26.69749084311057	1.8587257	1.3633509
26.71550459821847	1.8416324	1.3570676
26.733519025764842	1.8401334	1.3565152
26.751534126270258	1.8315166	1.3533354
26.769549900255434	1.767951	1.3296431
26.787566348241267	1.723083	1.3126626
26.80558347074881	1.7268658	1.3141026
26.823601268299267	1.7640889	1.3281901
26.841619741414036	1.7810092	1.3345445
26.85963889061465	1.7932091	1.3391075
26.877658716422832	1.8179741	1.3483227
26.89567921936045	1.8103424	1.3454896
26.913700399949544	1.7596489	1.3265176
26.93172225871233	1.7308633	1.3156228
26.949744796171174	1.7545063	1.3245778
26.967768012848605	1.780324	1.3342878
26.98579190926733	1.8003201	1.34176
27.003816485950225	1.8408878	1.3567932
27.021841743420318	1.8552938	1.3620917
27.039867682200814	1.7976526	1.3407657
27.057894302815072	1.7349377	1.3171704
27.07592160578664	1.7532623	1.3241081
27.0939495916392	1.8087949	1.3449144
27.111978260896635	1.8311155	1.3531872
27.13000761408296	1.823194	1.350257
27.148037651722397	1.8048445	1.3434451
27.166068374339304	1.7949345	1.3397516
27.184099782458215	1.8162297	1.3476757
27.20213187660384	1.8451113	1.3583487
27.22016465730105	1.8225869	1.3500322
27.23819812507487	1.7882268	1.337246
27.256232280450533	1.7636558	1.328027
27.274267123953383	1.7774352	1.3332049
27.292302656108987	1.7640798	1.3281866
27.31033887744306	1.7620233	1.3274122
27.32837578848146	1.7187766	1.3110212
27.34641338975026	1.7670197	1.3292929
27.364451681775673	1.8299181	1.3527447
27.382490665084074	1.863932	1.3652589
27.400530340202046	1.8334574	1.3540522
27.41857070765629	1.76019	1.3267215
27.436611767973726	1.7658074	1.3288368
27.454653521681404	1.789802	1.3378348
27.472695969306564	1.7969594	1.3405071
27.490739111376627	1.814021	1.346856
27.508782948419153	1.8346391	1.3544885
27.526827480961902	1.8505772	1.3603592
27.54487270953279	1.8742619	1.3690368
27.562918634659898	1.8381077	1.3557683
27.580965256871508	1.8215357	1.3496428
27.599012576696026	1.8536091	1.3614731
27.617060594662068	1.8410385	1.3568487
27.63510931129842	1.8256519	1.3511668
27.65315872713401	1.8422787	1.3573056
27.67120884269797	1.839827	1.3564022
27.68925965851958	1.8350018	1.3546224
27.707311175128307	1.8076216	1.3444781
27.725363393053787	1.8031347	1.3428085
27.74341631282583	1.8077408	1.3445225
27.7614699349744	1.8597106	1.3637121
27.77952426002968	2.059362	1.4350477
27.797579288521973	2.1335773	1.460677
27.815635020981784	2.632174	1.6223977
27.83369145793979	2.679525	1.6369255
27.85174859992682	2.4756835	1.5734304
27.869806447473923	2.3202617	1.5232406
27.887865001112267	1.990945	1.4110085
27.905924261373233	1.8631909	1.3649875
27.92398422878836	1.9147694	1.383752
27.94204490388936	1.944357	1.394402
27.96010628720813	1.9063957	1.3807229
27.978168379276728	1.8717309	1.3681122
27.9962311806274	1.8223251	1.3499352
28.014294691792568	1.8209809	1.3494372
28.0323589133048	1.8965818	1.3771644
28.050423845696887	1.9079558	1.3812877
28.068489489501758	1.8817362	1.371764
28.086555845252523	1.8470508	1.3590624
28.104622913482487	1.8450378	1.3583217
28.122690694725115	1.84646	1.3588451
28.14075918951405	1.8408034	1.356762
28.15882839838312	1.8370268	1.3553697
28.176898321866304	1.8427597	1.3574829
28.1949689604978	1.8513103	1.3606286
28.213040314811945	1.9015002	1.3789489
28.23111238534327	1.9496648	1.396304
28.249185172626493	1.958729	1.399546
28.267258677196473	1.9512826	1.3968831
28.285332899588294	1.9568782	1.3988847
28.303407840337172	1.8424968	1.357386
28.321483499978545	1.7971148	1.3405651
28.33955987904799	1.8156066	1.3474444
28.357636978081285	1.8677769	1.3666663
28.37571479761439	1.8869698	1.3736702
28.393793338183425	1.9532092	1.3975726
28.41187260032469	1.9887991	1.4102479
28.429952584574686	2.002758	1.4151883
28.448033291470065	2.026791	1.4236541
28.46611472154769	2.0148687	1.4194608
28.484196875344566	1.9607468	1.4002666
28.502279753397914	1.9474623	1.3955151
28.52036335624511	1.9303895	1.3893846
28.538447684423716	1.9099424	1.3820066
28.556532738471482	1.9016386	1.3789991
28.574618518926325	1.9200819	1.3856702
28.59270502632635	1.9318842	1.3899224
28.61079226120985	1.9601798	1.4000642
28.628880224115274	2.0110445	1.418113
28.646968915581287	2.0710993	1.4391314
28.66505833614671	2.044096	1.4297189
28.68314848635055	2.034718	1.4264355
28.701239366732004	1.9981385	1.4135553
28.71933097783044	2.0012293	1.414648
28.737423320185403	2.0433803	1.4294685
28.75551639433665	2.092115	1.4464145
28.773610200824074	2.1353552	1.4612855
28.791704740187793	2.1419678	1.4635463
28.80980001296809	2.0927184	1.4466231
28.827896019705413	2.0780568	1.4415467
28.845992760940433	2.1264215	1.4582255
28.86409023721397	2.1806393	1.4766988
28.88218844906704	2.1961462	1.48194
28.900287397040845	2.2099395	1.4865866
28.918387081676755	2.1943955	1.4813492
28.936487503516343	2.1927934	1.4808084
28.954588663101365	2.179437	1.4762917
28.97269056097374	2.18105	1.4768379
28.990793197675597	2.2220824	1.4906651
29.00889657374923	2.281207	1.5103666
29.027000689737125	2.296644	1.5154682
29.04510554618196	2.4120843	1.5530887
29.06321114362659	2.5223856	1.588202
29.08131748261405	2.5273316	1.5897584
29.099424563687567	2.4861398	1.5767498
29.11753238739057	2.4859867	1.5767012
29.13564095426663	2.5342185	1.5919229
29.15375026485954	2.506059	1.5830537
29.171860319713275	2.5689406	1.6027915
29.18997111937199	2.6287057	1.6213284
29.20808266438002	2.7093449	1.6460087
29.226194955281898	2.7221386	1.6498905
29.244307992622335	2.7968204	1.6723697
29.26242177694624	2.8654232	1.692756
29.2805363087987	2.8917153	1.7005044
29.29865158872498	2.8943403	1.7012761
29.316767617270557	2.8398457	1.6851841
29.334884394981064	2.8800368	1.6970671
29.353001922402367	2.9229002	1.7096491
29.37112020008047	2.9952908	1.7306908
29.389239228561596	3.0998073	1.7606269
29.407359008392152	3.2963662	1.8155898
29.42547954011872	3.6695042	1.9155949
29.44360082428809	4.2974415	2.0730271
29.46172286144722	5.285722	2.29907
29.479845652143283	6.645009	2.5777915
29.497969196923606	8.4947405	2.914574
29.516093496335728	10.791778	3.285084
29.5342185509274	13.411493	3.6621706
29.55234436124651	15.638625	3.95457
29.570470927841175	17.059046	4.13026
29.588598251259686	16.88845	4.109556
29.60672633205055	15.657408	3.9569442
29.624855170762405	13.73953	3.7066872
29.642984767944146	11.331515	3.3662317
29.66111512414481	8.753688	2.9586632
29.67924623991366	6.568852	2.562977
29.697378115800138	5.082012	2.2543318
29.71551075235387	4.2151494	2.053083
29.733644150124675	3.6938305	1.921934
29.751778309662576	3.4198225	1.8492762
29.769913231517766	3.2742147	1.8094791
29.78804891624066	3.2401927	1.8000535
29.806185364381818	3.2398844	1.7999679
29.82432257649206	3.2833197	1.8119932
29.842460553122333	3.340958	1.8278288
29.86059929482382	3.3925834	1.8418967
29.878738802147872	3.3925116	1.8418772
29.896879075646048	3.3294196	1.8246697
29.915020115870114	3.2862992	1.8128153
29.933161923371976	3.2745273	1.8095655
29.951304498703777	3.311365	1.8197156
29.969447842417857	3.3054233	1.8180823
29.987591955066733	3.2788346	1.8107553
30.005736837203123	3.2620687	1.8061198
30.023882489379943	3.2995965	1.8164792
30.04202891215028	3.2336206	1.7982271
30.060176106067455	3.183537	1.7842469
30.078324071684946	3.191862	1.7865783
30.09647280955646	3.167235	1.7796727
30.114622320235863	3.1425781	1.7727318
30.132772604277257	3.147923	1.7742387
30.1509236622349	3.064643	1.7506121
30.16907549466328	3.0340662	1.7418572
30.18722810211705	2.950672	1.717752
30.205381485151097	2.9394996	1.7144969
30.22353564432045	2.9527264	1.7183499
30.241690580180403	3.0100164	1.7349399
30.25984629328638	3.0002935	1.7321355
30.278002784194037	2.992139	1.7297801
30.296160053459246	2.9992504	1.7318344
30.314318101638033	2.9434927	1.715661
30.332476929286646	2.9256182	1.7104439
30.35063653696153	2.933909	1.7128657
30.368796925219307	2.9131286	1.706789
30.386958094616844	2.894296	1.7012631
30.40512004571115	2.9308655	1.7119771
30.423282779059463	2.879702	1.6969686
30.441446295219233	2.8100007	1.6763057
30.459610594748067	2.8431802	1.6861732
30.47777567820382	2.8443656	1.6865247
30.495941546144504	2.7997599	1.6732483
30.51410819912835	2.7800355	1.6673439
30.532275637713795	2.7803383	1.6674347
30.55044386245946	2.744517	1.6566584
30.56861287392416	2.7657433	1.6630524
30.586782672666956	2.779748	1.6672577
30.604953259247047	2.7737956	1.6654716
30.623124634223885	2.7894118	1.6701533
30.641296798157075	2.8184454	1.6788226
30.659469751606462	2.8002062	1.6733817
30.677643495132074	2.7665842	1.6633052
30.695818029294152	2.7188134	1.6488825
30.713993354653116	2.7639265	1.6625061
30.73216947176962	2.7937427	1.6714493
30.75034638120448	2.7453506	1.65691
30.768524083518756	2.6959918	1.6419475
30.786702579273673	2.6765924	1.6360295
30.80488186903069	2.7291784	1.6520225
30.82306195335144	2.891868	1.7005494
30.841242832797782	3.1176798	1.7656953
30.85942450793176	3.3830378	1.8393036
30.877606979315637	3.6804984	1.9184625
30.895790247511883	3.9857242	1.9964279
30.913974313083134	4.369011	2.0902178
30.932159176592283	4.653017	2.1570854
30.95034483860237	4.769182	2.1838458
30.968531299676698	4.603928	2.1456766
30.98671856037873	4.235946	2.0581415
31.00490662127215	3.8139493	1.9529335
31.023095482920848	3.4393468	1.8545476
31.04128514588892	3.0541983	1.7476264
31.059475610740662	2.811085	1.6766291
31.07766687804056	2.6344938	1.6231124
31.09585894835335	2.498918	1.5807966
31.11405182224393	2.4203844	1.5557585
31.132245500277417	2.4824252	1.5755714
31.15043998301914	2.5592258	1.599758
31.168635271034628	2.5130515	1.5852607
31.18683136488964	2.453934	1.5665038
31.20502826515008	2.3793814	1.5425243
31.223225972382135	2.3938713	1.547214
31.241424487152155	2.4481204	1.5646471
31.259623810026692	2.453073	1.5662289
31.27782394157253	2.4032776	1.5502509
31.296024882356644	2.3513296	1.5334046
31.314226632946237	2.4008646	1.5494723
31.332429193908684	2.422443	1.5564198
31.350632565811598	2.4070053	1.5514526
31.368836749222787	2.383556	1.5438769
31.387041744710295	2.4565227	1.5673298
31.40524755284232	2.5013013	1.5815502
31.423454174187317	2.4515917	1.565756
31.441661609313922	2.4119816	1.5530555
31.459869858791002	2.422902	1.5565674
31.478078923187628	2.447406	1.5644188
31.496288803073064	2.4077954	1.5517073
31.514499499016807	2.4112432	1.5528178
31.532711011588546	2.3961403	1.5479472
31.550923341358178	2.350288	1.5330648
31.56913648889584	2.2959986	1.5152553
31.587350454771844	2.3340623	1.5277638
31.605565239556732	2.4064095	1.5512606
31.62378084382127	2.4749334	1.5731921
31.641997268136382	2.4254978	1.557401
31.660214513073274	2.3256943	1.5250227
31.67843257920331	2.2725692	1.5075043
31.6966514670981	2.2312756	1.4937454
31.71487117732944	2.2579093	1.5026342
31.733091710469346	2.317828	1.5224414
31.751313067090052	2.3311763	1.526819
31.769535247764008	2.332785	1.5273457
31.787758253063878	2.2857192	1.5118595
31.805982083562526	2.2960207	1.5152626
31.824206739833024	2.209606	1.4864743
31.84243222244869	2.2185235	1.4894708
31.860658531983013	2.3136425	1.5210662
31.878885669009737	2.333839	1.5276908
31.897113634102784	2.226379	1.4921055
31.91534242783632	2.1817596	1.4770781
31.933572050784694	2.2976942	1.5158147
31.951802503522508	2.303906	1.5178623
31.970033786624548	2.2153187	1.4883946
31.988265900665834	2.1894147	1.4796671
32.006498846221575	2.2534387	1.5011458
32.02473262386724	2.2509055	1.5003018
32.04296723417845	2.216355	1.4887428
32.0612026777311	2.2419922	1.4973284
32.07943895510129	2.1987782	1.4828278
32.097676066865304	2.1546764	1.4678816
32.115914013599685	2.126054	1.4580995
32.13415279588115	2.0875812	1.4448464
32.152392414286666	2.0277014	1.4239738
32.1706328693934	2.0125546	1.4186454
32.18887416177875	2.138674	1.4624206
32.20711629202032	2.1833675	1.4776223
32.225359260695924	2.127264	1.4585143
32.243603068383614	2.124387	1.4575278
32.26184771566166	2.1571393	1.4687203
32.28009320310852	2.1044357	1.4506674
32.2983395313029	2.0290604	1.4244509
32.31658670082372	2.0223196	1.4220828
32.33483471225012	2.0602143	1.4353447
32.35308356616143	2.0796194	1.4420886
32.371333263137245	2.0565488	1.4340672
32.38958380375734	2.144185	1.4643036
32.407835188601744	2.159231	1.4694322
32.42608741825067	2.1191118	1.455717
32.444340493284585	2.0894508	1.4454933
32.46259441428416	2.0341034	1.4262199
32.48084918183028	1.990818	1.4109635
32.49910479650405	1.9880764	1.4099916
32.51736125888683	1.9946655	1.4123262
32.53561856956014	1.9657428	1.4020495
32.5538767291058	1.9522651	1.3972348
32.572135738105764	2.061799	1.4358966
32.59039559714228	2.1038008	1.4504485
32.608656306797776	2.0674095	1.4378489
32.62691786765491	2.0715148	1.4392759
32.645180280296586	2.1233625	1.4571762
32.663443545305896	2.0560906	1.4339075
32.68170766326619	1.981455	1.4076416
32.69997263476099	1.95973	1.3999035
32.7182384603741	1.9601315	1.400047
32.7365051406895	1.9251962	1.3875144
32.75477267629144	1.9882994	1.4100707
32.77304106776434	2.0508435	1.4320766
32.79131031569289	1.9456925	1.3948809
32.809580420661966	1.9222033	1.3864355
32.827851383256714	1.9068894	1.3809017
32.84612320406245	1.8791751	1.37083
32.86439588366476	1.8386949	1.3559848
32.88266942264945	1.9169139	1.3845266
32.9009438216025	1.9984387	1.4136615
32.9192190811102	2.0454705	1.4301995
32.937495201758985	1.9331512	1.3903781
32.95577218413556	1.9639553	1.4014119
32.974050028826866	2.0323708	1.4256124
32.992328736420035	1.9539856	1.3978504
33.010608307502444	1.9535592	1.3976978
33.02888874266169	2.0312839	1.4252311
33.047170042485604	2.057878	1.4345306
33.06545220756225	2.0719895	1.4394407
33.083735238479896	2.06241	1.4361094
33.10201913582707	2.012027	1.4184594
33.12030390019248	1.9424871	1.3937314
33.138589532165135	1.9162031	1.38427
33.15687603233419	1.9433143	1.3940281
33.17516340128909	2.019032	1.4209265
33.19345163961947	2.0735266	1.4399745
33.211740747915215	2.070116	1.4387897
33.23003072676643	1.973803	1.404921
33.248321576763466	1.9750069	1.4053494
33.266613298496885	2.121775	1.4566313
33.28490589255747	2.0201716	1.4213275
33.30319935953626	1.8846723	1.3728337
33.32149370002451	1.9434114	1.3940629
33.339788914613706	1.9721859	1.4043454
33.358085003895575	1.9146047	1.3836924
33.376381968462034	1.9084721	1.3814746
33.39467980890529	1.9896377	1.4105452
33.41297852581774	1.9373745	1.391896
33.43127811979204	1.8908479	1.3750811
33.44957859142105	1.9195651	1.3854837
33.467879941297866	1.9387771	1.3923998
33.486182170015844	1.91348	1.383286
33.50448527816853	1.9422201	1.3936355
33.522789266349754	1.9134989	1.3832928
33.541094135153514	1.8153393	1.3473452
33.55939988517411	1.8703772	1.3676174
33.57770651700602	1.931011	1.3896081
33.59601403124398	1.9559369	1.3985481
33.61432242848296	1.9039906	1.3798517
33.632631709318154	1.8022618	1.3424834
33.650941874344994	1.8059845	1.3438692
33.66925292415916	1.864356	1.3654143
33.68756485935654	1.9001766	1.378469
33.70587768053328	1.8669149	1.3663509
33.724191388285746	1.8647038	1.3655416
33.74250598321054	1.7550901	1.3247981
33.760821465904506	1.7863803	1.3365554
33.77913783696474	1.9099809	1.3820206
33.79745509698852	1.9541558	1.3979112
33.815773246573414	1.9331741	1.3903863
33.8340922863172	2.002303	1.4150275
33.852412216817896	1.9667157	1.4023964
33.87073303867377	1.8906766	1.3750187
33.889054752483304	1.8800478	1.3711483
33.907377358845245	1.9645694	1.401631
33.92570085835853	1.9986328	1.4137301
33.94402525162239	2.0106037	1.4179575
33.96235053923627	1.8942269	1.3763092
33.980676721799824	1.9293072	1.388995
33.999003799912984	2.0084507	1.4171982
34.01733177417592	1.8751817	1.3693727
34.03566064518901	1.824249	1.3506477
34.0539904135529	1.8381656	1.3557897
34.07232107986846	1.8947687	1.376506
34.090652644736785	2.0744557	1.4402971
34.108985108759235	2.0896323	1.445556
34.12731847253742	1.8822136	1.3719379
34.14565273667313	1.7590488	1.3262913
34.16398790176847	1.8374343	1.3555199
34.18232396842574	1.8591527	1.3635075
34.20066093724749	1.8674979	1.3665643
34.21899880883651	1.911392	1.382531
34.23733758379583	1.8707334	1.3677475
34.25567726272874	1.885711	1.3732119
34.27401784623872	2.012751	1.4187146
34.29235933492957	1.9974647	1.4133168
34.31070172940526	1.9129213	1.3830839
34.32904503027003	1.8482116	1.3594894
34.347389238128386	1.8489736	1.3597697
34.36573435358502	1.9503571	1.3965518
34.38408037724492	2.0613692	1.4357469
34.402427309713296	2.0890963	1.4453707
34.42077515159559	2.0365179	1.4270662
34.43912390349752	1.9919587	1.4113677
34.45747356602499	2.0202863	1.4213678
34.47582413978423	2.0083005	1.4171453
34.49417562538163	2.0074477	1.4168442
34.51252802342388	1.9393353	1.3926002
34.53088133451789	1.8553679	1.362119
34.54923555927084	1.853325	1.3613688
34.567590698290104	1.8725901	1.3684261
34.58594675218336	1.8563493	1.3624791
34.6043037215585	1.9254934	1.3876215
34.62266160702365	2.0538778	1.4331356
34.641020409187234	2.209314	1.4863762
34.65938012865785	2.113594	1.4538205
34.677740766044394	1.9517826	1.3970622
34.69610232195598	1.8198979	1.3490359
34.714464797002016	1.8270985	1.3517021
34.73282819179208	1.7055751	1.3059766
34.751192506936064	1.7504048	1.3230287
34.76955774304408	1.90909	1.3816983
34.7879239007265	2.0030403	1.4152881
34.80629098059391	1.8977767	1.3775982
34.824658983257194	1.9338741	1.390638
34.843027909327446	1.9031087	1.3795321
34.86139775941603	1.8229235	1.3501569
34.879768534134534	1.8864955	1.3734975
34.89814023409483	2.0246542	1.4229034
34.91651285990901	1.9975826	1.4133586
34.93488641218944	1.9533886	1.3976368
34.95326089154871	2.035248	1.4266212
34.97163629859967	2.0185432	1.4207544
34.99001263395542	1.7635478	1.3279864
35.00838989822934	1.8222582	1.3499105
35.02676809203499	2.0627148	1.4362154
35.04514721598624	2.0445755	1.4298865
35.063527270697215	2.180446	1.4766333
35.081908256782256	2.198745	1.4828166
35.10029017485597	2.0219436	1.4219506
35.11867302553321	2.1158047	1.4545805
35.137056809429104	2.095939	1.4477358
35.155441527159006	1.9739695	1.4049802
35.173827179338524	1.8397977	1.3563914
35.19221376658354	1.9172055	1.3846319
35.21060128951017	1.910026	1.3820369
35.2289897487348	2.0869315	1.4446216
35.24737914487405	1.854874	1.3619376
35.26576947854479	1.7200915	1.3115226
35.28416075036418	1.9271655	1.3882239
35.30255296094958	2.0110273	1.4181069
35.32094611091867	1.8349737	1.354612
35.33934020088932	1.6450586	1.2825984
35.35773523147969	1.5914671	1.2615336
35.3761312033082	1.6392906	1.2803478
35.394528116993506	1.8871601	1.3737395
35.41292597315452	2.098113	1.4484864
35.431324772410434	2.1500695	1.4663116
35.449724515380666	2.320985	1.5234779
35.46812520268491	2.2699127	1.5066229
35.486526834943106	1.8761791	1.3697369
35.504929412775454	1.4362228	1.1984252
35.52333293680242	1.3938391	1.1806096
35.54173740764471	1.6365559	1.2792795
35.560142825923286	1.7918851	1.3386132
35.5785491922594	2.001208	1.4146407
35.59695650727454	2.076498	1.441006
35.61536477159042	1.2419951	1.1144483
