0.008763373481513119	0.0	0.0
0.026290120649546365	0.0	0.0
0.043816868432600686	0.054749444	0.23398599
0.06134361724069026	0.10053836	0.31707785
0.07887036748382949	0.078538425	0.2802471
0.0963971195720331	0.036185376	0.19022454
0.11392387391531617	0.0	0.0
0.1314506309236943	0.0	0.0
0.1489773910071836	0.005258257	0.07251384
0.16650415457580078	0.052716218	0.22960013
0.18403092203956356	0.12669712	0.35594538
0.20155769380849	0.1863993	0.43173984
0.2190844702925996	0.20573138	0.4535762
0.2366112519019124	0.24161811	0.49154666
0.2541380390464497	0.21153031	0.45992425
0.27166483213623416	0.17474152	0.41802096
0.28919163158128947	0.098238	0.31342942
0.3067184377916406	0.102714345	0.32049078
0.324245251177314	0.09284273	0.30470106
0.34177207214833777	0.10876446	0.3297946
0.3592989011147415	0.15719014	0.39647213
0.37682573848655654	0.24258193	0.49252608
0.39435258467381573	0.23178153	0.48143694
0.41187944008655414	0.22226487	0.47144976
0.42940630513480854	0.14659114	0.38287222
0.446933180228618	0.14999618	0.3872934
0.4644600657780234	0.16131148	0.401636
0.48198696219306775	0.14622338	0.38239166
0.49951386988379676	0.17398228	0.4171118
0.5170407892602581	0.1688575	0.41092274
0.5345677207325025	0.16389222	0.40483606
0.5520946647105822	0.16546287	0.40677127
0.5696216216045534	0.1757377	0.4192108
0.5871485918244737	0.22809961	0.47759774
0.6046755757804043	0.21635708	0.465142
0.6222025738824094	0.18952772	0.43534783
0.6397295865405557	0.12302846	0.3507541
0.6572566141649129	0.1598296	0.39978695
0.6747836571655547	0.1765465	0.42017436
0.6923107159525568	0.20980705	0.458047
0.7098377909359992	0.19737329	0.44426712
0.7273648825259653	0.201539	0.44893095
0.7448919911325411	0.19762723	0.44455284
0.762419117165817	0.20537469	0.45318285
0.7799462610358868	0.19146277	0.43756458
0.7974734231528482	0.17588942	0.41939172
0.8150006039268024	0.17004533	0.41236553
0.8325278037678551	0.17705467	0.42077866
0.8500550230861152	0.22089785	0.4699977
0.8675822622916969	0.20203589	0.44948402
0.8851095217947171	0.18757895	0.43310386
0.9026368020052984	0.14235973	0.3773059
0.9201641033335665	0.17271277	0.41558728
0.9376914261896523	0.21737027	0.46622986
0.9552187709836915	0.25063887	0.5006385
0.9727461381258234	0.23913004	0.48900923
0.990273528026193	0.23478913	0.48455045
1.0078009410949496	0.24877712	0.49877563
1.0253283777422473	0.2915681	0.53997046
1.0428558383782454	0.31717092	0.5631793
1.0603833234131086	0.33099842	0.5753246
1.0779108332570058	0.3318947	0.57610303
1.0954383683201119	0.32406607	0.569268
1.112965929012607	0.34246236	0.5852028
1.1304935157446763	0.45121545	0.67172575
1.1480211289265108	0.4713976	0.686584
1.1655487689683062	1.4193077	1.191347
1.1830764362802655	1.7477154	1.3220118
1.200604131272596	2.166395	1.4718678
1.2181318543555117	2.4047565	1.5507277
1.235659605939232	2.4162047	1.5544146
1.253187386433982	3.9403718	1.985037
1.270715196249994	6.53642	2.5566423
1.2882430357975057	12.098783	3.4783304
1.3057709054867608	17.312597	4.160841
1.3232988057280106	23.114023	4.8077044
1.3408267369315112	27.913603	5.2833323
1.358354699507526	31.362223	5.6001983
1.3758826938663256	34.793736	5.8986216
1.3934107204181858	36.358135	6.029771
1.410938779573391	36.869785	6.0720496
1.4284668717422309	38.239502	6.1838098
1.4459949973350033	38.283447	6.1873617
1.4635231567620117	38.27622	6.1867776
1.4810513504335687	37.321163	6.109105
1.4985795787599925	36.619156	6.0513763
1.5161078421516088	35.74584	5.978782
1.5336361410187505	34.31174	5.8576226
1.5511644757717598	34.36881	5.8624916
1.5686928468209842	34.77042	5.8966446
1.58622125457678	35.539288	5.9614835
1.6037496994495108	37.01591	6.08407
1.621278181849548	37.455647	6.120102
1.6388067021872719	38.353615	6.1930294
1.6563352608730693	37.4669	6.1210213
1.673863858317336	36.17959	6.014947
1.6913924949304753	35.149834	5.9287295
1.7089211711228998	34.044243	5.8347445
1.7264498873050296	33.637016	5.7997427
1.7439786438872935	33.07106	5.7507443
1.7615074412801288	32.39764	5.6918926
1.779036279893981	31.645285	5.6254144
1.796565160139305	30.635891	5.53497
1.814094082426564	29.815802	5.460385
1.8316230471662298	29.133245	5.397522
1.849152054768784	28.444948	5.3333807
1.8666811056447168	27.990242	5.2905803
1.8842102002045273	27.433046	5.2376566
1.901739338858724	26.951756	5.191508
1.9192685220178245	26.462008	5.1441236
1.9367977500923557	25.771492	5.076563
1.9543270234928547	24.998785	4.9998784
1.971856342629867	24.179636	4.9172792
1.9893857079139496	23.624702	4.860525
2.006915119755667	23.149372	4.8113794
2.0244445785655945	22.63878	4.758023
2.0419740847543175	21.951956	4.6852913
2.0595036387324317	21.37962	4.6238103
2.0770332409105414	20.82948	4.5639324
2.094562891699263	20.411356	4.517893
2.1120925915092217	19.80522	4.4503055
2.129622340751053	19.583492	4.425324
2.1471521398354043	187.79466	13.703819
2.1646819891729323	444.2361	21.07691
2.182211889174303	440.35925	20.98474
2.1997418402501974	452.7149	21.277098
2.2172718428113023	432.67493	20.80084
2.234801897268317	320.7849	17.91047
2.2523320040319548	17.332584	4.163242
2.269862163512935	17.03753	4.1276546
2.287392376121992	16.69953	4.086506
2.304922642269869	16.281677	4.035056
2.322452962367322	15.986859	3.998357
2.3399833368251164	15.758115	3.9696493
2.357513766054032	15.565137	3.9452677
2.3750442504648586	15.33141	3.9155345
2.3925747904683963	14.992801	3.8720539
2.410105386475459	14.739142	3.839159
2.4276360388968707	14.262063	3.7765148
2.445166748143469	13.9523735	3.7352877
2.4626975146261025	13.655361	3.695316
2.4802283387556323	13.597097	3.6874242
2.4977592209429305	13.517386	3.6765997
2.5152901615988825	13.313564	3.6487758
2.5328211611343865	13.221016	3.6360714
2.5503522199603523	12.822516	3.5808542
2.5678833384877024	12.343242	3.513295
2.5854145171273712	12.161634	3.4873536
2.6029457562903064	12.132074	3.4831128
2.620477056387469	12.063544	3.4732614
2.6380084178298326	11.752532	3.4281967
2.655539841028383	11.357398	3.3700738
2.673071326394119	11.184583	3.344336
2.6906028743380523	11.028756	3.3209572
2.708134485271211	10.965109	3.3113606
2.7256661596046325	10.858385	3.2952063
2.743197897749369	10.772042	3.282079
2.760729700116486	10.646798	3.2629433
2.778261567117063	10.378838	3.2216203
2.795793499162193	10.196791	3.1932414
2.8133254966629817	9.993325	3.1612222
2.830857560030551	9.851998	3.1387894
2.8483896896760337	9.738684	3.1206865
2.865921886010578	9.5429	3.0891585
2.883454149445347	9.428955	3.0706604
2.9009864803915177	9.322199	3.0532277
2.91851887926028	9.189703	3.0314522
2.9360513464628384	9.190966	3.0316606
2.953583882410413	8.998495	2.9997492
2.9711164875142373	8.954972	2.992486
2.9886491621855606	8.793704	2.965418
3.0061819068356455	8.70762	2.9508677
3.023714721875769	8.703285	2.950133
3.041247607717225	8.467553	2.9099061
3.0587805647713213	8.38878	2.896339
3.0763135934493806	8.099117	2.8458948
3.0938466941627407	7.988018	2.8263083
3.1113798673227544	7.938488	2.8175323
3.1289131133407904	7.9242024	2.814996
3.1464464326282315	7.979271	2.8247604
3.1639798255964786	7.8176894	2.796013
3.1815132926569443	7.69233	2.773505
3.1990468342210603	7.5119	2.7407846
3.216580450700272	7.4755373	2.7341428
3.2341141425060416	7.4163527	2.723298
3.251647910049847	7.341342	2.709491
3.2691817537431813	7.230069	2.6888788
3.286715673997555	7.1429024	2.6726208
3.3042496712244938	7.043376	2.653936
3.32178374583554	6.9052377	2.6277819
3.339317898242251	6.9224796	2.6310606
3.3568521288562034	6.967509	2.6396039
3.3743864380889876	6.9027767	2.6273136
3.3919208263522127	6.8142757	2.610417
3.4094552940575023	6.629807	2.5748413
3.4269898416164972	6.508177	2.551113
3.444524469440858	6.405855	2.5309792
3.4620591779422587	6.4078717	2.5313776
3.479593967532391	6.46864	2.5433521
3.4971288386229658	6.4677353	2.5431743
3.5146637916257086	6.4377823	2.5372784
3.5321988269523628	6.460825	2.5418153
3.5497339450146903	6.418516	2.533479
3.5672691462244708	6.341221	2.518178
3.5848044309934988	6.259476	2.5018945
3.60233979973359	6.232165	2.4964304
3.619875252856575	6.2549567	2.500991
3.6374107907743034	6.1981435	2.489607
3.6549464138986427	6.231514	2.4963
3.6724821226414788	6.226482	2.495292
3.690017917414714	6.299723	2.509925
3.7075537986302702	6.279568	2.5059066
3.7250897667000857	6.323879	2.5147324
3.7426258220361235	6.4157043	2.532924
3.7601619650503553	6.671077	2.5828428
3.777698196154779	7.1851406	2.6805112
3.7952345157614067	8.439873	2.905146
3.8127709242822716	9.289455	3.0478609
3.830307422129425	11.43456	3.3815026
3.847844009714936	30.136034	5.4896297
3.8653806874508954	97.564186	9.877459
3.882917455749409	96.83058	9.840253
3.900454315022606	96.67825	9.83251
3.917991265682631	41.26803	6.42402
3.9355283081416506	10.930687	3.306159
3.9530654428118495	8.706669	2.9507065
3.970602670105433	7.3733854	2.7153978
3.9881399904346244	6.495131	2.5485547
4.005677404211669	6.4396114	2.537639
4.023214911848827	6.4651175	2.5426595
4.0407525137583855	6.522027	2.5538259
4.058290210352644	6.5962477	2.5683162
4.075828002043927	6.439015	2.5375214
4.0933658892445814	6.3061943	2.5112138
4.110903872366966	6.111349	2.4721143
4.128441951823468	6.134337	2.4767594
4.145980128026488	6.133888	2.4766686
4.163518401388452	6.15758	2.4814472
4.181056772321807	6.1006365	2.4699466
4.1985952412390155	6.069069	2.463548
4.216133808552567	6.117992	2.4734576
4.233672474674966	6.2349806	2.4969943
4.251211240018741	6.464565	2.5425508
4.268750104996445	6.684224	2.5853868
4.286289070020643	7.575015	2.7522745
4.303828135503928	9.192365	3.0318913
4.3213673018589125	29.480635	5.4296074
4.3389065694982305	90.68061	9.522636
4.356445938834537	165.91637	12.880853
4.3739854102805085	171.51917	13.096533
4.391524984248844	172.46733	13.132682
4.409064661152262	136.55872	11.685834
4.426604441403504	96.905846	9.844077
4.444144325415337	75.82224	8.707597
4.461684313600543	21.933273	4.683297
4.47922440637193	22.33333	4.7258153
4.496764604142329	20.405716	4.5172687
4.5143049073245916	18.544659	4.306351
4.531845316331589	16.534983	4.066323
4.5493858315762195	13.907558	3.7292838
4.566926453471405	11.573667	3.4020092
4.584467182430081	9.403574	3.0665247
4.602008018865218	8.181024	2.8602488
4.619548963189798	7.4552145	2.730424
4.637090015816834	7.016143	2.6488004
4.654631177159353	6.7836747	2.604549
4.672172447630417	6.5403876	2.557418
4.689713827643102	6.343965	2.518723
4.7072553176105085	6.074364	2.4646225
4.724796917945764	5.845812	2.4178114
4.742338629062015	5.764158	2.400866
4.759880451372434	5.7833524	2.4048603
4.777422385290215	5.8249793	2.4134994
4.794964431228581	5.8058457	2.4095323
4.812506589600768	5.6963162	2.3866956
4.830048860820047	5.6080756	2.3681376
4.847591245299709	5.5785694	2.3618996
4.8651337434530655	5.5510073	2.3560576
4.882676355693457	5.543024	2.3543627
4.900219082434242	5.5294323	2.3514745
4.917761924088813	5.554598	2.3568194
4.935304881070575	5.620804	2.3708234
4.952847953792969	5.6014915	2.366747
4.970391142669449	5.565405	2.359111
4.9879344481135055	5.607061	2.3679233
5.005477870538642	5.566968	2.3594422
5.023021410358394	5.52465	2.3504574
5.040565067986324	5.4423695	2.3328886
5.05810884383601	5.376497	2.3187275
5.075652738321066	5.388943	2.3214097
5.09319675185512	5.3870535	2.3210027
5.110740884851836	5.449445	2.3344045
5.128285137724894	5.421537	2.3284194
5.145829510888007	5.385516	2.3206716
5.163374004754908	5.3552523	2.3141418
5.1809186197393595	5.3210883	2.3067484
5.198463356255145	5.266613	2.2949102
5.216008214716077	5.217155	2.284109
5.233553195535998	5.292087	2.3004537
5.251098299128764	5.347076	2.3123746
5.268643525908272	5.389307	2.3214881
5.286188876288432	5.3758106	2.3185794
5.3037343506831895	5.3437476	2.3116548
5.32127994950651	5.284412	2.298785
5.3388256731723915	5.2561436	2.292628
5.356371522094851	5.2935333	2.300768
5.373917496687938	5.325786	2.3077664
5.391463597365729	5.338501	2.3105197
5.40900982454232	5.276491	2.2970614
5.426556178631843	5.226657	2.2861884
5.444102660048449	5.1448374	2.2682233
5.4616492692063225	5.118165	2.2623363
5.479196006519669	5.096744	2.257597
5.496742872402727	5.100145	2.2583501
5.514289867269756	5.19863	2.2800505
5.531836991535049	5.246831	2.2905962
5.549384245612924	5.2731066	2.2963245
5.566931629917724	5.220189	2.2847733
5.584479144863822	5.205862	2.2816358
5.6020267908656205	5.191081	2.2783945
5.619574568337545	5.2227874	2.2853417
5.637122477694054	5.2359796	2.2882264
5.654670519349629	5.190366	2.2782373
5.672218693718784	5.1032257	2.259032
5.689767001216059	5.047534	2.2466717
5.707315442256021	5.0998764	2.2582905
5.724864017253266	5.1270113	2.2642906
5.7424127266224225	5.164039	2.272452
5.75996157077814	5.157565	2.2710273
5.777510550135105	5.2196546	2.2846563
5.795059665108022	5.2674093	2.2950838
5.812608916111639	5.2676926	2.2951455
5.830158303560715	5.291627	2.3003538
5.847707827870055	5.2637286	2.2942817
5.86525748945448	5.398633	2.3234959
5.8828072887288485	5.5521054	2.3562906
5.900357226108044	5.6557655	2.3781853
5.917907302006979	5.6860247	2.3845387
5.9354575168406	6.203344	2.4906514
5.9530078710238765	6.7787952	2.603612
5.970558364971812	7.3340707	2.708149
5.988108999099438	7.6608233	2.7678192
6.005659773821818	8.09025	2.8443365
6.023210689554039	7.800278	2.7928977
6.040761746711227	8.172239	2.858713
6.058312945708531	7.616008	2.7597115
6.075864286961132	7.210597	2.6852555
6.093415770884244	6.6138487	2.5717404
6.1109673978931065	6.0783415	2.4654293
6.128519168402993	5.4684978	2.338482
6.146071082829204	5.2743454	2.2965944
6.163623141587075	5.088118	2.2556858
6.181175345091969	5.0627875	2.250064
6.198727693759281	5.097509	2.2577662
6.216280188004435	5.161766	2.2719522
6.233832828242885	5.1496863	2.269292
6.251385614890126	5.164218	2.2724915
6.268938548361669	5.185168	2.2770963
6.286491629073067	5.1352935	2.2661185
6.304044857439898	5.0720034	2.252111
6.321598233877777	4.970863	2.2295432
6.339151758802344	4.9854727	2.2328172
6.356705432629277	4.997379	2.2354817
6.37425925577428	5.0077376	2.2377975
6.391813228653095	5.045714	2.2462666
6.409367351681486	5.092027	2.256552
6.426921625275259	5.0763955	2.2530859
6.44447604985025	5.057485	2.2488854
6.46203062582232	4.9931035	2.2345254
6.47958535360737	4.991565	2.2341812
6.497140233621328	4.9373426	2.2220132
6.514695266280161	4.9447846	2.2236872
6.532250451999859	4.9091988	2.215671
6.549805791196454	4.9693007	2.2291927
6.567361284286002	4.9524236	2.225404
6.584916931684597	4.9795794	2.231497
6.602472733808367	4.932074	2.2208273
6.6200286910734665	4.9556527	2.2261295
6.637584803896092	4.952582	2.2254398
6.655141072692462	4.9610863	2.2273495
6.672697497878842	4.957252	2.2264888
6.690254079871514	4.9913197	2.234126
6.707810819086808	5.0244074	2.241519
6.725367715941078	5.0665536	2.2509005
6.742924770850719	5.054478	2.2482166
6.760481984232151	5.0284786	2.2424269
6.778039356501836	4.9907227	2.2339926
6.795596888076266	4.997277	2.2354589
6.813154579371963	4.9556365	2.226126
6.830712430805492	4.98092	2.2317975
6.84827044279344	4.972234	2.2298505
6.865828615752445	4.9779263	2.2311268
6.883386950099159	5.0148087	2.2393768
6.900945446250287	5.0646167	2.2504704
6.918504104622553	5.092072	2.256562
6.936062925632727	5.0996666	2.258244
6.953621909697607	5.1303954	2.2650375
6.971181057234028	5.191139	2.278407
6.988740368658859	5.233432	2.2876694
7.006299844389007	5.193098	2.278837
7.023859484841407	5.1636024	2.272356
7.041419290433036	5.1831675	2.276657
7.058979261580902	5.384547	2.3204627
7.0765393987020495	5.631683	2.3731167
7.094099702213559	6.0186205	2.4532876
7.111660172532549	6.350153	2.5199509
7.129220810076164	6.6541486	2.5795636
7.146781615261595	7.3352	2.7083573
7.16434258850606	7.619244	2.7602978
7.181903730226821	8.19664	2.8629775
7.1994650408411704	8.197886	2.8631952
7.217026520766437	8.294095	2.879947
7.234588170419983	8.524102	2.9196064
7.252149990219215	8.491864	2.9140804
7.269711980581568	8.453855	2.9075513
7.2872741419245175	8.196811	2.8630073
7.304836474665574	7.7630043	2.7862167
7.322398979222286	7.5139146	2.741152
7.339961656012233	7.2388773	2.6905162
7.357524505453039	6.953032	2.6368604
7.375087527962357	6.7144365	2.591223
7.392650723957886	6.401661	2.5301504
7.410214093857353	6.0063095	2.4507773
7.427777638078528	5.721986	2.3920672
7.445341357039213	5.5572414	2.3573802
7.4629052511572525	5.480741	2.3410983
7.480469320850524	5.4184303	2.327752
7.498033566536948	5.2859983	2.29913
7.5155979886344735	5.158159	2.271158
7.5331625875610975	5.0831857	2.2545922
7.550727363734844	5.068769	2.2513926
7.568292317573788	5.0856123	2.2551303
7.585857449496025	5.1244745	2.2637303
7.603422759919705	5.1901603	2.2781923
7.620988249263007	5.1996117	2.2802658
7.638553917944147	5.2175927	2.284205
7.656119766381391	5.2007027	2.280505
7.673685794993023	5.252138	2.2917545
7.691252004197388	5.2446537	2.2901208
7.70881839441285	5.2354374	2.2881079
7.726384966057826	5.2560782	2.2926137
7.743951719550762	5.2741838	2.296559
7.761518655310149	5.2380705	2.2886832
7.779085773754511	5.2628245	2.2940848
7.796653075302419	5.247375	2.290715
7.814220560372475	5.2261734	2.2860825
7.831788229383323	5.1972623	2.2797506
7.8493560827536495	5.2453084	2.290264
7.866924120902174	5.3051233	2.3032854
7.884492344247663	5.3278184	2.3082068
7.9020607532089135	5.296593	2.3014328
7.919629348204771	5.294182	2.3009088
7.937198129654115	5.347585	2.3124847
7.954767097975865	5.4173465	2.3275194
7.972336253588986	5.4700074	2.3388047
7.989905596912472	5.4160876	2.327249
8.007475128365371	5.330145	2.3087106
8.025044848366756	5.363375	2.3158963
8.042614757335754	5.493143	2.3437455
8.060184855691523	5.639015	2.374661
8.07775514385327	5.8327923	2.4151175
8.095325622240228	5.917676	2.4326274
8.112896291271687	5.9938893	2.4482422
8.130467151366968	5.988566	2.4471548
8.148038202945436	5.9740033	2.4441774
8.165609446426497	5.938879	2.4369814
8.183180882229594	6.0009403	2.4496818
8.200752510774217	6.048527	2.4593754
8.218324332479893	6.1333313	2.4765563
8.235896347766193	6.065633	2.4628506
8.253468557052724	6.055735	2.4608402
8.27104096075914	5.9997563	2.44944
8.288613559305137	6.070543	2.4638472
8.306186353110448	6.078668	2.4654956
8.32375934259485	6.165628	2.4830682
8.341332528178162	6.212071	2.4924026
8.358905910280246	6.290994	2.5081854
8.376479489321003	6.3062816	2.5112312
8.394053265720377	6.349328	2.5197873
8.411627239898356	6.31337	2.5126421
8.42920141227497	6.2393775	2.4978745
8.44677578327029	6.203968	2.4907765
8.464350353304427	6.1937375	2.488722
8.48192512279754	6.2850533	2.507001
8.499500092169827	6.2858057	2.507151
8.51707526184153	6.205064	2.4909966
8.534650632232934	6.1144757	2.4727466
8.552226203764365	6.1042233	2.4706726
8.569801976856192	6.068864	2.4635065
8.587377951928834	6.185805	2.4871278
8.60495412940274	6.241132	2.4982257
8.622530509698416	6.3417344	2.51828
8.6401070932364	6.495227	2.5485735
8.657683880437283	6.615155	2.5719943
8.675260871721695	6.7634263	2.600659
8.692838067510303	6.895507	2.6259296
8.710415468223834	6.9927216	2.6443756
8.727993074283043	7.117223	2.6678123
8.745570886108737	7.1148343	2.6673646
8.763148904121765	7.2541847	2.6933594
8.78072712874302	7.2648077	2.6953306
8.798305560393441	7.431847	2.7261415
8.815884199494006	7.5466366	2.7471142
8.833463046465745	7.712455	2.7771306
8.851042101729728	7.981089	2.825082
8.86862136570707	8.338477	2.8876421
8.886200838818924	8.419982	2.9017205
8.903780521486505	8.474798	2.9111507
8.921360414131055	8.426667	2.9028723
8.938940517173874	8.617689	2.93559
8.956520831036297	8.792543	2.9652224
8.97410135613971	9.091588	3.0152261
8.99168209290554	9.265987	3.0440085
9.009263041755265	9.510626	3.0839303
9.026844203110405	9.716652	3.1171544
9.044425577392525	9.946392	3.15379
9.062007165023239	10.065429	3.172606
9.079588966424197	10.285279	3.207067
9.097170982017108	10.348711	3.2169414
9.11475321222372	11.285296	3.3593595
9.132335657465825	12.21095	3.494417
9.149918318165264	12.412782	3.5231779
9.167501194743924	12.952622	3.5989752
9.18508428762374	12.652633	3.557054
9.202667597226693	12.565927	3.544845
9.220251123974803	12.082029	3.4759214
9.237834868290143	11.793047	3.4341006
9.255418830594836	11.643557	3.4122655
9.273003011311046	11.176291	3.343096
9.290587410860985	10.970349	3.3121517
9.308172029666911	10.356639	3.2181733
9.32575686815113	10.10691	3.1791368
9.343341926735997	8.849034	2.9747326
9.360927205843916	8.57864	2.9289315
9.378512705897327	8.341625	2.8881872
9.396098427318728	8.170369	2.8583858
9.413684370530664	8.062387	2.8394344
9.431270535955722	7.944521	2.8186026
9.448856924016539	7.853532	2.8024154
9.466443535135806	7.705318	2.7758455
9.484030369736251	7.731755	2.7806034
9.501617428240658	7.7074013	2.7762208
9.519204711071852	7.6921554	2.7734735
9.536792218652714	7.741287	2.782317
9.55437995140617	7.82497	2.7973146
9.571967909755191	7.8793535	2.8070185
9.589556094122802	7.870844	2.8055024
9.60714450493207	7.830467	2.7982972
9.624733142606116	7.8643565	2.804346
9.642322007568108	7.9561596	2.8206666
9.659911100241267	7.9386744	2.8175654
9.677500421048851	7.998588	2.8281775
9.695089970414175	8.0534525	2.8378606
9.712679748760609	8.141461	2.8533247
9.730269756511557	8.172087	2.8586862
9.747859994090492	8.150473	2.8549032
9.765450461920915	8.251577	2.872556
9.78304116042639	8.232796	2.8692849
9.800632090030527	8.346709	2.8890672
9.81822325115699	8.426355	2.9028184
9.835814644229481	8.453467	2.9074848
9.853406269671762	8.373345	2.8936734
9.870998127907646	8.250334	2.8723395
9.888590219360985	8.232469	2.869228
9.906182544455698	8.249569	2.8722062
9.923775103615734	8.254211	2.8730145
9.941367897265108	8.20593	2.8645995
9.958960925827878	8.226382	2.8681672
9.97655418972816	8.194591	2.8626196
9.994147689390106	8.275922	2.8767903
10.011741425237934	8.275823	2.8767729
10.029335397695904	8.3076935	2.882307
10.04692960718833	8.349245	2.889506
10.06452405413958	8.386692	2.8959787
10.082118738974064	8.403019	2.898796
10.099713662116246	8.301475	2.881228
10.117308823990651	8.225347	2.8679864
10.134904225021844	8.212217	2.8656967
10.152499865634445	8.205297	2.864489
10.170095746253125	8.208029	2.8649657
10.18769186730261	8.230969	2.8689666
10.205288229207675	8.196122	2.8628871
10.222884832393145	8.1414585	2.8533242
10.2404816772839	8.066675	2.8401892
10.258078764304868	8.080166	2.8425632
10.275676093881035	8.114456	2.8485885
10.293273666437438	8.114957	2.8486764
10.310871482399158	8.129883	2.851295
10.32846954219134	8.073987	2.8414762
10.346067846239173	8.095827	2.8453166
10.363666394967908	8.167596	2.8579006
10.38126518880283	8.152356	2.8552332
10.398864228169298	8.203172	2.8641179
10.416463513492713	8.232998	2.8693202
10.434063045198531	8.209734	2.8652632
10.451662823712262	8.163634	2.8572075
10.469262849459467	8.17441	2.8590925
10.486863122865758	8.16702	2.8577998
10.504463644356806	8.242242	2.8709304
10.522064414358338	8.133436	2.851918
10.539665433296118	8.069897	2.8407564
10.557266701595987	7.946351	2.8189273
10.574868219683818	7.8152833	2.7955828
10.592469987985552	7.7476244	2.7834554
10.610072006927185	7.676463	2.770643
10.627674276934751	7.594443	2.7558017
10.64527679843435	7.4545927	2.73031
10.662879571852143	7.2980084	2.7014825
10.680482597614331	7.126412	2.669534
10.698085876147173	6.9602833	2.6382349
10.715689407876988	6.8981805	2.6264389
10.733293193230146	6.878419	2.622674
10.750897232633072	6.798497	2.6073928
10.76850152651225	6.721288	2.5925448
10.786106075294207	6.5548234	2.5602388
10.803710879405534	6.473581	2.5443232
10.821315939272877	6.396769	2.5291834
10.83892125532294	6.3614197	2.5221856
10.856526827982472	6.3448696	2.5189025
10.874132657678285	6.2638125	2.502761
10.891738744837243	6.218869	2.493766
10.909345089886271	6.0911164	2.4680188
10.926951693252343	6.0356154	2.456749
10.944558555362494	6.0502977	2.4597354
10.96216567664381	6.0734935	2.4644458
10.979773057523436	5.983	2.446017
10.997380698428573	5.9087925	2.4308007
11.014988599786477	5.8155327	2.4115415
11.032596762024461	5.754374	2.3988276
11.050205185569892	5.707237	2.3889823
11.067813870850198	5.59837	2.3660874
11.085422818292859	5.503998	2.34606
11.10303202832541	5.4349203	2.3312914
11.120641501375454	5.358819	2.3149123
11.138251237870636	5.3034353	2.302919
11.155861238238671	5.2803693	2.2979054
11.173471502907317	5.2633147	2.2941916
11.191082032304402	5.164368	2.2725246
11.208692826857805	5.064531	2.2504513
11.226303886995465	4.982746	2.2322066
11.243915213145371	4.9542947	2.2258246
11.261526805735578	4.941071	2.222852
11.279138665194196	4.959815	2.2270641
11.296750791949393	4.8732796	2.2075505
11.314363186429393	4.767364	2.1834295
11.331975849062479	4.720426	2.1726542
11.34958878027699	4.7226787	2.1731725
11.36720198050133	4.7042766	2.1689343
11.384815450163948	4.6462846	2.1555243
11.402429189693366	4.58864	2.142111
11.420043199518153	4.5378623	2.130226
11.437657480066942	63.453182	7.9657507
11.455272031768422	85.15352	9.227866
11.472886855051353	107.55383	10.370816
11.490501950344528	99.188934	9.959364
11.508117318076819	84.48989	9.191838
11.52573295867715	45.8687	6.7726436
11.543348872574514	4.164074	2.0406063
11.560965060197946	4.097831	2.0243099
11.57858152197655	4.0596733	2.014863
11.59619825833949	4.027059	2.0067534
11.613815269715985	4.0043573	2.001089
11.631432556535323	38.514957	6.206042
11.649050119226837	83.01008	9.110987
11.666667958219929	93.39274	9.663992
11.68428607394406	107.65334	10.375613
11.701904466828756	82.45073	9.080238
11.719523137303586	65.315254	8.081785
11.737142085798196	4.562063	2.1358986
11.754761312742286	3.7113452	1.9264852
11.772380818565619	3.694838	1.9221961
11.790000603698015	3.6865337	1.9200348
11.80762066856935	3.6168811	1.9018099
11.825241013609572	3.5905192	1.8948666
11.842861639248683	3.537683	1.880873
11.860482545916748	3.5235357	1.8771083
11.878103734043883	3.526685	1.877947
11.895725204060282	3.4989946	1.8705599
11.91334695639619	3.4150066	1.8479737
11.930968991481919	3.3629122	1.8338245
11.948591309747824	3.354959	1.8316547
11.966213911624347	3.3266895	1.8239214
11.98383679754198	3.3162186	1.8210487
12.001459967931268	3.2959828	1.8154842
12.019083423222835	3.2881234	1.8133184
12.036707163847352	3.216649	1.7935019
12.05433119023556	3.2005458	1.789007
12.071955502818259	3.2179804	1.7938731
12.089580102026313	3.2045822	1.7901347
12.107204988290643	3.1788404	1.7829303
12.12483016204224	3.1294165	1.7690157
12.142455623712152	3.088942	1.7575387
12.16008137373149	3.0805705	1.7551554
12.177707412531431	3.1057048	1.762301
12.19533374054321	3.069447	1.7519838
12.212960358198126	3.0624843	1.7499955
12.230587265927545	3.0180447	1.7372521
12.248214464162889	3.0157833	1.7366011
12.265841953335649	2.989897	1.7291318
12.283469733877375	3.0032003	1.7329744
12.301097806219685	2.9863684	1.7281113
12.31872617079425	2.9918323	1.7296914
12.336354828032825	2.9465625	1.7165555
12.353983778367205	2.9229102	1.7096521
12.371613022229262	2.8599696	1.6911445
12.389242560050928	2.8449903	1.6867099
12.406872392264201	2.8248587	1.6807315
12.424502519301143	2.8646054	1.6925145
12.442132941593874	2.9007156	1.7031487
12.459763659574586	2.909279	1.7056609
12.477394673675532	2.8640172	1.6923407
12.49502598432903	2.8136673	1.6773989
12.51265759196746	2.7929375	1.6712084
12.530289497023267	2.78857	1.6699011
12.547921699928967	2.804863	1.6747725
12.565554201117134	2.7968724	1.6723852
12.583187001020404	2.8237703	1.6804078
12.600820100071486	2.7893455	1.6701334
12.618453498703152	2.7832246	1.6682999
12.636087197348235	2.7658513	1.6630849
12.65372119643964	2.7651317	1.6628685
12.671355496410326	2.7966826	1.6723285
12.68899009769333	2.8137937	1.6774366
12.706625000721749	2.829147	1.6820068
12.724260205928752	2.8999412	1.7029214
12.741895713747551	2.919724	1.70872
12.759531524611454	2.9923766	1.7298487
12.777167638953818	2.9676986	1.722701
12.794804057208072	2.983899	1.7273966
12.812440779807702	3.0216694	1.738295
12.830077807186271	3.1887527	1.7857078
12.847715139777405	3.251082	1.8030757
12.865352778014795	3.4412904	1.8550715
12.882990722332197	3.5313745	1.8791952
12.90062897316344	3.6176496	1.902012
12.918267530942412	3.7399385	1.933892
12.935906396103071	3.6498387	1.9104551
12.953545569079449	3.8406115	1.9597478
12.971185050305628	3.6283278	1.904817
12.988824840215775	3.577584	1.8914503
13.006464939244115	3.5560327	1.8857446
13.024105347824943	3.4170942	1.8485384
13.041746066392617	3.4550226	1.858769
13.05938709538157	3.2222202	1.7950543
13.077028435226296	3.205908	1.7905049
13.094670086361363	3.152097	1.7754146
13.112312049221401	3.1530092	1.7756715
13.129954324241112	3.1124587	1.7642162
13.147596911855258	2.9728994	1.7242098
13.165239812498685	2.9245994	1.7101461
13.182883026606293	2.809232	1.6760764
13.200526554613058	2.735589	1.6539617
13.218170396954017	2.697277	1.6423389
13.235814554064284	2.6990547	1.64288
13.253459026379034	2.699319	1.6429604
13.271103814333523	2.705096	1.6447176
13.288748918363058	2.6881404	1.639555
13.306394338903031	2.683754	1.6382167
13.32404007638889	2.6793773	1.6368804
13.341686131256164	2.6887987	1.6397557
13.359332503940449	2.6462889	1.6267418
13.376979194877402	2.63942	1.6246291
13.394626204502751	2.7191393	1.6489813
13.412273533252307	2.7580605	1.660741
13.429921181561937	2.7336943	1.6533887
13.447569149867581	2.724929	1.650736
13.465217438605247	2.728538	1.6518286
13.482866048211022	2.7397056	1.6552056
13.500514979121052	2.7023766	1.6438907
13.518164231771568	2.6467662	1.6268885
13.535813806598844	2.609511	1.615398
13.553463704039254	2.6298428	1.621679
13.571113924529229	2.639936	1.6247879
13.588764468505275	2.6551495	1.629463
13.606415336403956	2.6572652	1.630112
13.624066528661917	2.717003	1.6483334
13.641718045715882	2.8264275	1.6811982
13.659369888002635	2.8828409	1.697893
13.67702205595903	2.9254904	1.7104065
13.694674550021993	2.923109	1.7097102
13.712327370628532	2.9579628	1.7198728
13.729980518215713	3.0665498	1.7511567
13.747633993220681	3.1646714	1.7789524
13.765287796080647	3.2534397	1.8037294
13.7829419272329	3.3147445	1.820644
13.800596387114801	3.297529	1.81591
13.818251176163775	3.3221178	1.8226677
13.835906294817324	3.3753176	1.8372037
13.853561743513023	3.4286485	1.851661
13.871217522688525	3.4454217	1.8561847
13.888873632781538	3.4587834	1.8597804
13.906530074229858	3.4984026	1.8704017
13.92418684747135	3.5028696	1.8715955
13.941843952943948	3.4859266	1.8670636
13.959501391085665	3.4657686	1.8616575
13.977159162334578	3.4211447	1.8496337
13.994817267128846	3.3608036	1.8332494
14.012475705906693	3.2661152	1.8072397
14.030134479106424	3.1891136	1.7858089
14.047793587166414	3.106634	1.7625645
14.065453030525108	3.035614	1.7423013
14.083112809621026	2.9340727	1.7129135
14.100772924892766	2.8674242	1.6933471
14.118433376778997	2.842953	1.6861058
14.136094165718458	2.8373432	1.6844416
14.153755292149969	2.825895	1.6810399
14.171416756512416	2.7640896	1.6625551
14.189078559244768	2.7166727	1.6482332
14.20674070078606	2.6430533	1.625747
14.224403181575408	2.6079998	1.6149303
14.242066002051999	2.560812	1.6002537
14.259729162655093	2.5248706	1.5889841
14.277392663824022	2.4871323	1.5770645
14.295056505998208	2.4584782	1.5679535
14.312720689617128	2.441823	1.5626334
14.330385215120348	2.4031773	1.5502185
14.348050082947497	2.3889983	1.5456384
14.3657152935383	2.344329	1.5311202
14.383380847332528	2.357714	1.5354849
14.401046744770051	2.3775752	1.5419388
14.418712986290798	2.380582	1.5429136
14.436379572334793	2.3721044	1.5401638
14.454046503342123	2.3668373	1.5384529
14.471713779752946	2.4065123	1.5512937
14.489381402007504	2.4489355	1.5649076
14.507049370546113	2.4367824	1.5610197
14.524717685809168	2.390233	1.5460378
14.542386348237134	2.390797	1.5462202
14.560055358270553	2.4167128	1.554578
14.577724716350051	2.4346633	1.5603408
14.595394422916325	2.4538252	1.5664691
14.61306447841015	2.4602818	1.5685285
14.63073488327237	2.4886322	1.5775399
14.648405637943917	2.481003	1.57512
14.6660767428658	2.4884713	1.5774889
14.683748198479094	2.513341	1.585352
14.701420005224954	2.5752716	1.6047653
14.719092163544628	2.6492214	1.6276429
14.73676467387942	2.6558259	1.6296705
14.754437536670727	2.682465	1.6378232
14.772110752360014	2.6788144	1.6367084
14.78978432138882	2.6689198	1.6336828
14.807458244198777	2.6619024	1.6315337
14.82513252123159	2.6620836	1.6315893
14.842807152929028	2.705486	1.6448362
14.860482139732962	2.6594367	1.630778
14.87815748208531	2.6269643	1.6207913
14.8958331804281	2.6720781	1.6346493
14.91350923520342	2.6625423	1.6317298
14.931185646853438	2.7238402	1.6504061
14.948862415820408	2.7038944	1.6443523
14.966539542546656	2.7000895	1.6431949
14.98421702747459	2.6436226	1.6259221
15.001894871046696	2.6565666	1.6298977
15.019573073705542	2.6852357	1.6386689
15.037251635893766	2.674966	1.6355324
15.054930558054092	2.6817589	1.6376077
15.072609840629323	2.7864902	1.6692784
15.090289484062351	2.95099	1.7178446
15.107969488796124	3.26401	1.8066571
15.125649855273691	3.6444778	1.9090515
15.14333058393817	4.130466	2.0323548
15.161011675232768	5.1022305	2.2588117
15.17869312960076	6.472047	2.5440218
15.196374947485506	8.282171	2.8778763
15.214057129330447	11.347172	3.3685563
15.231739675579114	15.943542	3.9929364
15.249422586675102	20.914036	4.5731864
15.267105863062092	23.990173	4.8979764
15.284789505183847	24.194908	4.918832
15.302473513484218	22.11089	4.702222
15.320157888407127	18.54365	4.306234
15.337842630396578	14.397982	3.7944672
15.355527739896656	11.185439	3.344464
15.37321321735153	8.736702	2.9557912
15.39089906320545	6.414426	2.5326717
15.408585277902748	4.890119	2.2113614
15.42627186188783	3.7655852	1.9405116
15.443958815605198	3.2289944	1.7969403
15.461646139499424	2.930364	1.7118306
15.479333834015168	2.792287	1.6710138
15.497021899597165	2.7355762	1.6539577
15.514710336690234	2.6433198	1.625829
15.53239914573928	2.6171155	1.6177502
15.550088327189297	2.5981889	1.6118898
15.567777881485336	2.5620492	1.6006402
15.58546780907256	2.5103264	1.584401
15.6031581103962	2.4772117	1.5739161
15.620848785901568	2.4646554	1.5699221
15.638539836034063	2.4703767	1.5717432
15.656231261239173	2.4646463	1.5699192
15.673923061962451	2.4531138	1.566242
15.691615238649552	2.417517	1.5548366
15.709307791746202	2.3568327	1.535198
15.727000721698221	2.336967	1.5287142
15.744694028951498	2.3638623	1.5374857
15.76238771395202	2.3352592	1.5281554
15.780081777145844	2.3565352	1.535101
15.797776218979125	2.3293827	1.5262315
15.815471039898094	2.3556316	1.5348067
15.833166240349064	2.365472	1.5380092
15.850861820778437	2.3803337	1.542833
15.868557781632699	2.3806922	1.5429492
15.886254123358412	2.3913412	1.5463963
15.903950846402232	2.3812072	1.5431161
15.921647951210897	2.379649	1.5426111
15.939345438231225	2.361257	1.5366383
15.957043307910133	2.4035065	1.5503247
15.974741560694602	2.3877058	1.5452203
15.992440197031714	2.3764555	1.5415757
16.01013921736862	2.3494465	1.5327904
16.02783862215259	2.3479831	1.532313
16.045538411830933	2.404642	1.5506909
16.06323858685107	2.401576	1.5497019
16.080939147660512	2.4022837	1.5499302
16.09864009470684	2.4022632	1.5499237
16.11634142843774	2.377352	1.5418664
16.134043149300954	2.3686023	1.5390264
16.15174525774433	2.3578691	1.5355355
16.169447754215817	2.3611698	1.5366099
16.18715063916342	2.3829741	1.5436885
16.204853913035244	2.4225404	1.5564512
16.222557576279478	2.426809	1.5578219
16.240261629344403	22.405083	4.733401
16.257966072678386	42.930138	6.5521092
16.275670906729868	38.051876	6.16862
16.293376131947387	2.5210764	1.5877898
16.31108174877957	2.5478852	1.5962096
16.328787757675133	2.5630584	1.6009555
16.34649415908287	2.5634594	1.6010807
16.364200953451657	2.6136017	1.6166637
16.38190814123048	2.6906142	1.6403092
16.39961572286839	2.7059963	1.6449913
16.41732369881455	2.7404819	1.6554401
16.43503206951817	2.7841423	1.6685749
16.45274083542859	2.8356533	1.6839398
16.47044999699522	2.842604	1.6860024
16.488159554667558	2.882883	1.6979055
16.505869508895184	2.8906288	1.700185
16.523579860127786	2.876956	1.6961592
16.541290608815117	2.9009156	1.7032075
16.559001755407035	2.989293	1.7289572
16.57671330035348	3.0470157	1.7455703
16.59442524410448	3.1221333	1.766956
16.61213758711015	3.165269	1.7791202
16.629850329820705	3.2223477	1.7950898
16.647563472686436	3.3024635	1.8172681
16.665277016157724	3.3373015	1.8268282
16.682990960685053	3.3937662	1.8422177
16.70070530671898	3.4293718	1.8518564
16.718420054710155	3.5192397	1.8759637
16.736135205109335	3.5983062	1.8969202
16.753850758367335	3.6355386	1.9067088
16.771566714935087	3.6286492	1.9049014
16.789283075263597	3.6930544	1.9217322
16.80699983980398	3.7967796	1.9485327
16.82471700900741	3.864461	1.9658232
16.84243458332518	3.935386	1.9837807
16.860152563208665	4.0109224	2.0027287
16.87787094910932	4.085706	2.021313
16.89558974147871	4.10855	2.0269558
16.913308940768466	4.173988	2.043034
16.931028547430333	4.261794	2.0644114
16.94874856191613	4.328218	2.080437
16.966468984677785	4.3489327	2.0854094
16.98418981616729	4.3225894	2.0790837
17.00191105683676	4.386259	2.0943398
17.019632707138374	4.482122	2.1171021
17.03735476752442	4.495834	2.1203382
17.05507723844728	4.5641313	2.1363828
17.072800120359403	4.64007	2.154082
17.090523413713353	4.666653	2.1602437
17.108247118961785	4.6465945	2.155596
17.125971236557437	4.5616536	2.1358027
17.143695766953133	4.55702	2.134718
17.161420710601806	4.5834293	2.1408944
17.179146067956477	4.6757817	2.1623557
17.19687183947025	4.679722	2.1632664
17.21459802559634	4.709709	2.1701865
17.232324626788028	4.744986	2.178299
17.25005164349871	4.7629595	2.1824205
17.267779076181863	4.7096195	2.1701658
17.285506925291074	4.647767	2.155868
17.30323519127999	4.575663	2.13908
17.320963874602384	4.546692	2.1322973
17.33869297571211	4.511705	2.1240773
17.356422495063114	4.474988	2.1154168
17.37415243310944	4.451673	2.1098988
17.391882790305218	4.4393234	2.1069703
17.40961356710468	4.445917	2.1085343
17.42734476396215	4.4950747	2.1201591
17.445076381332044	4.539352	2.1305754
17.462808419668868	4.618492	2.1490676
17.48054087942723	4.6728745	2.1616833
17.498273761061835	4.9675436	2.2287986
17.51600706502747	5.487127	2.3424616
17.533740791779024	6.20745	2.4914753
17.551474941771485	7.6321588	2.7626362
17.56920951545993	8.752602	2.9584796
17.586944513299528	10.9969425	3.3161638
17.60467993574556	12.616223	3.5519323
17.622415783253373	14.201941	3.768546
17.64015205627843	15.415328	3.926236
17.657888755276293	16.380943	4.047338
17.675625880702604	16.936014	4.115339
17.69336343301311	16.82961	4.102391
17.71110141266366	15.995171	3.9993963
17.728839820110178	15.071795	3.882241
17.746578655808705	14.143164	3.7607398
17.764317920215372	12.810516	3.579178
17.7820576137864	11.490419	3.3897521
17.79979773697811	9.574733	3.0943065
17.81753829024692	7.7513185	2.784119
17.835279274049356	6.0110984	2.451754
17.85302068884201	4.9545913	2.225891
17.870762535081607	4.2585874	2.0636344
17.888504813224934	3.9120786	1.9778975
17.90624752372891	3.6614141	1.9134822
17.923990667050536	3.5269485	1.8780172
17.941734243646895	3.4355702	1.8535291
17.959478253975185	3.4311025	1.8523235
17.9772226984927	3.413028	1.8474382
17.994967577656833	3.430171	1.8520721
18.01271289192506	3.4238298	1.8503593
18.030458641754965	3.389392	1.8410301
18.04820482760425	3.3394785	1.827424
18.06595144993067	3.3062155	1.8183001
18.083698509192125	3.2887387	1.813488
18.101446005846576	3.270726	1.8085148
18.119193940352105	3.230453	1.7973461
18.136942313166887	3.187413	1.7853327
18.1546911247492	3.1545982	1.7761189
18.1724403755574	3.1437273	1.7730559
18.19019006604997	3.0902376	1.7579072
18.207940196685467	3.0376966	1.742899
18.225690767922575	3.0206368	1.7379979
18.243441780220046	3.0540543	1.7475853
18.261193234036764	3.0717182	1.7526318
18.278945129831676	3.1054847	1.7622385
18.29669746806386	3.1356492	1.7707764
18.314450249192483	3.1022024	1.761307
18.3322034736768	3.0849962	1.7564157
18.349957141976184	3.060976	1.7495645
18.3677112545501	3.0488298	1.7460898
18.385465811858108	3.0408392	1.7438002
18.403220814359884	3.0326939	1.7414632
18.420976262515172	3.06213	1.7498943
18.43873215678387	3.123745	1.767412
18.456488497625923	3.1666136	1.7794981
18.474245285501407	3.249395	1.8026078
18.492002520870486	3.301961	1.8171299
18.50976020419343	3.3856435	1.8400118
18.527518335930615	3.6812239	1.9186516
18.545276916542516	4.232285	2.057252
18.563035946489688	4.403814	2.0985265
18.580795426232832	4.863857	2.2054152
18.598555356232698	4.802403	2.1914387
18.616315736950185	5.1321077	2.2654157
18.63407656884626	4.7904277	2.1887045
18.65183785238201	4.9213405	2.2184095
18.669599588018617	4.6948366	2.166757
18.68736177621737	4.7050877	2.1691215
18.705124417439652	4.74029	2.1772208
18.72288751214696	4.515172	2.1248934
18.740651060800886	4.6300282	2.15175
18.758415063863115	4.343488	2.0841036
18.77617952179546	4.4931703	2.11971
18.793944435059814	4.192676	2.0476024
18.811709804118184	4.1916633	2.0473552
18.829475629432675	4.187161	2.0462554
18.8472419114655	4.017314	2.0043237
18.86500865067897	4.1137586	2.0282402
18.88277584753551	3.764634	1.9402665
18.90054350249763	3.7503247	1.9365755
18.918311616027957	3.4063091	1.8456188
18.936080188589226	3.3078732	1.818756
18.953849220644265	3.0047014	1.7334075
18.971618712656007	2.8512154	1.6885542
18.9893886650875	2.8199017	1.6792563
19.007159078401887	7.999397	2.8283205
19.024929953062408	32.900723	5.735915
19.042701289532435	32.851192	5.731596
19.060473088275405	25.39513	5.039358
19.07824534975489	2.6226466	1.6194587
19.096018074434568	2.5709434	1.6034162
19.113791262778197	2.581104	1.6065814
19.13156491524966	2.613879	1.6167495
19.149339032312945	2.5987449	1.6120623
19.167113614432136	2.582408	1.6069872
19.184888662071433	2.5793018	1.6060205
19.202664175695123	2.5537748	1.5980535
19.220440155767623	2.5480144	1.59625
19.238216602753447	2.5368013	1.5927339
19.2559935171172	2.5513573	1.5972968
19.27377089932361	2.5124166	1.5850605
19.291548749837514	2.5271757	1.5897093
19.309327069123835	2.5210693	1.5877875
19.32710585764763	2.5324352	1.5913627
19.344885115874032	2.5050206	1.5827256
19.362664844268313	2.491853	1.5785605
19.380445043295822	2.4928539	1.5788774
19.39822571342203	2.4875486	1.5771965
19.41600685511252	2.475048	1.5732286
19.43378846883297	2.4656966	1.5702536
19.451570555049173	2.470735	1.5718572
19.469353114227037	2.4770756	1.5738728
19.48713614683254	2.458925	1.5680959
19.50491965333182	2.4825392	1.5756075
19.52270363419109	2.4856887	1.5766068
19.540488089876686	2.4788952	1.5744507
19.55827302085503	2.4731338	1.57262
19.576058427592674	2.5001013	1.5811709
19.593844310556282	2.4946964	1.5794607
19.611630670212598	2.4884014	1.5774667
19.629417507028506	2.4465532	1.5641462
19.64720482147098	2.4247668	1.5571662
19.6649926140071	2.4088001	1.5520309
19.682780885104084	2.4474812	1.5644428
19.70056963522921	2.4736485	1.5727837
19.718358864849908	2.467699	1.5708911
19.7361485744337	2.4743764	1.5730151
19.753938764448215	2.4974947	1.5803463
19.771729435361202	2.514115	1.5855961
19.789520587640506	2.5272357	1.5897282
19.807312221754092	2.5375469	1.592968
19.825104338170043	2.553657	1.5980166
19.842896937356517	2.5267599	1.5895785
19.860690019781824	2.4859684	1.5766954
19.87848358591436	2.4606981	1.5686612
19.896277636222635	2.4634583	1.5695407
19.914072171175278	2.4842913	1.5761635
19.931867191241015	2.492607	1.5787992
19.94966269688869	2.5074978	1.583508
19.967458688587264	2.490584	1.5781584
19.985255166805807	2.4744966	1.5730532
20.00305213201348	2.4255095	1.5574048
20.020849584679578	2.4157226	1.5542595
20.038647525273507	2.4316573	1.5593772
20.05644595426477	2.4558377	1.5671113
20.07424487212299	2.490047	1.5779883
20.092044279317903	2.4882877	1.5774307
20.109844176319353	2.47547	1.5733627
20.127644563597304	2.4459348	1.5639485
20.145445441621817	2.4475815	1.5644748
20.16324681086307	2.4699817	1.5716175
20.181048671791373	2.4769669	1.5738382
20.198851024877122	2.4575117	1.5676453
20.216653870590836	2.4355476	1.5606241
20.234457209403146	2.4181688	1.5550462
20.252261041784802	2.4287245	1.5584365
20.270065368206662	2.4172628	1.5547549
20.287870189139685	2.3950703	1.5476015
20.305675505054968	2.3206823	1.5233786
20.323481316423702	2.2824612	1.5107816
20.341287623717207	2.3184695	1.5226521
20.359094427406884	2.3560498	1.5349429
20.376901727964288	2.375259	1.5411875
20.39470952586107	2.3755245	1.5412737
20.41251782156899	2.372793	1.5403873
20.430326615559935	2.3577743	1.5355046
20.448135908305886	2.328278	1.5258696
20.465945700278965	2.330707	1.5266653
20.483755991951384	2.3639328	1.5375086
20.50156678379548	2.4094114	1.5522279
20.519378076283708	2.4195633	1.5554945
20.537189869888635	2.3923595	1.5467254
20.55500216508294	2.379044	1.542415
20.572814962339415	2.4004977	1.549354
20.59062826213098	2.4108253	1.5526832
20.60844206493066	2.4124877	1.5532185
20.626256371211593	2.3699765	1.5394728
20.644071181447032	2.3127732	1.5207804
20.66188649611036	2.2866518	1.5121679
20.67970231567506	2.2858124	1.5118903
20.697518640614742	2.303033	1.5175748
20.715335471403122	2.298439	1.5160604
20.73315280851404	2.2861307	1.5119956
20.750970652421447	2.3128123	1.5207933
20.768789003599412	2.3318913	1.5270531
20.786607862522136	2.3233325	1.5242482
20.8044272296639	2.288771	1.5128684
20.82224710549913	2.2897575	1.5131944
20.84006749050237	2.2838306	1.5112348
20.857888385148268	3.8562424	1.9637318
20.8757097899116	45.964066	6.7796803
20.893531705267254	64.8118	8.050577
20.911354131690224	83.813446	9.154968
20.92917706965566	69.05525	8.309949
20.94700051963877	50.11445	7.079156
20.96482448211493	29.411676	5.4232535
20.982648957559622	4.1663632	2.041167
21.00047394644843	2.273368	1.5077692
21.01829944925707	2.2505755	1.5001918
21.036125466461375	2.2182941	1.4893938
21.053951998537297	2.2145278	1.488129
21.071779045960906	2.1766467	1.4753463
21.089606609208378	2.188659	1.4794117
21.10743468875603	2.1724465	1.4739221
21.12526328508028	2.1731715	1.4741681
21.143092398657675	2.1718783	1.4737294
21.16092202996488	2.1773014	1.4755682
21.17875217947867	2.2110665	1.4869655
21.19658284767596	2.1974638	1.4823844
21.21441403503377	2.1885254	1.4793665
21.232245742029225	2.1597676	1.4696147
21.2500779691396	2.1654456	1.4715453
21.26791071684227	2.161746	1.4702877
21.28574398561475	2.1690984	1.472786
21.30357777593465	2.1524708	1.4671302
21.321412088279704	2.1380181	1.4621964
21.339246923127792	2.1299932	1.4594496
21.357082280956888	2.149181	1.4660085
21.3749181622451	2.138481	1.4623545
21.392754567470647	2.0935898	1.4469242
21.41059149711187	2.0894735	1.4455011
21.42842895164726	2.1049871	1.4508574
21.446266931555378	2.1261282	1.4581249
21.464105437314945	2.1429172	1.4638706
21.481944469404798	2.1136725	1.4538475
21.49978402830388	2.0747476	1.4403985
21.51762411449127	2.0918167	1.4463114
21.53546472844617	2.1154554	1.4544605
21.553305870647876	2.1130526	1.4536343
21.571147541575865	2.1055453	1.4510497
21.58898974170967	2.1060476	1.4512228
21.60683247152899	2.101189	1.4495478
21.62467573151363	2.0683687	1.4381825
21.642519522143523	2.0549507	1.43351
21.660363843898722	2.0595734	1.4351214
21.6782086972594	2.0483007	1.4311886
21.696054082705864	2.0228224	1.4222596
21.713900000718535	2.0267494	1.4236395
21.73174645177795	2.0302863	1.4248811
21.749593436364794	2.0063145	1.4164443
21.767440954959845	1.991712	1.4112803
21.785289008044032	2.0160928	1.4198918
21.803137596098388	2.0247402	1.4229337
21.820986719604086	2.0350049	1.426536
21.838836379042412	2.0275517	1.4239212
21.85668657489478	2.0181801	1.4206266
21.87453730764273	2.033659	1.4260641
21.892388577767914	2.0326328	1.4257044
21.91024038575213	2.018597	1.4207734
21.928092732077285	1.9790757	1.4067962
21.945945617225426	1.9597448	1.3999089
21.963799041678694	1.9539423	1.3978349
21.981653005919398	31.278759	5.5927415
21.999507510429943	78.07162	8.835814
22.01736255569286	73.051765	8.547032
22.035218142190818	4.1811833	2.0447943
22.05307427040661	2.0289614	1.4244162
22.07093094082315	2.0256739	1.4232616
22.088788153923474	2.0229454	1.4223028
22.106645910190746	2.011569	1.4182979
22.12450421010827	1.9948436	1.4123893
22.142363054159464	1.9903224	1.4107878
22.16022244282787	1.9950385	1.4124583
22.178082376597164	1.9896684	1.4105561
22.195942855951145	1.9566596	1.3988065
22.213803881373742	1.9835154	1.4083734
22.231665453349002	1.994967	1.412433
22.24952757236111	1.9868692	1.4095635
22.26739023889438	1.9573499	1.3990532
22.28525345343323	2.0024388	1.4150755
22.30311721646225	2.02423	1.4227544
22.320981528466113	2.0105028	1.417922
22.33884638992964	1.9763155	1.4058149
22.356711801337788	1.9756615	1.4055823
22.37457776317561	1.9746758	1.4052316
22.392444275928337	1.9720544	1.4042985
22.410311340081282	1.9836198	1.4084104
22.428178956119904	1.9627364	1.4009769
22.446047124529805	1.9539484	1.397837
22.46391584579669	1.9816732	1.4077191
22.481785120406414	1.977654	1.4062909
22.49965494884496	1.95991	1.3999679
22.51752533159841	1.929621	1.389108
22.53539626915302	1.9130044	1.383114
22.553267761995137	1.9391406	1.3925303
22.571139810611264	1.9209634	1.3859882
22.589012415488025	1.936535	1.3915944
22.60688557711216	1.9423032	1.3936654
22.624759295970566	1.9668217	1.4024342
22.642633572550263	1.9418199	1.393492
22.660508407338362	1.9433849	1.3940535
22.67838380082217	1.9467205	1.3952492
22.696259753489077	1.9209938	1.3859992
22.714136265826614	1.9231095	1.3867623
22.73201333832246	1.9210943	1.3860354
22.74989097146439	1.9127499	1.3830221
22.76776916574035	1.8911287	1.3751831
22.785647921638393	1.908304	1.3814138
22.803527239646712	1.8764538	1.3698372
22.82140712025363	1.8733838	1.3687161
22.839287563947593	1.8664684	1.3661876
22.85716857121719	1.9094379	1.3818241
22.875050142551135	1.892093	1.3755337
22.892932278438277	1.8955563	1.3767921
22.910814979367604	1.8976994	1.37757
22.928698245828222	1.8798584	1.3710793
22.946582078309387	1.8646061	1.3655058
22.96446647730047	1.87763	1.3702664
22.98235144329098	1.8665106	1.366203
23.000236976770562	1.8409009	1.356798
23.018123078229	1.8568482	1.3626622
23.03600974815619	1.8880823	1.374075
23.053896987042194	1.8835355	1.3724196
23.071784795377173	1.8868293	1.3736191
23.08967317365145	1.9355984	1.3912579
23.10756212235546	1.9718146	1.4042132
23.125451641979787	1.9560281	1.3985808
23.143341733015134	1.9832064	1.4082636
23.161232395952357	1.9777162	1.406313
23.179123631282426	1.9546562	1.3980902
23.197015439496468	1.9322367	1.3900492
23.214907821085717	1.9387217	1.3923799
23.23280077654157	1.9297931	1.3891699
23.250694306355538	1.9246737	1.3873261
23.268588411019277	1.9288448	1.3888285
23.28648309102458	1.9459344	1.3949676
23.304378346863356	1.9419845	1.3935511
23.322274179027676	1.9279239	1.388497
23.340170588009723	1.9021355	1.3791792
23.358067574301852	1.8719735	1.3682008
23.37596513839651	1.860842	1.3641268
23.39386328078629	1.8873649	1.373814
23.411762001963947	1.9045185	1.3800429
23.429661302422353	1.9052631	1.3803127
23.4475611826545	1.872088	1.3682426
23.46546164315356	1.8932471	1.3759532
23.48336268441279	1.8974133	1.3774662
23.501264306925638	1.9195333	1.3854722
23.51916651118564	1.9652574	1.4018763
23.537069297686497	1.96812	1.402897
23.554972666922037	1.9403297	1.3929572
23.57287661938623	1.9077007	1.3811954
23.59078115557318	1.9080265	1.3813133
23.608686275977128	1.9115883	1.382602
23.62659198109246	1.8897624	1.3746862
23.6444982714137	1.8637308	1.3651853
23.66240514743549	1.871792	1.3681345
23.68031260965263	1.899866	1.3783562
23.698220658560068	1.8754548	1.3694725
23.716129294652845	1.8534548	1.3614165
23.7340385184262	1.8568584	1.3626659
23.75194833037546	1.901303	1.3788775
23.769858730996123	1.8949201	1.3765609
23.78776972078382	1.8637449	1.3651904
23.80568130023431	1.8495171	1.3599695
23.823593469843495	1.8469162	1.359013
23.841506230107424	1.8675027	1.3665661
23.859419581522275	1.8906151	1.3749964
23.87733352458438	1.92474	1.38735
23.89524805979019	1.9128841	1.3830706
23.913163187636318	1.9073958	1.381085
23.931078908619508	1.9238687	1.387036
23.948995223236633	1.950162	1.396482
23.966912131984735	1.9516201	1.397004
23.98482963536096	2.0005085	1.4143933
24.002747733862616	1.9889463	1.4103001
24.020666427987155	2.0179498	1.4205456
24.038585718232156	2.0360801	1.4269128
24.056505605095353	2.0300953	1.4248141
24.074426089074617	2.0436966	1.4295791
24.092347170667946	2.0095985	1.4176031
24.110268850373515	2.0471814	1.4307975
24.128191128689586	2.060577	1.4354709
24.146114006114626	2.0193012	1.4210212
24.164037483147187	1.9938447	1.4120357
24.181961560286005	2.022399	1.4221108
24.199886238029926	1.9819152	1.4078051
24.21781151687797	1.9802643	1.4072187
24.235737397329274	1.9802687	1.4072202
24.253663879883135	1.971991	1.4042759
24.271590965038975	1.9706026	1.4037815
24.289518653296376	1.9846478	1.4087752
24.30744694515505	2.0145743	1.419357
24.32537584111486	2.027133	1.4237742
24.34330534167581	1.9988034	1.4137905
24.361235447338046	2.0206504	1.4214958
24.379166158601876	2.0410466	1.428652
24.39709747596772	2.043919	1.429657
24.41502939993615	2.0521288	1.4325253
24.432961931007917	2.023089	1.4223533
24.450895069683856	1.9830278	1.4082003
24.468828816465	1.9319409	1.3899428
24.4867631718525	1.9677546	1.4027668
24.504698136347656	1.984723	1.4088019
24.52263371045192	1.9704003	1.4037095
24.540569894666874	1.9634076	1.4012165
24.558506689494266	1.935212	1.391119
24.57644409543597	1.9506973	1.3966737
24.594382112994012	1.9527026	1.3973913
24.61232074267057	1.9540347	1.3978679
24.630259984967953	1.9461263	1.3950363
24.64819984038863	1.9597844	1.399923
24.66614030943522	1.9551777	1.3982767
24.684081392610462	1.949376	1.3962005
24.702023090417274	1.9510494	1.3967997
24.7199654033587	1.9346957	1.3909334
24.737908331937927	1.9573102	1.399039
24.755851876658305	2.0262194	1.4234533
24.773796038023324	2.0531993	1.4328989
24.79174081653661	2.0004709	1.4143801
24.809686212701962	2.0307853	1.4250562
24.827632227023294	2.0536242	1.4330472
24.8455788600047	2.065087	1.437041
24.8635261121504	2.0367062	1.4271321
24.88147398396475	2.0721354	1.4394914
24.899422475952303	2.1145754	1.454158
24.917371588617698	2.1243308	1.4575084
24.935321322465768	2.1847062	1.4780751
24.953271678001478	2.2825263	1.5108032
24.97122265572994	2.4954984	1.5797147
24.989174256156414	2.8435695	1.6862887
25.00712647978632	3.2539303	1.8038654
25.02507932712521	3.7599187	1.939051
25.043032798678798	4.260189	2.0640225
25.060986894952933	4.875674	2.2080927
25.078941616453637	5.6224136	2.371163
25.096896963687055	6.5859103	2.5663028
25.114852937159508	7.7298427	2.7802594
25.132809537377444	8.098668	2.845816
25.150766764847468	8.090079	2.8443065
25.168724620076347	7.5707693	2.751503
25.186683103570985	6.6488028	2.5785272
25.204642215838426	5.5089993	2.3471258
25.222601957385894	4.168596	2.041714
25.24056232872074	3.1779215	1.7826725
25.25852333035048	2.6055288	1.6141651
25.276484962782778	2.2562332	1.5020763
25.294447226525435	2.0801067	1.4422575
25.312410122086423	1.9749572	1.4053317
25.330373649973843	1.9844518	1.4087057
25.348337810695988	1.9558012	1.3984996
25.366302604761245	1.9204483	1.3858024
25.384268032678207	1.892392	1.3756424
25.40223409495558	1.9047264	1.3801183
25.420200792102257	1.9152855	1.3839384
25.438168124627246	1.8927221	1.3757623
25.45613609303974	1.8709558	1.3678288
25.474104697849057	1.8783872	1.3705426
25.492073939564698	1.8546798	1.3618664
25.510043818696285	1.8339493	1.3542339
25.528014335753614	1.8330857	1.353915
25.54598549124664	1.8455797	1.3585211
25.56395728568544	1.8629841	1.3649118
25.58192971958028	1.8900118	1.374777
25.59990279344156	1.9027148	1.3793893
25.617876507779833	1.9008052	1.3786969
25.635850863105826	1.8684483	1.3669119
25.653825859930386	1.8538643	1.3615669
25.671801498764548	1.8703814	1.3676189
25.68977778011949	1.8630991	1.3649539
25.707754704506524	1.8124279	1.3462644
25.725732272437153	1.8375674	1.355569
25.743710484423012	1.8648918	1.3656104
25.761689340975888	1.8565751	1.362562
25.77966884260774	1.8429068	1.357537
25.797648989830662	1.8757848	1.3695929
25.815629783156922	1.8562789	1.3624532
25.83361122309895	1.8021365	1.3424368
25.85159331016929	1.7856003	1.3362635
25.869576044880695	1.8047532	1.343411
25.887559427746034	1.8648906	1.36561
25.90554345927836	1.8419904	1.3571994
25.92352813999086	1.8012408	1.3421031
25.94151347039689	1.8366133	1.3552171
25.959499451009965	1.922983	1.3867166
25.97748608234374	1.8902633	1.3748685
25.995473364912062	1.8508391	1.3604555
26.013461299228904	1.8679385	1.3667254
26.03144988580839	1.9032625	1.3795878
26.04943912516483	1.8731198	1.3686197
26.067429017812675	1.8457904	1.3585987
26.085419564266537	1.8007872	1.3419341
26.103410765041186	1.807055	1.3442675
26.12140262065155	1.842299	1.3573132
26.139395131612723	1.8447913	1.358231
26.157388298439948	1.8024961	1.3425707
26.17538212164861	1.7826687	1.3351662
26.193376601754295	1.7922748	1.3387587
26.211371739272714	1.8092967	1.345101
26.229367534719746	1.789684	1.3377907
26.247363988611433	1.7951183	1.3398203
26.26536110146397	1.787123	1.3368332
26.283358873793727	1.8206658	1.3493205
26.301357306117204	1.8040063	1.343133
26.319356398951104	1.7748507	1.3322352
26.33735615281224	1.7854835	1.3362198
26.35535656821762	1.7864565	1.3365839
26.373357645684404	1.7956629	1.3400235
26.39135938572991	1.781127	1.3345886
26.409361788871614	1.8036014	1.3429823
26.427364855627165	1.7819952	1.334914
26.445368586514352	1.7902952	1.3380191
26.46337298205115	1.7898962	1.33787
26.48137804275568	1.7901634	1.3379699
26.499383769146217	1.7949896	1.3397722
26.517390161741215	1.845618	1.3585353
26.53539722105928	1.8323454	1.3536415
26.553404947619182	1.8281537	1.3520924
26.571413341939856	1.8360939	1.3550254
26.589422404540397	1.7978082	1.3408237
26.60743213594006	1.7753458	1.3324211
26.62544253665827	1.8311538	1.3532013
26.64345360721459	1.8499163	1.3601162
26.66146534812879	1.8251776	1.3509914
26.679477759920758	1.7984465	1.3410617
26.69749084311057	1.8146275	1.3470811
26.71550459821847	1.7877496	1.3370676
26.733519025764842	1.7930534	1.3390495
26.751534126270258	1.8033115	1.3428743
26.769549900255434	1.8117113	1.3459983
26.787566348241267	1.8225597	1.3500221
26.80558347074881	1.8052156	1.3435831
26.823601268299267	1.7627524	1.3276869
26.841619741414036	1.7636925	1.3280408
26.85963889061465	1.8103489	1.345492
26.877658716422832	1.854408	1.3617665
26.89567921936045	1.8234696	1.3503591
26.913700399949544	1.7869362	1.3367633
26.93172225871233	1.7745287	1.3321143
26.949744796171174	1.7748833	1.3322475
26.967768012848605	1.806093	1.3439096
26.98579190926733	1.7915453	1.3384862
27.003816485950225	1.7801728	1.3342311
27.021841743420318	1.7757628	1.3325775
27.039867682200814	1.7769759	1.3330326
27.057894302815072	1.8255152	1.3511163
27.07592160578664	1.8382456	1.3558192
27.0939495916392	1.7982681	1.3409952
27.111978260896635	1.774886	1.3322484
27.13000761408296	1.79255	1.3388615
27.148037651722397	1.8410044	1.3568362
27.166068374339304	1.823021	1.350193
27.184099782458215	1.8108715	1.3456862
27.20213187660384	1.8401834	1.3565336
27.22016465730105	1.8832611	1.3723196
27.23819812507487	1.856003	1.362352
27.256232280450533	1.7813233	1.3346622
27.274267123953383	1.7882268	1.337246
27.292302656108987	1.7984008	1.3410447
27.31033887744306	1.8051649	1.3435643
27.32837578848146	1.7536472	1.3242534
27.34641338975026	1.7279211	1.3145041
27.364451681775673	1.7701111	1.3304552
27.382490665084074	1.7987564	1.3411772
27.400530340202046	1.7757826	1.332585
27.41857070765629	1.786093	1.336448
27.436611767973726	1.7860504	1.336432
27.454653521681404	1.8033439	1.3428864
27.472695969306564	1.8129464	1.346457
27.490739111376627	1.8073119	1.344363
27.508782948419153	1.7974305	1.3406829
27.526827480961902	1.7878419	1.337102
27.54487270953279	1.8162504	1.3476833
27.562918634659898	1.8349327	1.3545969
27.580965256871508	1.8420551	1.3572233
27.599012576696026	1.8699106	1.3674468
27.617060594662068	1.8511866	1.3605832
27.63510931129842	1.8244891	1.3507365
27.65315872713401	1.7884699	1.3373369
27.67120884269797	1.7614576	1.3271991
27.68925965851958	1.7869883	1.3367828
27.707311175128307	1.8343443	1.3543797
27.725363393053787	1.7971523	1.340579
27.74341631282583	1.7550417	1.3247799
27.7614699349744	1.8033924	1.3429044
27.77952426002968	2.0548553	1.4334767
27.797579288521973	2.1107683	1.4528483
27.815635020981784	2.487871	1.5772986
27.83369145793979	2.544094	1.5950216
27.85174859992682	2.460795	1.5686921
27.869806447473923	2.3404856	1.5298645
27.887865001112267	2.0197272	1.4211711
27.905924261373233	1.939792	1.3927642
27.92398422878836	1.9309388	1.3895823
27.94204490388936	1.8697479	1.3673873
27.96010628720813	1.8636113	1.3651415
27.978168379276728	1.8972085	1.3773919
27.9962311806274	1.8832421	1.3723127
28.014294691792568	1.8094959	1.345175
28.0323589133048	1.8009236	1.341985
28.050423845696887	1.8185447	1.3485343
28.068489489501758	1.8557403	1.3622556
28.086555845252523	1.8596365	1.3636849
28.104622913482487	1.8585314	1.3632796
28.122690694725115	1.9095457	1.3818631
28.14075918951405	1.8744237	1.3690959
28.15882839838312	1.8158613	1.347539
28.176898321866304	1.8597653	1.3637321
28.1949689604978	1.9022825	1.3792325
28.213040314811945	1.920114	1.3856817
28.23111238534327	1.8899509	1.3747548
28.249185172626493	1.9187142	1.3851765
28.267258677196473	1.976081	1.4057314
28.285332899588294	1.998348	1.4136294
28.303407840337172	1.9579235	1.3992583
28.321483499978545	1.9718044	1.4042095
28.33955987904799	1.9275529	1.3883634
28.357636978081285	1.8896005	1.3746274
28.37571479761439	1.8758235	1.3696071
28.393793338183425	1.9244827	1.3872572
28.41187260032469	1.9108684	1.3823416
28.429952584574686	1.9124366	1.3829087
28.448033291470065	1.9501781	1.3964878
28.46611472154769	1.9709859	1.403918
28.484196875344566	1.9739376	1.4049689
28.502279753397914	1.9871538	1.4096644
28.52036335624511	1.9936363	1.4119618
28.538447684423716	1.9474721	1.3955185
28.556532738471482	1.9570755	1.3989551
28.574618518926325	1.9603581	1.4001279
28.59270502632635	1.9962306	1.4128803
28.61079226120985	1.9985937	1.4137163
28.628880224115274	2.0118864	1.4184098
28.646968915581287	2.0235062	1.4225
28.66505833614671	1.9494586	1.3962301
28.68314848635055	1.9381739	1.3921832
28.701239366732004	1.9929298	1.4117117
28.71933097783044	2.053795	1.4331068
28.737423320185403	2.0870047	1.444647
28.75551639433665	2.1164126	1.4547895
28.773610200824074	2.1223428	1.4568263
28.791704740187793	2.1095383	1.452425
28.80980001296809	2.1377616	1.4621086
28.827896019705413	2.138861	1.4624845
28.845992760940433	2.1742618	1.4745378
28.86409023721397	2.1838717	1.4777929
28.88218844906704	2.2272234	1.4923885
28.900287397040845	2.224217	1.4913809
28.918387081676755	2.2360063	1.4953282
28.936487503516343	2.2522645	1.5007546
28.954588663101365	2.276266	1.5087299
28.97269056097374	2.3019779	1.517227
28.990793197675597	2.3421955	1.5304233
29.00889657374923	2.3376517	1.528938
29.027000689737125	2.2880676	1.512636
29.04510554618196	2.3392153	1.5294493
29.06321114362659	2.3877628	1.5452387
29.08131748261405	2.4527934	1.5661396
29.099424563687567	2.4576032	1.5676745
29.11753238739057	2.4523156	1.5659871
29.13564095426663	2.4545724	1.5667075
29.15375026485954	2.5181725	1.5868751
29.171860319713275	2.5781176	1.6056517
29.18997111937199	2.7521462	1.6589594
29.20808266438002	2.7963133	1.6722181
29.226194955281898	2.763192	1.6622852
29.244307992622335	2.7291899	1.6520259
29.26242177694624	2.772069	1.6649531
29.2805363087987	2.7911723	1.6706802
29.29865158872498	2.8293169	1.6820574
29.316767617270557	2.8614469	1.6915811
29.334884394981064	2.9155807	1.7075071
29.353001922402367	2.9543307	1.7188166
29.37112020008047	3.0206454	1.7380004
29.389239228561596	3.0780966	1.7544506
29.407359008392152	3.262775	1.8063153
29.42547954011872	3.6236534	1.9035896
29.44360082428809	4.2489405	2.0612957
29.46172286144722	5.2905736	2.3001246
29.479845652143283	6.6905756	2.5866146
29.497969196923606	8.73995	2.9563408
29.516093496335728	11.206122	3.3475547
29.5342185509274	13.963958	3.7368379
29.55234436124651	16.211344	4.0263314
29.570470927841175	17.637255	4.199673
29.588598251259686	17.559559	4.1904125
29.60672633205055	16.300611	4.0374017
29.624855170762405	14.143615	3.7607996
29.642984767944146	11.618106	3.4085343
29.66111512414481	9.001614	3.000269
29.67924623991366	6.7973065	2.6071644
29.697378115800138	5.225942	2.286032
29.71551075235387	4.2365375	2.058285
29.733644150124675	3.8217702	1.9549348
29.751778309662576	3.5854943	1.8935401
29.769913231517766	3.531842	1.8793195
29.78804891624066	3.435076	1.8533958
29.806185364381818	3.3471591	1.8295243
29.82432257649206	3.32523	1.8235213
29.842460553122333	3.307185	1.8185667
29.86059929482382	3.2801337	1.811114
29.878738802147872	3.2003226	1.7889446
29.896879075646048	3.1706128	1.7806214
29.915020115870114	3.2420344	1.800565
29.933161923371976	3.2781122	1.8105558
29.951304498703777	3.267255	1.807555
29.969447842417857	3.3352056	1.8262545
29.987591955066733	3.3676732	1.8351221
30.005736837203123	3.2704096	1.8084273
30.023882489379943	3.1261978	1.7681057
30.04202891215028	3.110233	1.7635853
30.060176106067455	3.0431576	1.7444649
30.078324071684946	3.0425258	1.7442838
30.09647280955646	3.0866773	1.7568942
30.114622320235863	3.1363912	1.770986
30.132772604277257	3.1094828	1.7633725
30.1509236622349	3.1109784	1.7637966
30.16907549466328	3.0626457	1.7500416
30.18722810211705	2.923664	1.7098725
30.205381485151097	2.9679298	1.7227681
30.22353564432045	2.9998019	1.7319936
30.241690580180403	3.0026336	1.7328109
30.25984629328638	3.004011	1.7332083
30.278002784194037	2.9690723	1.7230996
30.296160053459246	2.9214225	1.709217
30.314318101638033	2.9486017	1.7171493
30.332476929286646	2.985947	1.7279893
30.35063653696153	2.9312596	1.7120922
30.368796925219307	2.9196253	1.7086911
30.386958094616844	2.8935375	1.7010401
30.40512004571115	2.9028883	1.7037865
30.423282779059463	2.907161	1.7050399
30.441446295219233	2.9452171	1.7161635
30.459610594748067	2.943495	1.7156616
30.47777567820382	2.9395306	1.7145059
30.495941546144504	2.861265	1.6915274
30.51410819912835	2.8193927	1.6791047
30.532275637713795	2.7894423	1.6701623
30.55044386245946	2.7237785	1.6503874
30.56861287392416	2.6748118	1.6354852
30.586782672666956	2.7362092	1.654149
30.604953259247047	2.810645	1.6764978
30.623124634223885	2.7980838	1.6727474
30.641296798157075	2.7792752	1.6671158
30.659469751606462	2.761688	1.6618327
30.677643495132074	2.7442975	1.6565921
30.695818029294152	2.7336445	1.6533737
30.713993354653116	2.7063732	1.6451058
30.73216947176962	2.7330792	1.6532027
30.75034638120448	2.7197573	1.6491687
30.768524083518756	2.7135215	1.647277
30.786702579273673	2.7383232	1.654788
30.80488186903069	2.8181496	1.6787345
30.82306195335144	2.9210148	1.7090976
30.841242832797782	3.0819159	1.7555386
30.85942450793176	3.293386	1.8147689
30.877606979315637	3.5543022	1.8852857
30.895790247511883	3.9871585	1.9967871
30.913974313083134	4.4618874	2.112318
30.932159176592283	4.8219476	2.1958933
30.95034483860237	4.9835224	2.2323804
30.968531299676698	4.796855	2.1901724
30.98671856037873	4.378518	2.092491
31.00490662127215	3.9753115	1.9938183
31.023095482920848	3.528088	1.8783206
31.04128514588892	2.999604	1.7319365
31.059475610740662	2.6510074	1.6281915
31.07766687804056	2.5536013	1.5979991
31.09585894835335	2.5132842	1.5853341
31.11405182224393	2.536516	1.5926443
31.132245500277417	2.4893873	1.5777792
31.15043998301914	2.4199681	1.5556247
31.168635271034628	2.3533213	1.5340539
31.18683136488964	2.3668597	1.5384601
31.20502826515008	2.4469805	1.5642828
31.223225972382135	2.4762638	1.5736148
31.241424487152155	2.41632	1.5544517
31.259623810026692	2.3880894	1.5453445
31.27782394157253	2.2984905	1.5160774
31.296024882356644	2.239096	1.4963609
31.314226632946237	2.2322237	1.4940628
31.332429193908684	2.2877257	1.5125229
31.350632565811598	2.3574443	1.535397
31.368836749222787	2.3512366	1.5333742
31.387041744710295	2.3687427	1.539072
31.40524755284232	2.4408185	1.5623119
31.423454174187317	2.5143323	1.5856646
31.441661609313922	2.493895	1.5792071
31.459869858791002	2.4190493	1.5553293
31.478078923187628	2.4328287	1.5597527
31.496288803073064	2.414192	1.553767
31.514499499016807	2.3525589	1.5338054
31.532711011588546	2.3172593	1.5222547
31.550923341358178	2.2859237	1.5119271
31.56913648889584	2.2811112	1.5103348
31.587350454771844	2.3638313	1.5374756
31.605565239556732	2.3918498	1.5465606
31.62378084382127	2.397231	1.5482994
31.641997268136382	2.3258169	1.5250629
31.660214513073274	2.291985	1.5139303
31.67843257920331	2.2990568	1.5162641
31.6966514670981	2.2923563	1.5140529
31.71487117732944	2.2828007	1.510894
31.733091710469346	2.2904415	1.5134205
31.751313067090052	2.3359654	1.5283865
31.769535247764008	2.308672	1.5194315
31.787758253063878	2.223641	1.4911878
31.805982083562526	2.22019	1.4900302
31.824206739833024	2.2568552	1.5022833
31.84243222244869	2.2763162	1.5087465
31.860658531983013	2.2397633	1.4965838
31.878885669009737	2.2467306	1.4989098
31.897113634102784	2.2886808	1.5128386
31.91534242783632	2.2716925	1.5072135
31.933572050784694	2.248703	1.4995676
31.951802503522508	2.220791	1.4902319
31.970033786624548	2.1534367	1.4674592
31.988265900665834	2.1994007	1.4830376
32.006498846221575	2.2328746	1.4942807
32.02473262386724	2.1454837	1.464747
32.04296723417845	2.0860386	1.4443125
32.0612026777311	2.1349225	1.4611374
32.07943895510129	2.0851276	1.4439971
32.097676066865304	2.0876253	1.4448617
32.115914013599685	2.0962112	1.4478298
32.13415279588115	2.1079876	1.4518911
32.152392414286666	2.0240684	1.4226975
32.1706328693934	2.0012956	1.4146715
32.18887416177875	2.0761437	1.4408829
32.20711629202032	2.185671	1.4784015
32.225359260695924	2.1478055	1.4655393
32.243603068383614	2.1071427	1.4516001
32.26184771566166	2.0802143	1.4422948
32.28009320310852	2.0911338	1.4460753
32.2983395313029	2.1566532	1.4685547
32.31658670082372	2.1886587	1.4794116
32.33483471225012	2.11251	1.4534476
32.35308356616143	2.0763464	1.4409533
32.371333263137245	2.1237807	1.4573197
32.38958380375734	2.1084054	1.452035
32.407835188601744	2.0846863	1.4438443
32.42608741825067	2.1391509	1.4625837
32.444340493284585	2.170847	1.4733794
32.46259441428416	2.1258147	1.4580173
32.48084918183028	2.0038323	1.4155679
32.49910479650405	1.9502002	1.3964957
32.51736125888683	2.0937166	1.4469681
32.53561856956014	2.1344137	1.4609632
32.5538767291058	2.077502	1.4413543
32.572135738105764	2.0885284	1.4451742
32.59039559714228	2.1084325	1.4520442
32.608656306797776	2.044727	1.4299395
32.62691786765491	2.0051327	1.4160271
32.645180280296586	1.9493722	1.3961992
32.663443545305896	1.9263831	1.3879421
32.68170766326619	1.9911348	1.4110757
32.69997263476099	2.043126	1.4293796
32.7182384603741	2.0273008	1.4238331
32.7365051406895	1.966728	1.4024007
32.75477267629144	1.9400852	1.3928694
32.77304106776434	1.9465953	1.3952044
32.79131031569289	1.9337463	1.3905921
32.809580420661966	1.9752799	1.4054465
32.827851383256714	1.9981354	1.4135542
32.84612320406245	1.9411917	1.3932666
32.86439588366476	1.8467522	1.3589526
32.88266942264945	1.8313143	1.3532606
32.9009438216025	1.8594118	1.3636025
32.9192190811102	1.9057741	1.3804978
32.937495201758985	1.9119531	1.382734
32.95577218413556	1.9351298	1.3910894
32.974050028826866	1.9463192	1.3951055
32.992328736420035	1.9636025	1.401286
33.010608307502444	1.9166447	1.3844293
33.02888874266169	1.9219993	1.386362
33.047170042485604	1.9007713	1.3786846
33.06545220756225	1.8326539	1.3537555
33.083735238479896	1.8768523	1.3699826
33.10201913582707	1.9506695	1.3966637
33.12030390019248	1.9382918	1.3922255
33.138589532165135	1.8784018	1.370548
33.15687603233419	1.8854539	1.3731183
33.17516340128909	1.9414068	1.3933438
33.19345163961947	1.9425266	1.3937455
33.211740747915215	1.8389388	1.3560748
33.23003072676643	1.8434204	1.3577262
33.248321576763466	1.9596447	1.3998731
33.266613298496885	2.0153465	1.419629
33.28490589255747	1.9417583	1.3934698
33.30319935953626	1.8418223	1.3571376
33.32149370002451	1.8620244	1.3645601
33.339788914613706	1.9538015	1.3977845
33.358085003895575	1.9714175	1.4040718
33.376381968462034	1.958628	1.3995099
33.39467980890529	1.9651856	1.4018508
33.41297852581774	1.9503367	1.3965446
33.43127811979204	1.9067904	1.3808658
33.44957859142105	1.9249288	1.387418
33.467879941297866	1.926851	1.3881106
33.486182170015844	1.9317878	1.3898877
33.50448527816853	1.9910157	1.4110335
33.522789266349754	1.8913988	1.3752813
33.541094135153514	1.7254	1.3135449
33.55939988517411	1.6985204	1.303273
33.57770651700602	1.8444793	1.3581161
33.59601403124398	1.9311254	1.3896494
33.61432242848296	1.9152247	1.3839164
33.632631709318154	1.8474133	1.3591958
33.650941874344994	1.7952669	1.3398757
33.66925292415916	1.7885536	1.3373681
33.68756485935654	1.8609517	1.364167
33.70587768053328	1.9811761	1.4075426
33.724191388285746	1.987337	1.4097294
33.74250598321054	1.9911984	1.4110984
33.760821465904506	2.0279365	1.4240563
33.77913783696474	1.995704	1.4126939
33.79745509698852	1.9183676	1.3850515
33.815773246573414	1.8767282	1.3699373
33.8340922863172	1.9017265	1.379031
33.852412216817896	1.9168617	1.3845078
33.87073303867377	2.0018303	1.4148605
33.889054752483304	2.0516112	1.4323447
33.907377358845245	1.9630228	1.4010792
33.92570085835853	1.9018911	1.3790907
33.94402525162239	1.91726	1.3846515
33.96235053923627	1.8681997	1.366821
33.980676721799824	1.8498062	1.3600758
33.999003799912984	1.9414592	1.3933625
34.01733177417592	2.0044994	1.4158034
34.03566064518901	2.0352533	1.426623
34.0539904135529	2.0981197	1.4484888
34.07232107986846	2.0892587	1.4454268
34.090652644736785	1.9700425	1.403582
34.108985108759235	1.8572581	1.3628125
34.12731847253742	1.776325	1.3327885
34.14565273667313	1.7930254	1.339039
34.16398790176847	1.846835	1.358983
34.18232396842574	1.9126451	1.3829842
34.20066093724749	1.8993431	1.3781666
34.21899880883651	1.8923339	1.3756213
34.23733758379583	1.8697363	1.367383
34.25567726272874	1.9065378	1.3807744
34.27401784623872	1.7511083	1.3232945
34.29235933492957	1.7003143	1.303961
34.31070172940526	1.7322872	1.3161638
34.32904503027003	1.8801179	1.3711739
34.347389238128386	2.0552235	1.4336051
34.36573435358502	2.0974488	1.4482572
34.38408037724492	1.9229138	1.3866917
34.402427309713296	1.9465909	1.3952029
34.42077515159559	2.0020502	1.4149382
34.43912390349752	1.8964772	1.3771265
34.45747356602499	1.9825131	1.4080174
34.47582413978423	2.088594	1.4451969
34.49417562538163	2.0496142	1.4316474
34.51252802342388	2.0355902	1.4267411
34.53088133451789	2.1926115	1.480747
34.54923555927084	2.1125615	1.4534653
34.567590698290104	1.9024048	1.3792769
34.58594675218336	1.8226724	1.3500638
34.6043037215585	1.8763903	1.369814
34.62266160702365	1.9692196	1.4032888
34.641020409187234	2.037385	1.42737
34.65938012865785	1.9762118	1.405778
34.677740766044394	1.8797741	1.3710486
34.69610232195598	1.9582746	1.3993837
34.714464797002016	2.040228	1.4283655
34.73282819179208	1.8690751	1.3671412
34.751192506936064	1.7099425	1.3076477
34.76955774304408	1.8596776	1.3636999
34.7879239007265	2.0284986	1.4242537
34.80629098059391	2.1476803	1.4654965
34.824658983257194	2.128295	1.4588677
34.843027909327446	2.0961423	1.447806
34.86139775941603	2.004109	1.4156655
34.879768534134534	1.9919531	1.4113657
34.89814023409483	2.1102307	1.4526633
34.91651285990901	2.1039271	1.450492
34.93488641218944	2.0245063	1.4228514
34.95326089154871	2.1593668	1.4694784
34.97163629859967	2.082484	1.4430814
34.99001263395542	2.021918	1.4219416
35.00838989822934	1.9660573	1.4021616
35.02676809203499	1.8772924	1.3701432
35.04514721598624	1.9209073	1.385968
35.063527270697215	2.2039707	1.4845777
35.081908256782256	2.2034166	1.484391
35.10029017485597	2.1204221	1.456167
35.11867302553321	2.050288	1.4318826
35.137056809429104	2.0398934	1.4282484
35.155441527159006	2.0699313	1.4387256
35.173827179338524	1.9972284	1.4132333
35.19221376658354	1.8886669	1.3742877
35.21060128951017	2.066954	1.4376905
35.2289897487348	2.1465008	1.4650941
35.24737914487405	2.3221273	1.5238528
35.26576947854479	2.3769968	1.5417511
35.28416075036418	1.9834797	1.4083606
35.30255296094958	1.6109173	1.2692192
35.32094611091867	1.7554436	1.3249315
35.33934020088932	1.9719192	1.4042504
35.35773523147969	2.1078744	1.4518521
35.3761312033082	2.0365038	1.4270612
35.394528116993506	1.9822749	1.4079329
35.41292597315452	2.1672623	1.4721625
35.431324772410434	2.430208	1.5589124
35.449724515380666	2.544646	1.5951947
35.46812520268491	2.2301981	1.4933848
35.486526834943106	2.1610332	1.4700453
35.504929412775454	1.9995891	1.4140682
35.52333293680242	1.8353963	1.354768
35.54173740764471	1.8247766	1.350843
35.560142825923286	1.9163651	1.3843284
35.5785491922594	1.5139333	1.23042
35.59695650727454	1.5731572	1.2542557
35.61536477159042	1.7820303	1.3349271
