0.008763373481513119	0.0	0.0
0.026290120649546365	0.0	0.0
0.043816868432600686	0.0	0.0
0.06134361724069026	0.07129023	0.2670023
0.07887036748382949	0.11087866	0.33298448
0.0963971195720331	0.10686629	0.3269041
0.11392387391531617	0.07427039	0.27252594
0.1314506309236943	0.034860406	0.18670942
0.1489773910071836	0.05957645	0.24408288
0.16650415457580078	0.10720127	0.32741606
0.18403092203956356	0.12883346	0.35893378
0.20155769380849	0.08902222	0.29836592
0.2190844702925996	0.040646814	0.20161055
0.2366112519019124	0.08871094	0.2978438
0.2541380390464497	0.18761142	0.43314132
0.27166483213623416	0.20195486	0.44939387
0.28919163158128947	0.14108689	0.37561536
0.3067184377916406	0.120404035	0.34699285
0.324245251177314	0.110075906	0.3317769
0.34177207214833777	0.14000003	0.37416577
0.3592989011147415	0.15480742	0.39345574
0.37682573848655654	0.16447678	0.40555736
0.39435258467381573	0.16409348	0.40508452
0.41187944008655414	0.2334835	0.4832013
0.42940630513480854	0.22902206	0.47856247
0.446933180228618	0.20959887	0.4578197
0.4644600657780234	0.18218149	0.42682725
0.48198696219306775	0.15717486	0.39645284
0.49951386988379676	0.15590276	0.39484525
0.5170407892602581	0.15007348	0.38739318
0.5345677207325025	0.11560358	0.34000528
0.5520946647105822	0.1303127	0.3609885
0.5696216216045534	0.13989016	0.37401894
0.5871485918244737	0.1684063	0.41037336
0.6046755757804043	0.17229925	0.41508946
0.6222025738824094	0.12736124	0.35687706
0.6397295865405557	0.13782899	0.37125328
0.6572566141649129	0.13820295	0.37175658
0.6747836571655547	0.155974	0.39493543
0.6923107159525568	0.1489289	0.38591307
0.7098377909359992	0.11867372	0.34449053
0.7273648825259653	0.09724532	0.31184182
0.7448919911325411	0.11058104	0.33253726
0.762419117165817	0.12006479	0.34650367
0.7799462610358868	0.15436918	0.39289844
0.7974734231528482	0.18309699	0.42789835
0.8150006039268024	0.19297263	0.4392865
0.8325278037678551	0.21087831	0.4592149
0.8500550230861152	0.23302665	0.48272833
0.8675822622916969	0.22522052	0.47457403
0.8851095217947171	0.2313607	0.48099968
0.9026368020052984	0.18702179	0.43246016
0.9201641033335665	0.19733971	0.44422933
0.9376914261896523	0.21123458	0.45960262
0.9552187709836915	0.20561822	0.45345145
0.9727461381258234	0.20933463	0.457531
0.990273528026193	0.18833317	0.4339737
1.0078009410949496	0.21090639	0.45924544
1.0253283777422473	0.24417497	0.49414065
1.0428558383782454	0.25491747	0.50489354
1.0603833234131086	0.26300952	0.51284456
1.0779108332570058	0.3245531	0.56969565
1.0954383683201119	0.35077003	0.5922584
1.112965929012607	0.4154455	0.6445506
1.1304935157446763	0.49158868	0.70113385
1.1480211289265108	0.48443565	0.6960141
1.1655487689683062	1.2018322	1.096281
1.1830764362802655	1.4223263	1.1926132
1.200604131272596	1.8578472	1.3630286
1.2181318543555117	2.387625	1.5451941
1.235659605939232	2.4844055	1.5761997
1.253187386433982	4.0505004	2.0125854
1.270715196249994	6.3292437	2.5157988
1.2882430357975057	11.741132	3.4265335
1.3057709054867608	16.423555	4.0525985
1.3232988057280106	22.15928	4.7073646
1.3408267369315112	27.01265	5.1973696
1.358354699507526	30.320099	5.506369
1.3758826938663256	34.035892	5.8340287
1.3934107204181858	35.803493	5.983602
1.410938779573391	36.205807	6.017126
1.4284668717422309	36.986134	6.0816226
1.4459949973350033	36.67073	6.0556364
1.4635231567620117	37.17003	6.0967226
1.4810513504335687	36.226025	6.018806
1.4985795787599925	35.362713	5.9466558
1.5161078421516088	34.901054	5.9077115
1.5336361410187505	34.333416	5.8594723
1.5511644757717598	34.178856	5.8462687
1.5686928468209842	34.328457	5.8590493
1.58622125457678	34.828667	5.901582
1.6037496994495108	36.21601	6.017974
1.621278181849548	36.179604	6.0149484
1.6388067021872719	36.970963	6.080375
1.6563352608730693	36.60622	6.0503073
1.673863858317336	35.89936	5.9916077
1.6913924949304753	35.277378	5.939476
1.7089211711228998	34.32266	5.8585544
1.7264498873050296	33.596912	5.796284
1.7439786438872935	32.87464	5.733641
1.7615074412801288	31.803616	5.6394696
1.779036279893981	30.936981	5.5621023
1.796565160139305	30.113071	5.487538
1.814094082426564	29.167265	5.4006724
1.8316230471662298	28.554811	5.3436704
1.849152054768784	27.917862	5.2837358
1.8666811056447168	27.516048	5.245574
1.8842102002045273	26.446411	5.142607
1.901739338858724	25.704824	5.0699925
1.9192685220178245	25.153652	5.0153418
1.9367977500923557	24.598883	4.959726
1.9543270234928547	24.091604	4.90832
1.971856342629867	23.55301	4.8531446
1.9893857079139496	22.983025	4.794061
2.006915119755667	22.565313	4.750296
2.0244445785655945	21.776546	4.666535
2.0419740847543175	21.310703	4.6163516
2.0595036387324317	20.729912	4.5530114
2.0770332409105414	20.253716	4.500413
2.094562891699263	19.980547	4.4699607
2.1120925915092217	19.437977	4.408852
2.129622340751053	19.169847	4.3783383
2.1471521398354043	187.29088	13.685426
2.1646819891729323	443.62186	21.062332
2.182211889174303	439.78244	20.970991
2.1997418402501974	452.38318	21.2693
2.2172718428113023	432.4031	20.794304
2.234801897268317	320.60638	17.905485
2.2523320040319548	17.094164	4.134509
2.269862163512935	16.676764	4.0837193
2.287392376121992	16.26311	4.0327544
2.304922642269869	16.011276	4.001409
2.322452962367322	15.684104	3.9603162
2.3399833368251164	15.429075	3.9279861
2.357513766054032	15.32961	3.9153047
2.3750442504648586	15.137171	3.8906517
2.3925747904683963	14.794872	3.8464103
2.410105386475459	14.19379	3.7674646
2.4276360388968707	13.917685	3.7306414
2.445166748143469	13.806559	3.7157178
2.4626975146261025	13.644534	3.6938508
2.4802283387556323	13.486839	3.6724432
2.4977592209429305	13.381866	3.6581233
2.5152901615988825	13.120801	3.6222646
2.5328211611343865	12.9022875	3.5919755
2.5503522199603523	12.437856	3.5267344
2.5678833384877024	12.216476	3.4952075
2.5854145171273712	11.906289	3.4505491
2.6029457562903064	11.773811	3.4312987
2.620477056387469	11.7245035	3.4241061
2.6380084178298326	11.503589	3.391694
2.655539841028383	11.33471	3.3667061
2.673071326394119	11.135681	3.3370168
2.6906028743380523	10.968685	3.3119006
2.708134485271211	10.971057	3.3122585
2.7256661596046325	10.808277	3.2875943
2.743197897749369	10.728903	3.2755003
2.760729700116486	10.70031	3.2711327
2.778261567117063	10.428414	3.2293055
2.795793499162193	10.174747	3.189788
2.8133254966629817	9.772736	3.1261375
2.830857560030551	9.659051	3.1079013
2.8483896896760337	9.520831	3.0855844
2.865921886010578	9.491748	3.080868
2.883454149445347	9.524132	3.0861192
2.9009864803915177	9.42624	3.0702183
2.91851887926028	9.214363	3.035517
2.9360513464628384	8.960473	2.9934049
2.953583882410413	8.745137	2.957218
2.9711164875142373	8.55848	2.925488
2.9886491621855606	8.479904	2.9120276
3.0061819068356455	8.398707	2.8980525
3.023714721875769	8.429421	2.9033465
3.041247607717225	8.334727	2.8869927
3.0587805647713213	8.242665	2.8710043
3.0763135934493806	8.1242	2.8502982
3.0938466941627407	8.04334	2.8360782
3.1113798673227544	7.8706245	2.8054633
3.1289131133407904	7.776472	2.7886326
3.1464464326282315	7.67466	2.7703178
3.1639798255964786	7.6940217	2.77381
3.1815132926569443	7.664529	2.7684886
3.1990468342210603	7.5961785	2.7561166
3.216580450700272	7.5075684	2.7399943
3.2341141425060416	7.3685985	2.7145162
3.251647910049847	7.2363253	2.6900418
3.2691817537431813	7.039841	2.65327
3.286715673997555	6.9605083	2.6382775
3.3042496712244938	6.900925	2.6269612
3.32178374583554	6.8715057	2.6213558
3.339317898242251	6.818104	2.6111498
3.3568521288562034	6.796366	2.6069841
3.3743864380889876	6.6075745	2.5705202
3.3919208263522127	6.4281096	2.5353718
3.4094552940575023	6.330755	2.5160992
3.4269898416164972	6.415116	2.5328078
3.444524469440858	6.433321	2.5363991
3.4620591779422587	6.3204827	2.514057
3.479593967532391	6.3384275	2.5176234
3.4971288386229658	6.272408	2.5044775
3.5146637916257086	6.2295437	2.4959054
3.5321988269523628	6.239379	2.497875
3.5497339450146903	6.2169323	2.4933777
3.5672691462244708	6.2531343	2.5006268
3.5848044309934988	6.1892104	2.4878123
3.60233979973359	6.143602	2.478629
3.619875252856575	6.1644177	2.4828246
3.6374107907743034	6.1867166	2.4873111
3.6549464138986427	6.216316	2.4932542
3.6724821226414788	6.2156124	2.493113
3.690017917414714	6.251106	2.5002213
3.7075537986302702	6.299216	2.5098238
3.7250897667000857	6.37186	2.5242543
3.7426258220361235	6.5360026	2.5565608
3.7601619650503553	6.7358346	2.5953486
3.777698196154779	7.228042	2.6885018
3.7952345157614067	8.24009	2.8705559
3.8127709242822716	9.026733	3.0044522
3.830307422129425	11.03299	3.3215945
3.847844009714936	12.343437	3.5133228
3.8653806874508954	15.691395	3.9612365
3.882917455749409	15.372962	3.920837
3.900454315022606	15.46638	3.9327319
3.917991265682631	12.438636	3.526845
3.9355283081416506	10.563655	3.2501776
3.9530654428118495	8.528045	2.9202816
3.970602670105433	7.345869	2.7103264
3.9881399904346244	6.518026	2.5530424
4.005677404211669	6.379143	2.5256965
4.023214911848827	6.390592	2.527962
4.0407525137583855	6.4520907	2.5400965
4.058290210352644	6.486108	2.546784
4.075828002043927	6.396943	2.529218
4.0933658892445814	6.3472986	2.5193846
4.110903872366966	6.2923503	2.5084558
4.128441951823468	6.2015014	2.4902813
4.145980128026488	6.1532445	2.4805734
4.163518401388452	5.965074	2.4423501
4.181056772321807	5.8976035	2.4284983
4.1985952412390155	5.8754954	2.423942
4.216133808552567	5.9732175	2.4440167
4.233672474674966	6.173898	2.484733
4.251211240018741	6.3946524	2.528765
4.268750104996445	6.5617337	2.561588
4.286289070020643	7.4782796	2.7346444
4.303828135503928	9.135743	3.0225391
4.3213673018589125	29.442713	5.426114
4.3389065694982305	90.65255	9.521163
4.356445938834537	165.82161	12.877174
4.3739854102805085	171.4864	13.095282
4.391524984248844	172.40828	13.130433
4.409064661152262	136.38646	11.678461
4.426604441403504	96.45279	9.821038
4.444144325415337	75.19127	8.67129
4.461684313600543	21.056143	4.5886974
4.47922440637193	21.512453	4.638152
4.496764604142329	20.00683	4.4728994
4.5143049073245916	18.313461	4.279423
4.531845316331589	16.293236	4.036488
4.5493858315762195	13.33825	3.6521568
4.566926453471405	11.08362	3.3292072
4.584467182430081	9.03924	3.006533
4.602008018865218	7.974677	2.8239472
4.619548963189798	7.333237	2.707995
4.637090015816834	6.919761	2.630544
4.654631177159353	6.6565747	2.5800338
4.672172447630417	6.410107	2.5318189
4.689713827643102	6.252769	2.5005538
4.7072553176105085	6.0114684	2.4518297
4.724796917945764	5.8343697	2.415444
4.742338629062015	5.693586	2.3861237
4.759880451372434	5.69402	2.3862145
4.777422385290215	5.654865	2.377996
4.794964431228581	5.563504	2.3587081
4.812506589600768	5.4163933	2.3273146
4.830048860820047	5.4331203	2.3309054
4.847591245299709	5.4363637	2.3316011
4.8651337434530655	5.5114384	2.3476453
4.882676355693457	5.4931345	2.3437438
4.900219082434242	5.472771	2.3393955
4.917761924088813	5.503451	2.3459435
4.935304881070575	5.4755306	2.3399851
4.952847953792969	5.459647	2.3365889
4.970391142669449	5.3558598	2.314273
4.9879344481135055	5.347623	2.3124928
5.005477870538642	5.350548	2.3131251
5.023021410358394	5.262669	2.2940507
5.040565067986324	5.201108	2.2805939
5.05810884383601	5.141651	2.267521
5.075652738321066	5.195905	2.2794528
5.09319675185512	5.1684294	2.273418
5.110740884851836	5.1865263	2.2773945
5.128285137724894	5.1924505	2.2786949
5.145829510888007	5.1776023	2.2754345
5.163374004754908	5.154177	2.2702813
5.1809186197393595	5.176032	2.2750895
5.198463356255145	5.2004833	2.2804568
5.216008214716077	5.2411733	2.289361
5.233553195535998	5.276394	2.2970402
5.251098299128764	5.3241453	2.307411
5.268643525908272	5.3139467	2.3051999
5.286188876288432	5.2823677	2.2983403
5.3037343506831895	5.2794695	2.2977097
5.32127994950651	5.2528057	2.2919
5.3388256731723915	5.254083	2.2921786
5.356371522094851	5.251743	2.2916682
5.373917496687938	5.291605	2.300349
5.391463597365729	5.3062916	2.303539
5.40900982454232	5.2261176	2.2860703
5.426556178631843	5.118616	2.262436
5.444102660048449	5.00839	2.2379432
5.4616492692063225	4.9972134	2.2354448
5.479196006519669	5.0339503	2.2436466
5.496742872402727	5.023734	2.2413688
5.514289867269756	5.050937	2.2474291
5.531836991535049	5.034201	2.2437027
5.549384245612924	5.0629187	2.250093
5.566931629917724	5.022978	2.2412
5.584479144863822	5.0138545	2.2391639
5.6020267908656205	5.01944	2.2404108
5.619574568337545	5.0794888	2.253772
5.637122477694054	5.14107	2.2673926
5.654670519349629	5.127349	2.264365
5.672218693718784	5.1035514	2.259104
5.689767001216059	4.9974084	2.2354884
5.707315442256021	4.9723063	2.229867
5.724864017253266	4.9807944	2.2317693
5.7424127266224225	5.0730243	2.2523375
5.75996157077814	5.0665913	2.250909
5.777510550135105	5.059308	2.2492905
5.795059665108022	5.0274124	2.2421892
5.812608916111639	5.0440307	2.245892
5.830158303560715	5.2079234	2.2820876
5.847707827870055	5.231569	2.2872622
5.86525748945448	5.2654204	2.2946503
5.8828072887288485	5.285888	2.299106
5.900357226108044	5.3415713	2.311184
5.917907302006979	5.502612	2.3457646
5.9354575168406	6.1415033	2.4782057
5.9530078710238765	6.8227882	2.6120467
5.970558364971812	7.2857566	2.699214
5.988108999099438	7.5556097	2.7487469
6.005659773821818	7.912063	2.812839
6.023210689554039	7.718738	2.7782617
6.040761746711227	8.111556	2.8480794
6.058312945708531	7.5148635	2.7413251
6.075864286961132	7.026155	2.6506896
6.093415770884244	6.44815	2.5393207
6.1109673978931065	6.038582	2.4573526
6.128519168402993	5.542206	2.354189
6.146071082829204	5.3844104	2.3204331
6.163623141587075	5.169496	2.2736526
6.181175345091969	5.0683727	2.2513046
6.198727693759281	5.003398	2.2368276
6.216280188004435	5.012809	2.2389302
6.233832828242885	5.032153	2.243246
6.251385614890126	5.130565	2.2650752
6.268938548361669	5.1482306	2.2689712
6.286491629073067	5.087059	2.255451
6.304044857439898	4.9825525	2.2321632
6.321598233877777	4.9625	2.2276669
6.339151758802344	4.9682183	2.22895
6.356705432629277	5.029921	2.2427485
6.37425925577428	5.0238934	2.2414043
6.391813228653095	4.9449577	2.223726
6.409367351681486	4.8538866	2.2031538
6.426921625275259	4.8347836	2.1988142
6.44447604985025	4.9008894	2.2137952
6.46203062582232	5.00042	2.236162
6.47958535360737	5.00313	2.2367678
6.497140233621328	5.015842	2.2396076
6.514695266280161	5.0423517	2.2455182
6.532250451999859	4.9956183	2.235088
6.549805791196454	4.935044	2.2214959
6.567361284286002	4.8433714	2.200766
6.584916931684597	4.8421373	2.2004857
6.602472733808367	4.888473	2.2109892
6.6200286910734665	4.91247	2.2164092
6.637584803896092	4.949194	2.2246783
6.655141072692462	4.9034057	2.2143636
6.672697497878842	4.8530583	2.2029657
6.690254079871514	4.8313403	2.198031
6.707810819086808	4.866346	2.2059796
6.725367715941078	4.972676	2.2299497
6.742924770850719	4.9358478	2.2216768
6.760481984232151	4.9344974	2.2213728
6.778039356501836	4.898922	2.2133508
6.795596888076266	4.8734736	2.2075946
6.813154579371963	4.827341	2.1971211
6.830712430805492	4.838812	2.19973
6.84827044279344	4.910303	2.2159204
6.865828615752445	4.968083	2.2289197
6.883386950099159	4.9923506	2.2343569
6.900945446250287	4.948174	2.2244492
6.918504104622553	4.888649	2.211029
6.936062925632727	4.8705454	2.206931
6.953621909697607	4.872524	2.2073793
6.971181057234028	4.990311	2.2339005
6.988740368658859	5.083921	2.2547553
7.006299844389007	5.1400523	2.2671683
7.023859484841407	5.190741	2.2783198
7.041419290433036	5.273986	2.296516
7.058979261580902	5.3879457	2.321195
7.0765393987020495	5.6219974	2.3710752
7.094099702213559	5.921546	2.4334228
7.111660172532549	6.223141	2.4946225
7.129220810076164	6.570084	2.5632176
7.146781615261595	7.142441	2.6725345
7.16434258850606	7.418346	2.723664
7.181903730226821	7.837317	2.7995207
7.1994650408411704	7.9617543	2.8216581
7.217026520766437	8.146506	2.8542085
7.234588170419983	8.381711	2.8951185
7.252149990219215	8.399779	2.8982372
7.269711980581568	8.361963	2.891706
7.2872741419245175	8.121713	2.8498619
7.304836474665574	7.803736	2.7935169
7.322398979222286	7.395941	2.719548
7.339961656012233	7.178775	2.6793237
7.357524505453039	6.751502	2.5983653
7.375087527962357	6.512114	2.5518844
7.392650723957886	6.1927295	2.4885194
7.410214093857353	5.8324575	2.4150481
7.427777638078528	5.6223054	2.37114
7.445341357039213	5.4910135	2.3432913
7.4629052511572525	5.386271	2.3208342
7.480469320850524	5.3475556	2.3124783
7.498033566536948	5.2498984	2.2912657
7.5155979886344735	5.195795	2.2794287
7.5331625875610975	5.113704	2.2613502
7.550727363734844	5.074495	2.2526639
7.568292317573788	5.057252	2.2488334
7.585857449496025	5.078254	2.2534983
7.603422759919705	5.0509815	2.247439
7.620988249263007	5.0902104	2.2561495
7.638553917944147	5.0698795	2.2516394
7.656119766381391	5.1027546	2.2589278
7.673685794993023	5.098873	2.2580686
7.691252004197388	5.1145926	2.2615466
7.70881839441285	5.1780124	2.2755246
7.726384966057826	5.1917186	2.2785344
7.743951719550762	5.1769814	2.275298
7.761518655310149	5.1220636	2.2631977
7.779085773754511	5.1239386	2.2636118
7.796653075302419	5.150956	2.2695718
7.814220560372475	5.173492	2.2745311
7.831788229383323	5.2349086	2.2879922
7.8493560827536495	5.2764816	2.2970593
7.866924120902174	5.248867	2.2910407
7.884492344247663	5.2668033	2.2949517
7.9020607532089135	5.290176	2.3000383
7.919629348204771	5.3006773	2.30232
7.937198129654115	5.2995787	2.3020813
7.954767097975865	5.2491355	2.291099
7.972336253588986	5.206678	2.2818146
7.989905596912472	5.3213964	2.3068151
8.007475128365371	5.40542	2.324956
8.025044848366756	5.401672	2.3241496
8.042614757335754	5.493055	2.3437266
8.060184855691523	5.5167575	2.3487778
8.07775514385327	5.6837306	2.3840575
8.095325622240228	5.8009872	2.4085238
8.112896291271687	5.8067884	2.4097278
8.130467151366968	5.8543754	2.4195817
8.148038202945436	5.8233023	2.413152
8.165609446426497	5.823189	2.4131284
8.183180882229594	5.872863	2.423399
8.200752510774217	5.87303	2.4234335
8.218324332479893	5.913821	2.431835
8.235896347766193	5.90177	2.4293559
8.253468557052724	5.8623843	2.421236
8.27104096075914	5.8365717	2.4158998
8.288613559305137	5.9340973	2.4360003
8.306186353110448	6.079766	2.465718
8.32375934259485	6.190497	2.488071
8.341332528178162	6.2557373	2.5011473
8.358905910280246	6.24144	2.4982874
8.376479489321003	6.154238	2.4807737
8.394053265720377	6.172802	2.4845123
8.411627239898356	6.159733	2.481881
8.42920141227497	6.1932096	2.488616
8.44677578327029	6.2001867	2.4900174
8.464350353304427	6.1452203	2.4789555
8.48192512279754	6.1774964	2.485457
8.499500092169827	6.119946	2.4738524
8.51707526184153	6.1117587	2.472197
8.534650632232934	6.1193194	2.4737258
8.552226203764365	6.0980453	2.469422
8.569801976856192	6.1020226	2.4702272
8.587377951928834	6.1298547	2.4758544
8.60495412940274	6.1992426	2.4898279
8.622530509698416	6.2451324	2.4990263
8.6401070932364	6.3090425	2.5117807
8.657683880437283	6.405084	2.5308268
8.675260871721695	6.5987487	2.568803
8.692838067510303	6.7670293	2.6013515
8.710415468223834	6.9237733	2.6313064
8.727993074283043	7.0059466	2.646875
8.745570886108737	6.9700108	2.6400778
8.763148904121765	6.988296	2.6435385
8.78072712874302	7.0066156	2.6470013
8.798305560393441	7.251317	2.692827
8.815884199494006	7.422995	2.7245173
8.833463046465745	7.6387024	2.7638202
8.851042101729728	7.7462845	2.7832148
8.86862136570707	8.090626	2.8444026
8.886200838818924	8.288055	2.8788984
8.903780521486505	8.330051	2.8861828
8.921360414131055	8.4537945	2.907541
8.938940517173874	8.6056185	2.9335334
8.956520831036297	8.755642	2.9589934
8.97410135613971	8.958513	2.9930775
8.99168209290554	9.097913	3.0162747
9.009263041755265	9.340304	3.0561912
9.026844203110405	9.58747	3.096364
9.044425577392525	9.798485	3.130253
9.062007165023239	9.862805	3.1405103
9.079588966424197	10.112304	3.1799848
9.097170982017108	10.241144	3.2001789
9.11475321222372	11.187053	3.344705
9.132335657465825	12.096958	3.478068
9.149918318165264	12.148056	3.4854062
9.167501194743924	12.7784395	3.5746944
9.18508428762374	12.416211	3.5236645
9.202667597226693	12.380784	3.5186338
9.220251123974803	11.933793	3.4545321
9.237834868290143	11.696805	3.4200592
9.255418830594836	11.497269	3.3907623
9.273003011311046	11.050243	3.3241906
9.290587410860985	10.829855	3.2908745
9.308172029666911	10.308751	3.2107244
9.32575686815113	10.039658	3.168542
9.343341926735997	8.677892	2.945826
9.360927205843916	8.378215	2.8945146
9.378512705897327	8.155018	2.8556993
9.396098427318728	7.9512954	2.8198042
9.413684370530664	7.924946	2.815128
9.431270535955722	7.797474	2.7923958
9.448856924016539	7.8122044	2.795032
9.466443535135806	7.701895	2.775229
9.484030369736251	7.669567	2.7693982
9.501617428240658	7.6233335	2.7610385
9.519204711071852	7.6052766	2.7577665
9.536792218652714	7.6768947	2.770721
9.55437995140617	7.6754227	2.7704554
9.571967909755191	7.711541	2.776966
9.589556094122802	7.709387	2.7765782
9.60714450493207	7.814164	2.7953827
9.624733142606116	7.8664265	2.8047152
9.642322007568108	7.9333324	2.8166173
9.659911100241267	7.9526796	2.8200495
9.677500421048851	7.9361053	2.8171093
9.695089970414175	8.047358	2.8367865
9.712679748760609	8.143505	2.8536828
9.730269756511557	8.214344	2.8660676
9.747859994090492	8.206915	2.8647714
9.765450461920915	8.179978	2.8600662
9.78304116042639	8.180031	2.8600752
9.800632090030527	8.183661	2.86071
9.81822325115699	8.204752	2.8643937
9.835814644229481	8.222172	2.867433
9.853406269671762	8.261412	2.874267
9.870998127907646	8.329168	2.88603
9.888590219360985	8.350539	2.88973
9.906182544455698	8.3876915	2.896151
9.923775103615734	8.29107	2.8794217
9.941367897265108	8.287029	2.87872
9.958960925827878	8.234146	2.8695202
9.97655418972816	8.2417755	2.8708494
9.994147689390106	8.16882	2.8581147
10.011741425237934	8.086507	2.8436785
10.029335397695904	8.108646	2.8475685
10.04692960718833	8.104597	2.8468573
10.06452405413958	8.131251	2.8515348
10.082118738974064	8.063703	2.839666
10.099713662116246	8.09817	2.8457284
10.117308823990651	8.159763	2.85653
10.134904225021844	8.180801	2.86021
10.152499865634445	8.155267	2.8557427
10.170095746253125	8.1678915	2.8579524
10.18769186730261	8.098805	2.84584
10.205288229207675	8.134459	2.8520973
10.222884832393145	8.085355	2.8434758
10.2404816772839	8.040098	2.8355067
10.258078764304868	7.99086	2.8268108
10.275676093881035	7.9321027	2.8163989
10.293273666437438	7.9492707	2.8194451
10.310871482399158	7.955082	2.8204756
10.32846954219134	7.9843297	2.8256557
10.346067846239173	8.021646	2.832251
10.363666394967908	8.034793	2.8345711
10.38126518880283	8.010898	2.830353
10.398864228169298	8.066653	2.8401854
10.416463513492713	8.049118	2.8370967
10.434063045198531	8.074339	2.8415382
10.451662823712262	8.096049	2.8453557
10.469262849459467	8.144709	2.8538935
10.486863122865758	8.080648	2.842648
10.504463644356806	8.059048	2.8388462
10.522064414358338	7.943986	2.8185077
10.539665433296118	7.884946	2.8080146
10.557266701595987	7.8311586	2.7984207
10.574868219683818	7.7732043	2.7880466
10.592469987985552	7.6209264	2.7606025
10.610072006927185	7.467786	2.732725
10.627674276934751	7.3869104	2.7178872
10.64527679843435	7.3715816	2.7150657
10.662879571852143	7.3218994	2.705901
10.680482597614331	7.280706	2.6982784
10.698085876147173	7.206226	2.6844413
10.715689407876988	7.006242	2.6469307
10.733293193230146	6.886815	2.6242743
10.750897232633072	6.770134	2.601948
10.76850152651225	6.6853743	2.585609
10.786106075294207	6.5869145	2.5664985
10.803710879405534	6.445755	2.538849
10.821315939272877	6.395857	2.5290031
10.83892125532294	6.3035264	2.5106823
10.856526827982472	6.2682824	2.5036538
10.874132657678285	6.239434	2.497886
10.891738744837243	6.249247	2.4998493
10.909345089886271	6.162409	2.48242
10.926951693252343	6.091295	2.4680548
10.944558555362494	6.0406036	2.457764
10.96216567664381	5.9410667	2.4374304
10.979773057523436	5.858161	2.420364
10.997380698428573	5.7376714	2.3953438
11.014988599786477	5.674914	2.3822079
11.032596762024461	5.6889477	2.3851514
11.050205185569892	5.711974	2.3899736
11.067813870850198	5.6761193	2.3824608
11.085422818292859	5.6060424	2.3677082
11.10303202832541	5.486114	2.3422456
11.120641501375454	5.386659	2.3209178
11.138251237870636	5.272457	2.296183
11.155861238238671	5.26997	2.2956414
11.173471502907317	5.1685734	2.2734497
11.191082032304402	5.0858517	2.2551832
11.208692826857805	5.0368276	2.2442877
11.226303886995465	4.993295	2.234568
11.243915213145371	5.008144	2.2378883
11.261526805735578	4.9210577	2.2183456
11.279138665194196	4.899856	2.2135618
11.296750791949393	4.8756485	2.208087
11.314363186429393	4.8551545	2.2034416
11.331975849062479	4.758698	2.181444
11.34958878027699	4.69744	2.167358
11.36720198050133	4.626323	2.150889
11.384815450163948	4.5879507	2.1419501
11.402429189693366	4.5398116	2.1306834
11.420043199518153	4.5157957	2.12504
11.437657480066942	63.408226	7.9629283
11.455272031768422	85.10073	9.225006
11.472886855051353	107.47373	10.366954
11.490501950344528	99.08262	9.954025
11.508117318076819	84.44638	9.189471
11.52573295867715	45.82489	6.769408
11.543348872574514	4.120416	2.0298808
11.560965060197946	4.072981	2.0181627
11.57858152197655	3.9875398	1.9968826
11.59619825833949	3.9044213	1.9759609
11.613815269715985	3.858406	1.9642826
11.631432556535323	38.384598	6.1955304
11.649050119226837	82.94597	9.107468
11.666667958219929	93.40445	9.6645975
11.68428607394406	107.69144	10.377448
11.701904466828756	82.54553	9.085457
11.719523137303586	65.35187	8.08405
11.737142085798196	4.614459	2.1481292
11.754761312742286	3.731789	1.9317839
11.772380818565619	3.71931	1.9285513
11.790000603698015	3.687015	1.9201602
11.80762066856935	3.616863	1.9018052
11.825241013609572	3.565975	1.888379
11.842861639248683	3.5069075	1.8726739
11.860482545916748	3.4964974	1.8698924
11.878103734043883	3.4312785	1.8523711
11.895725204060282	3.3931847	1.8420599
11.91334695639619	3.3537006	1.8313112
11.930968991481919	3.3542974	1.8314741
11.948591309747824	3.3525753	1.8310039
11.966213911624347	3.3702254	1.8358173
11.98383679754198	3.3529158	1.8310969
12.001459967931268	3.3194551	1.8219372
12.019083423222835	3.2931986	1.8147172
12.036707163847352	3.2424004	1.8006667
12.05433119023556	3.2021043	1.7894424
12.071955502818259	3.1488986	1.7745136
12.089580102026313	3.1512842	1.7751857
12.107204988290643	3.1966748	1.7879248
12.12483016204224	3.2235937	1.7954369
12.142455623712152	3.2202816	1.7945143
12.16008137373149	3.183285	1.7841762
12.177707412531431	3.115237	1.7650034
12.19533374054321	3.0634556	1.750273
12.212960358198126	3.0031703	1.7329657
12.230587265927545	2.9307017	1.7119292
12.248214464162889	2.9087777	1.705514
12.265841953335649	2.9493315	1.7173618
12.283469733877375	3.002931	1.7328967
12.301097806219685	3.0065672	1.7339456
12.31872617079425	2.9517827	1.7180753
12.336354828032825	2.9195104	1.7086575
12.353983778367205	2.9348135	1.7131298
12.371613022229262	2.9404607	1.7147771
12.389242560050928	2.9227726	1.7096119
12.406872392264201	2.889724	1.6999189
12.424502519301143	2.8736718	1.6951908
12.442132941593874	2.8504882	1.6883389
12.459763659574586	2.859514	1.6910098
12.477394673675532	2.860208	1.6912149
12.49502598432903	2.8669894	1.6932186
12.51265759196746	2.8590472	1.6908717
12.530289497023267	2.847413	1.687428
12.547921699928967	2.783552	1.668398
12.565554201117134	2.7499988	1.6583121
12.583187001020404	2.7354753	1.6539272
12.600820100071486	2.7529786	1.6592102
12.618453498703152	2.7831733	1.6682845
12.636087197348235	2.7484713	1.6578515
12.65372119643964	2.7960505	1.6721395
12.671355496410326	2.8173308	1.6784906
12.68899009769333	2.8142498	1.6775726
12.706625000721749	2.8015616	1.6737866
12.724260205928752	2.8216152	1.6797664
12.741895713747551	2.8936546	1.7010745
12.759531524611454	2.956872	1.7195557
12.777167638953818	2.9615433	1.7209135
12.794804057208072	2.9940023	1.7303185
12.812440779807702	2.9689736	1.723071
12.830077807186271	3.128919	1.768875
12.847715139777405	3.1544523	1.7760777
12.865352778014795	3.3626435	1.8337512
12.882990722332197	3.4878316	1.8675737
12.90062897316344	3.5795586	1.8919722
12.918267530942412	3.6259663	1.904197
12.935906396103071	3.4818833	1.8659805
12.953545569079449	3.5963254	1.896398
12.971185050305628	3.4563777	1.8591336
12.988824840215775	3.487631	1.8675201
13.006464939244115	3.5627842	1.8875339
13.024105347824943	3.4397895	1.854667
13.041746066392617	3.5443866	1.8826542
13.05938709538157	3.3434153	1.8285009
13.077028435226296	3.34866	1.8299345
13.094670086361363	3.2757351	1.8098992
13.112312049221401	3.1563911	1.7766235
13.129954324241112	3.0643785	1.7505367
13.147596911855258	2.842987	1.686116
13.165239812498685	2.8156314	1.6779844
13.182883026606293	2.7556791	1.6600238
13.200526554613058	2.7460322	1.6571156
13.218170396954017	2.7191112	1.6489727
13.235814554064284	2.6962469	1.6420252
13.253459026379034	2.6800334	1.6370808
13.271103814333523	2.6360266	1.6235845
13.288748918363058	2.6409905	1.6251124
13.306394338903031	2.6537936	1.6290468
13.32404007638889	2.650273	1.6279659
13.341686131256164	2.6732974	1.6350222
13.359332503940449	2.6383402	1.6242968
13.376979194877402	2.662126	1.6316023
13.394626204502751	2.6766677	1.6360525
13.412273533252307	2.6894112	1.6399424
13.429921181561937	2.6666236	1.63298
13.447569149867581	2.6861954	1.6389617
13.465217438605247	2.7115405	1.6466756
13.482866048211022	2.7041945	1.6444435
13.500514979121052	2.699144	1.6429071
13.518164231771568	2.661217	1.6313237
13.535813806598844	2.6310995	1.6220664
13.553463704039254	2.649294	1.6276652
13.571113924529229	2.6622279	1.6316335
13.588764468505275	2.692039	1.6407434
13.606415336403956	2.6957505	1.6418741
13.624066528661917	2.748966	1.6580006
13.641718045715882	2.8109286	1.6765825
13.659369888002635	2.846967	1.6872958
13.67702205595903	2.8935828	1.7010535
13.694674550021993	2.9631953	1.7213935
13.712327370628532	3.0182114	1.7373
13.729980518215713	3.0937378	1.7589024
13.747633993220681	3.1550558	1.7762476
13.765287796080647	3.1958058	1.7876817
13.7829419272329	3.2595196	1.805414
13.800596387114801	3.3012338	1.8169298
13.818251176163775	3.3229182	1.8228873
13.835906294817324	3.3472443	1.8295475
13.853561743513023	3.373638	1.8367466
13.871217522688525	3.4018974	1.8444233
13.888873632781538	3.4108336	1.8468442
13.906530074229858	3.4564664	1.8591574
13.92418684747135	3.511636	1.8739359
13.941843952943948	3.5386772	1.8811373
13.959501391085665	3.4990242	1.8705679
13.977159162334578	3.4217908	1.8498083
13.994817267128846	3.3477786	1.8296936
14.012475705906693	3.2243066	1.7956355
14.030134479106424	3.134969	1.7705843
14.047793587166414	3.0217168	1.7383087
14.065453030525108	2.9631162	1.7213705
14.083112809621026	2.9086728	1.7054832
14.100772924892766	2.9013586	1.7033374
14.118433376778997	2.8995261	1.7027994
14.136094165718458	2.8713384	1.6945024
14.153755292149969	2.7811458	1.6676768
14.171416756512416	2.7078185	1.645545
14.189078559244768	2.6825192	1.6378398
14.20674070078606	2.6131358	1.6165197
14.224403181575408	2.5653803	1.6016805
14.242066002051999	2.504201	1.5824667
14.259729162655093	2.4804988	1.5749599
14.277392663824022	2.470787	1.5718738
14.295056505998208	2.4198122	1.5555745
14.312720689617128	2.3796763	1.54262
14.330385215120348	2.3283744	1.5259012
14.348050082947497	2.355563	1.5347843
14.3657152935383	2.39112	1.5463246
14.383380847332528	2.4129064	1.5533533
14.401046744770051	2.3835578	1.5438775
14.418712986290798	2.3699954	1.5394789
14.436379572334793	2.3539648	1.5342636
14.454046503342123	2.3510995	1.5333295
14.471713779752946	2.363368	1.5373249
14.489381402007504	2.3600519	1.5362461
14.507049370546113	2.424223	1.5569916
14.524717685809168	2.4149177	1.5540005
14.542386348237134	2.4022207	1.54991
14.560055358270553	2.3958452	1.5478518
14.577724716350051	2.4179332	1.5549705
14.595394422916325	2.4269123	1.557855
14.61306447841015	2.4228473	1.5565498
14.63073488327237	2.4251568	1.5572915
14.648405637943917	2.4711943	1.5720032
14.6660767428658	2.4729538	1.5725628
14.683748198479094	2.4767032	1.5737544
14.701420005224954	2.500794	1.5813899
14.719092163544628	2.589337	1.6091417
14.73676467387942	2.6587849	1.630578
14.754437536670727	2.697588	1.6424335
14.772110752360014	2.6912398	1.6404998
14.78978432138882	2.6814191	1.637504
14.807458244198777	2.666444	1.632925
14.82513252123159	2.640621	1.6249988
14.842807152929028	2.616685	1.617617
14.860482139732962	2.6162913	1.6174954
14.87815748208531	2.6347203	1.6231822
14.8958331804281	2.677149	1.6361996
14.91350923520342	2.6404445	1.6249444
14.931185646853438	2.679669	1.6369694
14.948862415820408	2.682227	1.6377505
14.966539542546656	2.7370367	1.6543992
14.98421702747459	2.6667123	1.6330072
15.001894871046696	2.6319628	1.6223325
15.019573073705542	2.6069784	1.614614
15.037251635893766	2.6279101	1.621083
15.054930558054092	2.6687784	1.6336396
15.072609840629323	2.6705968	1.634196
15.090289484062351	2.7398589	1.6552519
15.107969488796124	2.859573	1.6910272
15.125649855273691	3.1046295	1.7619959
15.14333058393817	3.5018787	1.8713307
15.161011675232768	4.0883675	2.0219712
15.17869312960076	4.7603602	2.181825
15.196374947485506	5.3927402	2.3222275
15.214057129330447	6.7231646	2.5929065
15.231739675579114	8.871082	2.9784362
15.249422586675102	13.461765	3.6690278
15.267105863062092	18.048038	4.248298
15.284789505183847	25.219242	5.0218763
15.302473513484218	30.155777	5.4914274
15.320157888407127	34.325603	5.8588057
15.337842630396578	33.201042	5.7620344
15.355527739896656	30.350433	5.509123
15.37321321735153	23.637445	4.8618355
15.39089906320545	16.054474	4.0068035
15.408585277902748	10.313894	3.2115252
15.42627186188783	6.393117	2.5284615
15.443958815605198	4.575758	2.1391022
15.461646139499424	3.7770681	1.9434681
15.479333834015168	3.3683443	1.835305
15.497021899597165	3.102174	1.761299
15.514710336690234	2.861497	1.6915959
15.53239914573928	2.6959126	1.6419234
15.550088327189297	2.5909226	1.6096343
15.567777881485336	2.5207095	1.5876743
15.58546780907256	2.5205722	1.587631
15.6031581103962	2.5310178	1.5909172
15.620848785901568	2.5353887	1.5922904
15.638539836034063	2.5234792	1.5885463
15.656231261239173	2.4670432	1.5706824
15.673923061962451	2.4180458	1.5550066
15.691615238649552	2.4042296	1.5505579
15.709307791746202	2.3719444	1.5401118
15.727000721698221	2.3386366	1.5292602
15.744694028951498	2.3292477	1.5261873
15.76238771395202	2.355057	1.5346195
15.780081777145844	2.381969	1.5433629
15.797776218979125	2.3911247	1.5463262
15.815471039898094	2.4197347	1.5555496
15.833166240349064	2.4375532	1.5612665
15.850861820778437	2.4400094	1.562053
15.868557781632699	2.446491	1.5641263
15.886254123358412	2.4570959	1.5675126
15.903950846402232	2.4776347	1.5740504
15.921647951210897	2.5010562	1.5814728
15.939345438231225	2.5187066	1.5870433
15.957043307910133	2.5097752	1.584227
15.974741560694602	2.4972296	1.5802625
15.992440197031714	2.4710538	1.5719585
16.01013921736862	2.4385202	1.5615762
16.02783862215259	2.4736767	1.5727926
16.045538411830933	2.4847348	1.5763042
16.06323858685107	2.4960315	1.5798833
16.080939147660512	2.451406	1.5656966
16.09864009470684	2.4181116	1.5550278
16.11634142843774	2.3883862	1.5454404
16.134043149300954	2.3773794	1.5418752
16.15174525774433	2.3501616	1.5330237
16.169447754215817	2.349635	1.5328519
16.18715063916342	2.376687	1.5416508
16.204853913035244	2.4025042	1.5500014
16.222557576279478	2.449639	1.5651323
16.240261629344403	22.452536	4.7384105
16.257966072678386	42.996933	6.5572047
16.275670906729868	38.094975	6.1721125
16.293376131947387	2.5176878	1.5867224
16.31108174877957	2.525652	1.58923
16.328787757675133	2.5368445	1.5927474
16.34649415908287	2.5232353	1.5884695
16.364200953451657	2.5328658	1.591498
16.38190814123048	2.5517046	1.5974056
16.39961572286839	2.5952342	1.610973
16.41732369881455	2.640468	1.6249516
16.43503206951817	2.7021341	1.643817
16.45274083542859	2.7233844	1.650268
16.47044999699522	2.7463818	1.6572211
16.488159554667558	2.7965991	1.6723036
16.505869508895184	2.8878622	1.6993711
16.523579860127786	2.9384143	1.7141804
16.541290608815117	3.0090086	1.7346494
16.559001755407035	3.0799677	1.7549837
16.57671330035348	3.1681826	1.7799389
16.59442524410448	3.2535677	1.8037648
16.61213758711015	3.4315298	1.8524389
16.629850329820705	3.4733143	1.863683
16.647563472686436	3.5060472	1.8724442
16.665277016157724	3.4265304	1.851089
16.682990960685053	3.451846	1.8579144
16.70070530671898	3.443184	1.8555819
16.718420054710155	3.4359295	1.853626
16.736135205109335	3.4799495	1.8654623
16.753850758367335	3.54787	1.883579
16.771566714935087	3.64202	1.9084077
16.789283075263597	3.7337961	1.9323033
16.80699983980398	3.8064263	1.9510065
16.82471700900741	3.8490815	1.9619076
16.84243458332518	3.846829	1.9613335
16.860152563208665	3.9019046	1.9753239
16.87787094910932	3.9730933	1.9932619
16.89558974147871	4.0332804	2.008303
16.913308940768466	4.087282	2.0217028
16.931028547430333	4.1605973	2.0397542
16.94874856191613	4.2547874	2.0627136
16.966468984677785	4.3378325	2.0827463
16.98418981616729	4.35434	2.0867054
17.00191105683676	4.3892493	2.0950534
17.019632707138374	4.450879	2.1097107
17.03735476752442	4.543285	2.1314983
17.05507723844728	4.591703	2.1428258
17.072800120359403	4.5969114	2.1440408
17.090523413713353	4.579345	2.1399405
17.108247118961785	4.563905	2.1363297
17.125971236557437	4.5691075	2.137547
17.143695766953133	4.5834455	2.1408982
17.161420710601806	4.57901	2.139862
17.179146067956477	4.63748	2.1534808
17.19687183947025	4.659158	2.1585083
17.21459802559634	4.69005	2.1656523
17.232324626788028	4.662357	2.159249
17.25005164349871	4.6694984	2.1609023
17.267779076181863	4.6417475	2.1544714
17.285506925291074	4.635321	2.1529796
17.30323519127999	4.5321283	2.1288795
17.320963874602384	4.479074	2.1163824
17.33869297571211	4.4882526	2.1185496
17.356422495063114	4.5068007	2.1229227
17.37415243310944	4.492837	2.1196313
17.391882790305218	4.4557657	2.1108685
17.40961356710468	4.4597406	2.1118097
17.42734476396215	4.5399575	2.1307175
17.445076381332044	4.5923886	2.1429858
17.462808419668868	4.6257186	2.1507485
17.48054087942723	4.6689725	2.1607804
17.498273761061835	4.7857566	2.1876373
17.51600706502747	5.1066294	2.2597852
17.533740791779024	5.680365	2.3833516
17.551474941771485	6.6349506	2.5758398
17.56920951545993	8.555862	2.9250405
17.586944513299528	9.828792	3.1350904
17.60467993574556	12.7247715	3.5671797
17.622415783253373	15.367025	3.9200797
17.64015205627843	18.226793	4.2692847
17.657888755276293	20.62744	4.541744
17.675625880702604	22.168001	4.7082906
17.69336343301311	20.596079	4.5382905
17.71110141266366	18.47678	4.2984624
17.728839820110178	15.771405	3.9713228
17.746578655808705	12.538536	3.5409796
17.764317920215372	10.337838	3.215251
17.7820576137864	8.649564	2.941014
17.79979773697811	7.3110814	2.703901
17.81753829024692	6.0270643	2.455008
17.835279274049356	5.2866125	2.2992635
17.85302068884201	4.5938034	2.143316
17.870762535081607	4.147755	2.036604
17.888504813224934	3.9008465	1.975056
17.90624752372891	3.756005	1.9380416
17.923990667050536	3.65226	1.9110887
17.941734243646895	3.5800369	1.8920985
17.959478253975185	3.5372717	1.8807636
17.9772226984927	3.446494	1.8564736
17.994967577656833	3.3954537	1.8426757
18.01271289192506	3.3868597	1.8403423
18.030458641754965	3.3856423	1.8400115
18.04820482760425	3.3400705	1.8275859
18.06595144993067	3.3043644	1.8177911
18.083698509192125	3.2472265	1.8020062
18.101446005846576	3.2212417	1.7947818
18.119193940352105	3.188757	1.7857091
18.136942313166887	3.1966934	1.7879299
18.1546911247492	3.1916926	1.7865309
18.1724403755574	3.163413	1.7785987
18.19019006604997	3.1605322	1.7777886
18.207940196685467	3.1662436	1.7793941
18.225690767922575	3.1251194	1.7678007
18.243441780220046	3.0945308	1.7591279
18.261193234036764	3.0718262	1.7526627
18.278945129831676	3.053903	1.747542
18.29669746806386	3.0415168	1.7439945
18.314450249192483	3.0566084	1.7483159
18.3322034736768	3.054118	1.7476035
18.349957141976184	3.0344667	1.7419721
18.3677112545501	3.0522466	1.747068
18.385465811858108	3.0773747	1.7542448
18.403220814359884	3.0464244	1.7454009
18.420976262515172	3.0490096	1.7461413
18.43873215678387	3.0755289	1.7537186
18.456488497625923	3.121071	1.7666553
18.474245285501407	3.2146394	1.7929416
18.492002520870486	3.2706633	1.8084975
18.50976020419343	3.321149	1.822402
18.527518335930615	3.5899882	1.8947264
18.545276916542516	4.219899	2.0542393
18.563035946489688	4.4346337	2.105857
18.580795426232832	4.8889904	2.211106
18.598555356232698	4.795536	2.1898713
18.616315736950185	5.0831428	2.2545826
18.63407656884626	4.674772	2.162122
18.65183785238201	4.825143	2.1966207
18.669599588018617	4.6584263	2.1583388
18.68736177621737	4.6315584	2.1521056
18.705124417439652	4.659134	2.1585028
18.72288751214696	4.4425035	2.1077247
18.740651060800886	4.5091796	2.123483
18.758415063863115	4.1913667	2.0472827
18.77617952179546	4.3634486	2.088887
18.793944435059814	4.1688905	2.0417862
18.811709804118184	4.2024717	2.049993
18.829475629432675	4.2137527	2.0527427
18.8472419114655	4.02042	2.0050986
18.86500865067897	4.0825396	2.0205295
18.88277584753551	3.7571507	1.9383371
18.90054350249763	3.745204	1.9352529
18.918311616027957	3.4042947	1.8450731
18.936080188589226	3.3038135	1.8176395
18.953849220644265	3.0120614	1.7355292
18.971618712656007	2.8526206	1.6889703
18.9893886650875	2.7884967	1.6698792
19.007159078401887	7.971636	2.8234086
19.024929953062408	32.905067	5.736294
19.042701289532435	32.830627	5.7298017
19.060473088275405	25.371721	5.037035
19.07824534975489	2.6121037	1.6162004
19.096018074434568	2.6103609	1.6156611
19.113791262778197	2.602686	1.6132842
19.13156491524966	2.6086962	1.6151459
19.149339032312945	2.553739	1.5980422
19.167113614432136	2.5016503	1.5816606
19.184888662071433	2.4779594	1.5741535
19.202664175695123	2.5086174	1.5838616
19.220440155767623	2.5141258	1.5855995
19.238216602753447	2.5450728	1.5953285
19.2559935171172	2.5266857	1.5895551
19.27377089932361	2.509123	1.5840212
19.291548749837514	2.468019	1.570993
19.309327069123835	2.4373567	1.5612036
19.32710585764763	2.4710832	1.571968
19.344885115874032	2.4957056	1.5797802
19.362664844268313	2.5136025	1.5854344
19.380445043295822	2.545227	1.5953767
19.39822571342203	2.5545905	1.5983087
19.41600685511252	2.5679145	1.6024714
19.43378846883297	2.5460355	1.5956302
19.451570555049173	2.5348423	1.5921187
19.469353114227037	2.4813826	1.5752405
19.48713614683254	2.4724753	1.5724107
19.50491965333182	2.4544246	1.5666603
19.52270363419109	2.4836216	1.575951
19.540488089876686	2.4634	1.5695221
19.55827302085503	2.5012906	1.5815469
19.576058427592674	2.4650517	1.5700483
19.593844310556282	2.4922292	1.5786796
19.611630670212598	2.4619088	1.5690471
19.629417507028506	2.5083697	1.5837834
19.64720482147098	2.4941618	1.5792916
19.6649926140071	2.5161161	1.586227
19.682780885104084	2.495798	1.5798095
19.70056963522921	2.492754	1.5788457
19.718358864849908	2.4969358	1.5801696
19.7361485744337	2.4771428	1.5738941
19.753938764448215	2.4855485	1.5765623
19.771729435361202	2.5027564	1.5820103
19.789520587640506	2.490466	1.5781211
19.807312221754092	2.4519718	1.5658773
19.825104338170043	2.4387422	1.5616473
19.842896937356517	2.4882364	1.5774145
19.860690019781824	2.4750016	1.5732138
19.87848358591436	2.4516861	1.5657861
19.896277636222635	2.4720948	1.5722897
19.914072171175278	2.459408	1.56825
19.931867191241015	2.4600728	1.5684619
19.94966269688869	2.4143078	1.5538043
19.967458688587264	2.4293272	1.5586299
19.985255166805807	2.4497924	1.5651813
20.00305213201348	2.4797542	1.5747235
20.020849584679578	2.4992151	1.5808907
20.038647525273507	2.5071495	1.5833981
20.05644595426477	2.4972038	1.5802543
20.07424487212299	2.4677503	1.5709075
20.092044279317903	2.461181	1.5688151
20.109844176319353	2.4402552	1.5621316
20.127644563597304	2.4107528	1.5526599
20.145445441621817	2.3727214	1.540364
20.16324681086307	2.3904943	1.5461223
20.181048671791373	2.426616	1.5577599
20.198851024877122	2.4351099	1.5604838
20.216653870590836	2.3924215	1.5467454
20.234457209403146	2.3587332	1.5358168
20.252261041784802	2.364423	1.5376681
20.270065368206662	2.396162	1.5479542
20.287870189139685	2.3885639	1.5454979
20.305675505054968	2.328537	1.5259545
20.323481316423702	2.338618	1.5292541
20.341287623717207	2.3581886	1.5356395
20.359094427406884	2.3515081	1.5334628
20.376901727964288	2.350798	1.5332311
20.39470952586107	2.3535979	1.534144
20.41251782156899	2.3755596	1.541285
20.430326615559935	2.3380308	1.529062
20.448135908305886	2.3151288	1.5215547
20.465945700278965	2.3216789	1.5237056
20.483755991951384	2.3530216	1.5339562
20.50156678379548	2.3778992	1.5420438
20.519378076283708	2.3866937	1.5448928
20.537189869888635	2.372521	1.5402989
20.55500216508294	2.3433762	1.530809
20.572814962339415	2.315386	1.5216392
20.59062826213098	2.2915246	1.5137783
20.60844206493066	2.2966304	1.5154637
20.626256371211593	2.335563	1.5282549
20.644071181447032	2.3382204	1.529124
20.66188649611036	2.3308196	1.5267022
20.67970231567506	2.3545516	1.5344548
20.697518640614742	2.3543005	1.534373
20.715335471403122	2.3231087	1.5241748
20.73315280851404	2.285568	1.5118095
20.750970652421447	2.2827044	1.5108621
20.768789003599412	2.3132763	1.5209459
20.786607862522136	2.3151653	1.5215667
20.8044272296639	2.2996228	1.5164508
20.82224710549913	2.255881	1.5019591
20.84006749050237	2.2352693	1.4950817
20.857888385148268	3.7900815	1.9468131
20.8757097899116	45.89424	6.774529
20.893531705267254	64.74185	8.046232
20.911354131690224	83.77803	9.153034
20.92917706965566	69.0498	8.309621
20.94700051963877	50.122105	7.0796967
20.96482448211493	29.383398	5.4206457
20.982648957559622	4.182931	2.0452216
21.00047394644843	2.2710524	1.5070012
21.01829944925707	2.217098	1.4889923
21.036125466461375	2.190141	1.4799125
21.053951998537297	2.184912	1.4781448
21.071779045960906	2.197142	1.482276
21.089606609208378	2.1835966	1.4776998
21.10743468875603	2.1936655	1.4811028
21.12526328508028	2.1962664	1.4819806
21.143092398657675	2.1996686	1.483128
21.16092202996488	2.198914	1.4828736
21.17875217947867	2.161483	1.4701983
21.19658284767596	2.153286	1.467408
21.21441403503377	2.1345167	1.4609985
21.232245742029225	2.1366072	1.4617138
21.2500779691396	2.1182864	1.4554334
21.26791071684227	2.1262605	1.4581703
21.28574398561475	2.1215117	1.4565411
21.30357777593465	2.139852	1.4628233
21.321412088279704	2.1620924	1.4704056
21.339246923127792	2.1518831	1.4669298
21.357082280956888	2.1285212	1.4589453
21.3749181622451	2.112948	1.4535983
21.392754567470647	2.11493	1.4542799
21.41059149711187	2.148436	1.4657544
21.42842895164726	2.1526706	1.4671983
21.446266931555378	2.1337814	1.4607469
21.464105437314945	2.0888438	1.4452833
21.481944469404798	2.0904388	1.445835
21.49978402830388	2.0901737	1.4457433
21.51762411449127	2.08906	1.4453582
21.53546472844617	2.0776484	1.441405
21.553305870647876	2.0678675	1.4380082
21.571147541575865	2.0398266	1.428225
21.58898974170967	2.0500655	1.431805
21.60683247152899	2.055276	1.4336233
21.62467573151363	2.078879	1.4418318
21.642519522143523	2.077129	1.4412248
21.660363843898722	2.0655358	1.4371972
21.6782086972594	2.0743055	1.4402449
21.696054082705864	2.065398	1.4371493
21.713900000718535	2.0423508	1.4291084
21.73174645177795	2.043169	1.4293946
21.749593436364794	2.0622845	1.4360657
21.767440954959845	2.0579433	1.4345534
21.785289008044032	2.027645	1.423954
21.803137596098388	2.0114956	1.418272
21.820986719604086	1.9957783	1.4127202
21.838836379042412	1.9992483	1.4139477
21.85668657489478	2.0604653	1.4354321
21.87453730764273	2.0679557	1.4380388
21.892388577767914	2.05298	1.4328223
21.91024038575213	1.9920627	1.4114045
21.928092732077285	1.9522908	1.397244
21.945945617225426	1.9793838	1.4069058
21.963799041678694	2.002629	1.4151428
21.981653005919398	31.313112	5.595812
21.999507510429943	78.092285	8.836984
22.01736255569286	73.06207	8.547635
22.035218142190818	4.1568913	2.0388455
22.05307427040661	1.9842205	1.4086236
22.07093094082315	1.967065	1.4025209
22.088788153923474	1.9737571	1.4049047
22.106645910190746	2.0025902	1.4151291
22.12450421010827	1.9989192	1.4138314
22.142363054159464	1.9869696	1.4095991
22.16022244282787	1.9409863	1.3931929
22.178082376597164	1.9469762	1.3953409
22.195942855951145	1.9818579	1.4077847
22.213803881373742	2.0105565	1.417941
22.231665453349002	2.0175452	1.4204032
22.24952757236111	2.035897	1.4268486
22.26739023889438	2.002214	1.4149961
22.28525345343323	1.966184	1.4022069
22.30311721646225	1.9374973	1.3919401
22.320981528466113	1.9509867	1.3967773
22.33884638992964	1.9889585	1.4103044
22.356711801337788	2.0000641	1.4142362
22.37457776317561	1.9697281	1.40347
22.392444275928337	1.9381347	1.392169
22.410311340081282	1.8777729	1.3703185
22.428178956119904	1.8886486	1.3742812
22.446047124529805	1.9083016	1.3814129
22.46391584579669	1.9643414	1.4015497
22.481785120406414	1.9931619	1.4117938
22.49965494884496	1.9922541	1.4114723
22.51752533159841	1.9444069	1.3944199
22.53539626915302	1.9044257	1.3800093
22.553267761995137	1.9065229	1.3807689
22.571139810611264	1.9570688	1.3989527
22.589012415488025	1.9740825	1.4050205
22.60688557711216	1.9679551	1.4028382
22.624759295970566	1.9579334	1.3992617
22.642633572550263	1.9607041	1.4002514
22.660508407338362	1.9404954	1.3930167
22.67838380082217	1.9135107	1.3832971
22.696259753489077	1.9121717	1.382813
22.714136265826614	1.9127606	1.3830259
22.73201333832246	1.9220319	1.3863736
22.74989097146439	1.9498391	1.3963664
22.76776916574035	1.9398273	1.3927768
22.785647921638393	1.9167649	1.3844727
22.803527239646712	1.902278	1.379231
22.82140712025363	1.8894509	1.374573
22.839287563947593	1.895777	1.3768722
22.85716857121719	1.910411	1.3821762
22.875050142551135	1.9305695	1.3894494
22.892932278438277	1.9148272	1.3837729
22.910814979367604	1.8617768	1.3644694
22.928698245828222	1.8683991	1.366894
22.946582078309387	1.8850622	1.3729757
22.96446647730047	1.891433	1.3752937
22.98235144329098	1.8775191	1.3702259
23.000236976770562	1.9014883	1.3789446
23.018123078229	1.9117378	1.3826561
23.03600974815619	1.9050162	1.3802233
23.053896987042194	1.8970921	1.3773496
23.071784795377173	1.8599522	1.3638006
23.08967317365145	1.8581403	1.3631362
23.10756212235546	1.8866479	1.373553
23.125451641979787	1.9348786	1.3909991
23.143341733015134	1.9486322	1.3959342
23.161232395952357	1.9362303	1.391485
23.179123631282426	1.9243652	1.3872149
23.197015439496468	1.9185977	1.3851346
23.214907821085717	1.9443558	1.3944016
23.23280077654157	1.9531388	1.3975475
23.250694306355538	1.976823	1.4059954
23.268588411019277	1.9590822	1.3996722
23.28648309102458	1.9541892	1.3979231
23.304378346863356	1.9008281	1.3787053
23.322274179027676	1.9187639	1.3851945
23.340170588009723	1.9205109	1.385825
23.358067574301852	1.938857	1.3924284
23.37596513839651	1.9148431	1.3837786
23.39386328078629	1.9733466	1.4047586
23.411762001963947	1.9737792	1.4049125
23.429661302422353	1.9877977	1.4098928
23.4475611826545	1.9304188	1.3893951
23.46546164315356	1.9334574	1.3904881
23.48336268441279	1.926084	1.3878343
23.501264306925638	1.9268516	1.3881108
23.51916651118564	1.9348402	1.3909854
23.537069297686497	1.9290979	1.3889197
23.554972666922037	1.9272431	1.3882518
23.57287661938623	1.9285527	1.3887234
23.59078115557318	1.9277617	1.3884386
23.608686275977128	1.9446536	1.3945084
23.62659198109246	1.9290615	1.3889066
23.6444982714137	1.9131255	1.3831578
23.66240514743549	1.9041748	1.3799185
23.68031260965263	1.8624519	1.3647168
23.698220658560068	1.8582566	1.3631788
23.716129294652845	1.869224	1.3671956
23.7340385184262	1.8847364	1.372857
23.75194833037546	1.8369204	1.3553303
23.769858730996123	1.8118042	1.3460327
23.78776972078382	1.8282733	1.3521366
23.80568130023431	1.8648517	1.3655957
23.823593469843495	1.8717393	1.3681152
23.841506230107424	1.8708932	1.367806
23.859419581522275	1.8632418	1.3650062
23.87733352458438	1.8673854	1.3665231
23.89524805979019	1.8950253	1.3765992
23.913163187636318	1.9169217	1.3845295
23.931078908619508	1.9349885	1.3910387
23.948995223236633	1.9708395	1.4038659
23.966912131984735	2.025675	1.4232621
23.98482963536096	2.0730739	1.4398173
24.002747733862616	2.081617	1.4427811
24.020666427987155	2.0294945	1.4246033
24.038585718232156	2.0195303	1.4211018
24.056505605095353	2.0307071	1.4250288
24.074426089074617	2.0150807	1.4195354
24.092347170667946	2.0155573	1.4197032
24.110268850373515	2.0588627	1.4348737
24.128191128689586	2.0939486	1.4470482
24.146114006114626	2.0898502	1.4456314
24.164037483147187	2.072004	1.4394457
24.181961560286005	2.0329306	1.4258088
24.199886238029926	2.0395565	1.4281304
24.21781151687797	2.0584645	1.4347351
24.235737397329274	2.0514455	1.4322869
24.253663879883135	2.0527873	1.4327551
24.271590965038975	2.0728705	1.4397466
24.289518653296376	2.0859907	1.4442959
24.30744694515505	2.0971231	1.4481447
24.32537584111486	2.0709493	1.4390793
24.34330534167581	2.045499	1.4302094
24.361235447338046	2.0336363	1.4260563
24.379166158601876	1.9891756	1.4103813
24.39709747596772	1.9933167	1.4118487
24.41502939993615	1.9741355	1.4050393
24.432961931007917	1.999389	1.4139975
24.450895069683856	2.0111878	1.4181635
24.468828816465	2.0255442	1.4232161
24.4867631718525	2.0183313	1.4206799
24.504698136347656	2.021028	1.4216287
24.52263371045192	1.9716402	1.4041511
24.540569894666874	1.9324498	1.3901259
24.558506689494266	1.9554784	1.3983842
24.57644409543597	1.9634839	1.4012437
24.594382112994012	1.9814345	1.4076344
24.61232074267057	2.0045996	1.4158388
24.630259984967953	1.9940947	1.4121242
24.64819984038863	1.9715056	1.4041032
24.66614030943522	1.9585928	1.3994973
24.684081392610462	2.0033653	1.4154029
24.702023090417274	2.016311	1.4199686
24.7199654033587	2.043351	1.4294583
24.737908331937927	2.0114005	1.4182385
24.755851876658305	1.984774	1.40882
24.773796038023324	1.9877678	1.4098822
24.79174081653661	2.0283325	1.4241954
24.809686212701962	2.051602	1.4323415
24.827632227023294	2.0259354	1.4233536
24.8455788600047	2.0247614	1.4229411
24.8635261121504	2.00853	1.4172261
24.88147398396475	2.0354304	1.4266851
24.899422475952303	2.0252094	1.4230986
24.917371588617698	2.0665352	1.4375448
24.935321322465768	2.149128	1.4659904
24.953271678001478	2.2648633	1.5049462
24.97122265572994	2.4865546	1.5768813
24.989174256156414	2.8236334	1.6803671
25.00712647978632	3.399067	1.8436558
25.02507932712521	4.3433557	2.0840719
25.043032798678798	5.9215198	2.4334173
25.060986894952933	7.577014	2.7526376
25.078941616453637	9.072516	3.0120618
25.096896963687055	9.970697	3.1576412
25.114852937159508	10.694486	3.2702425
25.132809537377444	10.503056	3.2408419
25.150766764847468	9.83554	3.1361663
25.168724620076347	8.523727	2.9195423
25.186683103570985	7.29281	2.7005203
25.204642215838426	5.874609	2.4237592
25.222601957385894	4.695705	2.1669576
25.24056232872074	3.6206927	1.9028118
25.25852333035048	2.8792024	1.6968212
25.276484962782778	2.4377244	1.5613214
25.294447226525435	2.19576	1.4818097
25.312410122086423	2.0740113	1.4401429
25.330373649973843	1.9493124	1.3961778
25.348337810695988	1.9043669	1.379988
25.366302604761245	1.8908345	1.3750762
25.384268032678207	1.9245799	1.3872923
25.40223409495558	1.9960079	1.4128014
25.420200792102257	1.9623595	1.4008424
25.438168124627246	1.8947798	1.37651
25.45613609303974	1.8305807	1.3529896
25.474104697849057	1.8629878	1.3649131
25.492073939564698	1.8690262	1.3671234
25.510043818696285	1.889471	1.3745803
25.528014335753614	1.8879921	1.3740423
25.54598549124664	1.8770812	1.3700662
25.56395728568544	1.8855714	1.3731611
25.58192971958028	1.8978261	1.377616
25.59990279344156	1.9080168	1.3813099
25.617876507779833	1.8788639	1.3707166
25.635850863105826	1.8139112	1.3468152
25.653825859930386	1.8122495	1.3461982
25.671801498764548	1.8154553	1.3473884
25.68977778011949	1.8318347	1.3534529
25.707754704506524	1.8978716	1.3776326
25.725732272437153	1.8942449	1.3763157
25.743710484423012	1.8335195	1.3540751
25.761689340975888	1.7902297	1.3379947
25.77966884260774	1.853851	1.361562
25.797648989830662	1.8805813	1.3713429
25.815629783156922	1.8657136	1.3659112
25.83361122309895	1.8060297	1.343886
25.85159331016929	1.8153936	1.3473654
25.869576044880695	1.8299197	1.3527453
25.887559427746034	1.8851436	1.3730053
25.90554345927836	1.9091973	1.3817371
25.92352813999086	1.884494	1.3727688
25.94151347039689	1.8156874	1.3474745
25.959499451009965	1.76001	1.3266537
25.97748608234374	1.7346482	1.3170605
25.995473364912062	1.6932418	1.3012463
26.013461299228904	1.7281376	1.3145865
26.03144988580839	1.8208467	1.3493875
26.04943912516483	1.8482277	1.3594954
26.067429017812675	1.8465208	1.3588674
26.085419564266537	1.8372427	1.3554493
26.103410765041186	1.8294878	1.3525856
26.12140262065155	1.8096874	1.3452462
26.139395131612723	1.8284655	1.3522077
26.157388298439948	1.8461694	1.3587382
26.17538212164861	1.8625004	1.3647345
26.193376601754295	1.8417276	1.3571026
26.211371739272714	1.8127195	1.3463727
26.229367534719746	1.7869103	1.3367536
26.247363988611433	1.844248	1.3580309
26.26536110146397	1.8566649	1.362595
26.283358873793727	1.8490225	1.3597877
26.301357306117204	1.8532118	1.3613272
26.319356398951104	1.8515265	1.3607081
26.33735615281224	1.839008	1.3561003
26.35535656821762	1.7964368	1.3403122
26.373357645684404	1.7922742	1.3387585
26.39135938572991	1.782752	1.3351973
26.409361788871614	1.808435	1.3447807
26.427364855627165	1.8389986	1.3560969
26.445368586514352	1.8445879	1.3581561
26.46337298205115	1.8029919	1.3427553
26.48137804275568	1.7671294	1.3293343
26.499383769146217	1.7866485	1.3366557
26.517390161741215	1.8218968	1.3497766
26.53539722105928	1.817534	1.3481594
26.553404947619182	1.8145479	1.3470515
26.571413341939856	1.8180612	1.348355
26.589422404540397	1.8404304	1.3566246
26.60743213594006	1.8345137	1.3544422
26.62544253665827	1.8232183	1.350266
26.64345360721459	1.8069869	1.3442421
26.66146534812879	1.7852407	1.336129
26.679477759920758	1.816057	1.3476115
26.69749084311057	1.8660681	1.3660411
26.71550459821847	1.8586731	1.3633317
26.733519025764842	1.8139526	1.3468306
26.751534126270258	1.7749679	1.3322792
26.769549900255434	1.8089657	1.344978
26.787566348241267	1.8464762	1.3588511
26.80558347074881	1.8582675	1.3631829
26.823601268299267	1.8173639	1.3480964
26.841619741414036	1.7809258	1.3345133
26.85963889061465	1.764986	1.3285278
26.877658716422832	1.7576905	1.3257792
26.89567921936045	1.7343488	1.3169467
26.913700399949544	1.750026	1.3228855
26.93172225871233	1.7878292	1.3370973
26.949744796171174	1.7822506	1.3350096
26.967768012848605	1.8012553	1.3421085
26.98579190926733	1.842572	1.3574136
27.003816485950225	1.8305255	1.3529692
27.021841743420318	1.7913384	1.338409
27.039867682200814	1.7615279	1.3272257
27.057894302815072	1.7822846	1.3350223
27.07592160578664	1.792631	1.3388917
27.0939495916392	1.7729201	1.3315104
27.111978260896635	1.789861	1.3378569
27.13000761408296	1.832962	1.3538693
27.148037651722397	1.8498642	1.3600972
27.166068374339304	1.8078606	1.3445671
27.184099782458215	1.8200152	1.3490794
27.20213187660384	1.8511748	1.3605789
27.22016465730105	1.847172	1.359107
27.23819812507487	1.7996627	1.3415151
27.256232280450533	1.7563828	1.3252859
27.274267123953383	1.7557032	1.3250295
27.292302656108987	1.7954783	1.3399546
27.31033887744306	1.8613716	1.364321
27.32837578848146	1.8588134	1.363383
27.34641338975026	1.8433539	1.3577017
27.364451681775673	1.8508581	1.3604624
27.382490665084074	1.8797737	1.3710485
27.400530340202046	1.8725604	1.3684152
27.41857070765629	1.908012	1.3813081
27.436611767973726	1.9016389	1.3789992
27.454653521681404	1.8936089	1.3760847
27.472695969306564	1.8530271	1.3612593
27.490739111376627	1.865442	1.3658118
27.508782948419153	1.8424721	1.3573769
27.526827480961902	1.8379003	1.3556918
27.54487270953279	1.8119725	1.3460953
27.562918634659898	1.8498892	1.3601063
27.580965256871508	1.835597	1.3548421
27.599012576696026	1.7998807	1.3415964
27.617060594662068	1.8038397	1.343071
27.63510931129842	1.8105618	1.3455712
27.65315872713401	1.8173229	1.3480812
27.67120884269797	1.8155688	1.3474305
27.68925965851958	1.8412656	1.3569324
27.707311175128307	1.8957057	1.3768463
27.725363393053787	1.9311594	1.3896616
27.74341631282583	1.9230263	1.3867322
27.7614699349744	1.8683487	1.3668755
27.77952426002968	2.0066845	1.416575
27.797579288521973	2.100611	1.4493484
27.815635020981784	2.5559204	1.5987246
27.83369145793979	2.6823099	1.6377759
27.85174859992682	2.5740392	1.6043812
27.869806447473923	2.4116836	1.5529596
27.887865001112267	2.0763927	1.4409693
27.905924261373233	1.9576379	1.3991561
27.92398422878836	1.9443249	1.3943905
27.94204490388936	1.9735599	1.4048345
27.96010628720813	1.9780874	1.4064449
27.978168379276728	1.9364748	1.3915728
27.9962311806274	1.9131014	1.3831491
28.014294691792568	1.9113675	1.3825221
28.0323589133048	1.8983301	1.377799
28.050423845696887	1.9338905	1.390644
28.068489489501758	1.9053859	1.3803571
28.086555845252523	1.8942375	1.376313
28.104622913482487	1.8906405	1.3750056
28.122690694725115	1.9200275	1.3856505
28.14075918951405	1.9224992	1.3865422
28.15882839838312	1.8834053	1.3723722
28.176898321866304	1.8363117	1.3551058
28.1949689604978	1.8632435	1.3650068
28.213040314811945	1.919433	1.385436
28.23111238534327	1.9363562	1.3915302
28.249185172626493	1.913247	1.3832017
28.267258677196473	1.9333501	1.3904496
28.285332899588294	1.9389626	1.3924663
28.303407840337172	1.9516274	1.3970066
28.321483499978545	1.9626461	1.4009447
28.33955987904799	1.9245542	1.3872831
28.357636978081285	1.943566	1.3941183
28.37571479761439	1.9968283	1.4130918
28.393793338183425	2.0071192	1.4167284
28.41187260032469	2.023942	1.4226532
28.429952584574686	2.0187502	1.4208273
28.448033291470065	1.9931147	1.4117771
28.46611472154769	2.0112026	1.4181688
28.484196875344566	2.0749695	1.4404755
28.502279753397914	2.106111	1.4512447
28.52036335624511	2.0619464	1.4359479
28.538447684423716	2.0281084	1.4241167
28.556532738471482	2.0178013	1.4204934
28.574618518926325	2.0439804	1.4296784
28.59270502632635	2.051956	1.432465
28.61079226120985	2.0606532	1.4354975
28.628880224115274	2.028922	1.4244024
28.646968915581287	2.0504467	1.431938
28.66505833614671	2.083698	1.443502
28.68314848635055	2.08182	1.4428513
28.701239366732004	2.1236773	1.4572842
28.71933097783044	2.1719851	1.4737656
28.737423320185403	2.1799815	1.4764761
28.75551639433665	2.1489565	1.465932
28.773610200824074	2.1837819	1.4777625
28.791704740187793	2.1769612	1.4754529
28.80980001296809	2.1203768	1.4561514
28.827896019705413	2.0720313	1.4394552
28.845992760940433	2.0782123	1.4416006
28.86409023721397	2.1223812	1.4568394
28.88218844906704	2.1708195	1.4733701
28.900287397040845	2.245033	1.4983435
28.918387081676755	2.2726026	1.5075153
28.936487503516343	2.255344	1.5017803
28.954588663101365	2.255241	1.5017459
28.97269056097374	2.28426	1.5113769
28.990793197675597	2.3289795	1.5260994
29.00889657374923	2.3115923	1.5203922
29.027000689737125	2.363936	1.5375097
29.04510554618196	2.4425807	1.5628757
29.06321114362659	2.467666	1.5708807
29.08131748261405	2.442189	1.5627505
29.099424563687567	2.429078	1.55855
29.11753238739057	2.4907885	1.5782232
29.13564095426663	2.5704105	1.60325
29.15375026485954	2.575254	1.6047598
29.171860319713275	2.619632	1.6185278
29.18997111937199	2.7189126	1.6489125
29.20808266438002	2.8006592	1.673517
29.226194955281898	2.8501217	1.6882304
29.244307992622335	2.8942137	1.7012389
29.26242177694624	2.840975	1.6855192
29.2805363087987	2.9008105	1.7031766
29.29865158872498	2.9977634	1.731405
29.316767617270557	3.0055537	1.7336533
29.334884394981064	3.0353396	1.7422225
29.353001922402367	2.9483657	1.7170806
29.37112020008047	3.012695	1.7357117
29.389239228561596	3.1492407	1.77461
29.407359008392152	3.298444	1.8161619
29.42547954011872	3.5695353	1.8893213
29.44360082428809	4.091209	2.0226736
29.46172286144722	4.98602	2.2329397
29.479845652143283	6.5676107	2.562735
29.497969196923606	9.126334	3.0209823
29.516093496335728	12.856112	3.585542
29.5342185509274	16.624548	4.077321
29.55234436124651	19.933376	4.464681
29.570470927841175	21.288244	4.6139183
29.588598251259686	20.766314	4.5570073
29.60672633205055	19.09576	4.3698697
29.624855170762405	16.31919	4.0397015
29.642984767944146	12.996131	3.6050148
29.66111512414481	9.64985	3.1064208
29.67924623991366	7.136978	2.6715124
29.697378115800138	5.2262983	2.28611
29.71551075235387	4.298992	2.0734012
29.733644150124675	3.9087808	1.9770637
29.751778309662576	3.618819	1.9023194
29.769913231517766	3.4259026	1.8509194
29.78804891624066	3.3753204	1.8372046
29.806185364381818	3.3264275	1.8238497
29.82432257649206	3.3288443	1.8245121
29.842460553122333	3.4107475	1.846821
29.86059929482382	3.4751518	1.8641759
29.878738802147872	3.3713992	1.836137
29.896879075646048	3.2532716	1.8036828
29.915020115870114	3.321953	1.8226225
29.933161923371976	3.3383067	1.8271034
29.951304498703777	3.284628	1.8123542
29.969447842417857	3.2619946	1.8060993
29.987591955066733	3.245702	1.8015832
30.005736837203123	3.1938825	1.7871437
30.023882489379943	3.180215	1.7833157
30.04202891215028	3.1889834	1.7857726
30.060176106067455	3.2373195	1.7992553
30.078324071684946	3.2160294	1.7933291
30.09647280955646	3.1574984	1.7769351
30.114622320235863	3.1161413	1.7652595
30.132772604277257	3.0838995	1.7561035
30.1509236622349	3.1387775	1.7716595
30.16907549466328	3.2323046	1.7978611
30.18722810211705	3.229669	1.797128
30.205381485151097	3.1426423	1.7727499
30.22353564432045	3.0479348	1.7458335
30.241690580180403	3.0115523	1.7353824
30.25984629328638	3.0150602	1.7363929
30.278002784194037	3.0168347	1.7369038
30.296160053459246	3.022699	1.7385911
30.314318101638033	3.0451524	1.7450365
30.332476929286646	2.9945858	1.7304871
30.35063653696153	2.9803057	1.7263561
30.368796925219307	2.970814	1.7236049
30.386958094616844	2.9856355	1.7278992
30.40512004571115	2.958231	1.7199509
30.423282779059463	2.9197936	1.7087404
30.441446295219233	2.8640728	1.6923572
30.459610594748067	2.816248	1.678168
30.47777567820382	2.8003058	1.6734115
30.495941546144504	2.8532596	1.6891594
30.51410819912835	2.8549864	1.6896706
30.532275637713795	2.8542204	1.6894438
30.55044386245946	2.8882437	1.6994834
30.56861287392416	2.9151819	1.7073904
30.586782672666956	2.8888319	1.6996564
30.604953259247047	2.8687356	1.6937342
30.623124634223885	2.810143	1.6763481
30.641296798157075	2.790019	1.670335
30.659469751606462	2.7550168	1.6598244
30.677643495132074	2.7235959	1.6503321
30.695818029294152	2.6593354	1.6307468
30.713993354653116	2.6780403	1.6364719
30.73216947176962	2.75854	1.6608853
30.75034638120448	2.7938983	1.6714958
30.768524083518756	2.7717032	1.6648433
30.786702579273673	2.7646682	1.6627291
30.80488186903069	2.8037395	1.674437
30.82306195335144	2.9809022	1.726529
30.841242832797782	3.2417	1.8004721
30.85942450793176	3.5823197	1.8927017
30.877606979315637	3.9970634	1.9992657
30.895790247511883	4.5049925	2.1224968
30.913974313083134	4.921669	2.2184834
30.932159176592283	5.3091693	2.3041635
30.95034483860237	5.686088	2.384552
30.968531299676698	5.678205	2.3828983
30.98671856037873	5.3260674	2.3078275
31.00490662127215	4.9170895	2.217451
31.023095482920848	4.51967	2.1259515
31.04128514588892	3.9758222	1.9939464
31.059475610740662	3.3827665	1.8392298
31.07766687804056	2.8542714	1.689459
31.09585894835335	2.6135533	1.6166488
31.11405182224393	2.5411384	1.5940949
31.132245500277417	2.5022292	1.5818436
31.15043998301914	2.4528718	1.5661647
31.168635271034628	2.465397	1.5701582
31.18683136488964	2.5438633	1.5949494
31.20502826515008	2.5717814	1.6036775
31.223225972382135	2.4779694	1.5741568
31.241424487152155	2.400525	1.5493628
31.259623810026692	2.3599799	1.5362226
31.27782394157253	2.3769472	1.5417352
31.296024882356644	2.4076958	1.5516752
31.314226632946237	2.396431	1.548041
31.332429193908684	2.4193852	1.5554373
31.350632565811598	2.478035	1.5741775
31.368836749222787	2.4460905	1.5639982
31.387041744710295	2.4933138	1.579023
31.40524755284232	2.5867596	1.6083406
31.423454174187317	2.6393528	1.6246085
31.441661609313922	2.5873	1.6085086
31.459869858791002	2.4827366	1.5756702
31.478078923187628	2.4665928	1.570539
31.496288803073064	2.4314969	1.5593258
31.514499499016807	2.4127114	1.5532905
31.532711011588546	2.4262712	1.5576493
31.550923341358178	2.419548	1.5554897
31.56913648889584	2.3811586	1.5431004
31.587350454771844	2.377771	1.5420022
31.605565239556732	2.407537	1.551624
31.62378084382127	2.3814192	1.5431848
31.641997268136382	2.3885005	1.5454774
31.660214513073274	2.3591294	1.5359458
31.67843257920331	2.3302298	1.526509
31.6966514670981	2.3244402	1.5246115
31.71487117732944	2.2698896	1.5066153
31.733091710469346	2.291812	1.5138731
31.751313067090052	2.342869	1.5306433
31.769535247764008	2.3241556	1.5245181
31.787758253063878	2.3147998	1.5214466
31.805982083562526	2.30724	1.5189601
31.824206739833024	2.2239313	1.4912851
31.84243222244869	2.2499006	1.4999669
31.860658531983013	2.306242	1.5186316
31.878885669009737	2.2759478	1.5086244
31.897113634102784	2.199987	1.4832352
31.91534242783632	2.2176979	1.4891937
31.933572050784694	2.3053086	1.5183243
31.951802503522508	2.277905	1.509273
31.970033786624548	2.1261554	1.4581342
31.988265900665834	2.1004243	1.4492841
32.006498846221575	2.0753853	1.4406198
32.02473262386724	2.1135006	1.4537884
32.04296723417845	2.2412045	1.4970653
32.0612026777311	2.297885	1.5158776
32.07943895510129	2.1750436	1.4748029
32.097676066865304	2.082197	1.442982
32.115914013599685	2.0956054	1.4476206
32.13415279588115	2.0911474	1.44608
32.152392414286666	2.0441055	1.4297222
32.1706328693934	2.127833	1.4587094
32.18887416177875	2.2639053	1.504628
32.20711629202032	2.2688625	1.5062743
32.225359260695924	2.267463	1.5058098
32.243603068383614	2.2442322	1.4980762
32.26184771566166	2.1750882	1.474818
32.28009320310852	2.1730475	1.474126
32.2983395313029	2.2193825	1.4897592
32.31658670082372	2.179306	1.4762473
32.33483471225012	2.1096783	1.4524732
32.35308356616143	2.177427	1.4756107
32.371333263137245	2.2096584	1.4864919
32.38958380375734	2.2022905	1.4840117
32.407835188601744	2.174635	1.4746643
32.42608741825067	2.1676579	1.4722968
32.444340493284585	2.0817604	1.4428307
32.46259441428416	2.118992	1.4556758
32.48084918183028	2.1849413	1.4781547
32.49910479650405	2.174552	1.4746362
32.51736125888683	2.1160755	1.4546736
32.53561856956014	2.0524623	1.4326417
32.5538767291058	1.9803005	1.4072316
32.572135738105764	1.9033015	1.379602
32.59039559714228	1.9190598	1.3853014
32.608656306797776	1.9748424	1.4052908
32.62691786765491	2.0434787	1.429503
32.645180280296586	2.1229517	1.4570353
32.663443545305896	2.106006	1.4512085
32.68170766326619	2.0403368	1.4284036
32.69997263476099	2.0026712	1.4151577
32.7182384603741	2.0119843	1.4184444
32.7365051406895	2.117114	1.4550306
32.75477267629144	2.1768558	1.4754171
32.77304106776434	2.1945865	1.4814137
32.79131031569289	2.0384035	1.4277267
32.809580420661966	1.983826	1.4084836
32.827851383256714	2.0113118	1.4182073
32.84612320406245	1.9571942	1.3989975
32.86439588366476	1.9203677	1.3857733
32.88266942264945	1.9466981	1.3952413
32.9009438216025	2.0502458	1.431868
32.9192190811102	2.133537	1.4606632
32.937495201758985	2.0554554	1.433686
32.95577218413556	1.941311	1.3933094
32.974050028826866	1.862465	1.3647215
32.992328736420035	1.9047257	1.380118
33.010608307502444	2.0085816	1.4172444
33.02888874266169	2.0249119	1.422994
33.047170042485604	1.9835563	1.4083878
33.06545220756225	1.9667703	1.4024159
33.083735238479896	1.9082974	1.3814114
33.10201913582707	1.9711026	1.4039596
33.12030390019248	2.0881424	1.4450406
33.138589532165135	2.0556276	1.433746
33.15687603233419	1.9301758	1.3893076
33.17516340128909	1.8840109	1.3725928
33.19345163961947	1.79487	1.3397276
33.211740747915215	1.769766	1.3303255
33.23003072676643	1.8435473	1.357773
33.248321576763466	1.9417325	1.3934606
33.266613298496885	1.982413	1.4079819
33.28490589255747	1.939242	1.3925667
33.30319935953626	1.9787871	1.4066937
33.32149370002451	1.9547633	1.3981285
33.339788914613706	1.997948	1.4134879
33.358085003895575	2.1055763	1.4510604
33.376381968462034	2.161018	1.4700401
33.39467980890529	2.1162174	1.4547224
33.41297852581774	2.0057583	1.416248
33.43127811979204	1.8914616	1.3753042
33.44957859142105	1.9342251	1.3907642
33.467879941297866	1.9493127	1.3961779
33.486182170015844	1.8841188	1.372632
33.50448527816853	1.8642973	1.3653927
33.522789266349754	1.9338433	1.3906269
33.541094135153514	1.9009155	1.378737
33.55939988517411	1.9667118	1.402395
33.57770651700602	1.9254584	1.3876089
33.59601403124398	1.8428319	1.3575094
33.61432242848296	1.8195001	1.3488885
33.632631709318154	1.8810278	1.3715056
33.650941874344994	1.8423165	1.3573196
33.66925292415916	1.8535814	1.361463
33.68756485935654	1.8862386	1.373404
33.70587768053328	1.8871849	1.3737484
33.724191388285746	1.9264901	1.3879806
33.74250598321054	1.9580344	1.3992978
33.760821465904506	1.8915864	1.3753495
33.77913783696474	1.8963058	1.3770642
33.79745509698852	1.9705235	1.4037534
33.815773246573414	2.0277984	1.4240079
33.8340922863172	1.9318792	1.3899206
33.852412216817896	1.8052318	1.3435892
33.87073303867377	1.7633563	1.3279142
33.889054752483304	1.8225328	1.3500122
33.907377358845245	1.880531	1.3713245
33.92570085835853	2.0216665	1.4218532
33.94402525162239	2.059524	1.4351043
33.96235053923627	2.0014212	1.414716
33.980676721799824	1.9728044	1.4045656
33.999003799912984	1.8987981	1.3779688
34.01733177417592	1.9610124	1.4003615
34.03566064518901	2.0213227	1.4217323
34.0539904135529	1.9440764	1.3943014
34.07232107986846	1.8741082	1.3689808
34.090652644736785	1.9470745	1.3953761
34.108985108759235	1.9827672	1.4081076
34.12731847253742	1.9631304	1.4011176
34.14565273667313	1.955231	1.3982958
34.16398790176847	1.9948494	1.4123914
34.18232396842574	2.0416377	1.4288589
34.20066093724749	2.0745983	1.4403466
34.21899880883651	1.9032909	1.3795981
34.23733758379583	1.7838517	1.3356091
34.25567726272874	1.7776123	1.3332713
34.27401784623872	1.7543325	1.3245122
34.29235933492957	1.946705	1.3952436
34.31070172940526	2.067956	1.438039
34.32904503027003	2.0276375	1.4239514
34.347389238128386	1.8961252	1.3769987
34.36573435358502	1.9166638	1.3844362
34.38408037724492	1.9853052	1.4090086
34.402427309713296	1.8907901	1.3750601
34.42077515159559	1.9428332	1.3938555
34.43912390349752	2.0651364	1.4370582
34.45747356602499	2.087478	1.4448106
34.47582413978423	1.8927063	1.3757566
34.49417562538163	1.8342966	1.354362
34.51252802342388	1.9818358	1.407777
34.53088133451789	2.0188067	1.4208472
34.54923555927084	1.9649209	1.4017564
34.567590698290104	1.9696283	1.4034345
34.58594675218336	1.9133482	1.3832383
34.6043037215585	1.9496529	1.3962997
34.62266160702365	2.10953	1.4524221
34.641020409187234	2.124868	1.4576926
34.65938012865785	1.9829913	1.4081873
34.677740766044394	1.8664488	1.3661803
34.69610232195598	1.8927355	1.3757672
34.714464797002016	1.845745	1.358582
34.73282819179208	1.8895141	1.374596
34.751192506936064	1.8716412	1.3680794
34.76955774304408	1.8332833	1.3539879
34.7879239007265	1.8853678	1.3730869
34.80629098059391	1.9511914	1.3968506
34.824658983257194	2.177326	1.4755765
34.843027909327446	2.156854	1.4686232
34.86139775941603	1.8879672	1.3740332
34.879768534134534	1.6366932	1.2793331
34.89814023409483	1.7208204	1.3118005
34.91651285990901	1.9870211	1.4096173
34.93488641218944	2.0991657	1.4488498
34.95326089154871	2.1053066	1.4509674
34.97163629859967	2.1043227	1.4506284
34.99001263395542	2.0600355	1.4352823
35.00838989822934	1.9125917	1.3829648
35.02676809203499	1.7975333	1.3407211
35.04514721598624	1.9528617	1.3974483
35.063527270697215	2.1499922	1.4662852
35.081908256782256	2.155349	1.4681107
35.10029017485597	2.135027	1.4611732
35.11867302553321	2.241949	1.497314
35.137056809429104	2.2253706	1.4917676
35.155441527159006	2.0363407	1.4270041
35.173827179338524	2.1491783	1.4660076
35.19221376658354	2.416317	1.5544508
35.21060128951017	2.398905	1.5488399
35.2289897487348	1.9979469	1.4134874
35.24737914487405	1.8592455	1.3635415
35.26576947854479	1.9932433	1.4118227
35.28416075036418	2.0534744	1.432995
35.30255296094958	2.0077	1.4169333
35.32094611091867	1.8765926	1.3698878
35.33934020088932	1.8977925	1.3776039
35.35773523147969	2.0711665	1.4391547
35.3761312033082	2.0418212	1.4289231
35.394528116993506	2.1560812	1.4683601
35.41292597315452	2.2547674	1.5015883
35.431324772410434	2.0496876	1.431673
35.449724515380666	2.1399963	1.4628726
35.46812520268491	2.1698432	1.4730388
35.486526834943106	2.0466237	1.4306026
35.504929412775454	2.1931872	1.4809413
35.52333293680242	2.2340083	1.4946599
35.54173740764471	2.1726916	1.4740053
35.560142825923286	2.2024748	1.4840738
35.5785491922594	2.0290253	1.4244386
35.59695650727454	1.5801808	1.2570524
35.61536477159042	0.8177855	0.90431494
