0.008763373481513119	0.56609195	0.7523908
0.026290120649546365	0.18888974	0.43461448
0.043816868432600686	0.14562035	0.38160235
0.06134361724069026	0.10053836	0.31707785
0.07887036748382949	0.104485855	0.32324272
0.0963971195720331	0.089754686	0.29959086
0.11392387391531617	0.09086661	0.3014409
0.1314506309236943	0.17571524	0.41918403
0.1489773910071836	0.22922729	0.47877687
0.16650415457580078	0.20655935	0.454488
0.18403092203956356	0.15769653	0.39711022
0.20155769380849	0.09146855	0.3024377
0.2190844702925996	0.09815791	0.31330162
0.2366112519019124	0.073967725	0.2719701
0.2541380390464497	0.12583803	0.35473657
0.27166483213623416	0.16976544	0.41202602
0.28919163158128947	0.24976437	0.49976432
0.3067184377916406	0.20129886	0.4486634
0.324245251177314	0.17276566	0.41565087
0.34177207214833777	0.0978763	0.31285188
0.3592989011147415	0.10923835	0.33051226
0.37682573848655654	0.1548406	0.3934979
0.39435258467381573	0.17615159	0.41970417
0.41187944008655414	0.20699713	0.45496938
0.42940630513480854	0.21251476	0.46099323
0.446933180228618	0.24001823	0.48991656
0.4644600657780234	0.22223476	0.4714178
0.48198696219306775	0.19204669	0.43823132
0.49951386988379676	0.1621679	0.40270075
0.5170407892602581	0.1442412	0.379791
0.5345677207325025	0.15488824	0.39355844
0.5520946647105822	0.1424266	0.37739447
0.5696216216045534	0.1252057	0.35384417
0.5871485918244737	0.101436935	0.31849167
0.6046755757804043	0.08261068	0.28742075
0.6222025738824094	0.07535342	0.27450576
0.6397295865405557	0.08215447	0.286626
0.6572566141649129	0.13897261	0.3727903
0.6747836571655547	0.18321365	0.42803463
0.6923107159525568	0.20536569	0.45317292
0.7098377909359992	0.2047745	0.45252016
0.7273648825259653	0.1882983	0.43393353
0.7448919911325411	0.17855798	0.4225612
0.762419117165817	0.16812608	0.4100318
0.7799462610358868	0.17341298	0.41642883
0.7974734231528482	0.17248087	0.41530815
0.8150006039268024	0.2104874	0.45878905
0.8325278037678551	0.20624945	0.45414695
0.8500550230861152	0.18955526	0.43537945
0.8675822622916969	0.20902261	0.45718992
0.8851095217947171	0.21880208	0.46776286
0.9026368020052984	0.24526164	0.49523896
0.9201641033335665	0.2729925	0.5224868
0.9376914261896523	0.25774068	0.50768167
0.9552187709836915	0.25390399	0.50388885
0.9727461381258234	0.30039626	0.5480842
0.990273528026193	0.2890665	0.53764904
1.0078009410949496	0.28483203	0.5336966
1.0253283777422473	0.26723498	0.51694775
1.0428558383782454	0.27284798	0.5223485
1.0603833234131086	0.29251435	0.540846
1.0779108332570058	0.30711818	0.55418247
1.0954383683201119	0.28909132	0.5376721
1.112965929012607	0.29681644	0.5448086
1.1304935157446763	0.4535273	0.67344433
1.1480211289265108	0.51963663	0.7208583
1.1655487689683062	1.4767435	1.2152133
1.1830764362802655	1.7656428	1.3287749
1.200604131272596	2.2074819	1.4857597
1.2181318543555117	2.4613245	1.5688609
1.235659605939232	2.4202943	1.5557295
1.253187386433982	3.6103005	1.9000791
1.270715196249994	5.864825	2.42174
1.2882430357975057	11.320585	3.3646078
1.3057709054867608	16.12046	4.0150294
1.3232988057280106	21.888569	4.678522
1.3408267369315112	26.930607	5.189471
1.358354699507526	30.585735	5.530437
1.3758826938663256	34.770958	5.8966904
1.3934107204181858	36.794033	6.0658083
1.410938779573391	36.925022	6.0765963
1.4284668717422309	37.409325	6.1163163
1.4459949973350033	37.168797	6.0966215
1.4635231567620117	37.223473	6.1011043
1.4810513504335687	36.56237	6.0466824
1.4985795787599925	35.409508	5.9505887
1.5161078421516088	34.702785	5.890907
1.5336361410187505	33.882675	5.820883
1.5511644757717598	34.287014	5.855511
1.5686928468209842	35.07233	5.9221897
1.58622125457678	35.705784	5.975432
1.6037496994495108	36.42855	6.035607
1.621278181849548	35.978786	5.998232
1.6388067021872719	36.694923	6.0576334
1.6563352608730693	36.42861	6.035612
1.673863858317336	35.749306	5.979072
1.6913924949304753	35.09267	5.923907
1.7089211711228998	33.70918	5.8059607
1.7264498873050296	32.843052	5.730886
1.7439786438872935	32.078674	5.663804
1.7615074412801288	31.412958	5.6047263
1.779036279893981	31.23498	5.588826
1.796565160139305	30.379631	5.511772
1.814094082426564	29.536312	5.434732
1.8316230471662298	28.657047	5.3532276
1.849152054768784	27.759188	5.2686987
1.8666811056447168	27.122652	5.207941
1.8842102002045273	26.3862	5.1367497
1.901739338858724	25.782469	5.077644
1.9192685220178245	25.582033	5.0578685
1.9367977500923557	25.047445	5.004742
1.9543270234928547	24.519424	4.9517093
1.971856342629867	23.489252	4.846571
1.9893857079139496	22.921646	4.787656
2.006915119755667	22.45901	4.739094
2.0244445785655945	22.19222	4.710862
2.0419740847543175	21.782461	4.6671686
2.0595036387324317	21.241688	4.6088705
2.0770332409105414	20.661758	4.545521
2.094562891699263	20.086433	4.481789
2.1120925915092217	19.775536	4.446969
2.129622340751053	19.374329	4.401628
2.1471521398354043	187.62082	13.6974745
2.1646819891729323	444.18604	21.075722
2.182211889174303	440.42023	20.98619
2.1997418402501974	452.6339	21.275194
2.2172718428113023	432.43503	20.795073
2.234801897268317	320.31058	17.897223
2.2523320040319548	16.748291	4.092468
2.269862163512935	16.57266	4.0709534
2.287392376121992	16.32286	4.040156
2.304922642269869	16.27474	4.0341964
2.322452962367322	15.911684	3.9889452
2.3399833368251164	15.463201	3.9323275
2.357513766054032	15.112104	3.887429
2.3750442504648586	14.648882	3.8273857
2.3925747904683963	14.392392	3.7937307
2.410105386475459	14.237868	3.77331
2.4276360388968707	14.147183	3.761274
2.445166748143469	14.138327	3.7600965
2.4626975146261025	13.827027	3.718471
2.4802283387556323	13.670712	3.6973927
2.4977592209429305	13.37041	3.656557
2.5152901615988825	13.128827	3.6233723
2.5328211611343865	12.906141	3.592512
2.5503522199603523	12.60213	3.549948
2.5678833384877024	12.412617	3.5231543
2.5854145171273712	12.175949	3.4894052
2.6029457562903064	12.009074	3.4654112
2.620477056387469	11.814564	3.437232
2.6380084178298326	11.690692	3.4191654
2.655539841028383	11.522398	3.3944657
2.673071326394119	11.313429	3.363544
2.6906028743380523	10.9341135	3.306677
2.708134485271211	10.65463	3.264143
2.7256661596046325	10.439727	3.2310567
2.743197897749369	10.323242	3.2129803
2.760729700116486	10.30303	3.2098334
2.778261567117063	10.131658	3.1830266
2.795793499162193	9.930007	3.1511915
2.8133254966629817	9.721806	3.117981
2.830857560030551	9.542352	3.0890696
2.8483896896760337	9.487465	3.0801728
2.865921886010578	9.43113	3.0710146
2.883454149445347	9.441994	3.0727828
2.9009864803915177	9.276574	3.0457468
2.91851887926028	9.150633	3.0250013
2.9360513464628384	9.109666	3.0182223
2.953583882410413	9.016276	3.0027115
2.9711164875142373	8.835326	2.9724276
2.9886491621855606	8.608173	2.9339688
3.0061819068356455	8.427013	2.902932
3.023714721875769	8.355057	2.8905115
3.041247607717225	8.357664	2.8909626
3.0587805647713213	8.284503	2.8782814
3.0763135934493806	8.142308	2.853473
3.0938466941627407	7.934004	2.8167365
3.1113798673227544	7.7698507	2.7874453
3.1289131133407904	7.6905365	2.7731817
3.1464464326282315	7.496959	2.7380576
3.1639798255964786	7.472642	2.7336133
3.1815132926569443	7.414834	2.7230194
3.1990468342210603	7.531556	2.744368
3.216580450700272	7.575822	2.7524211
3.2341141425060416	7.418378	2.72367
3.251647910049847	7.2470765	2.6920395
3.2691817537431813	7.12043	2.6684134
3.286715673997555	7.0491176	2.6550174
3.3042496712244938	7.117716	2.6679049
3.32178374583554	7.057908	2.6566725
3.339317898242251	6.873295	2.621697
3.3568521288562034	6.7078547	2.5899527
3.3743864380889876	6.596849	2.5684333
3.3919208263522127	6.587691	2.5666497
3.4094552940575023	6.6929674	2.587077
3.4269898416164972	6.678662	2.5843108
3.444524469440858	6.7700996	2.6019416
3.4620591779422587	6.626653	2.5742288
3.479593967532391	6.5670395	2.5626235
3.4971288386229658	6.4606156	2.541774
3.5146637916257086	6.421501	2.534068
3.5321988269523628	6.317879	2.513539
3.5497339450146903	6.298764	2.509734
3.5672691462244708	6.214206	2.492831
3.5848044309934988	6.239443	2.4978876
3.60233979973359	6.2452846	2.4990568
3.619875252856575	6.2340946	2.4968169
3.6374107907743034	6.2372193	2.4974425
3.6549464138986427	6.191191	2.4882104
3.6724821226414788	6.0972548	2.469262
3.690017917414714	6.1471653	2.4793477
3.7075537986302702	6.2260475	2.495205
3.7250897667000857	6.390899	2.5280228
3.7426258220361235	6.5007563	2.549658
3.7601619650503553	6.775585	2.6029954
3.777698196154779	7.3372655	2.7087388
3.7952345157614067	8.322929	2.8849487
3.8127709242822716	9.157677	3.0261652
3.830307422129425	11.2699	3.357067
3.847844009714936	30.020351	5.479083
3.8653806874508954	97.47055	9.872718
3.882917455749409	96.86593	9.842049
3.900454315022606	96.863174	9.841909
3.917991265682631	41.49109	6.4413576
3.9355283081416506	11.160597	3.3407478
3.9530654428118495	8.819809	2.9698162
3.970602670105433	7.637434	2.7635908
3.9881399904346244	6.8204107	2.6115916
4.005677404211669	6.680176	2.5846035
4.023214911848827	6.496413	2.5488062
4.0407525137583855	6.401379	2.5300946
4.058290210352644	6.362791	2.5224574
4.075828002043927	6.2795343	2.5059
4.0933658892445814	6.2136693	2.4927232
4.110903872366966	6.111373	2.472119
4.128441951823468	6.100609	2.4699411
4.145980128026488	6.135184	2.4769304
4.163518401388452	6.193696	2.4887137
4.181056772321807	6.1370296	2.4773028
4.1985952412390155	6.089555	2.4677024
4.216133808552567	6.1070237	2.4712393
4.233672474674966	6.1365404	2.477204
4.251211240018741	6.400348	2.529891
4.268750104996445	6.666783	2.5820115
4.286289070020643	7.6486087	2.765612
4.303828135503928	9.266952	3.0441668
4.3213673018589125	29.54251	5.4353023
4.3389065694982305	90.744965	9.526015
4.356445938834537	165.91902	12.880956
4.3739854102805085	171.71135	13.103868
4.391524984248844	172.57333	13.136717
4.409064661152262	136.61792	11.688367
4.426604441403504	96.8512	9.841301
4.444144325415337	75.881226	8.710983
4.461684313600543	21.919968	4.6818767
4.47922440637193	22.351748	4.7277637
4.496764604142329	20.710096	4.5508347
4.5143049073245916	18.690683	4.323272
4.531845316331589	16.474918	4.058931
4.5493858315762195	13.515267	3.6763117
4.566926453471405	11.143253	3.3381512
4.584467182430081	9.150799	3.0250287
4.602008018865218	8.025732	2.8329723
4.619548963189798	7.295357	2.7009919
4.637090015816834	6.79803	2.6073031
4.654631177159353	6.5950565	2.5680842
4.672172447630417	6.417218	2.533223
4.689713827643102	6.2572503	2.5014496
4.7072553176105085	5.9856157	2.4465518
4.724796917945764	5.717631	2.391157
4.742338629062015	5.600823	2.3666058
4.759880451372434	5.6063457	2.3677723
4.777422385290215	5.566596	2.3593636
4.794964431228581	5.5209246	2.3496647
4.812506589600768	5.546538	2.355109
4.830048860820047	5.540481	2.3538227
4.847591245299709	5.4990416	2.3450036
4.8651337434530655	5.459374	2.3365302
4.882676355693457	5.492871	2.3436875
4.900219082434242	5.497234	2.344618
4.917761924088813	5.4881034	2.3426702
4.935304881070575	5.4551826	2.3356333
4.952847953792969	5.448344	2.334169
4.970391142669449	5.394169	2.322535
4.9879344481135055	5.4077454	2.325456
5.005477870538642	5.3458924	2.3121185
5.023021410358394	5.4042134	2.3246963
5.040565067986324	5.4033337	2.3245072
5.05810884383601	5.4249153	2.3291447
5.075652738321066	5.467524	2.3382738
5.09319675185512	5.472433	2.3393233
5.110740884851836	5.40759	2.3254225
5.128285137724894	5.323051	2.3071737
5.145829510888007	5.295357	2.3011644
5.163374004754908	5.419874	2.3280623
5.1809186197393595	5.463319	2.3373744
5.198463356255145	5.391529	2.3219666
5.216008214716077	5.2810163	2.298046
5.233553195535998	5.2196417	2.2846534
5.251098299128764	5.273985	2.2965157
5.268643525908272	5.248381	2.2909346
5.286188876288432	5.242982	2.2897558
5.3037343506831895	5.1967325	2.2796342
5.32127994950651	5.183275	2.2766807
5.3388256731723915	5.2501407	2.2913187
5.356371522094851	5.25712	2.292841
5.373917496687938	5.264468	2.294443
5.391463597365729	5.2252345	2.2858772
5.40900982454232	5.1610403	2.2717924
5.426556178631843	5.1519985	2.2698014
5.444102660048449	5.0985003	2.2579858
5.4616492692063225	5.086214	2.2552636
5.479196006519669	5.01418	2.2392366
5.496742872402727	5.0022817	2.2365782
5.514289867269756	5.0117974	2.2387044
5.531836991535049	5.0455937	2.24624
5.549384245612924	5.1085396	2.260208
5.566931629917724	5.09462	2.2571266
5.584479144863822	5.069329	2.251517
5.6020267908656205	5.016755	2.2398114
5.619574568337545	5.056402	2.2486446
5.637122477694054	5.0086436	2.238
5.654670519349629	5.070329	2.2517393
5.672218693718784	5.005236	2.2372384
5.689767001216059	4.9973946	2.2354853
5.707315442256021	5.011023	2.2385314
5.724864017253266	5.071693	2.252042
5.7424127266224225	5.1297216	2.2648888
5.75996157077814	5.1268425	2.2642531
5.777510550135105	5.0785556	2.253565
5.795059665108022	5.0510483	2.2474537
5.812608916111639	5.1438	2.2679946
5.830158303560715	5.272651	2.2962253
5.847707827870055	5.3082867	2.303972
5.86525748945448	5.352617	2.3135724
5.8828072887288485	5.470783	2.3389707
5.900357226108044	5.5426254	2.354278
5.917907302006979	5.6671185	2.3805711
5.9354575168406	6.3097825	2.511928
5.9530078710238765	6.898653	2.6265287
5.970558364971812	7.3145804	2.7045481
5.988108999099438	7.6258655	2.761497
6.005659773821818	8.08208	2.8428998
6.023210689554039	7.8857007	2.808149
6.040761746711227	8.302164	2.8813477
6.058312945708531	7.618502	2.7601633
6.075864286961132	7.2003045	2.6833384
6.093415770884244	6.5255656	2.5545187
6.1109673978931065	5.989494	2.4473443
6.128519168402993	5.4556212	2.3357272
6.146071082829204	5.2833247	2.2985485
6.163623141587075	5.179714	2.2758985
6.181175345091969	5.174977	2.2748575
6.198727693759281	5.1894584	2.2780383
6.216280188004435	5.211755	2.2829268
6.233832828242885	5.120215	2.2627892
6.251385614890126	5.096956	2.257644
6.268938548361669	5.0368977	2.2443035
6.286491629073067	5.008775	2.2380292
6.304044857439898	5.016693	2.2397976
6.321598233877777	4.9739585	2.2302372
6.339151758802344	4.9062634	2.2150087
6.356705432629277	4.9462214	2.2240102
6.37425925577428	4.9586916	2.226812
6.391813228653095	5.0200295	2.2405422
6.409367351681486	5.0020804	2.2365332
6.426921625275259	4.97478	2.2304215
6.44447604985025	5.021949	2.2409706
6.46203062582232	5.041668	2.2453659
6.47958535360737	4.965261	2.2282865
6.497140233621328	4.8289213	2.1974807
6.514695266280161	4.808545	2.1928396
6.532250451999859	4.9245915	2.219142
6.549805791196454	4.9842997	2.2325544
6.567361284286002	5.026783	2.2420487
6.584916931684597	4.9814634	2.2319193
6.602472733808367	4.9915442	2.2341764
6.6200286910734665	5.0265045	2.2419868
6.637584803896092	5.026862	2.2420664
6.655141072692462	5.0053997	2.2372751
6.672697497878842	5.019615	2.2404497
6.690254079871514	5.0028405	2.2367032
6.707810819086808	4.978164	2.23118
6.725367715941078	4.8535094	2.2030683
6.742924770850719	4.8415055	2.2003422
6.760481984232151	4.8657193	2.2058375
6.778039356501836	4.886769	2.2106037
6.795596888076266	4.966339	2.2285285
6.813154579371963	4.9267435	2.219627
6.830712430805492	4.8594556	2.2044172
6.84827044279344	4.826074	2.1968327
6.865828615752445	4.7996316	2.1908062
6.883386950099159	4.844082	2.2009275
6.900945446250287	4.884423	2.210073
6.918504104622553	4.9289684	2.220128
6.936062925632727	4.978044	2.231153
6.953621909697607	4.986738	2.2331007
6.971181057234028	4.99851	2.2357347
6.988740368658859	4.9988484	2.2358105
7.006299844389007	5.0195913	2.2404444
7.023859484841407	5.083103	2.2545738
7.041419290433036	5.1637883	2.272397
7.058979261580902	5.371606	2.3176725
7.0765393987020495	5.6077847	2.368076
7.094099702213559	5.950897	2.439446
7.111660172532549	6.3052006	2.511016
7.129220810076164	6.6889853	2.5863073
7.146781615261595	7.3463383	2.710413
7.16434258850606	7.582556	2.753644
7.181903730226821	8.012829	2.830694
7.1994650408411704	8.003134	2.8289812
7.217026520766437	8.0652	2.8399296
7.234588170419983	8.314889	2.883555
7.252149990219215	8.39715	2.8977838
7.269711980581568	8.34299	2.8884234
7.2872741419245175	8.136607	2.852474
7.304836474665574	7.7062826	2.776019
7.322398979222286	7.41438	2.722936
7.339961656012233	7.163751	2.6765184
7.357524505453039	6.8149533	2.6105466
7.375087527962357	6.530152	2.555416
7.392650723957886	6.2696047	2.503918
7.410214093857353	5.9638944	2.4421086
7.427777638078528	5.7220807	2.3920872
7.445341357039213	5.522726	2.350048
7.4629052511572525	5.3572893	2.3145819
7.480469320850524	5.2587833	2.2932038
7.498033566536948	5.2052917	2.2815108
7.5155979886344735	5.1242285	2.263676
7.5331625875610975	5.101832	2.2587235
7.550727363734844	5.081561	2.254232
7.568292317573788	5.095621	2.2573483
7.585857449496025	5.1066246	2.2597842
7.603422759919705	5.140517	2.2672708
7.620988249263007	5.1714187	2.2740753
7.638553917944147	5.188229	2.2777684
7.656119766381391	5.1870995	2.2775204
7.673685794993023	5.193394	2.278902
7.691252004197388	5.1735263	2.2745388
7.70881839441285	5.175864	2.2750525
7.726384966057826	5.1665606	2.273007
7.743951719550762	5.163236	2.2722754
7.761518655310149	5.161653	2.271927
7.779085773754511	5.145346	2.2683356
7.796653075302419	5.168172	2.2733614
7.814220560372475	5.191561	2.2784998
7.831788229383323	5.2234726	2.2854917
7.8493560827536495	5.224458	2.2857075
7.866924120902174	5.2253704	2.285907
7.884492344247663	5.27272	2.2962403
7.9020607532089135	5.400797	2.3239615
7.919629348204771	5.3821898	2.3199546
7.937198129654115	5.3723817	2.3178399
7.954767097975865	5.338753	2.3105743
7.972336253588986	5.259093	2.2932713
7.989905596912472	5.267259	2.295051
8.007475128365371	5.2676587	2.2951381
8.025044848366756	5.3451457	2.3119571
8.042614757335754	5.5144677	2.3482904
8.060184855691523	5.5788226	2.361953
8.07775514385327	5.7562933	2.3992276
8.095325622240228	5.803655	2.4090776
8.112896291271687	5.843915	2.417419
8.130467151366968	5.870142	2.4228375
8.148038202945436	5.940397	2.4372928
8.165609446426497	5.9294815	2.4350526
8.183180882229594	5.963249	2.4419765
8.200752510774217	5.93365	2.4359086
8.218324332479893	5.995445	2.4485598
8.235896347766193	5.9683394	2.4430184
8.253468557052724	5.9775777	2.4449086
8.27104096075914	5.93712	2.4366207
8.288613559305137	5.973388	2.4440515
8.306186353110448	6.0194025	2.453447
8.32375934259485	6.0734186	2.4644306
8.341332528178162	6.0894184	2.4676747
8.358905910280246	6.0929604	2.4683924
8.376479489321003	6.0771046	2.4651785
8.394053265720377	6.1643486	2.4828107
8.411627239898356	6.167359	2.4834168
8.42920141227497	6.1769586	2.4853487
8.44677578327029	6.170891	2.4841278
8.464350353304427	6.1881914	2.4876075
8.48192512279754	6.1563687	2.481203
8.499500092169827	6.1949167	2.488959
8.51707526184153	6.135202	2.476934
8.534650632232934	6.099306	2.4696772
8.552226203764365	6.0789	2.4655426
8.569801976856192	6.1047783	2.470785
8.587377951928834	6.1129127	2.4724305
8.60495412940274	6.143518	2.4786122
8.622530509698416	6.129787	2.4758406
8.6401070932364	6.286655	2.5073202
8.657683880437283	6.433725	2.5364788
8.675260871721695	6.6122236	2.5714245
8.692838067510303	6.752153	2.5984905
8.710415468223834	6.8316846	2.613749
8.727993074283043	6.954297	2.6371002
8.745570886108737	6.985446	2.6429994
8.763148904121765	7.086534	2.6620545
8.78072712874302	7.121984	2.6687045
8.798305560393441	7.386233	2.7177625
8.815884199494006	7.5923104	2.7554147
8.833463046465745	7.7663445	2.7868161
8.851042101729728	7.7945976	2.7918806
8.86862136570707	7.9651136	2.8222532
8.886200838818924	8.124541	2.850358
8.903780521486505	8.283897	2.878176
8.921360414131055	8.362255	2.8917563
8.938940517173874	8.516278	2.9182663
8.956520831036297	8.645526	2.9403274
8.97410135613971	8.865937	2.9775724
8.99168209290554	8.986285	2.9977133
9.009263041755265	9.2972355	3.0491369
9.026844203110405	9.574383	3.09425
9.044425577392525	9.858206	3.139778
9.062007165023239	9.975328	3.1583743
9.079588966424197	10.244515	3.2007055
9.097170982017108	10.288105	3.2075076
9.11475321222372	11.171341	3.3423555
9.132335657465825	12.033589	3.4689465
9.149918318165264	12.126393	3.4822972
9.167501194743924	12.666634	3.5590215
9.18508428762374	12.394218	3.5205424
9.202667597226693	12.455024	3.5291677
9.220251123974803	12.154321	3.4863048
9.237834868290143	11.9426	3.4558067
9.255418830594836	11.796512	3.4346051
9.273003011311046	11.246719	3.353613
9.290587410860985	10.940308	3.3076136
9.308172029666911	10.24762	3.2011902
9.32575686815113	9.968444	3.1572843
9.343341926735997	8.78097	2.9632702
9.360927205843916	8.484591	2.912832
9.378512705897327	8.255746	2.8732815
9.396098427318728	7.951737	2.8198824
9.413684370530664	7.8989544	2.8105078
9.431270535955722	7.8739176	2.80605
9.448856924016539	7.829494	2.7981234
9.466443535135806	7.687307	2.7725992
9.484030369736251	7.634716	2.763099
9.501617428240658	7.605323	2.757775
9.519204711071852	7.6490464	2.765691
9.536792218652714	7.686614	2.7724743
9.55437995140617	7.6892586	2.7729511
9.571967909755191	7.7214513	2.77875
9.589556094122802	7.77994	2.7892544
9.60714450493207	7.8426547	2.800474
9.624733142606116	7.8951926	2.8098385
9.642322007568108	7.8970695	2.8101726
9.659911100241267	7.902122	2.8110714
9.677500421048851	7.932843	2.8165305
9.695089970414175	8.050267	2.8372993
9.712679748760609	8.084078	2.8432512
9.730269756511557	8.129952	2.8513072
9.747859994090492	8.164099	2.8572886
9.765450461920915	8.239387	2.870433
9.78304116042639	8.253963	2.8729713
9.800632090030527	8.202617	2.864021
9.81822325115699	8.1577425	2.8561761
9.835814644229481	8.164407	2.8573427
9.853406269671762	8.224711	2.8678758
9.870998127907646	8.263066	2.8745549
9.888590219360985	8.189981	2.8618143
9.906182544455698	8.234778	2.8696303
9.923775103615734	8.214052	2.8660169
9.941367897265108	8.292582	2.8796842
9.958960925827878	8.345075	2.8887842
9.97655418972816	8.30922	2.882572
9.994147689390106	8.230973	2.8689673
10.011741425237934	8.217622	2.8666394
10.029335397695904	8.21208	2.8656726
10.04692960718833	8.253183	2.8728354
10.06452405413958	8.302175	2.8813493
10.082118738974064	8.3255415	2.8854015
10.099713662116246	8.354238	2.89037
10.117308823990651	8.334161	2.8868947
10.134904225021844	8.262039	2.8743763
10.152499865634445	8.260969	2.87419
10.170095746253125	8.257931	2.8736615
10.18769186730261	8.222409	2.8674743
10.205288229207675	8.226011	2.8681023
10.222884832393145	8.18296	2.8605874
10.2404816772839	8.130119	2.8513365
10.258078764304868	8.183802	2.8607345
10.275676093881035	8.151301	2.8550484
10.293273666437438	8.130626	2.8514252
10.310871482399158	8.151098	2.855013
10.32846954219134	8.112452	2.8482366
10.346067846239173	8.194269	2.8625634
10.363666394967908	8.1471195	2.854316
10.38126518880283	8.125588	2.8505418
10.398864228169298	8.123458	2.850168
10.416463513492713	8.179142	2.85992
10.434063045198531	8.13191	2.8516505
10.451662823712262	8.12287	2.850065
10.469262849459467	8.113032	2.8483386
10.486863122865758	8.092459	2.8447247
10.504463644356806	8.119166	2.849415
10.522064414358338	8.072739	2.8412566
10.539665433296118	7.9558263	2.8206074
10.557266701595987	7.914695	2.8133068
10.574868219683818	7.772475	2.787916
10.592469987985552	7.679473	2.771186
10.610072006927185	7.5832295	2.7537665
10.627674276934751	7.498125	2.7382705
10.64527679843435	7.428107	2.7254553
10.662879571852143	7.303936	2.7025795
10.680482597614331	7.1659184	2.6769233
10.698085876147173	7.0731874	2.6595464
10.715689407876988	6.961649	2.6384938
10.733293193230146	6.9124823	2.62916
10.750897232633072	6.7799945	2.6038423
10.76850152651225	6.653617	2.5794606
10.786106075294207	6.6168466	2.572323
10.803710879405534	6.562477	2.5617332
10.821315939272877	6.43546	2.536821
10.83892125532294	6.317229	2.5134099
10.856526827982472	6.1936755	2.4887097
10.874132657678285	6.218919	2.493776
10.891738744837243	6.222844	2.4945629
10.909345089886271	6.1887326	2.4877164
10.926951693252343	6.124463	2.4747653
10.944558555362494	6.0533266	2.460351
10.96216567664381	5.9454074	2.4383206
10.979773057523436	5.939828	2.4371762
10.997380698428573	5.93037	2.435235
11.014988599786477	5.881808	2.4252439
11.032596762024461	5.7542768	2.3988073
11.050205185569892	5.620325	2.3707225
11.067813870850198	5.547696	2.3553548
11.085422818292859	5.4725327	2.3393445
11.10303202832541	5.340689	2.3109932
11.120641501375454	5.3164387	2.3057404
11.138251237870636	5.3436947	2.3116434
11.155861238238671	5.391367	2.3219318
11.173471502907317	5.353256	2.3137105
11.191082032304402	5.2488356	2.2910337
11.208692826857805	5.1611514	2.2718167
11.226303886995465	5.0593705	2.2493045
11.243915213145371	4.997337	2.2354724
11.261526805735578	4.9833508	2.232342
11.279138665194196	4.920693	2.2182634
11.296750791949393	4.8744516	2.2078161
11.314363186429393	4.7998824	2.1908634
11.331975849062479	4.744243	2.1781282
11.34958878027699	4.666302	2.1601624
11.36720198050133	4.598496	2.1444104
11.384815450163948	4.5608716	2.1356196
11.402429189693366	4.5233674	2.126821
11.420043199518153	4.5211277	2.1262944
11.437657480066942	63.485126	7.9677553
11.455272031768422	85.12889	9.226532
11.472886855051353	107.46116	10.366347
11.490501950344528	99.03645	9.951706
11.508117318076819	84.38184	9.185959
11.52573295867715	45.767914	6.7651987
11.543348872574514	4.1104994	2.0274367
11.560965060197946	4.086972	2.0216262
11.57858152197655	4.0454035	2.011319
11.59619825833949	4.0112762	2.0028172
11.613815269715985	3.971658	1.9929019
11.631432556535323	38.50602	6.205322
11.649050119226837	83.017456	9.111392
11.666667958219929	93.3629	9.662448
11.68428607394406	107.627754	10.37438
11.701904466828756	82.43852	9.079566
11.719523137303586	65.30407	8.081094
11.737142085798196	4.503875	2.1222334
11.754761312742286	3.6842008	1.9194272
11.772380818565619	3.7016175	1.9239588
11.790000603698015	3.6997354	1.9234697
11.80762066856935	3.5966077	1.8964725
11.825241013609572	3.4979787	1.8702884
11.842861639248683	3.4380245	1.8541911
11.860482545916748	3.4595861	1.8599963
11.878103734043883	3.5210443	1.8764446
11.895725204060282	3.5538864	1.8851755
11.91334695639619	3.5141273	1.8746005
11.930968991481919	3.3986602	1.8435456
11.948591309747824	3.3334243	1.8257668
11.966213911624347	3.3132968	1.8202463
11.98383679754198	3.3055158	1.8181077
12.001459967931268	3.2904146	1.81395
12.019083423222835	3.279956	1.811065
12.036707163847352	3.2281325	1.7967005
12.05433119023556	3.2211626	1.7947598
12.071955502818259	3.1961749	1.7877849
12.089580102026313	3.1957333	1.7876614
12.107204988290643	3.1719375	1.7809933
12.12483016204224	3.1815581	1.7836922
12.142455623712152	3.1743188	1.7816617
12.16008137373149	3.1789262	1.7829543
12.177707412531431	3.1251266	1.7678027
12.19533374054321	3.0837786	1.7560691
12.212960358198126	3.054049	1.7475837
12.230587265927545	3.048952	1.7461249
12.248214464162889	3.0101964	1.7349918
12.265841953335649	2.9743285	1.7246242
12.283469733877375	2.9504125	1.7176765
12.301097806219685	2.9470758	1.716705
12.31872617079425	2.947098	1.7167114
12.336354828032825	2.9153707	1.7074456
12.353983778367205	2.9057982	1.7046402
12.371613022229262	2.873701	1.6951994
12.389242560050928	2.8661773	1.6929789
12.406872392264201	2.8509438	1.6884738
12.424502519301143	2.8665097	1.693077
12.442132941593874	2.870432	1.6942348
12.459763659574586	2.8501987	1.6882532
12.477394673675532	2.8192046	1.6790487
12.49502598432903	2.8080888	1.6757354
12.51265759196746	2.805237	1.6748842
12.530289497023267	2.8068948	1.675379
12.547921699928967	2.8228486	1.6801335
12.565554201117134	2.8303373	1.6823606
12.583187001020404	2.7886474	1.6699244
12.600820100071486	2.7162225	1.6480967
12.618453498703152	2.694058	1.6413586
12.636087197348235	2.722117	1.6498839
12.65372119643964	2.755313	1.6599135
12.671355496410326	2.7853277	1.66893
12.68899009769333	2.8078198	1.675655
12.706625000721749	2.8045313	1.6746736
12.724260205928752	2.821161	1.6796312
12.741895713747551	2.8603299	1.6912509
12.759531524611454	2.9439507	1.7157944
12.777167638953818	2.9699192	1.7233454
12.794804057208072	2.9613805	1.7208662
12.812440779807702	3.001045	1.7323525
12.830077807186271	3.190044	1.7860694
12.847715139777405	3.253731	1.8038101
12.865352778014795	3.4307535	1.8522294
12.882990722332197	3.5471804	1.883396
12.90062897316344	3.6317797	1.9057229
12.918267530942412	3.7190292	1.9284785
12.935906396103071	3.5807803	1.892295
12.953545569079449	3.6848366	1.9195929
12.971185050305628	3.534237	1.8799566
12.988824840215775	3.5396585	1.8813981
13.006464939244115	3.52714	1.8780681
13.024105347824943	3.368119	1.8352436
13.041746066392617	3.4782305	1.8650014
13.05938709538157	3.3132143	1.8202237
13.077028435226296	3.2982817	1.8161172
13.094670086361363	3.2065558	1.7906859
13.112312049221401	3.107809	1.762898
13.129954324241112	3.0347013	1.7420394
13.147596911855258	2.872405	1.6948171
13.165239812498685	2.840177	1.6852825
13.182883026606293	2.7906075	1.6705111
13.200526554613058	2.756101	1.6601509
13.218170396954017	2.7433698	1.6563121
13.235814554064284	2.7277775	1.6515985
13.253459026379034	2.7266097	1.6512449
13.271103814333523	2.680171	1.6371228
13.288748918363058	2.679048	1.6367798
13.306394338903031	2.6897738	1.640053
13.32404007638889	2.6722763	1.6347098
13.341686131256164	2.6680217	1.633408
13.359332503940449	2.671789	1.6345608
13.376979194877402	2.6557233	1.629639
13.394626204502751	2.703092	1.6441083
13.412273533252307	2.7003345	1.6432694
13.429921181561937	2.70281	1.6440225
13.447569149867581	2.7045264	1.6445445
13.465217438605247	2.6912653	1.6405077
13.482866048211022	2.6591012	1.6306751
13.500514979121052	2.657383	1.6301482
13.518164231771568	2.65344	1.6289383
13.535813806598844	2.671457	1.6344593
13.553463704039254	2.6357346	1.6234945
13.571113924529229	2.6324294	1.6224763
13.588764468505275	2.6443994	1.626161
13.606415336403956	2.7042587	1.6444631
13.624066528661917	2.7211726	1.6495976
13.641718045715882	2.8012586	1.673696
13.659369888002635	2.8579109	1.6905357
13.67702205595903	2.9227383	1.7096018
13.694674550021993	2.9657037	1.7221218
13.712327370628532	2.9702258	1.7234343
13.729980518215713	3.0509713	1.746703
13.747633993220681	3.1058059	1.7623297
13.765287796080647	3.1603096	1.7777259
13.7829419272329	3.2201178	1.7944686
13.800596387114801	3.2289002	1.7969141
13.818251176163775	3.2317436	1.797705
13.835906294817324	3.2638721	1.8066189
13.853561743513023	3.332806	1.8255975
13.871217522688525	3.4224417	1.8499843
13.888873632781538	3.458097	1.8595959
13.906530074229858	3.4841213	1.8665801
13.92418684747135	3.4534278	1.85834
13.941843952943948	3.4213328	1.8496845
13.959501391085665	3.372288	1.836379
13.977159162334578	3.3285801	1.8244396
13.994817267128846	3.2930825	1.8146852
14.012475705906693	3.2413936	1.800387
14.030134479106424	3.1991057	1.7886044
14.047793587166414	3.1306176	1.7693552
14.065453030525108	3.0320537	1.7412794
14.083112809621026	2.9146488	1.7072343
14.100772924892766	2.8579075	1.6905347
14.118433376778997	2.853098	1.6891116
14.136094165718458	2.8225675	1.6800499
14.153755292149969	2.76502	1.6628349
14.171416756512416	2.683451	1.6381242
14.189078559244768	2.6001308	1.6124921
14.20674070078606	2.577411	1.6054317
14.224403181575408	2.5403562	1.5938494
14.242066002051999	2.5205822	1.5876342
14.259729162655093	2.49603	1.579883
14.277392663824022	2.4796567	1.5746926
14.295056505998208	2.459347	1.5682305
14.312720689617128	2.4592505	1.5681998
14.330385215120348	2.4281168	1.5582416
14.348050082947497	2.398318	1.5486504
14.3657152935383	2.3705423	1.5396565
14.383380847332528	2.3630438	1.5372195
14.401046744770051	2.3591173	1.5359418
14.418712986290798	2.3881485	1.5453635
14.436379572334793	2.3760488	1.5414437
14.454046503342123	2.3689203	1.5391297
14.471713779752946	2.3448288	1.5312834
14.489381402007504	2.322955	1.5241243
14.507049370546113	2.3515983	1.5334922
14.524717685809168	2.3653321	1.5379636
14.542386348237134	2.3637094	1.537436
14.560055358270553	2.363484	1.5373627
14.577724716350051	2.4045992	1.5506771
14.595394422916325	2.439164	1.5617822
14.61306447841015	2.46108	1.568783
14.63073488327237	2.4394863	1.5618855
14.648405637943917	2.4504602	1.5653946
14.6660767428658	2.4509168	1.5655404
14.683748198479094	2.5009232	1.5814307
14.701420005224954	2.535166	1.5922204
14.719092163544628	2.5928967	1.6102474
14.73676467387942	2.6113913	1.61598
14.754437536670727	2.6221173	1.6192954
14.772110752360014	2.6419237	1.6253996
14.78978432138882	2.6615553	1.6314274
14.807458244198777	2.6862576	1.6389806
14.82513252123159	2.6657836	1.6327227
14.842807152929028	2.6807675	1.6373049
14.860482139732962	2.6599727	1.6309422
14.87815748208531	2.6532745	1.6288875
14.8958331804281	2.6565545	1.629894
14.91350923520342	2.6539686	1.6291006
14.931185646853438	2.6914265	1.6405568
14.948862415820408	2.6950905	1.6416731
14.966539542546656	2.659782	1.6308838
14.98421702747459	2.6074905	1.6147726
15.001894871046696	2.598392	1.6119529
15.019573073705542	2.6422002	1.6254846
15.037251635893766	2.665302	1.6325753
15.054930558054092	2.6699026	1.6339836
15.072609840629323	2.6693008	1.6337996
15.090289484062351	2.7506652	1.658513
15.107969488796124	2.947537	1.7168392
15.125649855273691	3.2209425	1.7946985
15.14333058393817	3.6153464	1.9014064
15.161011675232768	4.193414	2.0477827
15.17869312960076	4.8344855	2.1987464
15.196374947485506	5.5411577	2.3539665
15.214057129330447	6.9039717	2.627541
15.231739675579114	9.038936	3.0064824
15.249422586675102	13.547824	3.6807368
15.267105863062092	17.954567	4.2372828
15.284789505183847	24.937891	4.9937854
15.302473513484218	29.724367	5.452006
15.320157888407127	33.88183	5.82081
15.337842630396578	33.120052	5.7550025
15.355527739896656	30.44608	5.5177965
15.37321321735153	23.732004	4.8715506
15.39089906320545	16.118126	4.0147386
15.408585277902748	10.31511	3.2117145
15.42627186188783	6.447883	2.5392683
15.443958815605198	4.626192	2.1508584
15.461646139499424	3.7947195	1.948004
15.479333834015168	3.3224144	1.8227491
15.497021899597165	2.989422	1.7289945
15.514710336690234	2.8236144	1.6803614
15.53239914573928	2.6766922	1.63606
15.550088327189297	2.604936	1.6139814
15.567777881485336	2.524602	1.5888996
15.58546780907256	2.5102055	1.5843629
15.6031581103962	2.5264933	1.5894947
15.620848785901568	2.527233	1.5897273
15.638539836034063	2.486568	1.5768856
15.656231261239173	2.4749327	1.5731919
15.673923061962451	2.4453392	1.563758
15.691615238649552	2.4789462	1.574467
15.709307791746202	2.4350865	1.5604764
15.727000721698221	2.4295177	1.558691
15.744694028951498	2.390054	1.54598
15.76238771395202	2.3836057	1.5438931
15.780081777145844	2.4084487	1.5519178
15.797776218979125	2.407441	1.5515931
15.815471039898094	2.4220254	1.5562857
15.833166240349064	2.4347692	1.5603747
15.850861820778437	2.4642863	1.5698045
15.868557781632699	2.4722342	1.572334
15.886254123358412	2.4885855	1.5775251
15.903950846402232	2.4879832	1.5773342
15.921647951210897	2.4636197	1.5695922
15.939345438231225	2.4989963	1.5808214
15.957043307910133	2.5352142	1.5922356
15.974741560694602	2.5421214	1.5944031
15.992440197031714	2.515882	1.5861533
16.01013921736862	2.5033035	1.5821831
16.02783862215259	2.4772737	1.5739357
16.045538411830933	2.4409885	1.5623664
16.06323858685107	2.418593	1.5551826
16.080939147660512	2.3929174	1.5469058
16.09864009470684	2.371125	1.5398458
16.11634142843774	2.4237013	1.5568241
16.134043149300954	2.43084	1.5591152
16.15174525774433	2.4215689	1.5561391
16.169447754215817	2.3888378	1.5455866
16.18715063916342	2.4036124	1.5503588
16.204853913035244	2.4054446	1.5509496
16.222557576279478	2.415694	1.5542504
16.240261629344403	22.398424	4.7326975
16.257966072678386	42.938824	6.552772
16.275670906729868	38.02051	6.1660776
16.293376131947387	2.502581	1.5819547
16.31108174877957	2.5360343	1.5924932
16.328787757675133	2.5772033	1.6053671
16.34649415908287	2.5607116	1.6002223
16.364200953451657	2.603833	1.6136397
16.38190814123048	2.6371155	1.6239198
16.39961572286839	2.6665473	1.6329566
16.41732369881455	2.6913075	1.6405205
16.43503206951817	2.7332754	1.653262
16.45274083542859	2.733945	1.6534646
16.47044999699522	2.7514226	1.6587412
16.488159554667558	2.8093321	1.6761062
16.505869508895184	2.8692002	1.6938714
16.523579860127786	2.941568	1.7150999
16.541290608815117	3.0031638	1.7329639
16.559001755407035	3.1030242	1.7615403
16.57671330035348	3.196084	1.7877595
16.59442524410448	3.2803886	1.8111843
16.61213758711015	3.394121	1.842314
16.629850329820705	3.465469	1.861577
16.647563472686436	3.5427432	1.8822176
16.665277016157724	3.5270581	1.8780464
16.682990960685053	3.507797	1.8729113
16.70070530671898	3.4091594	1.846391
16.718420054710155	3.412266	1.847232
16.736135205109335	3.4748263	1.8640887
16.753850758367335	3.56986	1.8894073
16.771566714935087	3.6607182	1.9133004
16.789283075263597	3.7313974	1.9316826
16.80699983980398	3.8131454	1.9527277
16.82471700900741	3.8883576	1.9718919
16.84243458332518	3.94613	1.9864869
16.860152563208665	3.9710307	1.9927446
16.87787094910932	3.9688683	1.9922018
16.89558974147871	4.01519	2.003794
16.913308940768466	4.093806	2.0233154
16.931028547430333	4.1792417	2.0443194
16.94874856191613	4.225097	2.055504
16.966468984677785	4.328127	2.080415
16.98418981616729	4.428441	2.104386
17.00191105683676	4.4625635	2.112478
17.019632707138374	4.4650564	2.113068
17.03735476752442	4.4981666	2.1208882
17.05507723844728	4.5595684	2.1353147
17.072800120359403	4.5674367	2.1371562
17.090523413713353	4.568232	2.1373422
17.108247118961785	4.573032	2.138465
17.125971236557437	4.576542	2.1392853
17.143695766953133	4.626746	2.1509871
17.161420710601806	4.683212	2.164073
17.179146067956477	4.682654	2.163944
17.19687183947025	4.6738625	2.1619117
17.21459802559634	4.6656885	2.1600206
17.232324626788028	4.6425257	2.154652
17.25005164349871	4.594746	2.1435359
17.267779076181863	4.5924463	2.1429994
17.285506925291074	4.6322217	2.1522596
17.30323519127999	4.6205397	2.149544
17.320963874602384	4.5796614	2.1400144
17.33869297571211	4.520827	2.1262236
17.356422495063114	4.450014	2.1095057
17.37415243310944	4.427084	2.1040637
17.391882790305218	4.4300566	2.10477
17.40961356710468	4.4716325	2.1146235
17.42734476396215	4.5172887	2.1253915
17.445076381332044	4.611828	2.1475167
17.462808419668868	4.697071	2.1672728
17.48054087942723	4.790626	2.1887498
17.498273761061835	4.8801975	2.209117
17.51600706502747	5.196095	2.2794945
17.533740791779024	5.8093734	2.4102643
17.551474941771485	6.7287006	2.5939739
17.56920951545993	8.571101	2.9276443
17.586944513299528	9.780643	3.127402
17.60467993574556	12.71628	3.5659893
17.622415783253373	15.540244	3.9421117
17.64015205627843	18.317995	4.2799525
17.657888755276293	20.487871	4.526353
17.675625880702604	21.893623	4.6790624
17.69336343301311	20.38701	4.5151978
17.71110141266366	18.320864	4.2802877
17.728839820110178	15.674949	3.95916
17.746578655808705	12.507606	3.5366094
17.764317920215372	10.418303	3.2277396
17.7820576137864	8.726831	2.954121
17.79979773697811	7.382013	2.716986
17.81753829024692	6.1041083	2.4706495
17.835279274049356	5.3264027	2.3079
17.85302068884201	4.5207925	2.1262155
17.870762535081607	4.086457	2.0214987
17.888504813224934	3.8551614	1.9634565
17.90624752372891	3.7733538	1.9425123
17.923990667050536	3.6318808	1.9057494
17.941734243646895	3.5199716	1.8761587
17.959478253975185	3.4553242	1.8588502
17.9772226984927	3.4759965	1.8644024
17.994967577656833	3.4331992	1.8528894
18.01271289192506	3.3841028	1.8395932
18.030458641754965	3.3141057	1.8204685
18.04820482760425	3.2572217	1.8047775
18.06595144993067	3.25613	1.804475
18.083698509192125	3.2569282	1.8046962
18.101446005846576	3.266541	1.8073574
18.119193940352105	3.2508452	1.80301
18.136942313166887	3.193689	1.7870896
18.1546911247492	3.1428323	1.7728035
18.1724403755574	3.1423678	1.7726725
18.19019006604997	3.1446114	1.7733052
18.207940196685467	3.085193	1.7564718
18.225690767922575	3.0606987	1.7494853
18.243441780220046	3.026225	1.7396048
18.261193234036764	3.0470886	1.7455912
18.278945129831676	3.0508263	1.7466614
18.29669746806386	3.0365942	1.7425826
18.314450249192483	3.0143316	1.736183
18.3322034736768	3.0174148	1.7370708
18.349957141976184	3.044067	1.7447255
18.3677112545501	3.0639527	1.750415
18.385465811858108	3.020287	1.7378973
18.403220814359884	2.9968958	1.7311544
18.420976262515172	3.0057676	1.7337149
18.43873215678387	3.064149	1.750471
18.456488497625923	3.1390083	1.7717247
18.474245285501407	3.2514424	1.8031757
18.492002520870486	3.3604233	1.8331457
18.50976020419343	3.4421287	1.8552974
18.527518335930615	3.7373993	1.9332354
18.545276916542516	4.2183166	2.053854
18.563035946489688	4.3173513	2.0778236
18.580795426232832	4.714821	2.1713638
18.598555356232698	4.649715	2.1563199
18.616315736950185	4.9559054	2.2261863
18.63407656884626	4.6468234	2.1556492
18.65183785238201	4.8112464	2.1934555
18.669599588018617	4.62114	2.1496837
18.68736177621737	4.6016083	2.1451359
18.705124417439652	4.5993657	2.1446133
18.72288751214696	4.4073415	2.099367
18.740651060800886	4.5351467	2.1295884
18.758415063863115	4.239091	2.0589054
18.77617952179546	4.422442	2.1029603
18.793944435059814	4.1808476	2.044712
18.811709804118184	4.1820164	2.044998
18.829475629432675	4.174841	2.0432427
18.8472419114655	3.9994543	1.9998635
18.86500865067897	4.0557456	2.0138881
18.88277584753551	3.7150774	1.9274536
18.90054350249763	3.7109709	1.926388
18.918311616027957	3.4293585	1.8518528
18.936080188589226	3.275424	1.8098133
18.953849220644265	3.040395	1.7436728
18.971618712656007	2.8865464	1.6989839
18.9893886650875	2.8265831	1.6812445
19.007159078401887	7.949775	2.8195345
19.024929953062408	32.824223	5.729243
19.042701289532435	32.7733	5.724797
19.060473088275405	25.32345	5.032241
19.07824534975489	2.5476134	1.5961245
19.096018074434568	2.531043	1.5909252
19.113791262778197	2.5843709	1.6075978
19.13156491524966	2.572107	1.603779
19.149339032312945	2.5651066	1.601595
19.167113614432136	2.5736108	1.6042477
19.184888662071433	2.581364	1.6066624
19.202664175695123	2.5821345	1.6069021
19.220440155767623	2.585528	1.6079577
19.238216602753447	2.5646083	1.6014395
19.2559935171172	2.535312	1.5922663
19.27377089932361	2.5048692	1.5826778
19.291548749837514	2.5072887	1.5834421
19.309327069123835	2.490514	1.5781362
19.32710585764763	2.4760706	1.5735536
19.344885115874032	2.5062585	1.5831167
19.362664844268313	2.5014231	1.5815887
19.380445043295822	2.5182717	1.5869063
19.39822571342203	2.4836981	1.5759753
19.41600685511252	2.467796	1.570922
19.43378846883297	2.421615	1.5561539
19.451570555049173	2.4303818	1.5589682
19.469353114227037	2.4313204	1.5592692
19.48713614683254	2.4712884	1.5720332
19.50491965333182	2.4862866	1.5767963
19.52270363419109	2.5052106	1.5827857
19.540488089876686	2.507338	1.5834576
19.55827302085503	2.4966745	1.5800868
19.576058427592674	2.4905164	1.578137
19.593844310556282	2.466244	1.570428
19.611630670212598	2.469735	1.571539
19.629417507028506	2.4653542	1.5701447
19.64720482147098	2.4816053	1.5753112
19.6649926140071	2.4581234	1.5678403
19.682780885104084	2.451979	1.5658796
19.70056963522921	2.47088	1.5719033
19.718358864849908	2.5003927	1.581263
19.7361485744337	2.515417	1.5860066
19.753938764448215	2.4861991	1.5767685
19.771729435361202	2.488554	1.5775151
19.789520587640506	2.5008416	1.5814049
19.807312221754092	2.5616007	1.6005001
19.825104338170043	2.5623636	1.6007384
19.842896937356517	2.5831969	1.6072327
19.860690019781824	2.5587368	1.5996052
19.87848358591436	2.5233119	1.5884936
19.896277636222635	2.5101109	1.584333
19.914072171175278	2.486508	1.5768665
19.931867191241015	2.4744575	1.5730408
19.94966269688869	2.5018315	1.5817178
19.967458688587264	2.4893615	1.5777711
19.985255166805807	2.458503	1.5679615
20.00305213201348	2.4638798	1.5696751
20.020849584679578	2.4944746	1.5793906
20.038647525273507	2.5205777	1.5876328
20.05644595426477	2.4699404	1.5716044
20.07424487212299	2.4171388	1.554715
20.092044279317903	2.419363	1.5554302
20.109844176319353	2.4220843	1.5563047
20.127644563597304	2.4234025	1.5567281
20.145445441621817	2.4316092	1.5593618
20.16324681086307	2.4618587	1.5690311
20.181048671791373	2.4680343	1.5709978
20.198851024877122	2.4440699	1.5633521
20.216653870590836	2.4007313	1.5494293
20.234457209403146	2.3669453	1.538488
20.252261041784802	2.36737	1.538626
20.270065368206662	2.393025	1.5469404
20.287870189139685	2.3688307	1.5391006
20.305675505054968	2.343836	1.5309592
20.323481316423702	2.341459	1.5301827
20.341287623717207	2.3554957	1.5347624
20.359094427406884	2.349067	1.5326666
20.376901727964288	2.3657568	1.5381017
20.39470952586107	2.3407273	1.5299436
20.41251782156899	2.2994485	1.5163933
20.430326615559935	2.2832263	1.5110348
20.448135908305886	2.3151774	1.5215707
20.465945700278965	2.314932	1.5214901
20.483755991951384	2.3410306	1.5300426
20.50156678379548	2.3449047	1.5313082
20.519378076283708	2.3371632	1.5287783
20.537189869888635	2.3149774	1.521505
20.55500216508294	2.3039	1.5178603
20.572814962339415	2.2893128	1.5130476
20.59062826213098	2.3233585	1.5242567
20.60844206493066	2.344053	1.53103
20.626256371211593	2.3349695	1.5280607
20.644071181447032	2.2994454	1.5163922
20.66188649611036	2.2885597	1.5127987
20.67970231567506	2.2631838	1.5043882
20.697518640614742	2.246034	1.4986774
20.715335471403122	2.2684321	1.5061315
20.73315280851404	2.297187	1.5156474
20.750970652421447	2.3322723	1.5271779
20.768789003599412	2.3355992	1.5282667
20.786607862522136	2.3159423	1.521822
20.8044272296639	2.3131475	1.5209036
20.82224710549913	2.294705	1.5148283
20.84006749050237	2.2786696	1.5095263
20.857888385148268	3.8047407	1.9505744
20.8757097899116	45.939095	6.7778387
20.893531705267254	64.81731	8.05092
20.911354131690224	83.840965	9.156471
20.92917706965566	69.11103	8.313305
20.94700051963877	50.17222	7.083235
20.96482448211493	29.38943	5.4212017
20.982648957559622	4.0973544	2.0241923
21.00047394644843	2.2158983	1.4885894
21.01829944925707	2.2346282	1.4948673
21.036125466461375	2.2266576	1.492199
21.053951998537297	2.218384	1.4894241
21.071779045960906	2.253631	1.5012099
21.089606609208378	2.2515404	1.5005134
21.10743468875603	2.2285771	1.492842
21.12526328508028	2.2175627	1.4891483
21.143092398657675	2.2187536	1.4895481
21.16092202996488	2.1795962	1.4763455
21.17875217947867	2.1469631	1.4652519
21.19658284767596	2.1452992	1.464684
21.21441403503377	2.16752	1.47225
21.232245742029225	2.1748705	1.4747442
21.2500779691396	2.1872907	1.4789492
21.26791071684227	2.2078233	1.4858745
21.28574398561475	2.2045755	1.4847813
21.30357777593465	2.1751802	1.4748492
21.321412088279704	2.166461	1.4718903
21.339246923127792	2.1904895	1.4800303
21.357082280956888	2.1918314	1.4804835
21.3749181622451	2.1740217	1.4744564
21.392754567470647	2.1397002	1.4627714
21.41059149711187	2.1489177	1.4659187
21.42842895164726	2.1326518	1.4603602
21.446266931555378	2.1227846	1.456978
21.464105437314945	2.1201563	1.4560757
21.481944469404798	2.1309211	1.4597675
21.49978402830388	2.1176362	1.45521
21.51762411449127	2.0830762	1.4432867
21.53546472844617	2.0916247	1.4462451
21.553305870647876	2.1025362	1.4500124
21.571147541575865	2.085641	1.4441748
21.58898974170967	2.0478804	1.4310417
21.60683247152899	2.019014	1.4209201
21.62467573151363	2.0189033	1.4208812
21.642519522143523	2.0209355	1.4215962
21.660363843898722	2.02569	1.4232674
21.6782086972594	2.0664585	1.4375181
21.696054082705864	2.060852	1.4355668
21.713900000718535	2.0413342	1.4287527
21.73174645177795	2.0206852	1.4215081
21.749593436364794	2.0036545	1.415505
21.767440954959845	1.9801593	1.4071814
21.785289008044032	1.9793625	1.4068981
21.803137596098388	1.9909049	1.4109943
21.820986719604086	1.9862447	1.4093419
21.838836379042412	1.9835931	1.4084009
21.85668657489478	1.9946464	1.4123195
21.87453730764273	2.0092285	1.4174726
21.892388577767914	2.0154557	1.4196675
21.91024038575213	1.9993825	1.4139953
21.928092732077285	1.9802374	1.407209
21.945945617225426	1.9648979	1.4017482
21.963799041678694	1.9818728	1.4077901
21.981653005919398	31.27436	5.5923486
21.999507510429943	78.04619	8.834375
22.01736255569286	73.02374	8.545393
22.035218142190818	4.1755733	2.043422
22.05307427040661	2.0175045	1.4203888
22.07093094082315	1.9947442	1.4123541
22.088788153923474	1.9667919	1.4024236
22.106645910190746	1.9656414	1.4020133
22.12450421010827	1.9923357	1.4115012
22.142363054159464	1.9990766	1.413887
22.16022244282787	1.9915668	1.4112288
22.178082376597164	1.9751893	1.4054143
22.195942855951145	1.9714072	1.4040681
22.213803881373742	1.9909995	1.4110278
22.231665453349002	2.0136435	1.4190291
22.24952757236111	1.991372	1.4111598
22.26739023889438	1.9467465	1.3952585
22.28525345343323	1.9144189	1.3836253
22.30311721646225	1.9253829	1.3875817
22.320981528466113	1.9400375	1.3928523
22.33884638992964	1.9613903	1.4004965
22.356711801337788	1.9693048	1.4033192
22.37457776317561	1.9840884	1.4085767
22.392444275928337	2.0011287	1.4146125
22.410311340081282	2.0126827	1.4186904
22.428178956119904	2.0141232	1.419198
22.446047124529805	1.9598489	1.399946
22.46391584579669	1.9368546	1.3917092
22.481785120406414	1.927133	1.3882122
22.49965494884496	1.9484103	1.3958547
22.51752533159841	1.9477518	1.3956188
22.53539626915302	1.9315865	1.3898153
22.553267761995137	1.9311943	1.3896742
22.571139810611264	1.9710882	1.4039545
22.589012415488025	2.0221665	1.422029
22.60688557711216	2.027928	1.4240534
22.624759295970566	1.984635	1.4087707
22.642633572550263	1.9413451	1.3933216
22.660508407338362	1.9170924	1.3845911
22.67838380082217	1.931117	1.3896464
22.696259753489077	1.9440745	1.3943007
22.714136265826614	1.9494056	1.3962111
22.73201333832246	1.9639816	1.4014213
22.74989097146439	1.9614834	1.4005296
22.76776916574035	1.9490117	1.3960701
22.785647921638393	1.9165133	1.3843819
22.803527239646712	1.9227645	1.3866378
22.82140712025363	1.9216021	1.3862187
22.839287563947593	1.9211944	1.3860716
22.85716857121719	1.8662316	1.3661009
22.875050142551135	1.855919	1.3623211
22.892932278438277	1.8685033	1.366932
22.910814979367604	1.9116764	1.3826339
22.928698245828222	1.9098415	1.3819702
22.946582078309387	1.891678	1.3753829
22.96446647730047	1.8732408	1.3686639
22.98235144329098	1.8771288	1.3700836
23.000236976770562	1.8661047	1.3660544
23.018123078229	1.8975722	1.3775239
23.03600974815619	1.8984698	1.3778497
23.053896987042194	1.8710111	1.3678491
23.071784795377173	1.8553513	1.3621128
23.08967317365145	1.8888762	1.3743639
23.10756212235546	1.8900526	1.3747919
23.125451641979787	1.8901354	1.3748219
23.143341733015134	1.9317516	1.3898747
23.161232395952357	1.9328967	1.3902866
23.179123631282426	1.936507	1.3915844
23.197015439496468	1.9395719	1.3926852
23.214907821085717	1.9454104	1.3947797
23.23280077654157	1.9428954	1.3938779
23.250694306355538	1.9093024	1.381775
23.268588411019277	1.8914262	1.3752913
23.28648309102458	1.9292834	1.3889865
23.304378346863356	1.9582638	1.3993797
23.322274179027676	1.9410477	1.3932148
23.340170588009723	1.9304429	1.3894038
23.358067574301852	1.925639	1.387674
23.37596513839651	1.941293	1.3933029
23.39386328078629	1.928058	1.3885453
23.411762001963947	1.9406253	1.3930633
23.429661302422353	1.9303446	1.3893684
23.4475611826545	1.9264572	1.3879688
23.46546164315356	1.8919425	1.375479
23.48336268441279	1.8763076	1.3697838
23.501264306925638	1.9101783	1.382092
23.51916651118564	1.9214361	1.3861587
23.537069297686497	1.9495801	1.3962736
23.554972666922037	1.9904878	1.4108465
23.57287661938623	1.9847612	1.4088155
23.59078115557318	1.9411311	1.3932449
23.608686275977128	1.9110711	1.3824149
23.62659198109246	1.9314774	1.389776
23.6444982714137	1.9488903	1.3960266
23.66240514743549	1.9439174	1.3942444
23.68031260965263	1.9461886	1.3950586
23.698220658560068	1.9284999	1.3887044
23.716129294652845	1.9093863	1.3818054
23.7340385184262	1.8969496	1.377298
23.75194833037546	1.9206041	1.3858587
23.769858730996123	1.9326668	1.3902038
23.78776972078382	1.8995993	1.3782595
23.80568130023431	1.9046191	1.3800794
23.823593469843495	1.9331896	1.390392
23.841506230107424	1.9745009	1.4051694
23.859419581522275	1.9099702	1.3820167
23.87733352458438	1.8754834	1.3694829
23.89524805979019	1.8935231	1.3760535
23.913163187636318	1.9608328	1.4002974
23.931078908619508	2.005654	1.4162111
23.948995223236633	2.022858	1.4222721
23.966912131984735	2.0450094	1.4300382
23.98482963536096	2.0177739	1.4204837
24.002747733862616	1.9920932	1.4114153
24.020666427987155	1.9835558	1.4083877
24.038585718232156	2.0125086	1.4186292
24.056505605095353	1.9817244	1.4077374
24.074426089074617	1.9876264	1.409832
24.092347170667946	1.9888433	1.4102635
24.110268850373515	2.0155635	1.4197054
24.128191128689586	2.0592778	1.4350184
24.146114006114626	2.116508	1.4548223
24.164037483147187	2.1454325	1.4647294
24.181961560286005	2.09157	1.4462261
24.199886238029926	1.9929736	1.4117272
24.21781151687797	2.0009453	1.4145478
24.235737397329274	2.0125465	1.4186425
24.253663879883135	2.0509799	1.4321243
24.271590965038975	2.0406191	1.4285024
24.289518653296376	2.0323179	1.4255939
24.30744694515505	2.0659287	1.437334
24.32537584111486	2.083582	1.4434618
24.34330534167581	2.065411	1.4371538
24.361235447338046	2.0195034	1.4210923
24.379166158601876	2.0268304	1.4236679
24.39709747596772	2.0497487	1.4316944
24.41502939993615	2.03092	1.4251035
24.432961931007917	2.0251684	1.4230841
24.450895069683856	1.9988937	1.4138224
24.468828816465	1.9661152	1.4021823
24.4867631718525	1.9341282	1.3907293
24.504698136347656	1.9241875	1.3871509
24.52263371045192	1.9229566	1.3867071
24.540569894666874	1.9702969	1.4036726
24.558506689494266	1.9870553	1.4096295
24.57644409543597	2.0144103	1.4192992
24.594382112994012	2.0114558	1.418258
24.61232074267057	2.0191338	1.4209623
24.630259984967953	2.001329	1.4146833
24.64819984038863	1.9986287	1.4137287
24.66614030943522	1.9934222	1.411886
24.684081392610462	1.9876353	1.4098352
24.702023090417274	2.0169191	1.4201828
24.7199654033587	2.0054991	1.4161564
24.737908331937927	2.0409381	1.428614
24.755851876658305	2.0398648	1.4282384
24.773796038023324	2.0385606	1.4277817
24.79174081653661	2.0391564	1.4279903
24.809686212701962	2.067826	1.4379938
24.827632227023294	2.0854697	1.4441155
24.8455788600047	2.0804586	1.4423795
24.8635261121504	2.1074467	1.4517047
24.88147398396475	2.096563	1.4479513
24.899422475952303	2.1526263	1.4671831
24.917371588617698	2.183212	1.4775697
24.935321322465768	2.2338762	1.4946158
24.953271678001478	2.2944999	1.5147606
24.97122265572994	2.508324	1.5837688
24.989174256156414	2.8453493	1.6868163
25.00712647978632	3.4791212	1.8652402
25.02507932712521	4.4529595	2.1102037
25.043032798678798	5.955976	2.440487
25.060986894952933	7.580822	2.7533293
25.078941616453637	9.104215	3.0173192
25.096896963687055	9.972759	3.1579676
25.114852937159508	10.576493	3.2521522
25.132809537377444	10.281634	3.2064989
25.150766764847468	9.616017	3.1009703
25.168724620076347	8.342905	2.8884087
25.186683103570985	7.1838875	2.6802776
25.204642215838426	5.862107	2.4211788
25.222601957385894	4.761415	2.1820667
25.24056232872074	3.7152557	1.9274999
25.25852333035048	2.9646423	1.7218137
25.276484962782778	2.4630258	1.569403
25.294447226525435	2.1960022	1.4818914
25.312410122086423	2.0840425	1.4436213
25.330373649973843	2.0211396	1.4216679
25.348337810695988	1.985427	1.4090518
25.366302604761245	1.990107	1.4107115
25.384268032678207	1.9492918	1.3961704
25.40223409495558	1.9195664	1.3854842
25.420200792102257	1.9316667	1.3898442
25.438168124627246	1.941625	1.393422
25.45613609303974	1.9398509	1.3927853
25.474104697849057	1.939584	1.3926895
25.492073939564698	1.9292274	1.3889663
25.510043818696285	1.9455979	1.3948469
25.528014335753614	1.9437804	1.3941953
25.54598549124664	1.9238393	1.3870254
25.56395728568544	1.898001	1.3776796
25.58192971958028	1.8900061	1.3747749
25.59990279344156	1.8029131	1.342726
25.617876507779833	1.7861445	1.3364671
25.635850863105826	1.8244398	1.3507183
25.653825859930386	1.86922	1.3671942
25.671801498764548	1.8496851	1.3600312
25.68977778011949	1.8678982	1.3667108
25.707754704506524	1.8386073	1.3559525
25.725732272437153	1.8562301	1.3624353
25.743710484423012	1.8396944	1.3563533
25.761689340975888	1.8448977	1.3582702
25.77966884260774	1.772835	1.3314785
25.797648989830662	1.8090771	1.3450193
25.815629783156922	1.81711	1.3480022
25.83361122309895	1.8533189	1.3613665
25.85159331016929	1.8549451	1.3619636
25.869576044880695	1.8515468	1.3607155
25.887559427746034	1.8227482	1.3500919
25.90554345927836	1.8009545	1.3419964
25.92352813999086	1.7747362	1.3321922
25.94151347039689	1.7865855	1.3366321
25.959499451009965	1.8125736	1.3463185
25.97748608234374	1.8234874	1.3503656
25.995473364912062	1.8228465	1.3501283
26.013461299228904	1.8253155	1.3510424
26.03144988580839	1.8544886	1.3617961
26.04943912516483	1.9139013	1.3834382
26.067429017812675	1.9343182	1.3907977
26.085419564266537	1.8928088	1.3757939
26.103410765041186	1.8756196	1.3695326
26.12140262065155	1.8588547	1.3633982
26.139395131612723	1.8125038	1.3462926
26.157388298439948	1.7595105	1.3264654
26.17538212164861	1.7773092	1.3331575
26.193376601754295	1.8003528	1.3417723
26.211371739272714	1.7768724	1.3329937
26.229367534719746	1.7741426	1.3319695
26.247363988611433	1.7573265	1.3256419
26.26536110146397	1.7706802	1.330669
26.283358873793727	1.7826232	1.3351492
26.301357306117204	1.8121859	1.3461745
26.319356398951104	1.8650004	1.3656502
26.33735615281224	1.8372843	1.3554646
26.35535656821762	1.8174518	1.348129
26.373357645684404	1.8435503	1.357774
26.39135938572991	1.8628969	1.3648798
26.409361788871614	1.8347687	1.3545363
26.427364855627165	1.8400441	1.3564823
26.445368586514352	1.8564991	1.362534
26.46337298205115	1.8471885	1.3591131
26.48137804275568	1.81479	1.3471414
26.499383769146217	1.8366034	1.3552134
26.517390161741215	1.8308401	1.3530854
26.53539722105928	1.8049839	1.3434969
26.553404947619182	1.7734629	1.3317143
26.571413341939856	1.7984657	1.3410689
26.589422404540397	1.8137925	1.3467711
26.60743213594006	1.8491864	1.3598479
26.62544253665827	1.8375973	1.3555801
26.64345360721459	1.8130875	1.3465093
26.66146534812879	1.7864567	1.336584
26.679477759920758	1.8501987	1.3602201
26.69749084311057	1.864538	1.3654809
26.71550459821847	1.8336736	1.354132
26.733519025764842	1.7975589	1.3407308
26.751534126270258	1.8296337	1.3526396
26.769549900255434	1.7972046	1.3405986
26.787566348241267	1.7732421	1.3316314
26.80558347074881	1.7829	1.3352528
26.823601268299267	1.8252336	1.3510121
26.841619741414036	1.8271072	1.3517053
26.85963889061465	1.8039408	1.3431087
26.877658716422832	1.841893	1.3571635
26.89567921936045	1.8531088	1.3612894
26.913700399949544	1.8726304	1.3684409
26.93172225871233	1.8327757	1.3538004
26.949744796171174	1.7961732	1.3402139
26.967768012848605	1.7821141	1.3349584
26.98579190926733	1.7717255	1.3310618
27.003816485950225	1.7993598	1.3414022
27.021841743420318	1.8266612	1.3515403
27.039867682200814	1.812744	1.3463818
27.057894302815072	1.7811466	1.334596
27.07592160578664	1.7906009	1.3381333
27.0939495916392	1.8720376	1.3682243
27.111978260896635	1.8870759	1.3737088
27.13000761408296	1.7913707	1.338421
27.148037651722397	1.7445005	1.3207954
27.166068374339304	1.7939605	1.3393881
27.184099782458215	1.8639313	1.3652587
27.20213187660384	1.8840314	1.3726002
27.22016465730105	1.8388071	1.3560262
27.23819812507487	1.8623958	1.3646963
27.256232280450533	1.8474878	1.3592232
27.274267123953383	1.8293788	1.3525453
27.292302656108987	1.8021336	1.3424357
27.31033887744306	1.8583429	1.3632106
27.32837578848146	1.8448795	1.3582634
27.34641338975026	1.8807464	1.3714031
27.364451681775673	1.8963585	1.3770833
27.382490665084074	1.8876352	1.3739123
27.400530340202046	1.831024	1.3531533
27.41857070765629	1.8151655	1.3472807
27.436611767973726	1.825885	1.3512532
27.454653521681404	1.8328015	1.35381
27.472695969306564	1.7661837	1.3289784
27.490739111376627	1.7441291	1.3206547
27.508782948419153	1.7381587	1.3183925
27.526827480961902	1.783372	1.3354295
27.54487270953279	1.7680006	1.3296618
27.562918634659898	1.7756444	1.3325331
27.580965256871508	1.8104477	1.3455287
27.599012576696026	1.8089383	1.3449677
27.617060594662068	1.8381594	1.3557874
27.63510931129842	1.8484448	1.3595753
27.65315872713401	1.8598017	1.3637455
27.67120884269797	1.8261647	1.3513566
27.68925965851958	1.8485826	1.3596259
27.707311175128307	1.8401488	1.3565209
27.725363393053787	1.8448	1.3582342
27.74341631282583	1.8368939	1.3553206
27.7614699349744	1.9016947	1.3790195
27.77952426002968	2.138747	1.4624455
27.797579288521973	2.2647142	1.5048968
27.815635020981784	2.69579	1.6418861
27.83369145793979	2.7484994	1.6578599
27.85174859992682	2.5366385	1.5926828
27.869806447473923	2.4064043	1.5512589
27.887865001112267	2.071856	1.4393944
27.905924261373233	1.9107132	1.3822855
27.92398422878836	1.8654965	1.3658319
27.94204490388936	1.8214574	1.3496138
27.96010628720813	1.823287	1.3502915
27.978168379276728	1.8590783	1.3634802
27.9962311806274	1.8779426	1.3703804
28.014294691792568	1.8487619	1.3596919
28.0323589133048	1.8420066	1.3572054
28.050423845696887	1.8927444	1.3757704
28.068489489501758	1.9015266	1.3789585
28.086555845252523	1.8801423	1.3711828
28.104622913482487	1.8628758	1.3648721
28.122690694725115	1.8888596	1.3743579
28.14075918951405	1.8927069	1.3757569
28.15882839838312	1.8731389	1.3686266
28.176898321866304	1.9670954	1.4025317
28.1949689604978	1.9798383	1.4070673
28.213040314811945	1.9475899	1.3955607
28.23111238534327	1.8643621	1.3654164
28.249185172626493	1.8998072	1.378335
28.267258677196473	1.9893956	1.4104594
28.285332899588294	2.031356	1.4252565
28.303407840337172	1.9853342	1.4090189
28.321483499978545	1.9223243	1.3864791
28.33955987904799	1.9200528	1.3856597
28.357636978081285	1.9957451	1.4127084
28.37571479761439	1.9952512	1.4125336
28.393793338183425	2.0125706	1.418651
28.41187260032469	2.0662591	1.4374489
28.429952584574686	2.0775652	1.4413761
28.448033291470065	2.017562	1.4204091
28.46611472154769	1.9744791	1.4051616
28.484196875344566	2.019083	1.4209445
28.502279753397914	2.034194	1.4262518
28.52036335624511	2.022334	1.4220879
28.538447684423716	2.0059683	1.4163221
28.556532738471482	1.9891223	1.4103625
28.574618518926325	2.005433	1.4161332
28.59270502632635	2.073152	1.4398445
28.61079226120985	2.0615368	1.4358053
28.628880224115274	2.0649426	1.4369909
28.646968915581287	2.0971751	1.4481627
28.66505833614671	2.0695434	1.4385908
28.68314848635055	2.007067	1.4167099
28.701239366732004	2.0373216	1.4273478
28.71933097783044	2.0591245	1.434965
28.737423320185403	2.1543486	1.46777
28.75551639433665	2.2450366	1.4983447
28.773610200824074	2.2032034	1.4843192
28.791704740187793	2.1443832	1.4643712
28.80980001296809	2.1420257	1.4635661
28.827896019705413	2.150455	1.466443
28.845992760940433	2.1852357	1.4782543
28.86409023721397	2.2291234	1.493025
28.88218844906704	2.227707	1.4925505
28.900287397040845	2.2066097	1.4854661
28.918387081676755	2.2385275	1.496171
28.936487503516343	2.2633984	1.5044595
28.954588663101365	2.2518005	1.5006001
28.97269056097374	2.281789	1.5105592
28.990793197675597	2.2993407	1.5163577
29.00889657374923	2.2840927	1.5113215
29.027000689737125	2.2984722	1.5160713
29.04510554618196	2.370282	1.539572
29.06321114362659	2.400656	1.5494051
29.08131748261405	2.3734848	1.5406119
29.099424563687567	2.3903584	1.5460784
29.11753238739057	2.5038543	1.5823572
29.13564095426663	2.5724478	1.6038852
29.15375026485954	2.658711	1.6305554
29.171860319713275	2.673087	1.6349578
29.18997111937199	2.6736598	1.6351329
29.20808266438002	2.6917603	1.6406585
29.226194955281898	2.7958	1.6720645
29.244307992622335	2.8713536	1.6945069
29.26242177694624	2.8622558	1.6918203
29.2805363087987	2.786425	1.6692588
29.29865158872498	2.811755	1.6768289
29.316767617270557	2.8707042	1.6943152
29.334884394981064	2.9503639	1.7176623
29.353001922402367	3.0453677	1.7450982
29.37112020008047	3.092972	1.7586848
29.389239228561596	3.2067807	1.7907486
29.407359008392152	3.3204648	1.8222142
29.42547954011872	3.5409203	1.8817333
29.44360082428809	4.0006557	2.0001638
29.46172286144722	4.964208	2.2280502
29.479845652143283	6.5551953	2.5603116
29.497969196923606	9.347997	3.0574493
29.516093496335728	13.291837	3.6457973
29.5342185509274	17.074114	4.1320834
29.55234436124651	20.182667	4.492512
29.570470927841175	21.525389	4.6395464
29.588598251259686	21.42876	4.629121
29.60672633205055	19.811487	4.4510098
29.624855170762405	16.747166	4.09233
29.642984767944146	13.229193	3.6371958
29.66111512414481	9.729612	3.1192327
29.67924623991366	7.189035	2.6812375
29.697378115800138	5.321696	2.30688
29.71551075235387	4.30142	2.0739865
29.733644150124675	3.877029	1.9690173
29.751778309662576	3.6122663	1.9005963
29.769913231517766	3.4827116	1.8662025
29.78804891624066	3.3723288	1.8363901
29.806185364381818	3.3174863	1.8213968
29.82432257649206	3.3182242	1.8215994
29.842460553122333	3.349378	1.8301306
29.86059929482382	3.363291	1.8339278
29.878738802147872	3.3500154	1.8303047
29.896879075646048	3.3440833	1.8286835
29.915020115870114	3.3807697	1.838687
29.933161923371976	3.3836472	1.8394693
29.951304498703777	3.34536	1.8290325
29.969447842417857	3.205437	1.7903734
29.987591955066733	3.1175113	1.7656475
30.005736837203123	3.1264153	1.7681673
30.023882489379943	3.2165198	1.7934659
30.04202891215028	3.223541	1.7954222
30.060176106067455	3.2718093	1.8088143
30.078324071684946	3.281401	1.8114637
30.09647280955646	3.2370234	1.799173
30.114622320235863	3.1608412	1.7778754
30.132772604277257	3.1373456	1.7712554
30.1509236622349	3.0801194	1.7550269
30.16907549466328	3.0767422	1.7540644
30.18722810211705	3.1518016	1.7753314
30.205381485151097	3.1566858	1.7767065
30.22353564432045	3.142943	1.7728347
30.241690580180403	3.1821957	1.7838709
30.25984629328638	3.1257954	1.7679919
30.278002784194037	3.063493	1.7502837
30.296160053459246	3.0184324	1.7373636
30.314318101638033	2.971049	1.7236731
30.332476929286646	2.973729	1.7244503
30.35063653696153	2.9641109	1.7216593
30.368796925219307	2.9401646	1.7146908
30.386958094616844	2.9130945	1.706779
30.40512004571115	2.9416602	1.7151269
30.423282779059463	2.9006143	1.703119
30.441446295219233	2.8944674	1.7013134
30.459610594748067	2.9011455	1.703275
30.47777567820382	2.8789167	1.696737
30.495941546144504	2.896369	1.7018722
30.51410819912835	2.8640914	1.6923627
30.532275637713795	2.8505259	1.6883501
30.55044386245946	2.8856854	1.6987306
30.56861287392416	2.9011793	1.7032849
30.586782672666956	2.846612	1.6871905
30.604953259247047	2.8361175	1.6840776
30.623124634223885	2.8536735	1.689282
30.641296798157075	2.8873382	1.699217
30.659469751606462	2.7888026	1.6699709
30.677643495132074	2.7209806	1.6495395
30.695818029294152	2.7194815	1.649085
30.713993354653116	2.7842708	1.6686134
30.73216947176962	2.7822912	1.6680201
30.75034638120448	2.789773	1.6702614
30.768524083518756	2.823527	1.6803354
30.786702579273673	2.836745	1.684264
30.80488186903069	2.883804	1.6981767
30.82306195335144	3.0680082	1.7515731
30.841242832797782	3.3356402	1.8263735
30.85942450793176	3.5664084	1.8884937
30.877606979315637	3.9332945	1.9832535
30.895790247511883	4.350588	2.0858064
30.913974313083134	4.863115	2.2052472
30.932159176592283	5.2319813	2.2873526
30.95034483860237	5.504618	2.3461924
30.968531299676698	5.4945307	2.3440416
30.98671856037873	5.229604	2.2868328
31.00490662127215	4.8048077	2.191987
31.023095482920848	4.384676	2.0939617
31.04128514588892	3.8573227	1.9640068
31.059475610740662	3.314116	1.8204714
31.07766687804056	2.7777658	1.666663
31.09585894835335	2.5189044	1.5871056
31.11405182224393	2.390851	1.5462377
31.132245500277417	2.3696485	1.5393662
31.15043998301914	2.4305809	1.5590321
31.168635271034628	2.5315	1.5910689
31.18683136488964	2.6104946	1.6157025
31.20502826515008	2.5299585	1.5905843
31.223225972382135	2.4425354	1.5628613
31.241424487152155	2.437544	1.5612637
31.259623810026692	2.4645174	1.5698781
31.27782394157253	2.4739225	1.5728707
31.296024882356644	2.5224698	1.5882285
31.314226632946237	2.5824273	1.6069932
31.332429193908684	2.5231144	1.5884315
31.350632565811598	2.4280663	1.5582254
31.368836749222787	2.360324	1.5363345
31.387041744710295	2.4398775	1.5620108
31.40524755284232	2.5701888	1.6031809
31.423454174187317	2.6478055	1.6272079
31.441661609313922	2.558423	1.5995071
31.459869858791002	2.487316	1.5771227
31.478078923187628	2.423433	1.5567379
31.496288803073064	2.3967435	1.548142
31.514499499016807	2.345363	1.5314578
31.532711011588546	2.3477294	1.5322303
31.550923341358178	2.3809092	1.5430195
31.56913648889584	2.3957903	1.547834
31.587350454771844	2.3627796	1.5371336
31.605565239556732	2.3645968	1.5377246
31.62378084382127	2.3609834	1.5365492
31.641997268136382	2.3143942	1.5213133
31.660214513073274	2.3084934	1.5193727
31.67843257920331	2.3119593	1.5205128
31.6966514670981	2.3141983	1.5212489
31.71487117732944	2.3166087	1.522041
31.733091710469346	2.3243778	1.524591
31.751313067090052	2.346281	1.5317575
31.769535247764008	2.3162603	1.5219265
31.787758253063878	2.3304725	1.5265886
31.805982083562526	2.35059	1.5331634
31.824206739833024	2.2769344	1.5089514
31.84243222244869	2.2776651	1.5091935
31.860658531983013	2.2415047	1.4971656
31.878885669009737	2.197098	1.4822611
31.897113634102784	2.144239	1.464322
31.91534242783632	2.1913216	1.4803113
31.933572050784694	2.2628598	1.5042804
31.951802503522508	2.2501454	1.5000485
31.970033786624548	2.1296155	1.4593202
31.988265900665834	2.158282	1.4691093
32.006498846221575	2.211334	1.4870554
32.02473262386724	2.2691998	1.5063864
32.04296723417845	2.2348096	1.494928
32.0612026777311	2.1718576	1.4737223
32.07943895510129	2.1681397	1.4724604
32.097676066865304	2.178961	1.4761305
32.115914013599685	2.1527076	1.4672108
32.13415279588115	2.2119982	1.4872788
32.152392414286666	2.1567614	1.4685917
32.1706328693934	2.081642	1.4427897
32.18887416177875	2.0990224	1.4488003
32.20711629202032	2.125731	1.4579887
32.225359260695924	2.1509387	1.4666079
32.243603068383614	2.1406734	1.463104
32.26184771566166	2.1824944	1.4773268
32.28009320310852	2.1685417	1.4725969
32.2983395313029	2.1539693	1.4676408
32.31658670082372	2.1542106	1.4677229
32.33483471225012	2.170175	1.4731514
32.35308356616143	2.1257107	1.4579817
32.371333263137245	2.137734	1.4620992
32.38958380375734	2.1744094	1.4745879
32.407835188601744	2.2072973	1.4856976
32.42608741825067	2.185236	1.4782543
32.444340493284585	2.0802433	1.4423048
32.46259441428416	2.083929	1.443582
32.48084918183028	2.1376889	1.4620837
32.49910479650405	2.103283	1.4502699
32.51736125888683	2.0365534	1.4270786
32.53561856956014	2.078128	1.4415714
32.5538767291058	2.0916107	1.4462402
32.572135738105764	2.0351427	1.4265842
32.59039559714228	2.0385768	1.4277874
32.608656306797776	2.0254965	1.4231994
32.62691786765491	1.9444942	1.3944513
32.645180280296586	1.9969072	1.4131197
32.663443545305896	2.1167967	1.4549216
32.68170766326619	2.0568392	1.4341685
32.69997263476099	1.9327822	1.3902453
32.7182384603741	1.9096725	1.381909
32.7365051406895	1.9194393	1.3854383
32.75477267629144	1.9598011	1.3999289
32.77304106776434	1.8848778	1.3729085
32.79131031569289	1.9369149	1.3917309
32.809580420661966	1.9391481	1.392533
32.827851383256714	2.010144	1.4177954
32.84612320406245	2.0365434	1.4270751
32.86439588366476	2.0287018	1.424325
32.88266942264945	2.0074685	1.4168516
32.9009438216025	2.0007622	1.4144831
32.9192190811102	1.9845959	1.4087569
32.937495201758985	1.9587111	1.3995396
32.95577218413556	1.9822216	1.4079139
32.974050028826866	1.9491905	1.3961341
32.992328736420035	1.7979462	1.3408751
33.010608307502444	1.7173765	1.3104872
33.02888874266169	1.9145523	1.3836735
33.047170042485604	2.0540202	1.4331853
33.06545220756225	2.0123713	1.4185808
33.083735238479896	1.8802572	1.3712248
33.10201913582707	1.930795	1.3895304
33.12030390019248	1.9818274	1.4077739
33.138589532165135	2.0116658	1.4183321
33.15687603233419	1.9456452	1.3948638
33.17516340128909	1.8974789	1.37749
33.19345163961947	1.8365092	1.3551787
33.211740747915215	1.7650613	1.3285561
33.23003072676643	1.8431634	1.3576316
33.248321576763466	1.9313608	1.3897341
33.266613298496885	1.9182031	1.3849921
33.28490589255747	1.9201031	1.3856778
33.30319935953626	1.9795322	1.4069585
33.32149370002451	2.0477786	1.4310062
33.339788914613706	2.0488348	1.4313751
33.358085003895575	1.9917504	1.4112939
33.376381968462034	1.9963586	1.4129256
33.39467980890529	1.9496007	1.396281
33.41297852581774	1.9321471	1.3900169
33.43127811979204	1.921895	1.3863243
33.44957859142105	1.943811	1.3942063
33.467879941297866	1.9904119	1.4108195
33.486182170015844	2.002334	1.4150386
33.50448527816853	1.9077444	1.3812112
33.522789266349754	1.8936579	1.3761024
33.541094135153514	1.8736184	1.3688018
33.55939988517411	1.7747152	1.3321843
33.57770651700602	1.7915328	1.3384815
33.59601403124398	1.9040576	1.3798759
33.61432242848296	1.9255825	1.3876536
33.632631709318154	1.8933517	1.3759911
33.650941874344994	1.933703	1.3905765
33.66925292415916	1.9824896	1.408009
33.68756485935654	1.994484	1.412262
33.70587768053328	1.9859575	1.40924
33.724191388285746	1.9780934	1.406447
33.74250598321054	1.9397016	1.3927317
33.760821465904506	1.8782367	1.3704877
33.77913783696474	1.7899393	1.3378861
33.79745509698852	1.8161124	1.3476322
33.815773246573414	1.8749475	1.3692873
33.8340922863172	1.9104043	1.3821738
33.852412216817896	1.8992544	1.3781344
33.87073303867377	1.971744	1.404188
33.889054752483304	1.990593	1.4108838
33.907377358845245	1.8756225	1.3695337
33.92570085835853	1.8467038	1.3589348
33.94402525162239	1.8943001	1.3763357
33.96235053923627	1.9410962	1.3932322
33.980676721799824	2.127299	1.4585264
33.999003799912984	2.1482253	1.4656825
34.01733177417592	2.0250394	1.4230388
34.03566064518901	1.828303	1.3521476
34.0539904135529	1.8205848	1.3492905
34.07232107986846	1.8331391	1.3539346
34.090652644736785	1.9116101	1.3826098
34.108985108759235	1.9246202	1.3873068
34.12731847253742	1.8951709	1.3766521
34.14565273667313	1.9645486	1.4016236
34.16398790176847	2.0841014	1.4436418
34.18232396842574	2.086281	1.4443964
34.20066093724749	1.8477345	1.359314
34.21899880883651	1.7436309	1.3204662
34.23733758379583	1.7660123	1.3289139
34.25567726272874	1.7938781	1.3393574
34.27401784623872	1.9266006	1.3880204
34.29235933492957	2.0132165	1.4188786
34.31070172940526	1.9711511	1.4039769
34.32904503027003	1.897649	1.3775518
34.347389238128386	1.8960754	1.3769805
34.36573435358502	1.8550532	1.3620033
34.38408037724492	1.8673682	1.3665168
34.402427309713296	1.939106	1.3925178
34.42077515159559	2.0149183	1.4194782
34.43912390349752	2.1361015	1.4615408
34.45747356602499	2.102851	1.450121
34.47582413978423	2.0116315	1.41832
34.49417562538163	1.9694539	1.4033723
34.51252802342388	1.9798574	1.4070741
34.53088133451789	2.0710244	1.4391054
34.54923555927084	2.2364843	1.4954879
34.567590698290104	2.237109	1.4956968
34.58594675218336	2.1254907	1.4579062
34.6043037215585	2.029734	1.4246873
34.62266160702365	2.0240817	1.4227023
34.641020409187234	2.0344725	1.4263494
34.65938012865785	2.017684	1.420452
34.677740766044394	2.0274465	1.4238843
34.69610232195598	1.9945949	1.4123013
34.714464797002016	2.0317361	1.4253898
34.73282819179208	2.0612156	1.4356934
34.751192506936064	1.9782648	1.406508
34.76955774304408	2.033742	1.4260932
34.7879239007265	2.1750932	1.4748197
34.80629098059391	2.1160238	1.4546559
34.824658983257194	2.0240655	1.4226966
34.843027909327446	2.0859964	1.4442979
34.86139775941603	2.1443434	1.4643576
34.879768534134534	2.0409439	1.428616
34.89814023409483	1.9745933	1.4052023
34.91651285990901	2.0815375	1.4427534
34.93488641218944	2.056562	1.4340718
34.95326089154871	1.9284786	1.3886967
34.97163629859967	2.0642567	1.4367521
34.99001263395542	2.0804873	1.4423894
35.00838989822934	1.8194194	1.3488586
35.02676809203499	1.7670763	1.3293142
35.04514721598624	1.8049641	1.3434895
35.063527270697215	1.7175841	1.3105663
35.081908256782256	1.6569	1.2872063
35.10029017485597	1.8461056	1.3587147
35.11867302553321	2.0555644	1.4337239
35.137056809429104	2.1052942	1.4509633
35.155441527159006	1.9846587	1.4087791
35.173827179338524	1.9249029	1.3874087
35.19221376658354	1.9572897	1.3990318
35.21060128951017	2.0965602	1.4479504
35.2289897487348	2.1328645	1.460433
35.24737914487405	2.025419	1.4231721
35.26576947854479	1.9650766	1.4018118
35.28416075036418	1.9523664	1.397271
35.30255296094958	1.9625492	1.4009101
35.32094611091867	2.3093524	1.5196553
35.33934020088932	2.2743804	1.5081049
35.35773523147969	1.9613308	1.4004751
35.3761312033082	1.9048936	1.3801788
35.394528116993506	2.203195	1.4843163
35.41292597315452	2.1820014	1.4771599
35.431324772410434	1.8005419	1.3418428
35.449724515380666	1.8364376	1.3551522
35.46812520268491	2.026787	1.4236528
35.486526834943106	2.2232924	1.4910709
35.504929412775454	2.2366478	1.4955426
35.52333293680242	2.3355863	1.5282625
35.54173740764471	2.52152	1.5879295
35.560142825923286	2.346101	1.5316987
35.5785491922594	2.3688595	1.53911
35.59695650727454	2.4607027	1.5686626
35.61536477159042	2.0066895	1.4165767
