0.008763373481513119	0.3822274	0.6182454
0.026290120649546365	0.19633481	0.44309685
0.043816868432600686	0.13175425	0.36297968
0.06134361724069026	0.015320444	0.12377578
0.07887036748382949	0.0	0.0
0.0963971195720331	0.028871369	0.16991577
0.11392387391531617	0.046122964	0.21476258
0.1314506309236943	0.17271945	0.4155953
0.1489773910071836	0.22749616	0.47696558
0.16650415457580078	0.23506531	0.48483536
0.18403092203956356	0.19160423	0.4377262
0.20155769380849	0.15429774	0.3928075
0.2190844702925996	0.12262295	0.3501756
0.2366112519019124	0.1596764	0.3995953
0.2541380390464497	0.1472015	0.38366848
0.27166483213623416	0.13578396	0.36848876
0.28919163158128947	0.1656396	0.40698844
0.3067184377916406	0.12880272	0.35889095
0.324245251177314	0.15504126	0.39375278
0.34177207214833777	0.15012091	0.3874544
0.3592989011147415	0.1282714	0.35814998
0.37682573848655654	0.113190666	0.3364382
0.39435258467381573	0.09125274	0.3020807
0.41187944008655414	0.14197284	0.37679285
0.42940630513480854	0.18957023	0.43539664
0.446933180228618	0.20483284	0.45258462
0.4644600657780234	0.19535233	0.4419868
0.48198696219306775	0.13157433	0.36273175
0.49951386988379676	0.15926535	0.39908063
0.5170407892602581	0.15876117	0.39844847
0.5345677207325025	0.16702533	0.40868732
0.5520946647105822	0.19382389	0.44025436
0.5696216216045534	0.1737515	0.4168351
0.5871485918244737	0.17664817	0.42029533
0.6046755757804043	0.18074964	0.4251466
0.6222025738824094	0.16285478	0.40355268
0.6397295865405557	0.12877141	0.35884732
0.6572566141649129	0.13155633	0.36270696
0.6747836571655547	0.13699646	0.37013033
0.6923107159525568	0.1667219	0.40831593
0.7098377909359992	0.1410025	0.375503
0.7273648825259653	0.12655796	0.35574985
0.7448919911325411	0.14956975	0.38674247
0.762419117165817	0.19224472	0.43845722
0.7799462610358868	0.18417172	0.42915234
0.7974734231528482	0.17894283	0.42301634
0.8150006039268024	0.19681185	0.4436348
0.8325278037678551	0.22244714	0.47164303
0.8500550230861152	0.2364033	0.48621324
0.8675822622916969	0.2067575	0.45470595
0.8851095217947171	0.22763407	0.47711012
0.9026368020052984	0.23086724	0.48048645
0.9201641033335665	0.23351032	0.48322904
0.9376914261896523	0.23996212	0.48985928
0.9552187709836915	0.2462176	0.49620318
0.9727461381258234	0.2306265	0.48023587
0.990273528026193	0.22527319	0.47462952
1.0078009410949496	0.2427821	0.49272925
1.0253283777422473	0.27525342	0.524646
1.0428558383782454	0.3186725	0.5645109
1.0603833234131086	0.3252206	0.57028115
1.0779108332570058	0.332815	0.5769012
1.0954383683201119	0.28755713	0.53624356
1.112965929012607	0.30792588	0.5549107
1.1304935157446763	0.40167478	0.63377815
1.1480211289265108	0.4735328	0.6881372
1.1655487689683062	1.4725865	1.2135018
1.1830764362802655	1.8235625	1.3503934
1.200604131272596	2.2676494	1.5058717
1.2181318543555117	2.386765	1.5449159
1.235659605939232	2.3164494	1.5219886
1.253187386433982	3.8948207	1.97353
1.270715196249994	6.3122454	2.5124183
1.2882430357975057	11.797392	3.4347332
1.3057709054867608	16.510342	4.063292
1.3232988057280106	22.515793	4.745081
1.3408267369315112	27.412796	5.235723
1.358354699507526	30.883911	5.5573297
1.3758826938663256	34.539253	5.8770103
1.3934107204181858	36.568233	6.0471673
1.410938779573391	37.43247	6.118208
1.4284668717422309	38.229813	6.1830263
1.4459949973350033	38.23371	6.1833415
1.4635231567620117	38.19916	6.180547
1.4810513504335687	37.03419	6.0855722
1.4985795787599925	36.218952	6.0182185
1.5161078421516088	35.69377	5.9744263
1.5336361410187505	34.80025	5.8991737
1.5511644757717598	34.94953	5.911813
1.5686928468209842	35.558117	5.963063
1.58622125457678	36.455532	6.037842
1.6037496994495108	37.756954	6.1446686
1.621278181849548	37.850853	6.1523046
1.6388067021872719	38.782715	6.2275767
1.6563352608730693	38.199722	6.1805925
1.673863858317336	37.170082	6.0967274
1.6913924949304753	35.8383	5.98651
1.7089211711228998	34.6482	5.8862724
1.7264498873050296	33.953045	5.8269243
1.7439786438872935	32.887466	5.7347593
1.7615074412801288	32.40036	5.6921315
1.779036279893981	31.555729	5.617449
1.796565160139305	30.74467	5.544788
1.814094082426564	30.017471	5.4788203
1.8316230471662298	29.477957	5.4293604
1.849152054768784	28.590214	5.3469815
1.8666811056447168	28.059607	5.297132
1.8842102002045273	27.234428	5.218662
1.901739338858724	26.40926	5.138994
1.9192685220178245	25.586155	5.0582757
1.9367977500923557	24.451189	4.944814
1.9543270234928547	24.110662	4.910261
1.971856342629867	24.073948	4.906521
1.9893857079139496	23.71775	4.870087
2.006915119755667	23.361494	4.833373
2.0244445785655945	22.557777	4.7495027
2.0419740847543175	22.032928	4.6939244
2.0595036387324317	21.543684	4.6415176
2.0770332409105414	20.678865	4.547402
2.094562891699263	20.195126	4.493899
2.1120925915092217	19.512045	4.417244
2.129622340751053	19.30827	4.394118
2.1471521398354043	187.67099	13.6993065
2.1646819891729323	444.10684	21.073843
2.182211889174303	440.433	20.986496
2.1997418402501974	452.90448	21.281553
2.2172718428113023	432.7478	20.802591
2.234801897268317	320.6051	17.905449
2.2523320040319548	17.034824	4.1273265
2.269862163512935	16.835993	4.1031685
2.287392376121992	16.656462	4.081233
2.304922642269869	16.446619	4.0554433
2.322452962367322	16.055574	4.006941
2.3399833368251164	15.715805	3.9643164
2.357513766054032	15.381826	3.9219673
2.3750442504648586	15.045991	3.8789163
2.3925747904683963	14.827113	3.850599
2.410105386475459	14.757225	3.8415134
2.4276360388968707	14.5221815	3.810798
2.445166748143469	14.341028	3.786955
2.4626975146261025	13.95072	3.7350662
2.4802283387556323	13.735693	3.7061696
2.4977592209429305	13.624203	3.6910977
2.5152901615988825	13.378646	3.6576831
2.5328211611343865	13.127193	3.623147
2.5503522199603523	12.976946	3.6023529
2.5678833384877024	12.631124	3.5540292
2.5854145171273712	12.136785	3.4837887
2.6029457562903064	11.997072	3.463679
2.620477056387469	11.884197	3.4473464
2.6380084178298326	11.843836	3.4414876
2.655539841028383	11.544439	3.3977108
2.673071326394119	11.214508	3.3488069
2.6906028743380523	10.985375	3.3144193
2.708134485271211	10.831451	3.291117
2.7256661596046325	10.759803	3.2802138
2.743197897749369	10.584943	3.2534509
2.760729700116486	10.489169	3.2386987
2.778261567117063	10.24539	3.2008421
2.795793499162193	10.137156	3.18389
2.8133254966629817	10.210846	3.1954415
2.830857560030551	10.049331	3.170068
2.8483896896760337	9.872762	3.142095
2.865921886010578	9.682034	3.1115966
2.883454149445347	9.50782	3.0834754
2.9009864803915177	9.449943	3.074076
2.91851887926028	9.343783	3.0567603
2.9360513464628384	9.257238	3.042571
2.953583882410413	9.113317	3.018827
2.9711164875142373	8.983055	2.9971745
2.9886491621855606	8.699303	2.9494581
3.0061819068356455	8.515989	2.9182167
3.023714721875769	8.437454	2.9047296
3.041247607717225	8.413311	2.9005709
3.0587805647713213	8.336451	2.8872912
3.0763135934493806	8.243265	2.8711088
3.0938466941627407	8.158914	2.8563812
3.1113798673227544	8.099171	2.845904
3.1289131133407904	8.100861	2.8462012
3.1464464326282315	7.9910192	2.8268392
3.1639798255964786	7.877241	2.8066423
3.1815132926569443	7.6881037	2.772743
3.1990468342210603	7.5960755	2.7560978
3.216580450700272	7.516222	2.7415729
3.2341141425060416	7.557835	2.7491517
3.251647910049847	7.506901	2.7398725
3.2691817537431813	7.3612995	2.7131715
3.286715673997555	7.237649	2.6902878
3.3042496712244938	7.1657176	2.6768858
3.32178374583554	7.1208887	2.6684992
3.339317898242251	7.0652876	2.6580608
3.3568521288562034	6.9062133	2.6279676
3.3743864380889876	6.7731194	2.6025217
3.3919208263522127	6.583257	2.565786
3.4094552940575023	6.5463815	2.5585897
3.4269898416164972	6.4013844	2.5300958
3.444524469440858	6.3602157	2.521947
3.4620591779422587	6.451959	2.5400708
3.479593967532391	6.4868865	2.5469368
3.4971288386229658	6.4999104	2.5494921
3.5146637916257086	6.45593	2.5408523
3.5321988269523628	6.36439	2.5227742
3.5497339450146903	6.2848463	2.5069597
3.5672691462244708	6.3161554	2.5131962
3.5848044309934988	6.284984	2.506987
3.60233979973359	6.3174067	2.5134451
3.619875252856575	6.3562174	2.521154
3.6374107907743034	6.409061	2.5316124
3.6549464138986427	6.493916	2.5483162
3.6724821226414788	6.444407	2.5385838
3.690017917414714	6.3628592	2.522471
3.7075537986302702	6.3143015	2.5128274
3.7250897667000857	6.2632084	2.5026402
3.7426258220361235	6.3821445	2.5262907
3.7601619650503553	6.7019978	2.5888216
3.777698196154779	7.2608123	2.6945894
3.7952345157614067	8.474214	2.9110503
3.8127709242822716	9.254469	3.042116
3.830307422129425	11.2426815	3.353011
3.847844009714936	29.957605	5.4733543
3.8653806874508954	97.48472	9.873435
3.882917455749409	96.83588	9.840522
3.900454315022606	96.73326	9.835307
3.917991265682631	41.355846	6.430851
3.9355283081416506	10.969384	3.312006
3.9530654428118495	8.758256	2.959435
3.970602670105433	7.438115	2.7272909
3.9881399904346244	6.4925737	2.548053
4.005677404211669	6.396109	2.529053
4.023214911848827	6.315571	2.51308
4.0407525137583855	6.2512875	2.5002575
4.058290210352644	6.3348284	2.5169084
4.075828002043927	6.319323	2.5138264
4.0933658892445814	6.3765974	2.5251925
4.110903872366966	6.2937217	2.508729
4.128441951823468	6.219484	2.4938893
4.145980128026488	6.2130523	2.4925995
4.163518401388452	6.1363683	2.4771695
4.181056772321807	6.1367664	2.4772499
4.1985952412390155	6.1166325	2.4731827
4.216133808552567	6.203307	2.490644
4.233672474674966	6.276122	2.505219
4.251211240018741	6.4805517	2.5456927
4.268750104996445	6.6650276	2.5816715
4.286289070020643	7.5850716	2.7541008
4.303828135503928	9.160794	3.0266805
4.3213673018589125	29.311584	5.414017
4.3389065694982305	90.5275	9.514594
4.356445938834537	165.80215	12.876418
4.3739854102805085	171.76718	13.105998
4.391524984248844	172.68765	13.1410675
4.409064661152262	136.73132	11.693217
4.426604441403504	96.87627	9.842574
4.444144325415337	75.84047	8.708643
4.461684313600543	21.99852	4.690258
4.47922440637193	22.473192	4.74059
4.496764604142329	20.731943	4.5532346
4.5143049073245916	18.840313	4.340543
4.531845316331589	16.559206	4.0693007
4.5493858315762195	13.672002	3.697567
4.566926453471405	11.358287	3.3702056
4.584467182430081	9.496333	3.081612
4.602008018865218	8.326753	2.8856113
4.619548963189798	7.574295	2.7521436
4.637090015816834	7.0198746	2.6495047
4.654631177159353	6.758354	2.5996835
4.672172447630417	6.604986	2.5700169
4.689713827643102	6.422704	2.5343056
4.7072553176105085	6.135921	2.4770792
4.724796917945764	5.965159	2.4423676
4.742338629062015	5.791938	2.4066446
4.759880451372434	5.647231	2.3763905
4.777422385290215	5.6184773	2.3703327
4.794964431228581	5.5388393	2.353474
4.812506589600768	5.5525007	2.3563745
4.830048860820047	5.535802	2.3528285
4.847591245299709	5.551463	2.3561542
4.8651337434530655	5.5911217	2.3645554
4.882676355693457	5.5946293	2.3652968
4.900219082434242	5.6097	2.3684807
4.917761924088813	5.547488	2.3553107
4.935304881070575	5.529421	2.3514721
4.952847953792969	5.586844	2.3636506
4.970391142669449	5.5641174	2.358838
4.9879344481135055	5.528788	2.3513374
5.005477870538642	5.521944	2.3498816
5.023021410358394	5.5657425	2.3591826
5.040565067986324	5.5717554	2.3604567
5.05810884383601	5.5325303	2.352133
5.075652738321066	5.380092	2.3195026
5.09319675185512	5.2630486	2.2941334
5.110740884851836	5.2182264	2.2843437
5.128285137724894	5.203031	2.2810154
5.145829510888007	5.2920117	2.3004372
5.163374004754908	5.3072896	2.3037555
5.1809186197393595	5.301806	2.302565
5.198463356255145	5.3206787	2.3066597
5.216008214716077	5.37363	2.318109
5.233553195535998	5.3365817	2.3101044
5.251098299128764	5.2615643	2.29381
5.268643525908272	5.243386	2.289844
5.286188876288432	5.186993	2.277497
5.3037343506831895	5.3144403	2.305307
5.32127994950651	5.3586464	2.3148751
5.3388256731723915	5.3202314	2.3065627
5.356371522094851	5.2232814	2.28545
5.373917496687938	5.0768642	2.2531898
5.391463597365729	5.067606	2.2511344
5.40900982454232	5.143763	2.2679865
5.426556178631843	5.1388245	2.2668974
5.444102660048449	5.137864	2.2666857
5.4616492692063225	5.1330285	2.2656188
5.479196006519669	5.1959615	2.2794652
5.496742872402727	5.2112265	2.2828112
5.514289867269756	5.1095614	2.260434
5.531836991535049	5.098713	2.258033
5.549384245612924	5.1535892	2.2701519
5.566931629917724	5.2151403	2.2836683
5.584479144863822	5.19946	2.2802324
5.6020267908656205	5.1476083	2.268834
5.619574568337545	5.19809	2.279932
5.637122477694054	5.227273	2.286323
5.654670519349629	5.259533	2.2933671
5.672218693718784	5.1680365	2.2733316
5.689767001216059	5.11984	2.2627063
5.707315442256021	5.068574	2.2513494
5.724864017253266	5.108972	2.2603035
5.7424127266224225	5.116654	2.2620022
5.75996157077814	5.142164	2.2676342
5.777510550135105	5.1649666	2.2726562
5.795059665108022	5.2642903	2.294404
5.812608916111639	5.33047	2.3087811
5.830158303560715	5.471018	2.3390207
5.847707827870055	5.454073	2.3353956
5.86525748945448	5.44849	2.3342001
5.8828072887288485	5.5312204	2.3518546
5.900357226108044	5.5564365	2.3572094
5.917907302006979	5.6889486	2.3851516
5.9354575168406	6.2330565	2.496609
5.9530078710238765	6.803427	2.608338
5.970558364971812	7.341558	2.709531
5.988108999099438	7.668339	2.7691765
6.005659773821818	8.1729	2.8588285
6.023210689554039	7.9390283	2.8176281
6.040761746711227	8.339108	2.8877513
6.058312945708531	7.7685695	2.7872155
6.075864286961132	7.3052654	2.7028255
6.093415770884244	6.667524	2.582155
6.1109673978931065	6.1111083	2.4720657
6.128519168402993	5.5466104	2.3551242
6.146071082829204	5.409943	2.3259284
6.163623141587075	5.263484	2.2942283
6.181175345091969	5.1874046	2.2775874
6.198727693759281	5.13651	2.266387
6.216280188004435	5.1190767	2.2625377
6.233832828242885	5.1069674	2.25986
6.251385614890126	5.1562614	2.2707403
6.268938548361669	5.1807046	2.2761161
6.286491629073067	5.144582	2.268167
6.304044857439898	5.1681433	2.273355
6.321598233877777	5.047131	2.246582
6.339151758802344	5.075953	2.2529876
6.356705432629277	5.0386395	2.2446914
6.37425925577428	5.012078	2.2387671
6.391813228653095	4.970475	2.2294562
6.409367351681486	5.032504	2.2433243
6.426921625275259	5.068112	2.2512467
6.44447604985025	5.089998	2.2561023
6.46203062582232	5.0525403	2.2477856
6.47958535360737	5.012968	2.2389657
6.497140233621328	5.0233245	2.2412775
6.514695266280161	4.996466	2.2352777
6.532250451999859	5.0044465	2.237062
6.549805791196454	4.9548593	2.2259514
6.567361284286002	4.9502964	2.2249262
6.584916931684597	4.9377666	2.2221086
6.602472733808367	4.931855	2.220778
6.6200286910734665	4.958511	2.2267714
6.637584803896092	5.047558	2.2466772
6.655141072692462	5.075762	2.2529452
6.672697497878842	5.0456953	2.2462626
6.690254079871514	4.956965	2.2264242
6.707810819086808	4.923659	2.218932
6.725367715941078	4.9646163	2.2281418
6.742924770850719	4.9891815	2.2336476
6.760481984232151	4.960744	2.2272727
6.778039356501836	5.00731	2.237702
6.795596888076266	5.0082736	2.2379172
6.813154579371963	5.030629	2.2429063
6.830712430805492	4.9777946	2.2310972
6.84827044279344	4.954614	2.2258964
6.865828615752445	4.926572	2.2195883
6.883386950099159	4.9389105	2.2223659
6.900945446250287	5.004645	2.2371063
6.918504104622553	5.0614324	2.2497628
6.936062925632727	5.0817785	2.25428
6.953621909697607	5.1239033	2.2636042
6.971181057234028	5.1419225	2.2675807
6.988740368658859	5.117616	2.262215
7.006299844389007	5.145703	2.2684143
7.023859484841407	5.28652	2.2992435
7.041419290433036	5.459589	2.3365762
7.058979261580902	5.5917344	2.3646848
7.0765393987020495	5.7517576	2.3982823
7.094099702213559	6.0198874	2.4535458
7.111660172532549	6.360998	2.5221019
7.129220810076164	6.7141294	2.5911636
7.146781615261595	7.340015	2.7092462
7.16434258850606	7.5742083	2.752128
7.181903730226821	8.098501	2.8457866
7.1994650408411704	8.190395	2.8618867
7.217026520766437	8.301733	2.8812728
7.234588170419983	8.449161	2.906744
7.252149990219215	8.457584	2.9081926
7.269711980581568	8.462817	2.9090922
7.2872741419245175	8.241958	2.870881
7.304836474665574	7.8458104	2.8010373
7.322398979222286	7.5161457	2.741559
7.339961656012233	7.1550703	2.6748962
7.357524505453039	6.765966	2.601147
7.375087527962357	6.4591417	2.541484
7.392650723957886	6.197104	2.4893982
7.410214093857353	5.872872	2.4234009
7.427777638078528	5.673114	2.38183
7.445341357039213	5.5439186	2.3545527
7.4629052511572525	5.473813	2.3396182
7.480469320850524	5.387285	2.3210526
7.498033566536948	5.262738	2.294066
7.5155979886344735	5.206498	2.2817752
7.5331625875610975	5.1303077	2.2650182
7.550727363734844	5.121058	2.2629755
7.568292317573788	5.09285	2.2567344
7.585857449496025	5.121323	2.263034
7.603422759919705	5.155614	2.2705977
7.620988249263007	5.243707	2.2899141
7.638553917944147	5.20952	2.2824373
7.656119766381391	5.2351837	2.2880523
7.673685794993023	5.2551093	2.2924025
7.691252004197388	5.3116283	2.304697
7.70881839441285	5.335379	2.309844
7.726384966057826	5.314326	2.305282
7.743951719550762	5.296766	2.3014703
7.761518655310149	5.2971168	2.3015466
7.779085773754511	5.2938747	2.3008423
7.796653075302419	5.2980256	2.301744
7.814220560372475	5.330737	2.3088388
7.831788229383323	5.334212	2.3095913
7.8493560827536495	5.347777	2.312526
7.866924120902174	5.393468	2.322384
7.884492344247663	5.4377646	2.3319016
7.9020607532089135	5.4781694	2.340549
7.919629348204771	5.4071045	2.325318
7.937198129654115	5.377423	2.318927
7.954767097975865	5.3771024	2.318858
7.972336253588986	5.452131	2.3349798
7.989905596912472	5.5500298	2.3558502
8.007475128365371	5.588173	2.3639317
8.025044848366756	5.5652275	2.3590734
8.042614757335754	5.57937	2.3620691
8.060184855691523	5.614165	2.369423
8.07775514385327	5.7626677	2.4005556
8.095325622240228	5.8807335	2.4250224
8.112896291271687	5.956177	2.4405282
8.130467151366968	5.999028	2.4492915
8.148038202945436	6.011892	2.451916
8.165609446426497	6.0319977	2.4560125
8.183180882229594	6.0743966	2.4646292
8.200752510774217	6.0326676	2.4561489
8.218324332479893	5.993772	2.448218
8.235896347766193	5.9626093	2.4418454
8.253468557052724	5.992543	2.447967
8.27104096075914	6.056487	2.460993
8.288613559305137	6.186798	2.4873276
8.306186353110448	6.2133203	2.4926534
8.32375934259485	6.2855816	2.5071063
8.341332528178162	6.2644725	2.5028927
8.358905910280246	6.304253	2.510827
8.376479489321003	6.2920494	2.5083957
8.394053265720377	6.3631363	2.5225258
8.411627239898356	6.3403187	2.517999
8.42920141227497	6.3301787	2.5159845
8.44677578327029	6.2998576	2.5099518
8.464350353304427	6.2648964	2.5029776
8.48192512279754	6.245141	2.499028
8.499500092169827	6.186192	2.4872057
8.51707526184153	6.151576	2.480237
8.534650632232934	6.158396	2.4816115
8.552226203764365	6.1954255	2.489061
8.569801976856192	6.2117524	2.4923387
8.587377951928834	6.261792	2.5023572
8.60495412940274	6.2759013	2.5051749
8.622530509698416	6.3169465	2.5133536
8.6401070932364	6.4439206	2.538488
8.657683880437283	6.596472	2.5683599
8.675260871721695	6.77014	2.6019492
8.692838067510303	6.923509	2.631256
8.710415468223834	7.0370555	2.652745
8.727993074283043	7.12818	2.6698651
8.745570886108737	7.170916	2.6778567
8.763148904121765	7.2547483	2.693464
8.78072712874302	7.2590804	2.694268
8.798305560393441	7.4871607	2.7362676
8.815884199494006	7.6042056	2.7575724
8.833463046465745	7.774284	2.7882402
8.851042101729728	7.8898935	2.8088953
8.86862136570707	8.196783	2.8630025
8.886200838818924	8.351739	2.8899376
8.903780521486505	8.373423	2.8936868
8.921360414131055	8.421628	2.9020042
8.938940517173874	8.632668	2.9381402
8.956520831036297	8.828999	2.971363
8.97410135613971	9.160759	3.0266745
8.99168209290554	9.304936	3.0503993
9.009263041755265	9.54562	3.0895987
9.026844203110405	9.714188	3.116759
9.044425577392525	9.850194	3.138502
9.062007165023239	10.0063505	3.1632817
9.079588966424197	10.28978	3.2077687
9.097170982017108	10.467798	3.2353976
9.11475321222372	11.50583	3.3920245
9.132335657465825	12.440644	3.5271297
9.149918318165264	12.487005	3.5336957
9.167501194743924	12.879399	3.588788
9.18508428762374	12.549128	3.5424747
9.202667597226693	12.564986	3.5447125
9.220251123974803	12.164575	3.487775
9.237834868290143	11.84569	3.4417567
9.255418830594836	11.685721	3.4184384
9.273003011311046	11.197092	3.3462057
9.290587410860985	10.944198	3.3082016
9.308172029666911	10.391645	3.2236075
9.32575686815113	10.099025	3.1778963
9.343341926735997	8.814257	2.9688814
9.360927205843916	8.528875	2.9204237
9.378512705897327	8.333878	2.8868456
9.396098427318728	8.213711	2.8659573
9.413684370530664	8.065731	2.840023
9.431270535955722	7.9348	2.8168778
9.448856924016539	7.8674116	2.8048906
9.466443535135806	7.815096	2.7955494
9.484030369736251	7.797231	2.7923522
9.501617428240658	7.7120175	2.777052
9.519204711071852	7.7572465	2.7851834
9.536792218652714	7.7936187	2.7917054
9.55437995140617	7.8645988	2.8043892
9.571967909755191	7.862032	2.8039315
9.589556094122802	7.8671355	2.8048415
9.60714450493207	7.9137187	2.8131332
9.624733142606116	7.900187	2.8107271
9.642322007568108	7.9094234	2.8123696
9.659911100241267	7.900932	2.8108597
9.677500421048851	8.018133	2.831631
9.695089970414175	8.110627	2.8479164
9.712679748760609	8.131673	2.8516088
9.730269756511557	8.156092	2.8558872
9.747859994090492	8.101367	2.84629
9.765450461920915	8.140856	2.8532186
9.78304116042639	8.205299	2.8644893
9.800632090030527	8.24782	2.8719018
9.81822325115699	8.248999	2.872107
9.835814644229481	8.253848	2.872951
9.853406269671762	8.232254	2.8691905
9.870998127907646	8.279061	2.8773358
9.888590219360985	8.255738	2.87328
9.906182544455698	8.248406	2.8720038
9.923775103615734	8.308841	2.882506
9.941367897265108	8.317226	2.8839602
9.958960925827878	8.338745	2.8876886
9.97655418972816	8.296609	2.8803835
9.994147689390106	8.311843	2.8830266
10.011741425237934	8.368662	2.892864
10.029335397695904	8.395438	2.8974884
10.04692960718833	8.428925	2.903261
10.06452405413958	8.398219	2.897968
10.082118738974064	8.356989	2.8908458
10.099713662116246	8.318965	2.8842616
10.117308823990651	8.29718	2.8804827
10.134904225021844	8.321924	2.8847744
10.152499865634445	8.381438	2.8950713
10.170095746253125	8.343904	2.8885815
10.18769186730261	8.284091	2.8782096
10.205288229207675	8.248615	2.8720403
10.222884832393145	8.286326	2.878598
10.2404816772839	8.254616	2.8730848
10.258078764304868	8.1988125	2.8633568
10.275676093881035	8.145108	2.8539636
10.293273666437438	8.09606	2.8453577
10.310871482399158	8.123849	2.8502367
10.32846954219134	8.053762	2.8379152
10.346067846239173	8.070504	2.8408632
10.363666394967908	8.116212	2.8488965
10.38126518880283	8.179633	2.8600059
10.398864228169298	8.294443	2.8800075
10.416463513492713	8.352349	2.890043
10.434063045198531	8.319701	2.8843892
10.451662823712262	8.313661	2.883342
10.469262849459467	8.246671	2.8717017
10.486863122865758	8.147865	2.8544466
10.504463644356806	8.103583	2.8466794
10.522064414358338	8.104521	2.846844
10.539665433296118	8.088463	2.8440223
10.557266701595987	8.040239	2.8355315
10.574868219683818	7.9226055	2.8147123
10.592469987985552	7.765657	2.7866929
10.610072006927185	7.716567	2.777871
10.627674276934751	7.6229296	2.7609653
10.64527679843435	7.520839	2.742415
10.662879571852143	7.322576	2.7060258
10.680482597614331	7.192201	2.681828
10.698085876147173	7.0313935	2.6516776
10.715689407876988	6.9727097	2.640589
10.733293193230146	6.8264775	2.612753
10.750897232633072	6.725863	2.593427
10.76850152651225	6.650947	2.578943
10.786106075294207	6.5609875	2.5614424
10.803710879405534	6.5035195	2.5502
10.821315939272877	6.4435153	2.538408
10.83892125532294	6.4072313	2.531251
10.856526827982472	6.3381915	2.5175765
10.874132657678285	6.280935	2.5061793
10.891738744837243	6.212322	2.492453
10.909345089886271	6.1198745	2.473838
10.926951693252343	6.067315	2.463192
10.944558555362494	6.0299416	2.4555938
10.96216567664381	6.0713954	2.4640203
10.979773057523436	6.0553303	2.460758
10.997380698428573	5.989997	2.447447
11.014988599786477	5.8120146	2.410812
11.032596762024461	5.6896462	2.385298
11.050205185569892	5.5998917	2.366409
11.067813870850198	5.5594835	2.3578558
11.085422818292859	5.569901	2.3600638
11.10303202832541	5.478589	2.3406386
11.120641501375454	5.3618064	2.3155575
11.138251237870636	5.2028437	2.2809744
11.155861238238671	5.1577783	2.2710743
11.173471502907317	5.19103	2.2783833
11.191082032304402	5.170743	2.2739267
11.208692826857805	5.079937	2.2538714
11.226303886995465	5.00596	2.2374003
11.243915213145371	4.948643	2.2245545
11.261526805735578	4.9122095	2.2163506
11.279138665194196	4.884873	2.2101748
11.296750791949393	4.8578734	2.2040584
11.314363186429393	4.8268294	2.1970046
11.331975849062479	4.756879	2.181027
11.34958878027699	4.6695046	2.1609037
11.36720198050133	4.6281815	2.151321
11.384815450163948	4.611248	2.1473818
11.402429189693366	4.5878363	2.1419234
11.420043199518153	4.52025	2.126088
11.437657480066942	63.44781	7.9654136
11.455272031768422	85.14217	9.227252
11.472886855051353	107.53267	10.369796
11.490501950344528	99.19017	9.959426
11.508117318076819	84.55025	9.195121
11.52573295867715	45.9333	6.777411
11.543348872574514	4.171725	2.04248
11.560965060197946	4.1393332	2.0345352
11.57858152197655	4.069477	2.0172944
11.59619825833949	4.053118	2.0132358
11.613815269715985	4.028759	2.0071769
11.631432556535323	38.566593	6.210201
11.649050119226837	83.08808	9.115267
11.666667958219929	93.46052	9.667498
11.68428607394406	107.65723	10.3758
11.701904466828756	82.49339	9.082587
11.719523137303586	65.358665	8.084471
11.737142085798196	4.5966625	2.143983
11.754761312742286	3.7251801	1.9300725
11.772380818565619	3.695103	1.922265
11.790000603698015	3.6713498	1.9160767
11.80762066856935	3.6030955	1.8981822
11.825241013609572	3.621456	1.9030123
11.842861639248683	3.5810685	1.8923712
11.860482545916748	3.512002	1.8740336
11.878103734043883	3.4518306	1.8579103
11.895725204060282	3.4386714	1.8543655
11.91334695639619	3.441877	1.8552296
11.930968991481919	3.4554644	1.8588879
11.948591309747824	3.4523141	1.8580405
11.966213911624347	3.3984046	1.8434762
11.98383679754198	3.328588	1.8244418
12.001459967931268	3.3010197	1.8168708
12.019083423222835	3.3228145	1.8228589
12.036707163847352	3.3364134	1.8265852
12.05433119023556	3.3129396	1.8201482
12.071955502818259	3.2340007	1.7983328
12.089580102026313	3.148759	1.7744743
12.107204988290643	3.1049068	1.7620746
12.12483016204224	3.056454	1.7482717
12.142455623712152	3.065635	1.7508955
12.16008137373149	3.0983996	1.7602272
12.177707412531431	3.1346486	1.7704939
12.19533374054321	3.112591	1.7642536
12.212960358198126	3.072657	1.7528996
12.230587265927545	3.038212	1.7430468
12.248214464162889	3.0461326	1.7453173
12.265841953335649	3.0262494	1.7396119
12.283469733877375	3.0132263	1.7358648
12.301097806219685	2.9905553	1.7293222
12.31872617079425	3.0275338	1.7399809
12.336354828032825	2.9846866	1.7276245
12.353983778367205	2.9838514	1.7273828
12.371613022229262	2.9315674	1.712182
12.389242560050928	2.9243572	1.7100751
12.406872392264201	2.8837357	1.6981566
12.424502519301143	2.8752844	1.6956663
12.442132941593874	2.8756926	1.6957867
12.459763659574586	2.884916	1.6985041
12.477394673675532	2.9073107	1.7050838
12.49502598432903	2.8912003	1.700353
12.51265759196746	2.8945277	1.7013311
12.530289497023267	2.8475597	1.6874714
12.547921699928967	2.860636	1.6913415
12.565554201117134	2.8514702	1.6886297
12.583187001020404	2.8515155	1.6886431
12.600820100071486	2.8272061	1.6814297
12.618453498703152	2.8078196	1.675655
12.636087197348235	2.7871828	1.6694858
12.65372119643964	2.7852285	1.6689004
12.671355496410326	2.8026118	1.6741003
12.68899009769333	2.8332782	1.6832345
12.706625000721749	2.841565	1.6856942
12.724260205928752	2.8781803	1.6965201
12.741895713747551	2.879751	1.6969829
12.759531524611454	2.938775	1.7142856
12.777167638953818	2.9908392	1.7294043
12.794804057208072	3.029405	1.7405187
12.812440779807702	3.0915782	1.7582884
12.830077807186271	3.218151	1.7939206
12.847715139777405	3.2126603	1.7923895
12.865352778014795	3.3918107	1.841687
12.882990722332197	3.4931118	1.8689868
12.90062897316344	3.5994728	1.8972276
12.918267530942412	3.6783836	1.9179113
12.935906396103071	3.6016157	1.8977923
12.953545569079449	3.7811995	1.9445306
12.971185050305628	3.628479	1.9048567
12.988824840215775	3.6312342	1.9055798
13.006464939244115	3.6049595	1.898673
13.024105347824943	3.4552774	1.8588376
13.041746066392617	3.523896	1.8772043
13.05938709538157	3.3332164	1.8257098
13.077028435226296	3.3119833	1.8198855
13.094670086361363	3.247898	1.8021926
13.112312049221401	3.1667666	1.7795411
13.129954324241112	3.1260235	1.7680564
13.147596911855258	2.927146	1.7108904
13.165239812498685	2.9021468	1.7035688
13.182883026606293	2.847506	1.6874555
13.200526554613058	2.826668	1.6812698
13.218170396954017	2.7973397	1.6725249
13.235814554064284	2.7574337	1.6605523
13.253459026379034	2.7263107	1.6511544
13.271103814333523	2.684092	1.6383198
13.288748918363058	2.6812758	1.6374602
13.306394338903031	2.6860914	1.63893
13.32404007638889	2.7197526	1.6491672
13.341686131256164	2.731957	1.6528633
13.359332503940449	2.6859891	1.6388987
13.376979194877402	2.6293685	1.6215328
13.394626204502751	2.6315508	1.6222055
13.412273533252307	2.6504643	1.6280247
13.429921181561937	2.7044773	1.6445295
13.447569149867581	2.7229314	1.6501307
13.465217438605247	2.6870892	1.6392343
13.482866048211022	2.629845	1.6216797
13.500514979121052	2.6471753	1.6270143
13.518164231771568	2.666463	1.6329308
13.535813806598844	2.69644	1.642084
13.553463704039254	2.703497	1.6442314
13.571113924529229	2.7289953	1.651967
13.588764468505275	2.7318268	1.6528239
13.606415336403956	2.7196493	1.649136
13.624066528661917	2.7077143	1.6455134
13.641718045715882	2.7372408	1.6544609
13.659369888002635	2.7758348	1.6660837
13.67702205595903	2.852751	1.6890088
13.694674550021993	2.8976848	1.7022587
13.712327370628532	2.9742167	1.7245917
13.729980518215713	3.1066942	1.7625817
13.747633993220681	3.1730614	1.7813089
13.765287796080647	3.2407587	1.8002107
13.7829419272329	3.2993784	1.8164191
13.800596387114801	3.316079	1.8210104
13.818251176163775	3.3393898	1.8273997
13.835906294817324	3.3622868	1.8336539
13.853561743513023	3.3976429	1.8432696
13.871217522688525	3.4184632	1.8489087
13.888873632781538	3.4303677	1.8521252
13.906530074229858	3.4580693	1.8595885
13.92418684747135	3.473067	1.8636167
13.941843952943948	3.4717977	1.8632761
13.959501391085665	3.4434636	1.8556572
13.977159162334578	3.421257	1.849664
13.994817267128846	3.3964179	1.8429372
14.012475705906693	3.330834	1.8250573
14.030134479106424	3.2320347	1.797786
14.047793587166414	3.1214087	1.7667509
14.065453030525108	3.0527072	1.7471998
14.083112809621026	3.00119	1.7323943
14.100772924892766	2.9518852	1.7181051
14.118433376778997	2.906678	1.7048982
14.136094165718458	2.838553	1.6848006
14.153755292149969	2.7665215	1.6632863
14.171416756512416	2.712697	1.6470268
14.189078559244768	2.622304	1.6193529
14.20674070078606	2.5743787	1.6044871
14.224403181575408	2.5175226	1.5866703
14.242066002051999	2.5112872	1.5847042
14.259729162655093	2.472285	1.5723501
14.277392663824022	2.4428344	1.5629569
14.295056505998208	2.4369915	1.5610867
14.312720689617128	2.4253826	1.557364
14.330385215120348	2.3875914	1.5451833
14.348050082947497	2.3738475	1.5407295
14.3657152935383	2.3837047	1.543925
14.383380847332528	2.396457	1.5480494
14.401046744770051	2.4353857	1.5605723
14.418712986290798	2.444353	1.5634427
14.436379572334793	2.4306285	1.5590473
14.454046503342123	2.3976448	1.548433
14.471713779752946	2.3779898	1.5420732
14.489381402007504	2.3697968	1.5394144
14.507049370546113	2.35634	1.5350374
14.524717685809168	2.3459394	1.531646
14.542386348237134	2.315174	1.5215696
14.560055358270553	2.3202522	1.5232373
14.577724716350051	2.3705223	1.5396501
14.595394422916325	2.3949926	1.5475763
14.61306447841015	2.4549212	1.5668188
14.63073488327237	2.4723034	1.572356
14.648405637943917	2.5106986	1.5845184
14.6660767428658	2.4833596	1.5758679
14.683748198479094	2.4725502	1.5724344
14.701420005224954	2.5063388	1.583142
14.719092163544628	2.5870333	1.6084257
14.73676467387942	2.630057	1.6217451
14.754437536670727	2.661006	1.631259
14.772110752360014	2.6642334	1.6322479
14.78978432138882	2.6582112	1.6304022
14.807458244198777	2.6927736	1.6409672
14.82513252123159	2.6942086	1.6414045
14.842807152929028	2.7322407	1.6529491
14.860482139732962	2.693713	1.6412535
14.87815748208531	2.6724133	1.6347518
14.8958331804281	2.6728206	1.6348764
14.91350923520342	2.6516504	1.6283889
14.931185646853438	2.6581783	1.6303921
14.948862415820408	2.6467788	1.6268923
14.966539542546656	2.671077	1.634343
14.98421702747459	2.6772466	1.6362294
15.001894871046696	2.6845577	1.638462
15.019573073705542	2.656764	1.6299583
15.037251635893766	2.646712	1.6268718
15.054930558054092	2.6622267	1.6316332
15.072609840629323	2.7245288	1.6506146
15.090289484062351	2.8364959	1.68419
15.107969488796124	3.0824044	1.7556777
15.125649855273691	3.4795592	1.8653576
15.14333058393817	4.031502	2.00786
15.161011675232768	5.1033425	2.259058
15.17869312960076	6.5351543	2.5563948
15.196374947485506	8.473059	2.910852
15.214057129330447	11.728802	3.4247339
15.231739675579114	16.526447	4.0652733
15.249422586675102	21.456045	4.632067
15.267105863062092	24.335537	4.9331064
15.284789505183847	24.374758	4.93708
15.302473513484218	22.18983	4.7106085
15.320157888407127	18.536884	4.305448
15.337842630396578	14.362433	3.7897801
15.355527739896656	11.132342	3.3365164
15.37321321735153	8.694192	2.9485915
15.39089906320545	6.370071	2.5239
15.408585277902748	4.801878	2.1913188
15.42627186188783	3.6810858	1.9186156
15.443958815605198	3.1679826	1.7798828
15.461646139499424	2.8812275	1.6974179
15.479333834015168	2.7558289	1.660069
15.497021899597165	2.7374036	1.6545101
15.514710336690234	2.7016325	1.6436644
15.53239914573928	2.6517413	1.6284168
15.550088327189297	2.5983088	1.611927
15.567777881485336	2.5291138	1.5903188
15.58546780907256	2.4969938	1.5801879
15.6031581103962	2.456404	1.567292
15.620848785901568	2.4579265	1.5677775
15.638539836034063	2.4089446	1.5520775
15.656231261239173	2.39448	1.5474107
15.673923061962451	2.374789	1.541035
15.691615238649552	2.3829885	1.5436931
15.709307791746202	2.376378	1.5415505
15.727000721698221	2.3778389	1.5420243
15.744694028951498	2.3911643	1.546339
15.76238771395202	2.3862627	1.5447533
15.780081777145844	2.389369	1.5457584
15.797776218979125	2.3850935	1.5443748
15.815471039898094	2.355756	1.5348473
15.833166240349064	2.3479373	1.5322981
15.850861820778437	2.3578553	1.5355309
15.868557781632699	2.3856177	1.5445445
15.886254123358412	2.3657205	1.5380899
15.903950846402232	2.3521678	1.5336779
15.921647951210897	2.3492358	1.5327216
15.939345438231225	2.3938422	1.5472046
15.957043307910133	2.4198906	1.5555998
15.974741560694602	2.4322498	1.5595672
15.992440197031714	2.3931422	1.5469785
16.01013921736862	2.362597	1.5370742
16.02783862215259	2.3462913	1.5317608
16.045538411830933	2.359666	1.5361204
16.06323858685107	2.3675323	1.5386788
16.080939147660512	2.365615	1.5380555
16.09864009470684	2.4065952	1.5513204
16.11634142843774	2.429105	1.5585587
16.134043149300954	2.4426768	1.5629065
16.15174525774433	2.4607484	1.5686773
16.169447754215817	2.4528425	1.5661553
16.18715063916342	2.4416296	1.5625715
16.204853913035244	2.4450822	1.5636759
16.222557576279478	2.470431	1.5717605
16.240261629344403	22.472971	4.7405667
16.257966072678386	42.993355	6.556932
16.275670906729868	38.098385	6.172389
16.293376131947387	2.5062108	1.5831016
16.31108174877957	2.5083206	1.5837679
16.328787757675133	2.5274422	1.5897931
16.34649415908287	2.5997417	1.6123714
16.364200953451657	2.6683304	1.6335025
16.38190814123048	2.6829562	1.6379732
16.39961572286839	2.6878047	1.6394526
16.41732369881455	2.6824346	1.6378139
16.43503206951817	2.7016394	1.6436665
16.45274083542859	2.7251139	1.6507919
16.47044999699522	2.7860935	1.6691595
16.488159554667558	2.854513	1.6895304
16.505869508895184	2.9348638	1.7131444
16.523579860127786	2.9559536	1.7192887
16.541290608815117	2.9627848	1.7212741
16.559001755407035	2.9860992	1.7280333
16.57671330035348	3.0685549	1.7517291
16.59442524410448	3.097988	1.7601101
16.61213758711015	3.1485798	1.7744238
16.629850329820705	3.211177	1.7919757
16.647563472686436	3.3190293	1.8218204
16.665277016157724	3.405766	1.8454717
16.682990960685053	3.4462025	1.856395
16.70070530671898	3.4629645	1.8609042
16.718420054710155	3.465574	1.8616053
16.736135205109335	3.5229847	1.8769616
16.753850758367335	3.5857112	1.8935975
16.771566714935087	3.6723707	1.9163431
16.789283075263597	3.7596729	1.9389876
16.80699983980398	3.8293622	1.9568756
16.82471700900741	3.8642461	1.9657686
16.84243458332518	3.937655	1.9843526
16.860152563208665	3.9768548	1.9942054
16.87787094910932	4.029907	2.007463
16.89558974147871	4.079495	2.0197759
16.913308940768466	4.1619716	2.040091
16.931028547430333	4.23881	2.0588372
16.94874856191613	4.3097577	2.0759957
16.966468984677785	4.362463	2.088651
16.98418981616729	4.427565	2.104178
17.00191105683676	4.4639626	2.1128092
17.019632707138374	4.5146155	2.1247625
17.03735476752442	4.5350027	2.1295545
17.05507723844728	4.5412397	2.1310184
17.072800120359403	4.539309	2.1305654
17.090523413713353	4.548113	2.1326306
17.108247118961785	4.582794	2.140746
17.125971236557437	4.619177	2.1492271
17.143695766953133	4.673486	2.1618247
17.161420710601806	4.667875	2.1605265
17.179146067956477	4.682396	2.1638844
17.19687183947025	4.6823583	2.1638758
17.21459802559634	4.7060723	2.1693485
17.232324626788028	4.637549	2.153497
17.25005164349871	4.6017766	2.1451752
17.267779076181863	4.525549	2.1273339
17.285506925291074	4.49215	2.1194692
17.30323519127999	4.4805336	2.116727
17.320963874602384	4.493783	2.1198545
17.33869297571211	4.5684257	2.1373875
17.356422495063114	4.564251	2.1364107
17.37415243310944	4.549659	2.132993
17.391882790305218	4.480388	2.1166928
17.40961356710468	4.4773374	2.115972
17.42734476396215	4.5279727	2.1279035
17.445076381332044	4.5542693	2.1340735
17.462808419668868	4.661107	2.1589596
17.48054087942723	4.804144	2.1918356
17.498273761061835	5.1434364	2.2679145
17.51600706502747	5.6218185	2.3710375
17.533740791779024	6.4096656	2.5317318
17.551474941771485	7.9128804	2.8129842
17.56920951545993	9.113787	3.018905
17.586944513299528	11.228587	3.3509085
17.60467993574556	12.876939	3.5884452
17.622415783253373	14.454432	3.8018985
17.64015205627843	15.751877	3.9688635
17.657888755276293	16.698372	4.0863643
17.675625880702604	17.093033	4.134372
17.69336343301311	16.956348	4.117809
17.71110141266366	16.174038	4.021696
17.728839820110178	15.366005	3.9199495
17.746578655808705	14.608919	3.8221617
17.764317920215372	13.204945	3.6338608
17.7820576137864	11.654291	3.4138381
17.79979773697811	9.468948	3.0771656
17.81753829024692	7.5245943	2.7430995
17.835279274049356	5.7967124	2.4076362
17.85302068884201	4.8278527	2.1972375
17.870762535081607	4.2549334	2.062749
17.888504813224934	3.9594312	1.9898319
17.90624752372891	3.736211	1.9329281
17.923990667050536	3.5884354	1.8943166
17.941734243646895	3.4991517	1.870602
17.959478253975185	3.4707892	1.8630054
17.9772226984927	3.415023	1.8479781
17.994967577656833	3.3635867	1.8340083
18.01271289192506	3.350213	1.8303587
18.030458641754965	3.3336456	1.8258274
18.04820482760425	3.3350985	1.8262252
18.06595144993067	3.28721	1.8130665
18.083698509192125	3.2541723	1.8039324
18.101446005846576	3.218706	1.7940753
18.119193940352105	3.2085557	1.7912441
18.136942313166887	3.1788688	1.7829382
18.1546911247492	3.1601636	1.7776849
18.1724403755574	3.1482134	1.7743205
18.19019006604997	3.1325243	1.7698939
18.207940196685467	3.094064	1.7589952
18.225690767922575	3.1065106	1.7625296
18.243441780220046	3.092078	1.7584306
18.261193234036764	3.075418	1.753687
18.278945129831676	3.0623846	1.749967
18.29669746806386	3.0405297	1.7437115
18.314450249192483	3.0254974	1.7393957
18.3322034736768	3.0312788	1.7410568
18.349957141976184	3.0649157	1.7506901
18.3677112545501	3.093432	1.7588155
18.385465811858108	3.118382	1.765894
18.403220814359884	3.1040192	1.7618227
18.420976262515172	3.0901291	1.7578763
18.43873215678387	3.1046567	1.7620037
18.456488497625923	3.1384172	1.7715578
18.474245285501407	3.2228272	1.7952235
18.492002520870486	3.2401323	1.8000368
18.50976020419343	3.3290658	1.8245728
18.527518335930615	3.6461923	1.9095006
18.545276916542516	4.2640347	2.064954
18.563035946489688	4.3913555	2.095556
18.580795426232832	4.8302445	2.1977818
18.598555356232698	4.7073913	2.1696522
18.616315736950185	5.053016	2.2478914
18.63407656884626	4.713244	2.1710007
18.65183785238201	4.936415	2.2218044
18.669599588018617	4.7345	2.1758907
18.68736177621737	4.7202144	2.1726055
18.705124417439652	4.7015443	2.1683044
18.72288751214696	4.4538927	2.1104248
18.740651060800886	4.605311	2.1459987
18.758415063863115	4.325205	2.0797126
18.77617952179546	4.5151215	2.1248815
18.793944435059814	4.224795	2.0554307
18.811709804118184	4.247941	2.0610533
18.829475629432675	4.219172	2.0540624
18.8472419114655	4.057998	2.0144475
18.86500865067897	4.1333404	2.0330617
18.88277584753551	3.755612	1.9379401
18.90054350249763	3.7334218	1.9322065
18.918311616027957	3.4165552	1.8483926
18.936080188589226	3.33349	1.8257847
18.953849220644265	3.0515003	1.7468544
18.971618712656007	2.8841383	1.6982751
18.9893886650875	2.8412218	1.6855924
19.007159078401887	8.053255	2.8378258
19.024929953062408	32.971943	5.7421203
19.042701289532435	32.913506	5.7370296
19.060473088275405	25.461071	5.0458965
19.07824534975489	2.7073298	1.6453966
19.096018074434568	2.6839352	1.638272
19.113791262778197	2.6287048	1.6213281
19.13156491524966	2.6229722	1.6195593
19.149339032312945	2.606509	1.6144686
19.167113614432136	2.5812538	1.6066281
19.184888662071433	2.5559983	1.598749
19.202664175695123	2.558622	1.5995693
19.220440155767623	2.581302	1.6066431
19.238216602753447	2.5606842	1.6002138
19.2559935171172	2.5174565	1.5866494
19.27377089932361	2.4832885	1.5758454
19.291548749837514	2.4641159	1.5697503
19.309327069123835	2.5126677	1.5851396
19.32710585764763	2.5373023	1.5928912
19.344885115874032	2.5600789	1.6000247
19.362664844268313	2.517305	1.5866017
19.380445043295822	2.4937403	1.5791581
19.39822571342203	2.462056	1.569094
19.41600685511252	2.4734776	1.5727293
19.43378846883297	2.4683838	1.571109
19.451570555049173	2.4742765	1.5729834
19.469353114227037	2.474755	1.5731354
19.48713614683254	2.4855683	1.5765685
19.50491965333182	2.4937577	1.5791637
19.52270363419109	2.5021076	1.5818052
19.540488089876686	2.4871216	1.577061
19.55827302085503	2.4695225	1.5714715
19.576058427592674	2.486362	1.5768203
19.593844310556282	2.4805849	1.5749873
19.611630670212598	2.4924824	1.5787598
19.629417507028506	2.4868553	1.5769767
19.64720482147098	2.495995	1.5798719
19.6649926140071	2.5049953	1.5827177
19.682780885104084	2.5161479	1.586237
19.70056963522921	2.527233	1.5897273
19.718358864849908	2.529939	1.5905782
19.7361485744337	2.5146286	1.5857581
19.753938764448215	2.497662	1.5803994
19.771729435361202	2.5220404	1.5880933
19.789520587640506	2.519364	1.5872505
19.807312221754092	2.5324833	1.5913779
19.825104338170043	2.5475807	1.5961143
19.842896937356517	2.5110474	1.5846285
19.860690019781824	2.4900122	1.5779772
19.87848358591436	2.5115416	1.5847844
19.896277636222635	2.5420759	1.5943888
19.914072171175278	2.54993	1.59685
19.931867191241015	2.5177615	1.5867455
19.94966269688869	2.5478823	1.5962087
19.967458688587264	2.5437818	1.5949237
19.985255166805807	2.5139449	1.5855424
20.00305213201348	2.4670599	1.5706877
20.020849584679578	2.4518487	1.565838
20.038647525273507	2.4591656	1.5681727
20.05644595426477	2.4721673	1.5723127
20.07424487212299	2.4827101	1.5756618
20.092044279317903	2.4552085	1.5669105
20.109844176319353	2.4483495	1.5647203
20.127644563597304	2.4416163	1.5625672
20.145445441621817	2.4539692	1.566515
20.16324681086307	2.450092	1.565277
20.181048671791373	2.449109	1.564963
20.198851024877122	2.4398732	1.5620093
20.216653870590836	2.468633	1.5711883
20.234457209403146	2.4498093	1.5651866
20.252261041784802	2.4229712	1.5565896
20.270065368206662	2.3831797	1.543755
20.287870189139685	2.3775644	1.5419353
20.305675505054968	2.383727	1.5439323
20.323481316423702	2.3596258	1.5361073
20.341287623717207	2.3440902	1.5310422
20.359094427406884	2.3331718	1.5274724
20.376901727964288	2.3407676	1.5299567
20.39470952586107	2.3297606	1.5263553
20.41251782156899	2.3511562	1.5333481
20.430326615559935	2.363328	1.5373119
20.448135908305886	2.3427062	1.5305902
20.465945700278965	2.3236187	1.5243421
20.483755991951384	2.3276231	1.525655
20.50156678379548	2.3569689	1.5352423
20.519378076283708	2.3517516	1.5335422
20.537189869888635	2.3437676	1.5309368
20.55500216508294	2.3531182	1.5339876
20.572814962339415	2.3561456	1.5349741
20.59062826213098	2.3519187	1.5335966
20.60844206493066	2.3162513	1.5219235
20.626256371211593	2.3285248	1.5259504
20.644071181447032	2.3580244	1.535586
20.66188649611036	2.3700144	1.5394851
20.67970231567506	2.3595123	1.5360705
20.697518640614742	2.3509157	1.5332696
20.715335471403122	2.3583953	1.5357068
20.73315280851404	2.3449192	1.531313
20.750970652421447	2.2966075	1.5154562
20.768789003599412	2.2807655	1.5102204
20.786607862522136	2.3070948	1.5189124
20.8044272296639	2.3123095	1.520628
20.82224710549913	2.2849917	1.511619
20.84006749050237	2.2490532	1.4996843
20.857888385148268	3.8168921	1.9536868
20.8757097899116	45.92659	6.776916
20.893531705267254	64.81954	8.051059
20.911354131690224	83.85364	9.157164
20.92917706965566	69.136406	8.314831
20.94700051963877	50.196148	7.084924
20.96482448211493	29.460197	5.427725
20.982648957559622	4.16936	2.041901
21.00047394644843	2.265767	1.5052465
21.01829944925707	2.2463157	1.4987714
21.036125466461375	2.2733135	1.5077511
21.053951998537297	2.2518404	1.5006133
21.071779045960906	2.2104936	1.4867729
21.089606609208378	2.1614962	1.4702028
21.10743468875603	2.1986775	1.4827938
21.12526328508028	2.2091374	1.4863167
21.143092398657675	2.220733	1.4902123
21.16092202996488	2.199144	1.482951
21.17875217947867	2.1941247	1.4812578
21.19658284767596	2.2017837	1.4838408
21.21441403503377	2.2028413	1.4841971
21.232245742029225	2.1735408	1.4742934
21.2500779691396	2.1599479	1.4696761
21.26791071684227	2.186584	1.4787103
21.28574398561475	2.2092032	1.4863389
21.30357777593465	2.2229145	1.4909441
21.321412088279704	2.2019715	1.4839041
21.339246923127792	2.2034903	1.4844158
21.357082280956888	2.1849794	1.4781677
21.3749181622451	2.158287	1.469111
21.392754567470647	2.128222	1.4588426
21.41059149711187	2.1301708	1.4595104
21.42842895164726	2.1402085	1.4629451
21.446266931555378	2.1061378	1.4512539
21.464105437314945	2.1134024	1.4537545
21.481944469404798	2.1268768	1.4583815
21.49978402830388	2.1229641	1.4570395
21.51762411449127	2.0848312	1.4438945
21.53546472844617	2.0802536	1.4423084
21.553305870647876	2.0790505	1.4418913
21.571147541575865	2.0834692	1.4434227
21.58898974170967	2.0785415	1.4417148
21.60683247152899	2.102744	1.4500842
21.62467573151363	2.098499	1.4486197
21.642519522143523	2.076483	1.4410007
21.660363843898722	2.0594513	1.4350789
21.6782086972594	2.063876	1.4366196
21.696054082705864	2.0411456	1.4286866
21.713900000718535	2.0393245	1.4280492
21.73174645177795	2.0284727	1.4242446
21.749593436364794	2.0632854	1.436414
21.767440954959845	2.0285623	1.4242761
21.785289008044032	1.966741	1.4024054
21.803137596098388	1.9521369	1.3971889
21.820986719604086	1.9792646	1.4068635
21.838836379042412	2.0137095	1.4190524
21.85668657489478	2.0127552	1.4187161
21.87453730764273	2.0294511	1.4245881
21.892388577767914	2.0116358	1.4183215
21.91024038575213	1.9670695	1.4025226
21.928092732077285	1.9761988	1.4057734
21.945945617225426	2.0230072	1.4223245
21.963799041678694	2.038328	1.4277003
21.981653005919398	31.331537	5.597458
21.999507510429943	78.106476	8.837787
22.01736255569286	73.048584	8.546846
22.035218142190818	4.1749954	2.0432806
22.05307427040661	2.0329788	1.4258256
22.07093094082315	2.064122	1.4367052
22.088788153923474	2.0573797	1.4343569
22.106645910190746	2.0213723	1.4217497
22.12450421010827	1.9837195	1.4084457
22.142363054159464	1.9858233	1.4091924
22.16022244282787	2.032428	1.4256325
22.178082376597164	2.0528028	1.4327606
22.195942855951145	2.0210211	1.4216262
22.213803881373742	1.9755915	1.4055574
22.231665453349002	1.979682	1.4070117
22.24952757236111	1.9858601	1.4092054
22.26739023889438	1.9503387	1.3965453
22.28525345343323	1.8992211	1.3781223
22.30311721646225	1.9074241	1.3810953
22.320981528466113	1.9314694	1.3897731
22.33884638992964	1.9565765	1.3987768
22.356711801337788	1.9595333	1.3998333
22.37457776317561	1.931373	1.3897384
22.392444275928337	1.9209373	1.3859788
22.410311340081282	1.8954082	1.3767382
22.428178956119904	1.8991113	1.3780825
22.446047124529805	1.9135395	1.3833075
22.46391584579669	1.9220374	1.3863757
22.481785120406414	1.9645709	1.4016315
22.49965494884496	1.9449518	1.3946153
22.51752533159841	1.9546739	1.3980966
22.53539626915302	1.9443518	1.3944001
22.553267761995137	1.9245547	1.3872832
22.571139810611264	1.9102621	1.3821223
22.589012415488025	1.8976028	1.377535
22.60688557711216	1.9052778	1.380318
22.624759295970566	1.8958653	1.3769042
22.642633572550263	1.909958	1.3820122
22.660508407338362	1.9466268	1.3952156
22.67838380082217	1.9882568	1.4100556
22.696259753489077	1.9926058	1.4115969
22.714136265826614	1.9524559	1.3973031
22.73201333832246	1.9166417	1.3844283
22.74989097146439	1.8999538	1.3783882
22.76776916574035	1.9286213	1.388748
22.785647921638393	1.960981	1.4003503
22.803527239646712	1.9418921	1.3935179
22.82140712025363	1.8986882	1.377929
22.839287563947593	1.8904152	1.3749237
22.85716857121719	1.9138803	1.3834306
22.875050142551135	1.9461306	1.3950379
22.892932278438277	1.9749049	1.4053131
22.910814979367604	1.9656111	1.4020026
22.928698245828222	1.9562435	1.3986578
22.946582078309387	1.9028605	1.3794421
22.96446647730047	1.8840803	1.3726181
22.98235144329098	1.8883171	1.3741605
23.000236976770562	1.8886364	1.3742766
23.018123078229	1.8778603	1.3703505
23.03600974815619	1.8645834	1.3654975
23.053896987042194	1.9177654	1.384834
23.071784795377173	1.9092512	1.3817565
23.08967317365145	1.8795497	1.3709667
23.10756212235546	1.8666699	1.3662612
23.125451641979787	1.8649668	1.3656379
23.143341733015134	1.8715546	1.3680477
23.161232395952357	1.9176931	1.384808
23.179123631282426	1.9380107	1.3921245
23.197015439496468	1.9383057	1.3922305
23.214907821085717	1.9404733	1.3930087
23.23280077654157	1.9374821	1.3919346
23.250694306355538	1.9214674	1.38617
23.268588411019277	1.8963746	1.3770891
23.28648309102458	1.8788126	1.3706979
23.304378346863356	1.8541219	1.3616614
23.322274179027676	1.9084469	1.3814654
23.340170588009723	1.929879	1.3892008
23.358067574301852	1.9104185	1.3821789
23.37596513839651	1.8911037	1.375174
23.39386328078629	1.9163389	1.384319
23.411762001963947	1.9029452	1.3794727
23.429661302422353	1.9018109	1.3790616
23.4475611826545	1.8865854	1.3735303
23.46546164315356	1.927205	1.3882381
23.48336268441279	1.9061686	1.3806406
23.501264306925638	1.9150915	1.3838683
23.51916651118564	1.9069384	1.3809195
23.537069297686497	1.9224283	1.3865166
23.554972666922037	1.9239842	1.3870776
23.57287661938623	1.9016718	1.3790112
23.59078115557318	1.8867694	1.3735973
23.608686275977128	1.931384	1.3897424
23.62659198109246	1.925892	1.387765
23.6444982714137	1.9101007	1.382064
23.66240514743549	1.9299656	1.389232
23.68031260965263	1.9272814	1.3882656
23.698220658560068	1.8932307	1.3759472
23.716129294652845	1.8958153	1.3768861
23.7340385184262	1.9384743	1.3922911
23.75194833037546	1.9334438	1.3904833
23.769858730996123	1.9424756	1.3937272
23.78776972078382	1.9339753	1.3906745
23.80568130023431	1.9293652	1.3890159
23.823593469843495	1.8936639	1.3761046
23.841506230107424	1.8876497	1.3739176
23.859419581522275	1.9105325	1.3822201
23.87733352458438	1.91807	1.3849441
23.89524805979019	1.878985	1.3707608
23.913163187636318	1.8693267	1.3672333
23.931078908619508	1.8838472	1.3725332
23.948995223236633	1.9143496	1.3836002
23.966912131984735	1.9214338	1.3861579
23.98482963536096	1.9766929	1.4059491
24.002747733862616	2.0122325	1.4185318
24.020666427987155	2.033287	1.4259337
24.038585718232156	2.0771246	1.4412233
24.056505605095353	2.0613673	1.4357462
24.074426089074617	2.0640795	1.4366904
24.092347170667946	2.0472736	1.4308296
24.110268850373515	2.0651898	1.4370768
24.128191128689586	2.0899768	1.4456753
24.146114006114626	2.0301437	1.4248312
24.164037483147187	2.0189197	1.420887
24.181961560286005	2.0498166	1.4317181
24.199886238029926	2.0853646	1.4440792
24.21781151687797	2.0614252	1.4357665
24.235737397329274	2.0561707	1.4339354
24.253663879883135	2.0404828	1.4284546
24.271590965038975	2.027235	1.42381
24.289518653296376	2.0317433	1.4253923
24.30744694515505	2.0616205	1.4358344
24.32537584111486	2.0533948	1.4329672
24.34330534167581	2.0351615	1.4265909
24.361235447338046	2.0022607	1.4150126
24.379166158601876	1.9932538	1.4118264
24.39709747596772	2.0144522	1.419314
24.41502939993615	2.0235662	1.4225211
24.432961931007917	2.0173628	1.420339
24.450895069683856	2.0191824	1.4209794
24.468828816465	1.9950072	1.4124472
24.4867631718525	1.9702694	1.4036629
24.504698136347656	1.9707208	1.4038236
24.52263371045192	1.9807943	1.4074069
24.540569894666874	1.9811711	1.4075408
24.558506689494266	1.9735774	1.4048407
24.57644409543597	1.9704188	1.4037161
24.594382112994012	1.9782044	1.4064865
24.61232074267057	1.9611188	1.4003996
24.630259984967953	1.9515017	1.3969616
24.64819984038863	1.901012	1.3787719
24.66614030943522	1.8959008	1.3769171
24.684081392610462	1.9042388	1.3799416
24.702023090417274	1.9295071	1.389067
24.7199654033587	1.9387469	1.3923889
24.737908331937927	1.9464259	1.3951437
24.755851876658305	2.029835	1.4247228
24.773796038023324	2.097104	1.4481381
24.79174081653661	2.1340854	1.460851
24.809686212701962	2.1248255	1.4576781
24.827632227023294	2.0835047	1.4434351
24.8455788600047	2.070907	1.4390646
24.8635261121504	2.0892322	1.4454176
24.88147398396475	2.099077	1.4488192
24.899422475952303	2.118546	1.4555225
24.917371588617698	2.1093638	1.4523649
24.935321322465768	2.1644964	1.4712228
24.953271678001478	2.3143637	1.5213033
24.97122265572994	2.532148	1.5912724
24.989174256156414	2.8525958	1.6889629
25.00712647978632	3.3286114	1.8244482
25.02507932712521	3.9036143	1.9757566
25.043032798678798	4.466392	2.113384
25.060986894952933	5.0518503	2.2476323
25.078941616453637	5.739615	2.3957493
25.096896963687055	6.646165	2.5780158
25.114852937159508	7.7350802	2.7812011
25.132809537377444	8.184609	2.8608756
25.150766764847468	8.072575	2.8412278
25.168724620076347	7.4337487	2.7264903
25.186683103570985	6.4592915	2.5415137
25.204642215838426	5.42842	2.329897
25.222601957385894	4.1269984	2.0315015
25.24056232872074	3.1772306	1.7824788
25.25852333035048	2.6247525	1.6201088
25.276484962782778	2.2562172	1.502071
25.294447226525435	2.0874877	1.4448141
25.312410122086423	2.006611	1.416549
25.330373649973843	1.970352	1.4036922
25.348337810695988	1.9682875	1.4029567
25.366302604761245	1.9566723	1.398811
25.384268032678207	1.9250778	1.3874717
25.40223409495558	1.9016398	1.3789996
25.420200792102257	1.9043772	1.3799918
25.438168124627246	1.9074823	1.3811163
25.45613609303974	1.9216849	1.3862485
25.474104697849057	1.9250846	1.3874742
25.492073939564698	1.8718977	1.3681731
25.510043818696285	1.8573635	1.3628513
25.528014335753614	1.8644016	1.365431
25.54598549124664	1.9083216	1.3814201
25.56395728568544	1.8937076	1.3761204
25.58192971958028	1.8892014	1.3744823
25.59990279344156	1.8920114	1.375504
25.617876507779833	1.8955669	1.3767959
25.635850863105826	1.8518755	1.3608364
25.653825859930386	1.8726984	1.3684657
25.671801498764548	1.8999211	1.3783762
25.68977778011949	1.8716244	1.3680732
25.707754704506524	1.8444785	1.3581158
25.725732272437153	1.8430701	1.3575972
25.743710484423012	1.8575126	1.362906
25.761689340975888	1.8651174	1.365693
25.77966884260774	1.9159826	1.3841902
25.797648989830662	1.9025699	1.3793367
25.815629783156922	1.8688153	1.3670462
25.83361122309895	1.8723907	1.3683532
25.85159331016929	1.9053361	1.3803391
25.869576044880695	1.8727422	1.3684818
25.887559427746034	1.8340685	1.3542778
25.90554345927836	1.8389244	1.3560694
25.92352813999086	1.8203982	1.3492213
25.94151347039689	1.8412504	1.3569268
25.959499451009965	1.8420302	1.3572141
25.97748608234374	1.8600562	1.3638388
25.995473364912062	1.8631415	1.3649694
26.013461299228904	1.8787603	1.3706788
26.03144988580839	1.8825784	1.3720708
26.04943912516483	1.8808858	1.3714539
26.067429017812675	1.8785318	1.3705955
26.085419564266537	1.8422741	1.357304
26.103410765041186	1.8320838	1.353545
26.12140262065155	1.8155723	1.3474318
26.139395131612723	1.8228897	1.3501443
26.157388298439948	1.7939054	1.3393675
26.17538212164861	1.8152202	1.3473011
26.193376601754295	1.8110743	1.3457615
26.211371739272714	1.7927793	1.338947
26.229367534719746	1.7614601	1.3272
26.247363988611433	1.8056432	1.3437423
26.26536110146397	1.8375846	1.3555753
26.283358873793727	1.8412507	1.3569269
26.301357306117204	1.8278834	1.3519924
26.319356398951104	1.816314	1.3477069
26.33735615281224	1.8131998	1.3465511
26.35535656821762	1.8219643	1.3498015
26.373357645684404	1.8170774	1.3479902
26.39135938572991	1.8209072	1.3494099
26.409361788871614	1.8317747	1.3534307
26.427364855627165	1.8386759	1.3559778
26.445368586514352	1.8185228	1.3485261
26.46337298205115	1.7904211	1.3380662
26.48137804275568	1.729039	1.3149292
26.499383769146217	1.7468652	1.3216903
26.517390161741215	1.7377222	1.3182269
26.53539722105928	1.7786963	1.3336778
26.553404947619182	1.8121036	1.346144
26.571413341939856	1.8214176	1.349599
26.589422404540397	1.8432838	1.3576759
26.60743213594006	1.8772765	1.3701375
26.62544253665827	1.8584998	1.363268
26.64345360721459	1.8321878	1.3535833
26.66146534812879	1.8564986	1.3625339
26.679477759920758	1.8443605	1.3580723
26.69749084311057	1.8157868	1.3475113
26.71550459821847	1.8292891	1.3525121
26.733519025764842	1.8440177	1.3579462
26.751534126270258	1.862996	1.3649161
26.769549900255434	1.8587434	1.3633574
26.787566348241267	1.8288004	1.3523315
26.80558347074881	1.7536126	1.3242404
26.823601268299267	1.7709154	1.3307575
26.841619741414036	1.8235903	1.3504038
26.85963889061465	1.8232273	1.3502693
26.877658716422832	1.8206902	1.3493295
26.89567921936045	1.8049753	1.3434937
26.913700399949544	1.8038092	1.3430597
26.93172225871233	1.8191292	1.348751
26.949744796171174	1.8550118	1.3619882
26.967768012848605	1.8715369	1.3680413
26.98579190926733	1.8905569	1.3749752
27.003816485950225	1.8798828	1.3710881
27.021841743420318	1.8318977	1.3534762
27.039867682200814	1.8258644	1.3512455
27.057894302815072	1.8297967	1.3526998
27.07592160578664	1.8259016	1.3512592
27.0939495916392	1.8213555	1.349576
27.111978260896635	1.8120699	1.3461314
27.13000761408296	1.7623634	1.3275404
27.148037651722397	1.7339306	1.316788
27.166068374339304	1.7424715	1.3200271
27.184099782458215	1.7958415	1.34009
27.20213187660384	1.8417256	1.3571019
27.22016465730105	1.8700753	1.367507
27.23819812507487	1.8450881	1.3583403
27.256232280450533	1.7844331	1.3358268
27.274267123953383	1.7794449	1.3339584
27.292302656108987	1.8552974	1.3620931
27.31033887744306	1.894708	1.3764839
27.32837578848146	1.8810568	1.3715162
27.34641338975026	1.8209846	1.3494387
27.364451681775673	1.8312702	1.3532443
27.382490665084074	1.8324677	1.3536867
27.400530340202046	1.7742805	1.3320212
27.41857070765629	1.7689754	1.3300283
27.436611767973726	1.8013817	1.3421556
27.454653521681404	1.8202542	1.349168
27.472695969306564	1.8175547	1.3481672
27.490739111376627	1.77331	1.3316568
27.508782948419153	1.7600214	1.326658
27.526827480961902	1.7766931	1.3329265
27.54487270953279	1.8198528	1.3490192
27.562918634659898	1.8071479	1.3443019
27.580965256871508	1.8003508	1.3417715
27.599012576696026	1.7646711	1.3284092
27.617060594662068	1.7863126	1.3365301
27.63510931129842	1.7489219	1.322468
27.65315872713401	1.8122333	1.3461921
27.67120884269797	1.8742521	1.3690332
27.68925965851958	1.863117	1.3649604
27.707311175128307	1.8474139	1.3591961
27.725363393053787	1.8893231	1.3745265
27.74341631282583	1.882099	1.3718961
27.7614699349744	1.8859631	1.3733037
27.77952426002968	2.0894156	1.4454811
27.797579288521973	2.1915498	1.4803884
27.815635020981784	2.5956407	1.6110992
27.83369145793979	2.6286497	1.6213111
27.85174859992682	2.467643	1.5708734
27.869806447473923	2.3172996	1.5222679
27.887865001112267	2.04595	1.4303671
27.905924261373233	1.9318594	1.3899134
27.92398422878836	1.8410426	1.3568503
27.94204490388936	1.8234869	1.3503655
27.96010628720813	1.8252099	1.3510033
27.978168379276728	1.8177935	1.3482558
27.9962311806274	1.7727927	1.3314626
28.014294691792568	1.8108484	1.3456776
28.0323589133048	1.8740493	1.3689592
28.050423845696887	1.8816509	1.3717328
28.068489489501758	1.8363833	1.3551322
28.086555845252523	1.8271073	1.3517053
28.104622913482487	1.8629794	1.36491
28.122690694725115	1.9128523	1.383059
28.14075918951405	1.9246551	1.3873194
28.15882839838312	1.92345	1.386885
28.176898321866304	1.9486386	1.3959365
28.1949689604978	1.9352183	1.3911213
28.213040314811945	1.8838416	1.372531
28.23111238534327	1.8622816	1.3646544
28.249185172626493	1.8350028	1.3546227
28.267258677196473	1.8787097	1.3706603
28.285332899588294	1.9092476	1.3817552
28.303407840337172	1.8986748	1.3779241
28.321483499978545	1.8993763	1.3781786
28.33955987904799	1.890061	1.374795
28.357636978081285	1.938688	1.3923678
28.37571479761439	1.9753257	1.4054629
28.393793338183425	1.9715185	1.4041077
28.41187260032469	1.95007	1.3964491
28.429952584574686	1.9761122	1.4057426
28.448033291470065	2.0416672	1.4288692
28.46611472154769	2.0557036	1.4337726
28.484196875344566	2.0045588	1.4158244
28.502279753397914	1.9931883	1.4118032
28.52036335624511	2.015628	1.4197282
28.538447684423716	2.0307398	1.4250402
28.556532738471482	2.0091991	1.4174622
28.574618518926325	1.9861696	1.4093152
28.59270502632635	1.9381458	1.392173
28.61079226120985	1.9176238	1.3847829
28.628880224115274	1.8845625	1.3727937
28.646968915581287	1.8959391	1.3769311
28.66505833614671	2.0053327	1.4160978
28.68314848635055	2.0607195	1.4355206
28.701239366732004	2.0295343	1.4246173
28.71933097783044	2.0762331	1.440914
28.737423320185403	2.147683	1.4654975
28.75551639433665	2.1310709	1.4598187
28.773610200824074	2.099802	1.4490694
28.791704740187793	2.1371279	1.4618919
28.80980001296809	2.179483	1.4763072
28.827896019705413	2.2106583	1.4868283
28.845992760940433	2.1558757	1.4682901
28.86409023721397	2.1610007	1.4700342
28.88218844906704	2.1952925	1.4816519
28.900287397040845	2.255845	1.501947
28.918387081676755	2.3130648	1.5208763
28.936487503516343	2.312102	1.5205598
28.954588663101365	2.2944684	1.5147502
28.97269056097374	2.2843146	1.511395
28.990793197675597	2.2840261	1.5112995
29.00889657374923	2.2814379	1.510443
29.027000689737125	2.3487592	1.5325662
29.04510554618196	2.4414926	1.5625277
29.06321114362659	2.5024524	1.5819142
29.08131748261405	2.4924371	1.5787455
29.099424563687567	2.4604726	1.5685893
29.11753238739057	2.4690719	1.571328
29.13564095426663	2.5207675	1.5876925
29.15375026485954	2.5413368	1.5941571
29.171860319713275	2.542126	1.5944046
29.18997111937199	2.5950875	1.6109276
29.20808266438002	2.6762168	1.6359147
29.226194955281898	2.7302446	1.6523452
29.244307992622335	2.7688403	1.6639832
29.26242177694624	2.809535	1.6761668
29.2805363087987	2.8787258	1.6966808
29.29865158872498	2.9082654	1.7053638
29.316767617270557	2.9073446	1.7050937
29.334884394981064	2.9938707	1.7302805
29.353001922402367	2.9873192	1.7283863
29.37112020008047	3.0015726	1.7325047
29.389239228561596	3.1415966	1.772455
29.407359008392152	3.3621974	1.8336296
29.42547954011872	3.7568486	1.9382591
29.44360082428809	4.4320793	2.1052504
29.46172286144722	5.5322638	2.3520765
29.479845652143283	7.090892	2.6628728
29.497969196923606	9.149579	3.024827
29.516093496335728	11.551695	3.3987784
29.5342185509274	14.444611	3.8006067
29.55234436124651	16.75992	4.0938883
29.570470927841175	17.988043	4.2412314
29.588598251259686	17.53679	4.187695
29.60672633205055	15.9812565	3.9976563
29.624855170762405	13.701096	3.701499
29.642984767944146	10.981745	3.3138716
29.66111512414481	8.473738	2.9109685
29.67924623991366	6.3306713	2.5160825
29.697378115800138	4.940011	2.2226136
29.71551075235387	4.13185	2.0326953
29.733644150124675	3.7646894	1.9402808
29.751778309662576	3.6112685	1.9003338
29.769913231517766	3.5186663	1.8758109
29.78804891624066	3.4312365	1.8523598
29.806185364381818	3.3779912	1.8379313
29.82432257649206	3.3432467	1.8284547
29.842460553122333	3.3284664	1.8244085
29.86059929482382	3.2940395	1.8149489
29.878738802147872	3.2878857	1.8132528
29.896879075646048	3.2952883	1.815293
29.915020115870114	3.305806	1.8181876
29.933161923371976	3.3339415	1.8259084
29.951304498703777	3.3094194	1.819181
29.969447842417857	3.2233305	1.7953637
29.987591955066733	3.2056231	1.7904254
30.005736837203123	3.2832785	1.8119819
30.023882489379943	3.374598	1.8370079
30.04202891215028	3.322404	1.8227463
30.060176106067455	3.1821342	1.7838538
30.078324071684946	3.057967	1.7487043
30.09647280955646	3.124566	1.7676442
30.114622320235863	3.1945121	1.7873198
30.132772604277257	3.2292159	1.797002
30.1509236622349	3.2140043	1.7927644
30.16907549466328	3.2562294	1.8045025
30.18722810211705	3.1866035	1.7851061
30.205381485151097	3.0743277	1.7533761
30.22353564432045	3.0903988	1.757953
30.241690580180403	3.1307747	1.7693995
30.25984629328638	3.0627806	1.7500802
30.278002784194037	2.9733758	1.724348
30.296160053459246	2.9497068	1.717471
30.314318101638033	2.9470103	1.7166859
30.332476929286646	2.8975205	1.7022105
30.35063653696153	2.85401	1.6893816
30.368796925219307	2.8797245	1.6969751
30.386958094616844	2.9133136	1.7068431
30.40512004571115	2.9351492	1.7132277
30.423282779059463	2.9162831	1.7077129
30.441446295219233	2.8571057	1.6902975
30.459610594748067	2.78062	1.6675191
30.47777567820382	2.7266498	1.651257
30.495941546144504	2.7253933	1.6508765
30.51410819912835	2.795009	1.671828
30.532275637713795	2.875332	1.6956804
30.55044386245946	2.9196153	1.7086881
30.56861287392416	2.8489513	1.6878837
30.586782672666956	2.7992115	1.6730844
30.604953259247047	2.7600024	1.6613255
30.623124634223885	2.7375772	1.6545626
30.641296798157075	2.7423966	1.6560183
30.659469751606462	2.7751296	1.665872
30.677643495132074	2.7703288	1.6644305
30.695818029294152	2.7638803	1.6624922
30.713993354653116	2.8302546	1.6823361
30.73216947176962	2.8381503	1.684681
30.75034638120448	2.762331	1.6620262
30.768524083518756	2.7666938	1.6633382
30.786702579273673	2.8058114	1.6750556
30.80488186903069	2.8165193	1.6782489
30.82306195335144	2.9722755	1.7240288
30.841242832797782	3.1549413	1.7762154
30.85942450793176	3.4829443	1.8662648
30.877606979315637	3.7824466	1.9448513
30.895790247511883	4.074286	2.018486
30.913974313083134	4.466234	2.1133466
30.932159176592283	4.835437	2.1989627
30.95034483860237	4.835858	2.1990583
30.968531299676698	4.6005864	2.1448977
30.98671856037873	4.2780056	2.068334
31.00490662127215	3.885265	1.9711076
31.023095482920848	3.4160273	1.8482498
31.04128514588892	2.9850826	1.7277392
31.059475610740662	2.7004194	1.6432953
31.07766687804056	2.5603712	1.600116
31.09585894835335	2.5122018	1.5849926
31.11405182224393	2.5389411	1.5934055
31.132245500277417	2.5348096	1.5921085
31.15043998301914	2.4645216	1.5698795
31.168635271034628	2.4462314	1.5640433
31.18683136488964	2.485742	1.5766237
31.20502826515008	2.5770519	1.6053199
31.223225972382135	2.5809264	1.6065261
31.241424487152155	2.5031793	1.5821439
31.259623810026692	2.4406097	1.5622451
31.27782394157253	2.478363	1.5742818
31.296024882356644	2.4742076	1.5729614
31.314226632946237	2.4268456	1.5578336
31.332429193908684	2.416203	1.554414
31.350632565811598	2.450705	1.5654728
31.368836749222787	2.4530709	1.5662283
31.387041744710295	2.444052	1.5633464
31.40524755284232	2.4730003	1.5725776
31.423454174187317	2.5315907	1.5910974
31.441661609313922	2.5248132	1.588966
31.459869858791002	2.4333544	1.5599213
31.478078923187628	2.350905	1.5332661
31.496288803073064	2.3931775	1.5469898
31.514499499016807	2.3900983	1.5459943
31.532711011588546	2.3134375	1.5209988
31.550923341358178	2.2904773	1.5134323
31.56913648889584	2.2713673	1.5071056
31.587350454771844	2.2494326	1.4998108
31.605565239556732	2.282053	1.5106466
31.62378084382127	2.3863888	1.5447941
31.641997268136382	2.3933628	1.5470496
31.660214513073274	2.336652	1.5286112
31.67843257920331	2.1704516	1.4732453
31.6966514670981	2.1528502	1.4672594
31.71487117732944	2.2551243	1.5017072
31.733091710469346	2.2779388	1.5092843
31.751313067090052	2.195723	1.4817972
31.769535247764008	2.2874868	1.512444
31.787758253063878	2.466603	1.5705423
31.805982083562526	2.450015	1.5652524
31.824206739833024	2.3688397	1.5391035
31.84243222244869	2.3911421	1.5463319
31.860658531983013	2.3807817	1.5429782
31.878885669009737	2.2936609	1.5144837
31.897113634102784	2.152967	1.4672992
31.91534242783632	2.1185706	1.455531
31.933572050784694	2.167858	1.4723648
31.951802503522508	2.3062727	1.5186417
31.970033786624548	2.2177927	1.4892255
31.988265900665834	2.201573	1.4837698
32.006498846221575	2.2141085	1.4879881
32.02473262386724	2.1777728	1.4757279
32.04296723417845	2.1468592	1.4652164
32.0612026777311	2.1194499	1.4558331
32.07943895510129	2.1142242	1.4540372
32.097676066865304	2.066201	1.4374286
32.115914013599685	2.074875	1.4404427
32.13415279588115	2.159868	1.469649
32.152392414286666	2.2256186	1.4918507
32.1706328693934	2.2054033	1.4850601
32.18887416177875	2.1748445	1.4747354
32.20711629202032	2.2037532	1.4845043
32.225359260695924	2.1659508	1.471717
32.243603068383614	2.1513286	1.4667408
32.26184771566166	2.1685886	1.4726129
32.28009320310852	2.1412735	1.463309
32.2983395313029	2.1162057	1.4547185
32.31658670082372	2.0933228	1.446832
32.33483471225012	2.1649475	1.4713761
32.35308356616143	2.15811	1.4690506
32.371333263137245	2.0685372	1.438241
32.38958380375734	2.0851583	1.4440078
32.407835188601744	2.0511396	1.43218
32.42608741825067	1.9550164	1.398219
32.444340493284585	1.9199959	1.3856392
32.46259441428416	2.0125	1.4186261
32.48084918183028	2.048942	1.4314126
32.49910479650405	2.0593219	1.4350338
32.51736125888683	2.1341808	1.4608836
32.53561856956014	2.1047876	1.4507886
32.5538767291058	2.0561378	1.433924
32.572135738105764	2.0754662	1.4406478
32.59039559714228	2.0142848	1.419255
32.608656306797776	1.9103167	1.3821421
32.62691786765491	1.9388181	1.3924145
32.645180280296586	1.9616891	1.4006032
32.663443545305896	1.9961252	1.412843
32.68170766326619	2.0663083	1.4374659
32.69997263476099	2.1497164	1.466191
32.7182384603741	2.087463	1.4448055
32.7365051406895	1.99937	1.4139909
32.75477267629144	2.0212288	1.4216993
32.77304106776434	1.997076	1.4131794
32.79131031569289	1.9682574	1.402946
32.809580420661966	1.9746884	1.4052361
32.827851383256714	2.0528564	1.4327793
32.84612320406245	2.0164444	1.4200157
32.86439588366476	1.90454	1.3800507
32.88266942264945	1.855543	1.3621832
32.9009438216025	1.895954	1.3769364
32.9192190811102	2.0131018	1.4188381
32.937495201758985	2.0672626	1.4377979
32.95577218413556	2.010097	1.4177788
32.974050028826866	1.9618922	1.4006757
32.992328736420035	1.8383905	1.3558726
33.010608307502444	1.7952437	1.3398671
33.02888874266169	1.840476	1.3566414
33.047170042485604	1.9477568	1.3956206
33.06545220756225	2.0070643	1.416709
33.083735238479896	1.9701601	1.4036239
33.10201913582707	1.9117293	1.382653
33.12030390019248	1.9113835	1.382528
33.138589532165135	1.8593647	1.3635852
33.15687603233419	1.7918702	1.3386075
33.17516340128909	1.8800597	1.3711526
33.19345163961947	1.9581721	1.3993471
33.211740747915215	2.0005982	1.414425
33.23003072676643	2.020965	1.4216065
33.248321576763466	2.0416682	1.4288695
33.266613298496885	1.9506307	1.3966498
33.28490589255747	1.953285	1.3975997
33.30319935953626	1.9609708	1.4003466
33.32149370002451	1.9293541	1.3890119
33.339788914613706	1.9266018	1.3880208
33.358085003895575	2.0275133	1.4239078
33.376381968462034	1.9645739	1.4016325
33.39467980890529	1.9099151	1.3819968
33.41297852581774	1.9405184	1.3930249
33.43127811979204	1.9850179	1.4089066
33.44957859142105	1.9519815	1.3971334
33.467879941297866	1.9974077	1.4132967
33.486182170015844	1.881827	1.371797
33.50448527816853	1.8973589	1.3774465
33.522789266349754	1.949546	1.3962615
33.541094135153514	1.9415847	1.3934076
33.55939988517411	1.8232116	1.3502635
33.57770651700602	1.9060165	1.3805856
33.59601403124398	1.9875618	1.4098091
33.61432242848296	1.9281595	1.3885819
33.632631709318154	1.8381883	1.355798
33.650941874344994	1.8398474	1.3564098
33.66925292415916	1.9227858	1.3866456
33.68756485935654	2.059364	1.4350485
33.70587768053328	2.0690355	1.4384142
33.724191388285746	1.971768	1.4041966
33.74250598321054	1.9050691	1.3802425
33.760821465904506	1.9194218	1.385432
33.77913783696474	1.7834826	1.3354709
33.79745509698852	1.7507267	1.3231503
33.815773246573414	1.8561167	1.3623937
33.8340922863172	1.9169883	1.3845534
33.852412216817896	1.9656496	1.4020163
33.87073303867377	1.9313014	1.3897127
33.889054752483304	1.7909418	1.3382608
33.907377358845245	1.8867301	1.373583
33.92570085835853	2.0155578	1.4197034
33.94402525162239	2.010324	1.417859
33.96235053923627	1.9579383	1.3992635
33.980676721799824	1.8285961	1.352256
33.999003799912984	1.8273438	1.3517928
34.01733177417592	1.9284683	1.3886931
34.03566064518901	2.010789	1.4180229
34.0539904135529	1.9645755	1.4016331
34.07232107986846	1.98559	1.4091096
34.090652644736785	2.0147598	1.4194224
34.108985108759235	2.1010554	1.4495018
34.12731847253742	2.0484822	1.431252
34.14565273667313	1.9143492	1.3836001
34.16398790176847	1.9603075	1.4001098
34.18232396842574	2.114895	1.4542679
34.20066093724749	2.0793736	1.4420034
34.21899880883651	2.0443463	1.4298064
34.23733758379583	1.997184	1.4132177
34.25567726272874	1.9077266	1.3812047
34.27401784623872	1.8651909	1.3657199
34.29235933492957	1.9424235	1.3937086
34.31070172940526	2.0343847	1.4263186
34.32904503027003	2.1121643	1.4533287
34.347389238128386	2.0933797	1.4468516
34.36573435358502	2.055879	1.4338337
34.38408037724492	2.099342	1.4489107
34.402427309713296	2.084831	1.4438944
34.42077515159559	1.9874512	1.4097699
34.43912390349752	1.8751631	1.3693659
34.45747356602499	1.9284672	1.3886926
34.47582413978423	2.0736852	1.4400296
34.49417562538163	2.1261585	1.4581352
34.51252802342388	1.9387525	1.392391
34.53088133451789	1.8196098	1.3489292
34.54923555927084	1.8951085	1.3766294
34.567590698290104	1.9791412	1.4068196
34.58594675218336	1.9798391	1.4070675
34.6043037215585	2.0330105	1.4258368
34.62266160702365	2.177271	1.4755578
34.641020409187234	1.9858501	1.409202
34.65938012865785	1.7744229	1.3320746
34.677740766044394	1.896919	1.3772868
34.69610232195598	2.0651839	1.4370748
34.714464797002016	2.0435545	1.4295294
34.73282819179208	2.020354	1.4213916
34.751192506936064	1.8942401	1.3763139
34.76955774304408	1.7931925	1.3391014
34.7879239007265	1.8842553	1.3726817
34.80629098059391	2.1036713	1.4504038
34.824658983257194	2.1013527	1.4496043
34.843027909327446	1.96491	1.4017525
34.86139775941603	2.0314434	1.4252871
34.879768534134534	2.0903316	1.4457979
34.89814023409483	2.0694892	1.4385719
34.91651285990901	1.9466226	1.3952142
34.93488641218944	1.9005263	1.3785957
34.95326089154871	1.9056996	1.3804708
34.97163629859967	1.7121041	1.308474
34.99001263395542	1.6002138	1.2649956
35.00838989822934	1.709044	1.3073041
35.02676809203499	1.8386401	1.3559647
35.04514721598624	1.9067395	1.3808473
35.063527270697215	1.9035714	1.3796997
35.081908256782256	1.8247902	1.350848
35.10029017485597	1.8598655	1.3637689
35.11867302553321	1.9720863	1.4043099
35.137056809429104	1.8202053	1.3491498
35.155441527159006	1.797335	1.3406472
35.173827179338524	2.0679612	1.4380407
35.19221376658354	2.0999742	1.4491287
35.21060128951017	2.0991182	1.4488333
35.2289897487348	2.163494	1.470882
35.24737914487405	1.7964644	1.3403225
35.26576947854479	1.5863961	1.2595222
35.28416075036418	1.4786868	1.2160127
35.30255296094958	1.5760766	1.2554189
35.32094611091867	1.5998064	1.2648345
35.33934020088932	1.6271138	1.2755837
35.35773523147969	1.7903537	1.338041
35.3761312033082	2.158288	1.4691113
35.394528116993506	2.0005105	1.414394
35.41292597315452	1.8941964	1.3762981
35.431324772410434	2.1969383	1.4822072
35.449724515380666	2.1934166	1.4810188
35.46812520268491	2.048963	1.43142
35.486526834943106	1.958988	1.3996385
35.504929412775454	2.0917358	1.4462835
35.52333293680242	2.722243	1.6499221
35.54173740764471	2.9110897	1.7061915
35.560142825923286	2.4915168	1.5784539
35.5785491922594	1.7567749	1.3254339
35.59695650727454	0.95718116	0.97835636
35.61536477159042	0.4990961	0.70646733
