0.008763373481513119	0.051685803	0.22734512
0.026290120649546365	0.18429624	0.4292974
0.043816868432600686	0.12367553	0.35167533
0.06134361724069026	0.1494037	0.38652775
0.07887036748382949	0.17034326	0.4127266
0.0963971195720331	0.20705055	0.4550281
0.11392387391531617	0.33416772	0.5780724
0.1314506309236943	0.33375522	0.5777155
0.1489773910071836	0.29575062	0.54382956
0.16650415457580078	0.15167592	0.38945594
0.18403092203956356	0.14832415	0.38512874
0.20155769380849	0.20405927	0.4517292
0.2190844702925996	0.21041887	0.45871437
0.2366112519019124	0.17932656	0.42346966
0.2541380390464497	0.15646465	0.39555612
0.27166483213623416	0.16504936	0.40626267
0.28919163158128947	0.16537589	0.40666434
0.3067184377916406	0.14278652	0.37787104
0.324245251177314	0.15574045	0.39463964
0.34177207214833777	0.20698056	0.45495117
0.3592989011147415	0.21240115	0.46087
0.37682573848655654	0.22125247	0.47037482
0.39435258467381573	0.13866535	0.37237796
0.41187944008655414	0.15337025	0.39162514
0.42940630513480854	0.11951202	0.34570512
0.446933180228618	0.19294393	0.43925384
0.4644600657780234	0.22399569	0.47328183
0.48198696219306775	0.25796515	0.5079027
0.49951386988379676	0.18521865	0.43037036
0.5170407892602581	0.16237429	0.40295693
0.5345677207325025	0.14777264	0.38441208
0.5520946647105822	0.13565716	0.36831665
0.5696216216045534	0.15041983	0.38783994
0.5871485918244737	0.13469954	0.36701435
0.6046755757804043	0.12690754	0.35624084
0.6222025738824094	0.12894723	0.35909224
0.6397295865405557	0.1516752	0.389455
0.6572566141649129	0.17057648	0.41300905
0.6747836571655547	0.18077475	0.42517614
0.6923107159525568	0.17021808	0.41257495
0.7098377909359992	0.17444548	0.4176667
0.7273648825259653	0.17935552	0.42350385
0.7448919911325411	0.18041159	0.42474887
0.762419117165817	0.17911266	0.42321703
0.7799462610358868	0.20445389	0.45216578
0.7974734231528482	0.1887619	0.43446738
0.8150006039268024	0.19579156	0.4424834
0.8325278037678551	0.20593059	0.45379576
0.8500550230861152	0.21158437	0.45998302
0.8675822622916969	0.22726391	0.47672206
0.8851095217947171	0.2275327	0.47700387
0.9026368020052984	0.2368328	0.4866547
0.9201641033335665	0.2350916	0.48486245
0.9376914261896523	0.20175402	0.44917038
0.9552187709836915	0.19116066	0.43721923
0.9727461381258234	0.19276646	0.43905178
0.990273528026193	0.19914001	0.44625106
1.0078009410949496	0.18911725	0.43487614
1.0253283777422473	0.21877876	0.4677379
1.0428558383782454	0.31855795	0.5644094
1.0603833234131086	0.35612848	0.59676504
1.0779108332570058	0.3628907	0.6024041
1.0954383683201119	0.32695	0.5717954
1.112965929012607	0.35703075	0.59752053
1.1304935157446763	0.48581973	0.6970077
1.1480211289265108	0.51244026	0.71584934
1.1655487689683062	1.4084426	1.1867783
1.1830764362802655	1.7164538	1.310135
1.200604131272596	2.161999	1.4703737
1.2181318543555117	2.5006177	1.5813341
1.235659605939232	2.487247	1.5771009
1.253187386433982	3.71881	1.9284216
1.270715196249994	5.84194	2.4170105
1.2882430357975057	11.283313	3.3590643
1.3057709054867608	16.617	4.0763955
1.3232988057280106	23.081093	4.8042784
1.3408267369315112	28.364456	5.325829
1.358354699507526	31.72905	5.6328545
1.3758826938663256	35.685505	5.9737344
1.3934107204181858	37.53369	6.126475
1.410938779573391	37.955246	6.160783
1.4284668717422309	38.36693	6.194104
1.4459949973350033	37.82466	6.1501756
1.4635231567620117	37.864788	6.153437
1.4810513504335687	37.329514	6.1097884
1.4985795787599925	36.431923	6.0358863
1.5161078421516088	36.057487	6.004789
1.5336361410187505	35.162678	5.9298124
1.5511644757717598	35.044647	5.919852
1.5686928468209842	35.59262	5.9659553
1.58622125457678	36.174824	6.014551
1.6037496994495108	37.63252	6.134535
1.621278181849548	37.50752	6.124338
1.6388067021872719	38.21371	6.181724
1.6563352608730693	37.628853	6.1342363
1.673863858317336	37.04499	6.0864596
1.6913924949304753	36.355556	6.0295568
1.7089211711228998	35.171124	5.930525
1.7264498873050296	34.114563	5.8407674
1.7439786438872935	32.99551	5.7441716
1.7615074412801288	31.895433	5.647604
1.779036279893981	31.53364	5.6154823
1.796565160139305	30.832718	5.5527215
1.814094082426564	30.210728	5.4964285
1.8316230471662298	29.166557	5.400607
1.849152054768784	28.21052	5.3113575
1.8666811056447168	27.84545	5.276879
1.8842102002045273	27.14156	5.2097564
1.901739338858724	26.821283	5.178927
1.9192685220178245	25.713753	5.070873
1.9367977500923557	24.761911	4.9761343
1.9543270234928547	24.311924	4.930712
1.971856342629867	23.965837	4.8954916
1.9893857079139496	23.606335	4.858635
2.006915119755667	22.984863	4.7942533
2.0244445785655945	22.281069	4.7202826
2.0419740847543175	21.742287	4.6628623
2.0595036387324317	21.220753	4.606599
2.0770332409105414	20.729273	4.5529413
2.094562891699263	20.31477	4.5071907
2.1120925915092217	19.903114	4.461291
2.129622340751053	19.615032	4.428886
2.1471521398354043	187.65456	13.698707
2.1646819891729323	443.90268	21.068998
2.182211889174303	440.2663	20.982523
2.1997418402501974	452.8115	21.279367
2.2172718428113023	432.93127	20.807001
2.234801897268317	320.96768	17.915571
2.2523320040319548	17.278936	4.156794
2.269862163512935	16.791521	4.097746
2.287392376121992	16.240496	4.0299497
2.304922642269869	16.026978	4.003371
2.322452962367322	15.946648	3.9933255
2.3399833368251164	15.636743	3.954332
2.357513766054032	15.439811	3.9293525
2.3750442504648586	15.172694	3.8952143
2.3925747904683963	15.135827	3.890479
2.410105386475459	14.717668	3.8363612
2.4276360388968707	14.213572	3.7700891
2.445166748143469	14.040875	3.7471156
2.4626975146261025	13.853733	3.7220604
2.4802283387556323	13.709053	3.7025738
2.4977592209429305	13.462906	3.6691833
2.5152901615988825	13.166016	3.6285005
2.5328211611343865	12.999043	3.6054187
2.5503522199603523	12.563528	3.5445068
2.5678833384877024	12.360165	3.5157025
2.5854145171273712	12.092341	3.4774044
2.6029457562903064	11.940042	3.4554365
2.620477056387469	12.003475	3.4646032
2.6380084178298326	11.796624	3.4346213
2.655539841028383	11.561547	3.4002275
2.673071326394119	11.336618	3.3669896
2.6906028743380523	11.000092	3.3166387
2.708134485271211	10.94279	3.307989
2.7256661596046325	10.766789	3.2812786
2.743197897749369	10.487406	3.2384264
2.760729700116486	10.421227	3.2281926
2.778261567117063	10.324189	3.2131276
2.795793499162193	10.219649	3.1968186
2.8133254966629817	10.162383	3.1878493
2.830857560030551	10.043687	3.1691775
2.8483896896760337	9.761225	3.124296
2.865921886010578	9.662957	3.1085298
2.883454149445347	9.471858	3.0776384
2.9009864803915177	9.384591	3.063428
2.91851887926028	9.247389	3.040952
2.9360513464628384	9.073782	3.012272
2.953583882410413	8.983298	2.997215
2.9711164875142373	8.861885	2.9768918
2.9886491621855606	8.826302	2.970909
3.0061819068356455	8.781043	2.9632826
3.023714721875769	8.633006	2.9381979
3.041247607717225	8.494514	2.914535
3.0587805647713213	8.409306	2.8998802
3.0763135934493806	8.4405775	2.9052672
3.0938466941627407	8.378507	2.894565
3.1113798673227544	8.154896	2.8556778
3.1289131133407904	7.9602075	2.821384
3.1464464326282315	7.823097	2.79698
3.1639798255964786	7.8387623	2.799779
3.1815132926569443	7.754096	2.7846177
3.1990468342210603	7.7613926	2.7859275
3.216580450700272	7.656629	2.7670615
3.2341141425060416	7.5169897	2.7417128
3.251647910049847	7.3771925	2.7160988
3.2691817537431813	7.2018104	2.6836188
3.286715673997555	7.1707015	2.6778166
3.3042496712244938	7.0817933	2.6611638
3.32178374583554	6.9861603	2.6431346
3.339317898242251	6.9084244	2.6283882
3.3568521288562034	6.7709217	2.6020994
3.3743864380889876	6.698542	2.588154
3.3919208263522127	6.6618032	2.5810468
3.4094552940575023	6.703435	2.5890992
3.4269898416164972	6.7035923	2.5891297
3.444524469440858	6.701749	2.5887737
3.4620591779422587	6.6481404	2.5783987
3.479593967532391	6.5589204	2.561039
3.4971288386229658	6.5141883	2.5522907
3.5146637916257086	6.475767	2.5447528
3.5321988269523628	6.508073	2.5510924
3.5497339450146903	6.4220037	2.5341673
3.5672691462244708	6.329121	2.5157745
3.5848044309934988	6.161575	2.482252
3.60233979973359	6.098115	2.4694362
3.619875252856575	6.183227	2.4866095
3.6374107907743034	6.226878	2.4953713
3.6549464138986427	6.318903	2.513743
3.6724821226414788	6.3254557	2.515046
3.690017917414714	6.3391314	2.5177631
3.7075537986302702	6.341936	2.51832
3.7250897667000857	6.3883595	2.5275204
3.7426258220361235	6.563257	2.5618856
3.7601619650503553	6.8849225	2.6239135
3.777698196154779	7.4492545	2.7293322
3.7952345157614067	8.593013	2.931384
3.8127709242822716	9.248379	3.0411148
3.830307422129425	11.4587965	3.3850844
3.847844009714936	30.21121	5.4964724
3.8653806874508954	97.79409	9.88909
3.882917455749409	97.245476	9.861312
3.900454315022606	97.058105	9.851808
3.917991265682631	41.690323	6.4568043
3.9355283081416506	11.318365	3.3642778
3.9530654428118495	9.048528	3.0080771
3.970602670105433	7.698777	2.774667
3.9881399904346244	6.729543	2.5941362
4.005677404211669	6.582559	2.5656497
4.023214911848827	6.5883408	2.5667763
4.0407525137583855	6.5609317	2.5614316
4.058290210352644	6.473984	2.5444024
4.075828002043927	6.269696	2.503936
4.0933658892445814	6.202326	2.4904468
4.110903872366966	6.1799965	2.4859598
4.128441951823468	6.2189493	2.493782
4.145980128026488	6.291298	2.508246
4.163518401388452	6.317634	2.5134904
4.181056772321807	6.2627854	2.5025558
4.1985952412390155	6.2639017	2.5027788
4.216133808552567	6.296255	2.509234
4.233672474674966	6.3964596	2.5291224
4.251211240018741	6.5815105	2.5654454
4.268750104996445	6.756508	2.5993283
4.286289070020643	7.686762	2.772501
4.303828135503928	9.349274	3.0576582
4.3213673018589125	29.677082	5.4476676
4.3389065694982305	90.91889	9.53514
4.356445938834537	166.05234	12.886129
4.3739854102805085	171.58063	13.098879
4.391524984248844	172.4986	13.133872
4.409064661152262	136.3984	11.678973
4.426604441403504	96.77661	9.83751
4.444144325415337	75.968796	8.716008
4.461684313600543	22.058767	4.6966763
4.47922440637193	22.411318	4.7340593
4.496764604142329	20.552948	4.533536
4.5143049073245916	18.850937	4.3417664
4.531845316331589	16.778952	4.096212
4.5493858315762195	13.927622	3.731973
4.566926453471405	11.348394	3.3687377
4.584467182430081	9.238164	3.039435
4.602008018865218	8.159627	2.856506
4.619548963189798	7.4693685	2.7330146
4.637090015816834	6.9634776	2.6388402
4.654631177159353	6.6644974	2.5815687
4.672172447630417	6.4200425	2.5337803
4.689713827643102	6.2610025	2.5021996
4.7072553176105085	6.130459	2.4759762
4.724796917945764	5.990354	2.44752
4.742338629062015	5.891152	2.4271696
4.759880451372434	5.8029485	2.408931
4.777422385290215	5.672516	2.3817043
4.794964431228581	5.6049647	2.3674808
4.812506589600768	5.6662083	2.38038
4.830048860820047	5.709645	2.3894863
4.847591245299709	5.723414	2.3923657
4.8651337434530655	5.6562324	2.3782835
4.882676355693457	5.54133	2.354003
4.900219082434242	5.492027	2.3435073
4.917761924088813	5.5078907	2.3468895
4.935304881070575	5.6542315	2.3778627
4.952847953792969	5.6751275	2.3822527
4.970391142669449	5.6558437	2.3782017
4.9879344481135055	5.624066	2.3715112
5.005477870538642	5.6606445	2.379211
5.023021410358394	5.6492066	2.376806
5.040565067986324	5.5740385	2.3609402
5.05810884383601	5.5175514	2.3489468
5.075652738321066	5.432635	2.3308012
5.09319675185512	5.4667034	2.3380983
5.110740884851836	5.379886	2.3194582
5.128285137724894	5.4060426	2.3250897
5.145829510888007	5.436565	2.3316443
5.163374004754908	5.542527	2.3542573
5.1809186197393595	5.513388	2.3480606
5.198463356255145	5.46329	2.3373682
5.216008214716077	5.3504515	2.3131044
5.233553195535998	5.3247724	2.3075469
5.251098299128764	5.358636	2.3148727
5.268643525908272	5.27071	2.2958026
5.286188876288432	5.255977	2.2925918
5.3037343506831895	5.275601	2.2968676
5.32127994950651	5.242865	2.2897303
5.3388256731723915	5.2307243	2.2870777
5.356371522094851	5.1819506	2.2763898
5.373917496687938	5.2548523	2.2923465
5.391463597365729	5.2377605	2.2886155
5.40900982454232	5.2744894	2.2966256
5.426556178631843	5.170643	2.2739048
5.444102660048449	5.1712875	2.2740464
5.4616492692063225	5.1843815	2.2769237
5.479196006519669	5.300643	2.3023126
5.496742872402727	5.392982	2.3222795
5.514289867269756	5.358557	2.3148558
5.531836991535049	5.2646313	2.2944784
5.549384245612924	5.180258	2.276018
5.566931629917724	5.1722836	2.2742655
5.584479144863822	5.165542	2.2727828
5.6020267908656205	5.21937	2.284594
5.619574568337545	5.2194543	2.2846124
5.637122477694054	5.2205734	2.2848575
5.654670519349629	5.1481166	2.2689462
5.672218693718784	5.133934	2.2658186
5.689767001216059	5.209542	2.282442
5.707315442256021	5.167354	2.2731814
5.724864017253266	5.174122	2.2746696
5.7424127266224225	5.1614876	2.2718906
5.75996157077814	5.1994267	2.280225
5.777510550135105	5.18626	2.2773361
5.795059665108022	5.16981	2.2737217
5.812608916111639	5.185398	2.2771468
5.830158303560715	5.3249936	2.3075948
5.847707827870055	5.3874755	2.3210936
5.86525748945448	5.481007	2.341155
5.8828072887288485	5.623236	2.3713365
5.900357226108044	5.673833	2.381981
5.917907302006979	5.7573595	2.3994498
5.9354575168406	6.313637	2.512695
5.9530078710238765	6.8855996	2.6240425
5.970558364971812	7.3938594	2.719165
5.988108999099438	7.680864	2.7714372
6.005659773821818	8.218281	2.8667543
6.023210689554039	8.073649	2.8414168
6.040761746711227	8.561912	2.9260745
6.058312945708531	7.864178	2.8043141
6.075864286961132	7.2546124	2.6934388
6.093415770884244	6.6098385	2.5709605
6.1109673978931065	6.106514	2.471136
6.128519168402993	5.5631723	2.3586378
6.146071082829204	5.3762536	2.318675
6.163623141587075	5.2631226	2.2941496
6.181175345091969	5.2026052	2.280922
6.198727693759281	5.2307043	2.2870734
6.216280188004435	5.2760673	2.2969692
6.233832828242885	5.298766	2.301905
6.251385614890126	5.3010798	2.3024073
6.268938548361669	5.1936393	2.2789557
6.286491629073067	5.1047792	2.2593758
6.304044857439898	5.0133414	2.2390492
6.321598233877777	4.9446774	2.223663
6.339151758802344	4.917397	2.2175205
6.356705432629277	4.963446	2.2278793
6.37425925577428	5.022151	2.2410157
6.391813228653095	5.0787005	2.2535973
6.409367351681486	5.039465	2.2448752
6.426921625275259	4.992631	2.2344196
6.44447604985025	4.994163	2.2347624
6.46203062582232	5.0057883	2.237362
6.47958535360737	5.056468	2.2486591
6.497140233621328	5.0971274	2.2576818
6.514695266280161	5.087561	2.2555623
6.532250451999859	5.1202226	2.262791
6.549805791196454	5.114357	2.2614944
6.567361284286002	5.0999765	2.2583127
6.584916931684597	5.0193195	2.2403839
6.602472733808367	4.957336	2.2265077
6.6200286910734665	4.9798665	2.2315614
6.637584803896092	5.0211253	2.2407868
6.655141072692462	5.0772443	2.2532742
6.672697497878842	5.073205	2.2523777
6.690254079871514	5.0310707	2.2430048
6.707810819086808	5.0433817	2.2457476
6.725367715941078	5.0410852	2.2452362
6.742924770850719	5.0525637	2.2477908
6.760481984232151	5.063076	2.250128
6.778039356501836	5.093745	2.2569327
6.795596888076266	5.110388	2.2606168
6.813154579371963	5.0801578	2.2539206
6.830712430805492	5.041908	2.2454193
6.84827044279344	5.0311456	2.2430215
6.865828615752445	5.0010405	2.2363007
6.883386950099159	5.0397243	2.2449331
6.900945446250287	5.0493145	2.247068
6.918504104622553	5.0327063	2.2433693
6.936062925632727	5.0433354	2.245737
6.953621909697607	5.0832796	2.254613
6.971181057234028	5.077009	2.253222
6.988740368658859	5.1381564	2.26675
7.006299844389007	5.1574736	2.271007
7.023859484841407	5.3192554	2.3063512
7.041419290433036	5.403299	2.3244996
7.058979261580902	5.5508065	2.356015
7.0765393987020495	5.73625	2.395047
7.094099702213559	6.0291634	2.4554355
7.111660172532549	6.35356	2.5206268
7.129220810076164	6.7287183	2.5939772
7.146781615261595	7.3266964	2.706787
7.16434258850606	7.6579633	2.7673025
7.181903730226821	8.198848	2.863363
7.1994650408411704	8.34792	2.8892767
7.217026520766437	8.467715	2.9099338
7.234588170419983	8.617871	2.935621
7.252149990219215	8.680339	2.9462414
7.269711980581568	8.600146	2.9326005
7.2872741419245175	8.38826	2.8962493
7.304836474665574	7.89924	2.8105586
7.322398979222286	7.5343275	2.744873
7.339961656012233	7.2606106	2.694552
7.357524505453039	6.8905606	2.6249878
7.375087527962357	6.650026	2.5787644
7.392650723957886	6.30196	2.5103705
7.410214093857353	5.9536567	2.4400115
7.427777638078528	5.715698	2.3907526
7.445341357039213	5.652569	2.3775132
7.4629052511572525	5.5222807	2.3499534
7.480469320850524	5.426509	2.3294868
7.498033566536948	5.4024334	2.3243136
7.5155979886344735	5.4027658	2.324385
7.5331625875610975	5.347431	2.3124514
7.550727363734844	5.235869	2.288202
7.568292317573788	5.2183394	2.2843685
7.585857449496025	5.2428336	2.2897234
7.603422759919705	5.283924	2.2986789
7.620988249263007	5.2701836	2.2956882
7.638553917944147	5.206973	2.2818792
7.656119766381391	5.206204	2.2817109
7.673685794993023	5.2063704	2.281747
7.691252004197388	5.2595487	2.2933705
7.70881839441285	5.247116	2.2906585
7.726384966057826	5.2531505	2.2919753
7.743951719550762	5.25477	2.2923284
7.761518655310149	5.291896	2.3004122
7.779085773754511	5.32446	2.3074791
7.796653075302419	5.383034	2.3201368
7.814220560372475	5.369012	2.317113
7.831788229383323	5.3186445	2.3062186
7.8493560827536495	5.3539405	2.3138583
7.866924120902174	5.408856	2.3256948
7.884492344247663	5.4244876	2.329053
7.9020607532089135	5.3974357	2.3232381
7.919629348204771	5.3748245	2.3183668
7.937198129654115	5.365744	2.3164077
7.954767097975865	5.3770957	2.3188565
7.972336253588986	5.351024	2.3132281
7.989905596912472	5.3697915	2.317281
8.007475128365371	5.3887095	2.3213594
8.025044848366756	5.405246	2.3249185
8.042614757335754	5.4911876	2.3433282
8.060184855691523	5.5401525	2.3537529
8.07775514385327	5.6957765	2.3865826
8.095325622240228	5.7806635	2.404301
8.112896291271687	5.8461547	2.4178822
8.130467151366968	5.90625	2.4302778
8.148038202945436	5.9016776	2.4293368
8.165609446426497	5.922325	2.4335828
8.183180882229594	5.991187	2.4476902
8.200752510774217	6.021163	2.453806
8.218324332479893	6.0758524	2.4649243
8.235896347766193	6.104048	2.470637
8.253468557052724	6.0753226	2.464817
8.27104096075914	6.029217	2.4554462
8.288613559305137	6.0434985	2.4583528
8.306186353110448	6.139507	2.4778028
8.32375934259485	6.247181	2.4994361
8.341332528178162	6.278723	2.505738
8.358905910280246	6.3094096	2.511854
8.376479489321003	6.279372	2.5058675
8.394053265720377	6.337518	2.5174427
8.411627239898356	6.275252	2.5050452
8.42920141227497	6.219087	2.4938097
8.44677578327029	6.183541	2.4866726
8.464350353304427	6.150276	2.479975
8.48192512279754	6.222962	2.4945865
8.499500092169827	6.213919	2.4927733
8.51707526184153	6.254871	2.500974
8.534650632232934	6.2239823	2.494791
8.552226203764365	6.259388	2.5018768
8.569801976856192	6.277533	2.5055006
8.587377951928834	6.2862315	2.5072358
8.60495412940274	6.2630296	2.5026045
8.622530509698416	6.3425283	2.5184376
8.6401070932364	6.4961557	2.5487556
8.657683880437283	6.6372538	2.5762868
8.675260871721695	6.766618	2.6012723
8.692838067510303	6.875821	2.6221788
8.710415468223834	7.0155387	2.6486862
8.727993074283043	7.0870543	2.6621523
8.745570886108737	7.118701	2.6680894
8.763148904121765	7.2783766	2.6978467
8.78072712874302	7.3143854	2.7045121
8.798305560393441	7.550937	2.747897
8.815884199494006	7.6455774	2.7650638
8.833463046465745	7.8311152	2.798413
8.851042101729728	7.9964857	2.8278058
8.86862136570707	8.246298	2.8716369
8.886200838818924	8.297068	2.8804631
8.903780521486505	8.300866	2.8811224
8.921360414131055	8.454911	2.907733
8.938940517173874	8.708019	2.9509354
8.956520831036297	8.9116	2.9852304
8.97410135613971	9.176071	3.0292032
8.99168209290554	9.27795	3.0459728
9.009263041755265	9.5219145	3.0857599
9.026844203110405	9.725174	3.1185212
9.044425577392525	9.918362	3.149343
9.062007165023239	10.018614	3.1652193
9.079588966424197	10.282245	3.206594
9.097170982017108	10.359651	3.218641
9.11475321222372	11.305848	3.362417
9.132335657465825	12.199405	3.4927647
9.149918318165264	12.3938675	3.5204926
9.167501194743924	12.946073	3.5980651
9.18508428762374	12.562834	3.5444088
9.202667597226693	12.537091	3.5407755
9.220251123974803	12.309692	3.508517
9.237834868290143	12.037172	3.4694629
9.255418830594836	11.723977	3.4240294
9.273003011311046	11.211774	3.3483987
9.290587410860985	11.004071	3.3172386
9.308172029666911	10.322693	3.2128947
9.32575686815113	10.056244	3.171158
9.343341926735997	8.735354	2.9555633
9.360927205843916	8.551125	2.9242306
9.378512705897327	8.4326	2.903894
9.396098427318728	8.31344	2.8833036
9.413684370530664	8.274166	2.876485
9.431270535955722	8.160006	2.8565724
9.448856924016539	8.059749	2.8389697
9.466443535135806	7.767114	2.7869542
9.484030369736251	7.7004614	2.7749705
9.501617428240658	7.6709876	2.7696548
9.519204711071852	7.747189	2.7833772
9.536792218652714	7.7859864	2.790338
9.55437995140617	7.833274	2.7987986
9.571967909755191	7.8731484	2.8059132
9.589556094122802	7.8807936	2.807275
9.60714450493207	7.8480544	2.8014379
9.624733142606116	7.8585324	2.8033073
9.642322007568108	7.8863235	2.80826
9.659911100241267	7.974657	2.8239436
9.677500421048851	7.950068	2.8195865
9.695089970414175	7.9810185	2.8250697
9.712679748760609	8.042845	2.835991
9.730269756511557	8.088814	2.844084
9.747859994090492	8.136434	2.8524435
9.765450461920915	8.20445	2.864341
9.78304116042639	8.271513	2.8760238
9.800632090030527	8.298814	2.8807662
9.81822325115699	8.315326	2.8836308
9.835814644229481	8.348402	2.8893602
9.853406269671762	8.3486185	2.8893976
9.870998127907646	8.398596	2.8980331
9.888590219360985	8.3818865	2.8951488
9.906182544455698	8.429796	2.9034111
9.923775103615734	8.450565	2.9069855
9.941367897265108	8.421688	2.9020145
9.958960925827878	8.423424	2.9023135
9.97655418972816	8.350522	2.8897269
9.994147689390106	8.388186	2.8962367
10.011741425237934	8.304718	2.8817909
10.029335397695904	8.263402	2.8746133
10.04692960718833	8.163438	2.857173
10.06452405413958	8.201633	2.8638494
10.082118738974064	8.297791	2.8805885
10.099713662116246	8.350873	2.8897877
10.117308823990651	8.414266	2.9007354
10.134904225021844	8.316777	2.8838823
10.152499865634445	8.239194	2.8703997
10.170095746253125	8.176651	2.8594844
10.18769186730261	8.198198	2.8632495
10.205288229207675	8.260045	2.8740294
10.222884832393145	8.300442	2.8810487
10.2404816772839	8.28408	2.8782077
10.258078764304868	8.213318	2.8658886
10.275676093881035	8.146661	2.8542356
10.293273666437438	8.08699	2.8437634
10.310871482399158	8.183417	2.8606672
10.32846954219134	8.144035	2.8537757
10.346067846239173	8.126271	2.8506615
10.363666394967908	8.046749	2.8366792
10.38126518880283	8.035648	2.8347218
10.398864228169298	8.121707	2.849861
10.416463513492713	8.168847	2.8581195
10.434063045198531	8.209226	2.8651745
10.451662823712262	8.178201	2.8597553
10.469262849459467	8.201407	2.86381
10.486863122865758	8.209728	2.8652623
10.504463644356806	8.193986	2.862514
10.522064414358338	8.066845	2.8402193
10.539665433296118	7.983824	2.825566
10.557266701595987	7.93836	2.8175097
10.574868219683818	7.864876	2.8044386
10.592469987985552	7.783597	2.7899098
10.610072006927185	7.6380935	2.76371
10.627674276934751	7.5828114	2.7536905
10.64527679843435	7.369017	2.7145934
10.662879571852143	7.27201	2.6966665
10.680482597614331	7.170609	2.6777992
10.698085876147173	7.076747	2.6602156
10.715689407876988	7.021413	2.6497948
10.733293193230146	6.9285035	2.632205
10.750897232633072	6.8551455	2.6182332
10.76850152651225	6.734086	2.5950117
10.786106075294207	6.6353335	2.5759141
10.803710879405534	6.5697236	2.5631473
10.821315939272877	6.473826	2.5443714
10.83892125532294	6.3395343	2.5178432
10.856526827982472	6.1960635	2.4891894
10.874132657678285	6.175138	2.4849825
10.891738744837243	6.2254286	2.495081
10.909345089886271	6.1850443	2.486975
10.926951693252343	6.135841	2.477063
10.944558555362494	6.1209393	2.4740531
10.96216567664381	6.0826883	2.4663107
10.979773057523436	6.031605	2.4559326
10.997380698428573	5.9246407	2.4340584
11.014988599786477	5.8589115	2.4205189
11.032596762024461	5.749332	2.3977764
11.050205185569892	5.6412206	2.3751254
11.067813870850198	5.640846	2.3750465
11.085422818292859	5.591217	2.3645754
11.10303202832541	5.488761	2.3428104
11.120641501375454	5.3847446	2.3205051
11.138251237870636	5.2583485	2.293109
11.155861238238671	5.217165	2.2841115
11.173471502907317	5.200005	2.2803519
11.191082032304402	5.248314	2.2909198
11.208692826857805	5.2061505	2.281699
11.226303886995465	5.164529	2.27256
11.243915213145371	5.0662117	2.2508247
11.261526805735578	4.9986525	2.2357666
11.279138665194196	4.900278	2.2136571
11.296750791949393	4.801651	2.191267
11.314363186429393	4.7677474	2.1835172
11.331975849062479	4.7259803	2.173932
11.34958878027699	4.6880674	2.1651945
11.36720198050133	4.6653037	2.1599314
11.384815450163948	4.572024	2.1382291
11.402429189693366	4.531834	2.1288104
11.420043199518153	4.515489	2.124968
11.437657480066942	63.541702	7.971305
11.455272031768422	85.256874	9.233465
11.472886855051353	107.58854	10.37249
11.490501950344528	99.15859	9.957841
11.508117318076819	84.4659	9.190533
11.52573295867715	45.89146	6.7743235
11.543348872574514	4.16521	2.0408845
11.560965060197946	4.2026396	2.050034
11.57858152197655	4.197515	2.0487838
11.59619825833949	4.169595	2.0419586
11.613815269715985	4.1322627	2.0327969
11.631432556535323	38.62787	6.215132
11.649050119226837	83.14911	9.118613
11.666667958219929	93.49933	9.669505
11.68428607394406	107.68852	10.377308
11.701904466828756	82.48415	9.082079
11.719523137303586	65.33738	8.083154
11.737142085798196	4.5814295	2.1404274
11.754761312742286	3.6896935	1.9208574
11.772380818565619	3.633272	1.9061143
11.790000603698015	3.6049721	1.8986764
11.80762066856935	3.5894048	1.8945725
11.825241013609572	3.5874956	1.8940685
11.842861639248683	3.5845318	1.893286
11.860482545916748	3.548949	1.8838655
11.878103734043883	3.4902112	1.8682107
11.895725204060282	3.408557	1.8462278
11.91334695639619	3.4027972	1.8446672
11.930968991481919	3.4110744	1.8469094
11.948591309747824	3.4118142	1.8471097
11.966213911624347	3.3880322	1.8406608
11.98383679754198	3.2916644	1.8142945
12.001459967931268	3.2585683	1.8051505
12.019083423222835	3.2458572	1.8016263
12.036707163847352	3.282714	1.8118261
12.05433119023556	3.2903576	1.8139343
12.071955502818259	3.292195	1.8144407
12.089580102026313	3.2821984	1.8116839
12.107204988290643	3.2439682	1.8011019
12.12483016204224	3.205773	1.7904673
12.142455623712152	3.176676	1.7823232
12.16008137373149	3.1369355	1.7711396
12.177707412531431	3.1267138	1.7682517
12.19533374054321	3.121484	1.7667722
12.212960358198126	3.0709374	1.752409
12.230587265927545	3.0722737	1.7527902
12.248214464162889	3.0379198	1.742963
12.265841953335649	3.0603278	1.7493793
12.283469733877375	2.9867582	1.728224
12.301097806219685	2.9597628	1.7203962
12.31872617079425	2.931108	1.7120479
12.336354828032825	2.946271	1.7164705
12.353983778367205	2.9684112	1.7229078
12.371613022229262	2.9849722	1.7277073
12.389242560050928	3.0227766	1.7386134
12.406872392264201	3.0000627	1.7320689
12.424502519301143	2.9631734	1.721387
12.442132941593874	2.8750596	1.6956
12.459763659574586	2.8157566	1.6780217
12.477394673675532	2.8429139	1.6860943
12.49502598432903	2.8463109	1.6871014
12.51265759196746	2.830655	1.6824551
12.530289497023267	2.809488	1.6761527
12.547921699928967	2.7994835	1.6731657
12.565554201117134	2.8182662	1.6787692
12.583187001020404	2.8007383	1.6735407
12.600820100071486	2.7817335	1.667853
12.618453498703152	2.7789006	1.6670035
12.636087197348235	2.778645	1.6669269
12.65372119643964	2.7648704	1.66279
12.671355496410326	2.8177907	1.6786276
12.68899009769333	2.8813226	1.6974459
12.706625000721749	2.9607537	1.720684
12.724260205928752	2.9870236	1.7283008
12.741895713747551	3.0099027	1.7349072
12.759531524611454	3.0573628	1.7485316
12.777167638953818	3.0755646	1.7537287
12.794804057208072	3.0220304	1.7383988
12.812440779807702	3.0418959	1.7441032
12.830077807186271	3.1744125	1.7816881
12.847715139777405	3.2538753	1.8038502
12.865352778014795	3.456796	1.859246
12.882990722332197	3.5575955	1.886159
12.90062897316344	3.6909163	1.9211757
12.918267530942412	3.7539723	1.937517
12.935906396103071	3.6388102	1.9075665
12.953545569079449	3.7637556	1.9400401
12.971185050305628	3.606982	1.8992056
12.988824840215775	3.5905619	1.8948778
13.006464939244115	3.5862656	1.8937438
13.024105347824943	3.4252868	1.8507531
13.041746066392617	3.5465937	1.8832402
13.05938709538157	3.3497384	1.830229
13.077028435226296	3.3302052	1.824885
13.094670086361363	3.2317932	1.7977189
13.112312049221401	3.1917114	1.7865361
13.129954324241112	3.1682718	1.779964
13.147596911855258	2.9590425	1.7201868
13.165239812498685	2.9228334	1.7096297
13.182883026606293	2.826264	1.6811496
13.200526554613058	2.7937114	1.6714399
13.218170396954017	2.7635674	1.6623981
13.235814554064284	2.735229	1.6538528
13.253459026379034	2.742299	1.6559888
13.271103814333523	2.6790736	1.6367875
13.288748918363058	2.6669314	1.6330742
13.306394338903031	2.6448448	1.6262978
13.32404007638889	2.6511443	1.6282334
13.341686131256164	2.6562872	1.629812
13.359332503940449	2.6704204	1.6341422
13.376979194877402	2.6918356	1.6406815
13.394626204502751	2.7430048	1.656202
13.412273533252307	2.7854903	1.6689788
13.429921181561937	2.776885	1.6663988
13.447569149867581	2.7924876	1.6710738
13.465217438605247	2.7629457	1.6622111
13.482866048211022	2.7014136	1.6435977
13.500514979121052	2.693317	1.6411328
13.518164231771568	2.663745	1.6320983
13.535813806598844	2.6879563	1.6394988
13.553463704039254	2.7077296	1.6455181
13.571113924529229	2.7267523	1.651288
13.588764468505275	2.7113314	1.646612
13.606415336403956	2.7005634	1.6433392
13.624066528661917	2.745148	1.6568488
13.641718045715882	2.8345618	1.6836157
13.659369888002635	2.940099	1.7146717
13.67702205595903	2.984915	1.7276907
13.694674550021993	3.0342515	1.7419103
13.712327370628532	3.0972242	1.7598933
13.729980518215713	3.1709487	1.7807158
13.747633993220681	3.2327287	1.7979791
13.765287796080647	3.251092	1.8030784
13.7829419272329	3.3130288	1.8201728
13.800596387114801	3.3575277	1.8323557
13.818251176163775	3.389561	1.841076
13.835906294817324	3.394713	1.8424747
13.853561743513023	3.4574478	1.8594214
13.871217522688525	3.4835007	1.8664138
13.888873632781538	3.4633765	1.861015
13.906530074229858	3.4267542	1.8511494
13.92418684747135	3.4289644	1.8517463
13.941843952943948	3.4595804	1.8599948
13.959501391085665	3.478315	1.8650242
13.977159162334578	3.3934646	1.8421359
13.994817267128846	3.334494	1.8260597
14.012475705906693	3.2301712	1.7972677
14.030134479106424	3.147105	1.7740082
14.047793587166414	3.083433	1.7559706
14.065453030525108	3.0395572	1.7434326
14.083112809621026	3.0038178	1.7331525
14.100772924892766	2.9613764	1.720865
14.118433376778997	2.9199567	1.708788
14.136094165718458	2.8686953	1.6937224
14.153755292149969	2.7950594	1.6718432
14.171416756512416	2.735959	1.6540735
14.189078559244768	2.6861835	1.6389581
14.20674070078606	2.6158912	1.6173717
14.224403181575408	2.5022957	1.5818646
14.242066002051999	2.457804	1.5677385
14.259729162655093	2.453229	1.5662787
14.277392663824022	2.4880707	1.577362
14.295056505998208	2.4987895	1.580756
14.312720689617128	2.4955094	1.5797181
14.330385215120348	2.4372303	1.5611632
14.348050082947497	2.3875973	1.5451852
14.3657152935383	2.382081	1.5433992
14.383380847332528	2.3555586	1.5347829
14.401046744770051	2.361093	1.5365849
14.418712986290798	2.3681488	1.538879
14.436379572334793	2.3931234	1.5469723
14.454046503342123	2.4106512	1.5526272
14.471713779752946	2.4111054	1.5527735
14.489381402007504	2.3755023	1.5412664
14.507049370546113	2.3789692	1.5423907
14.524717685809168	2.3645449	1.5377077
14.542386348237134	2.37529	1.5411975
14.560055358270553	2.370121	1.5395198
14.577724716350051	2.425752	1.5574826
14.595394422916325	2.4098005	1.5523533
14.61306447841015	2.3990924	1.5489004
14.63073488327237	2.3910751	1.5463102
14.648405637943917	2.4569554	1.5674678
14.6660767428658	2.502309	1.5818689
14.683748198479094	2.5827851	1.6071045
14.701420005224954	2.6208987	1.618919
14.719092163544628	2.7067454	1.645219
14.73676467387942	2.7238245	1.6504014
14.754437536670727	2.7273395	1.6514659
14.772110752360014	2.6977932	1.642496
14.78978432138882	2.6776757	1.6363605
14.807458244198777	2.6790128	1.636769
14.82513252123159	2.6864145	1.6390285
14.842807152929028	2.7444324	1.6566329
14.860482139732962	2.7346232	1.6536696
14.87815748208531	2.7332666	1.6532594
14.8958331804281	2.7616134	1.6618103
14.91350923520342	2.71291	1.6470914
14.931185646853438	2.6884458	1.6396481
14.948862415820408	2.67881	1.6367071
14.966539542546656	2.7018886	1.6437422
14.98421702747459	2.6887498	1.6397408
15.001894871046696	2.6841075	1.6383246
15.019573073705542	2.6766331	1.6360419
15.037251635893766	2.6955383	1.6418095
15.054930558054092	2.7621245	1.661964
15.072609840629323	2.8227828	1.6801139
15.090289484062351	2.9368978	1.713738
15.107969488796124	3.1962574	1.787808
15.125649855273691	3.6036208	1.8983206
15.14333058393817	4.095181	2.0236554
15.161011675232768	5.080538	2.2540047
15.17869312960076	6.44156	2.5380228
15.196374947485506	8.327548	2.885749
15.214057129330447	11.359794	3.3704293
15.231739675579114	16.04239	4.0052953
15.249422586675102	20.999298	4.582499
15.267105863062092	24.117565	4.9109635
15.284789505183847	24.424496	4.9421144
15.302473513484218	22.291489	4.7213864
15.320157888407127	18.593285	4.311993
15.337842630396578	14.379464	3.7920263
15.355527739896656	11.153539	3.3396914
15.37321321735153	8.68866	2.9476533
15.39089906320545	6.385847	2.5270233
15.408585277902748	4.824268	2.1964216
15.42627186188783	3.7353215	1.932698
15.443958815605198	3.1866477	1.7851183
15.461646139499424	2.847246	1.6873784
15.479333834015168	2.7158973	1.647998
15.497021899597165	2.7002394	1.6432406
15.514710336690234	2.6629903	1.6318672
15.53239914573928	2.6497	1.6277899
15.550088327189297	2.6077387	1.6148494
15.567777881485336	2.5919566	1.6099554
15.58546780907256	2.5224814	1.5882322
15.6031581103962	2.5311964	1.5909734
15.620848785901568	2.5217147	1.5879908
15.638539836034063	2.5162835	1.5862797
15.656231261239173	2.5016155	1.5816497
15.673923061962451	2.490986	1.5782858
15.691615238649552	2.4877737	1.5772678
15.709307791746202	2.4443262	1.5634341
15.727000721698221	2.4451315	1.5636916
15.744694028951498	2.4720857	1.5722867
15.76238771395202	2.5019763	1.5817636
15.780081777145844	2.4574115	1.5676134
15.797776218979125	2.4101098	1.5524528
15.815471039898094	2.3995733	1.5490556
15.833166240349064	2.4082074	1.5518401
15.850861820778437	2.3971796	1.5482827
15.868557781632699	2.403181	1.5502197
15.886254123358412	2.399069	1.5488929
15.903950846402232	2.4020207	1.5498453
15.921647951210897	2.3651838	1.5379155
15.939345438231225	2.384768	1.5442694
15.957043307910133	2.3882184	1.5453862
15.974741560694602	2.4208367	1.5559038
15.992440197031714	2.4337645	1.5600528
16.01013921736862	2.445149	1.5636972
16.02783862215259	2.4290898	1.5585537
16.045538411830933	2.4068942	1.5514169
16.06323858685107	2.4299717	1.5588367
16.080939147660512	2.4248848	1.5572041
16.09864009470684	2.4135652	1.5535653
16.11634142843774	2.438473	1.5615611
16.134043149300954	2.425669	1.5574559
16.15174525774433	2.4316552	1.5593765
16.169447754215817	2.4425664	1.5628712
16.18715063916342	2.4536061	1.5663991
16.204853913035244	2.44822	1.5646789
16.222557576279478	2.4286249	1.5584046
16.240261629344403	22.406614	4.7335625
16.257966072678386	42.97501	6.555533
16.275670906729868	38.10393	6.172838
16.293376131947387	2.5352945	1.5922608
16.31108174877957	2.5440106	1.5949955
16.328787757675133	2.537462	1.5929413
16.34649415908287	2.5319011	1.5911949
16.364200953451657	2.551228	1.5972564
16.38190814123048	2.5852113	1.6078593
16.39961572286839	2.6366332	1.6237713
16.41732369881455	2.663916	1.6321508
16.43503206951817	2.701128	1.6435108
16.45274083542859	2.7663987	1.6632494
16.47044999699522	2.8295324	1.6821214
16.488159554667558	2.8899076	1.6999729
16.505869508895184	2.9194243	1.7086322
16.523579860127786	2.9579754	1.7198765
16.541290608815117	2.9641378	1.7216672
16.559001755407035	3.0202532	1.7378876
16.57671330035348	3.0744348	1.7534066
16.59442524410448	3.1414003	1.7723995
16.61213758711015	3.213601	1.792652
16.629850329820705	3.283476	1.8120365
16.647563472686436	3.3719661	1.8362914
16.665277016157724	3.4184399	1.8489023
16.682990960685053	3.454026	1.858501
16.70070530671898	3.48037	1.865575
16.718420054710155	3.5077968	1.8729113
16.736135205109335	3.54863	1.8837807
16.753850758367335	3.5501812	1.8841925
16.771566714935087	3.609325	1.8998224
16.789283075263597	3.6690772	1.9154835
16.80699983980398	3.7367764	1.9330744
16.82471700900741	3.8339062	1.9580363
16.84243458332518	3.8898077	1.9722595
16.860152563208665	3.9638586	1.9909441
16.87787094910932	4.090072	2.0223927
16.89558974147871	4.1898756	2.0469186
16.913308940768466	4.224154	2.0552747
16.931028547430333	4.212659	2.0524762
16.94874856191613	4.241092	2.0593913
16.966468984677785	4.3020835	2.0741465
16.98418981616729	4.367919	2.0899568
17.00191105683676	4.4112883	2.1003067
17.019632707138374	4.462498	2.1124625
17.03735476752442	4.49083	2.1191578
17.05507723844728	4.565447	2.1366906
17.072800120359403	4.6068854	2.1463656
17.090523413713353	4.6754627	2.1622818
17.108247118961785	4.682227	2.1638455
17.125971236557437	4.649468	2.1562624
17.143695766953133	4.6458225	2.155417
17.161420710601806	4.680279	2.1633952
17.179146067956477	4.692367	2.1661873
17.19687183947025	4.6797175	2.1632655
17.21459802559634	4.689982	2.1656365
17.232324626788028	4.718219	2.172146
17.25005164349871	4.721338	2.172864
17.267779076181863	4.7180567	2.172109
17.285506925291074	4.7105293	2.1703753
17.30323519127999	4.650527	2.156508
17.320963874602384	4.5799284	2.1400766
17.33869297571211	4.545702	2.1320653
17.356422495063114	4.572274	2.1382878
17.37415243310944	4.5707107	2.137922
17.391882790305218	4.546146	2.1321692
17.40961356710468	4.542839	2.1313937
17.42734476396215	4.5561705	2.1345189
17.445076381332044	4.5840907	2.141049
17.462808419668868	4.6124086	2.147652
17.48054087942723	4.6933184	2.1664069
17.498273761061835	4.93289	2.221011
17.51600706502747	5.448579	2.3342192
17.533740791779024	6.20786	2.4915578
17.551474941771485	7.695306	2.7740414
17.56920951545993	8.837843	2.972851
17.586944513299528	11.0385685	3.3224342
17.60467993574556	12.637688	3.5549526
17.622415783253373	14.215999	3.770411
17.64015205627843	15.61069	3.9510367
17.657888755276293	16.642673	4.079543
17.675625880702604	17.214664	4.149056
17.69336343301311	17.02526	4.126168
17.71110141266366	16.27762	4.0345535
17.728839820110178	15.258083	3.9061596
17.746578655808705	14.350066	3.7881482
17.764317920215372	12.879822	3.588847
17.7820576137864	11.399885	3.3763716
17.79979773697811	9.457766	3.0753481
17.81753829024692	7.5908027	2.755141
17.835279274049356	5.930675	2.4352977
17.85302068884201	4.9055076	2.214838
17.870762535081607	4.236761	2.0583394
17.888504813224934	3.910632	1.9775318
17.90624752372891	3.7115738	1.9265445
17.923990667050536	3.6200447	1.9026415
17.941734243646895	3.5017526	1.871297
17.959478253975185	3.4692247	1.8625855
17.9772226984927	3.467855	1.8622178
17.994967577656833	3.4628153	1.8608642
18.01271289192506	3.4318824	1.852534
18.030458641754965	3.3547525	1.8315984
18.04820482760425	3.326001	1.8237327
18.06595144993067	3.3465767	1.8293651
18.083698509192125	3.3548675	1.8316298
18.101446005846576	3.2860703	1.8127521
18.119193940352105	3.2065845	1.7906939
18.136942313166887	3.1837556	1.7843082
18.1546911247492	3.1880476	1.7855104
18.1724403755574	3.2002244	1.7889171
18.19019006604997	3.196351	1.7878342
18.207940196685467	3.1964922	1.7878736
18.225690767922575	3.2191732	1.7942054
18.243441780220046	3.207464	1.7909395
18.261193234036764	3.1415868	1.7724522
18.278945129831676	3.0964613	1.7596765
18.29669746806386	3.0843241	1.7562244
18.314450249192483	3.1012714	1.7610427
18.3322034736768	3.0883498	1.7573701
18.349957141976184	3.0874221	1.7571062
18.3677112545501	3.081699	1.7554768
18.385465811858108	3.0847352	1.7563415
18.403220814359884	3.0778384	1.7543769
18.420976262515172	3.1021814	1.761301
18.43873215678387	3.1387413	1.7716494
18.456488497625923	3.1768243	1.7823648
18.474245285501407	3.2880666	1.8133026
18.492002520870486	3.3604903	1.833164
18.50976020419343	3.4379654	1.8541751
18.527518335930615	3.6735587	1.916653
18.545276916542516	4.261126	2.0642495
18.563035946489688	4.438787	2.106843
18.580795426232832	4.8893747	2.211193
18.598555356232698	4.7813463	2.186629
18.616315736950185	5.10254	2.2588801
18.63407656884626	4.791877	2.1890357
18.65183785238201	4.94841	2.224502
18.669599588018617	4.720746	2.1727278
18.68736177621737	4.754178	2.1804078
18.705124417439652	4.725057	2.1737196
18.72288751214696	4.511057	2.123925
18.740651060800886	4.6074924	2.146507
18.758415063863115	4.307699	2.0754998
18.77617952179546	4.4695053	2.1141205
18.793944435059814	4.205999	2.0508533
18.811709804118184	4.2288065	2.0564063
18.829475629432675	4.233958	2.0576584
18.8472419114655	4.069085	2.0171974
18.86500865067897	4.1390624	2.0344687
18.88277584753551	3.7981987	1.9488968
18.90054350249763	3.763625	1.9400064
18.918311616027957	3.4415965	1.855154
18.936080188589226	3.311764	1.8198253
18.953849220644265	3.0310495	1.740991
18.971618712656007	2.8524587	1.6889224
18.9893886650875	2.8131433	1.6772428
19.007159078401887	8.004469	2.829217
19.024929953062408	32.876728	5.7338233
19.042701289532435	32.856686	5.732075
19.060473088275405	25.403086	5.0401473
19.07824534975489	2.652952	1.6287885
19.096018074434568	2.5960896	1.6112385
19.113791262778197	2.5950727	1.6109229
19.13156491524966	2.6156752	1.6173049
19.149339032312945	2.6133285	1.6165793
19.167113614432136	2.5543172	1.5982231
19.184888662071433	2.5743575	1.6044805
19.202664175695123	2.569401	1.6029351
19.220440155767623	2.5899534	1.6093333
19.238216602753447	2.5323815	1.5913458
19.2559935171172	2.5389593	1.5934112
19.27377089932361	2.5348575	1.5921236
19.291548749837514	2.5599236	1.5999762
19.309327069123835	2.548436	1.5963821
19.32710585764763	2.5556216	1.5986311
19.344885115874032	2.5551474	1.5984828
19.362664844268313	2.5594954	1.5998423
19.380445043295822	2.526747	1.5895745
19.39822571342203	2.5158925	1.5861565
19.41600685511252	2.5267158	1.5895647
19.43378846883297	2.520311	1.5875487
19.451570555049173	2.4649374	1.570012
19.469353114227037	2.4380736	1.5614332
19.48713614683254	2.4716132	1.5721365
19.50491965333182	2.4783711	1.5742843
19.52270363419109	2.452119	1.5659244
19.540488089876686	2.4503138	1.5653478
19.55827302085503	2.4086218	1.5519735
19.576058427592674	2.4155436	1.554202
19.593844310556282	2.4368565	1.5610434
19.611630670212598	2.4591644	1.5681723
19.629417507028506	2.4800642	1.574822
19.64720482147098	2.5178208	1.5867642
19.6649926140071	2.558169	1.5994277
19.682780885104084	2.5452127	1.5953723
19.70056963522921	2.5001688	1.5811923
19.718358864849908	2.506769	1.583278
19.7361485744337	2.5436265	1.5948751
19.753938764448215	2.5367754	1.5927258
19.771729435361202	2.523501	1.5885531
19.789520587640506	2.5041373	1.5824466
19.807312221754092	2.4968574	1.5801448
19.825104338170043	2.5539691	1.5981143
19.842896937356517	2.550595	1.5970583
19.860690019781824	2.5524113	1.5976268
19.87848358591436	2.5512714	1.59727
19.896277636222635	2.5587165	1.5995989
19.914072171175278	2.5403895	1.5938599
19.931867191241015	2.5056236	1.5829161
19.94966269688869	2.4922245	1.5786781
19.967458688587264	2.5096042	1.5841731
19.985255166805807	2.4800797	1.5748268
20.00305213201348	2.4664981	1.5705088
20.020849584679578	2.4658618	1.5703063
20.038647525273507	2.5081258	1.5837064
20.05644595426477	2.5236282	1.5885931
20.07424487212299	2.514112	1.5855951
20.092044279317903	2.4870389	1.5770348
20.109844176319353	2.4347155	1.5603575
20.127644563597304	2.4295013	1.5586858
20.145445441621817	2.4157472	1.5542674
20.16324681086307	2.4300594	1.5588648
20.181048671791373	2.4549823	1.5668383
20.198851024877122	2.437465	1.5612383
20.216653870590836	2.4319048	1.5594566
20.234457209403146	2.426162	1.5576142
20.252261041784802	2.4227057	1.5565042
20.270065368206662	2.4020445	1.5498531
20.287870189139685	2.405282	1.5508971
20.305675505054968	2.3680103	1.5388341
20.323481316423702	2.386892	1.544957
20.341287623717207	2.3903337	1.5460703
20.359094427406884	2.397598	1.5484179
20.376901727964288	2.3832405	1.5437747
20.39470952586107	2.4155614	1.5542077
20.41251782156899	2.4224145	1.5564108
20.430326615559935	2.4285412	1.5583777
20.448135908305886	2.3957913	1.5478344
20.465945700278965	2.3831258	1.5437376
20.483755991951384	2.3762698	1.5415155
20.50156678379548	2.356526	1.535098
20.519378076283708	2.3037546	1.5178124
20.537189869888635	2.2751207	1.5083504
20.55500216508294	2.260474	1.5034872
20.572814962339415	2.2818396	1.5105759
20.59062826213098	2.3175292	1.5223433
20.60844206493066	2.3137531	1.5211025
20.626256371211593	2.3511736	1.5333537
20.644071181447032	2.3597913	1.5361612
20.66188649611036	2.3549547	1.5345862
20.67970231567506	2.3299584	1.5264201
20.697518640614742	2.3083723	1.5193329
20.715335471403122	2.2936182	1.5144696
20.73315280851404	2.3073902	1.5190096
20.750970652421447	2.3382916	1.5291474
20.768789003599412	2.3468845	1.5319544
20.786607862522136	2.3468885	1.5319558
20.8044272296639	2.319638	1.5230358
20.82224710549913	2.3190346	1.5228376
20.84006749050237	2.2969482	1.5155686
20.857888385148268	3.8502395	1.9622027
20.8757097899116	45.95581	6.7790713
20.893531705267254	64.83304	8.051896
20.911354131690224	83.882835	9.158757
20.92917706965566	69.11984	8.313834
20.94700051963877	50.166233	7.0828123
20.96482448211493	29.394659	5.4216843
20.982648957559622	4.135667	2.033634
21.00047394644843	2.2604487	1.5034789
21.01829944925707	2.2504792	1.5001597
21.036125466461375	2.2553015	1.5017661
21.053951998537297	2.22446	1.4914623
21.071779045960906	2.2003403	1.4833544
21.089606609208378	2.1692758	1.4728462
21.10743468875603	2.170891	1.4733944
21.12526328508028	2.1951454	1.4816023
21.143092398657675	2.203097	1.4842833
21.16092202996488	2.2114382	1.4870905
21.17875217947867	2.2026885	1.4841456
21.19658284767596	2.210474	1.4867663
21.21441403503377	2.2074006	1.4857323
21.232245742029225	2.1988475	1.4828511
21.2500779691396	2.187663	1.4790751
21.26791071684227	2.1921527	1.480592
21.28574398561475	2.1624334	1.4705215
21.30357777593465	2.1483278	1.4657176
21.321412088279704	2.140165	1.4629303
21.339246923127792	2.1261432	1.45813
21.357082280956888	2.1328511	1.4604284
21.3749181622451	2.133046	1.4604951
21.392754567470647	2.1630723	1.4707386
21.41059149711187	2.1542165	1.4677249
21.42842895164726	2.1652088	1.4714649
21.446266931555378	2.13579	1.4614342
21.464105437314945	2.1241798	1.4574566
21.481944469404798	2.1188295	1.4556199
21.49978402830388	2.1398945	1.4628378
21.51762411449127	2.1587126	1.4692558
21.53546472844617	2.153558	1.4675006
21.553305870647876	2.1477466	1.4655192
21.571147541575865	2.116943	1.4549718
21.58898974170967	2.0937834	1.4469912
21.60683247152899	2.0719311	1.4394205
21.62467573151363	2.0599616	1.4352566
21.642519522143523	2.0599554	1.4352545
21.660363843898722	2.0817401	1.4428236
21.6782086972594	2.1136808	1.4538504
21.696054082705864	2.0804875	1.4423895
21.713900000718535	2.0495644	1.43163
21.73174645177795	2.0303361	1.4248986
21.749593436364794	2.022508	1.4221491
21.767440954959845	2.0200512	1.421285
21.785289008044032	2.018702	1.4208103
21.803137596098388	2.0585449	1.434763
21.820986719604086	2.0447268	1.4299395
21.838836379042412	2.0153768	1.4196397
21.85668657489478	1.9976597	1.4133859
21.87453730764273	2.0313032	1.4252379
21.892388577767914	2.0174682	1.4203761
21.91024038575213	2.0165515	1.4200534
21.928092732077285	2.0283666	1.4242073
21.945945617225426	2.0681508	1.4381067
21.963799041678694	2.0878086	1.4449251
21.981653005919398	31.408867	5.6043615
21.999507510429943	78.186424	8.842309
22.01736255569286	73.13312	8.55179
22.035218142190818	4.2273726	2.0560575
22.05307427040661	2.0343742	1.426315
22.07093094082315	1.9959025	1.4127642
22.088788153923474	1.9807804	1.407402
22.106645910190746	1.969532	1.4034002
22.12450421010827	1.9793236	1.4068843
22.142363054159464	1.9961915	1.4128664
22.16022244282787	2.0159948	1.4198573
22.178082376597164	2.0420222	1.4289935
22.195942855951145	2.0477526	1.430997
22.213803881373742	2.0136294	1.4190241
22.231665453349002	2.0021353	1.4149683
22.24952757236111	1.9895815	1.4105252
22.26739023889438	1.9815832	1.4076872
22.28525345343323	1.9687818	1.4031329
22.30311721646225	1.9948763	1.4124008
22.320981528466113	1.9854442	1.4090579
22.33884638992964	1.9584037	1.3994298
22.356711801337788	1.9358276	1.3913403
22.37457776317561	1.950491	1.3965998
22.392444275928337	1.9416429	1.3934284
22.410311340081282	1.9505812	1.3966321
22.428178956119904	1.9671836	1.4025632
22.446047124529805	1.9813774	1.4076141
22.46391584579669	1.9741112	1.4050307
22.481785120406414	1.9669542	1.4024814
22.49965494884496	1.9663696	1.402273
22.51752533159841	1.9586414	1.3995147
22.53539626915302	1.9707779	1.403844
22.553267761995137	1.9718535	1.404227
22.571139810611264	1.9372209	1.3918408
22.589012415488025	1.9285079	1.3887073
22.60688557711216	1.9209082	1.3859683
22.624759295970566	1.9237117	1.3869793
22.642633572550263	1.9196	1.3854963
22.660508407338362	1.9261804	1.387869
22.67838380082217	1.957804	1.3992155
22.696259753489077	1.9716103	1.4041405
22.714136265826614	1.9869562	1.4095943
22.73201333832246	1.9699746	1.4035579
22.74989097146439	1.9413629	1.393328
22.76776916574035	1.8725601	1.3684152
22.785647921638393	1.8938493	1.376172
22.803527239646712	1.9096807	1.381912
22.82140712025363	1.9432744	1.3940138
22.839287563947593	1.9148422	1.3837782
22.85716857121719	1.8917305	1.375402
22.875050142551135	1.9024287	1.3792856
22.892932278438277	1.9471257	1.3953944
22.910814979367604	1.9550077	1.3982159
22.928698245828222	1.9532897	1.3976015
22.946582078309387	1.8975679	1.3775223
22.96446647730047	1.888626	1.374273
22.98235144329098	1.9070038	1.3809431
23.000236976770562	1.9400012	1.3928393
23.018123078229	1.9193623	1.3854105
23.03600974815619	1.899543	1.3782392
23.053896987042194	1.8752654	1.3694032
23.071784795377173	1.8825216	1.3720502
23.08967317365145	1.8953532	1.3767183
23.10756212235546	1.9120895	1.3827832
23.125451641979787	1.9188094	1.385211
23.143341733015134	1.9491748	1.3961285
23.161232395952357	1.9492182	1.396144
23.179123631282426	1.9263842	1.3879424
23.197015439496468	1.927354	1.3882917
23.214907821085717	1.935972	1.3913921
23.23280077654157	1.9635954	1.4012835
23.250694306355538	1.9512453	1.3968698
23.268588411019277	1.9616826	1.4006008
23.28648309102458	1.9554493	1.3983738
23.304378346863356	1.9570973	1.398963
23.322274179027676	1.9460989	1.3950264
23.340170588009723	1.9313076	1.389715
23.358067574301852	1.9239045	1.3870488
23.37596513839651	1.8905329	1.3749665
23.39386328078629	1.9157163	1.384094
23.411762001963947	1.9127641	1.3830272
23.429661302422353	1.9123278	1.3828694
23.4475611826545	1.943832	1.3942138
23.46546164315356	1.9239155	1.3870528
23.48336268441279	1.941175	1.3932606
23.501264306925638	1.90214	1.3791809
23.51916651118564	1.911169	1.3824503
23.537069297686497	1.934787	1.3909662
23.554972666922037	1.95104	1.3967963
23.57287661938623	1.9305972	1.3894594
23.59078115557318	1.9238375	1.3870248
23.608686275977128	1.9360156	1.3914077
23.62659198109246	1.923385	1.3868616
23.6444982714137	1.9106463	1.3822613
23.66240514743549	1.9075077	1.3811255
23.68031260965263	1.868934	1.3670896
23.698220658560068	1.85408	1.361646
23.716129294652845	1.8702533	1.3675721
23.7340385184262	1.9430337	1.3939275
23.75194833037546	1.9607364	1.400263
23.769858730996123	1.9445066	1.3944557
23.78776972078382	1.9501282	1.39647
23.80568130023431	1.9337804	1.3906044
23.823593469843495	1.9198519	1.3855872
23.841506230107424	1.8912328	1.375221
23.859419581522275	1.8806062	1.371352
23.87733352458438	1.9209301	1.3859762
23.89524805979019	1.9543877	1.3979942
23.913163187636318	1.9500114	1.3964281
23.931078908619508	1.9169077	1.3845243
23.948995223236633	1.9186876	1.385167
23.966912131984735	1.9847792	1.408822
23.98482963536096	2.0280292	1.424089
24.002747733862616	1.9995506	1.4140546
24.020666427987155	2.0047965	1.4159083
24.038585718232156	2.0047946	1.4159077
24.056505605095353	2.0629473	1.4362963
24.074426089074617	2.1014276	1.4496301
24.092347170667946	2.0777457	1.4414388
24.110268850373515	2.0422356	1.4290681
24.128191128689586	2.056946	1.4342058
24.146114006114626	2.0519226	1.4324534
24.164037483147187	2.0633416	1.4364337
24.181961560286005	2.0619295	1.435942
24.199886238029926	2.0390458	1.4279516
24.21781151687797	2.0292788	1.4245275
24.235737397329274	2.0026498	1.41515
24.253663879883135	1.9956915	1.4126894
24.271590965038975	1.9960907	1.4128307
24.289518653296376	2.0162055	1.4199315
24.30744694515505	2.0060263	1.4163426
24.32537584111486	2.0087135	1.4172909
24.34330534167581	2.0114403	1.4182526
24.361235447338046	2.00317	1.4153339
24.379166158601876	1.9976087	1.4133679
24.39709747596772	1.9815419	1.4076725
24.41502939993615	1.9583358	1.3994055
24.432961931007917	1.9571497	1.3989817
24.450895069683856	1.9840734	1.4085714
24.468828816465	1.9846957	1.4087923
24.4867631718525	1.9659872	1.4021367
24.504698136347656	1.9666537	1.4023743
24.52263371045192	1.9461716	1.3950526
24.540569894666874	1.9681821	1.4029192
24.558506689494266	1.9763709	1.4058346
24.57644409543597	1.9762756	1.4058007
24.594382112994012	1.9271824	1.38823
24.61232074267057	1.9015329	1.3789608
24.630259984967953	1.9414719	1.3933672
24.64819984038863	1.950538	1.3966167
24.66614030943522	2.0031843	1.415339
24.684081392610462	2.0524116	1.432624
24.702023090417274	2.0985699	1.4486442
24.7199654033587	2.0883932	1.4451274
24.737908331937927	2.0268016	1.4236578
24.755851876658305	2.0106707	1.4179811
24.773796038023324	2.0574584	1.4343843
24.79174081653661	2.1068726	1.451507
24.809686212701962	2.0875337	1.44483
24.827632227023294	2.0657074	1.4372569
24.8455788600047	2.0813792	1.4426986
24.8635261121504	2.054891	1.4334891
24.88147398396475	2.0431798	1.4293984
24.899422475952303	2.061213	1.4356925
24.917371588617698	2.1108935	1.4528915
24.935321322465768	2.1543097	1.4677567
24.953271678001478	2.246717	1.4989053
24.97122265572994	2.4362214	1.56084
24.989174256156414	2.8149757	1.677789
25.00712647978632	3.2685537	1.8079141
25.02507932712521	3.7764974	1.9433212
25.043032798678798	4.277175	2.068133
25.060986894952933	4.956886	2.2264066
25.078941616453637	5.708884	2.389327
25.096896963687055	6.599011	2.568854
25.114852937159508	7.7415233	2.7823594
25.132809537377444	8.325273	2.8853548
25.150766764847468	8.315287	2.8836238
25.168724620076347	7.6789308	2.7710884
25.186683103570985	6.5921173	2.5675118
25.204642215838426	5.4623475	2.3371665
25.222601957385894	4.163975	2.040582
25.24056232872074	3.2782588	1.8105962
25.25852333035048	2.6929119	1.6410094
25.276484962782778	2.2857707	1.5118766
25.294447226525435	2.1248956	1.4577022
25.312410122086423	2.0588484	1.4348688
25.330373649973843	2.0356839	1.4267739
25.348337810695988	1.9687158	1.4031093
25.366302604761245	1.935008	1.3910457
25.384268032678207	1.9411184	1.3932402
25.40223409495558	1.9852641	1.408994
25.420200792102257	1.9647062	1.4016798
25.438168124627246	1.9234179	1.3868735
25.45613609303974	1.89052	1.3749619
25.474104697849057	1.8930122	1.3758678
25.492073939564698	1.883727	1.3724893
25.510043818696285	1.877888	1.3703605
25.528014335753614	1.8558648	1.3623012
25.54598549124664	1.8284907	1.352217
25.56395728568544	1.8030646	1.3427824
25.58192971958028	1.8453977	1.3584541
25.59990279344156	1.8350637	1.3546453
25.617876507779833	1.8079803	1.3446115
25.635850863105826	1.8139911	1.3468449
25.653825859930386	1.8583323	1.3632066
25.671801498764548	1.8652525	1.3657424
25.68977778011949	1.842287	1.3573087
25.707754704506524	1.888854	1.3743559
25.725732272437153	1.888489	1.3742231
25.743710484423012	1.8975041	1.3774992
25.761689340975888	1.9078232	1.3812398
25.77966884260774	1.9066794	1.3808256
25.797648989830662	1.8652469	1.3657404
25.815629783156922	1.8322983	1.3536241
25.83361122309895	1.8260019	1.3512964
25.85159331016929	1.8346618	1.3544968
25.869576044880695	1.8553537	1.3621137
25.887559427746034	1.8775518	1.3702378
25.90554345927836	1.9205834	1.3858511
25.92352813999086	1.9028807	1.3794494
25.94151347039689	1.874039	1.3689555
25.959499451009965	1.8258088	1.3512249
25.97748608234374	1.784063	1.3356882
25.995473364912062	1.7852848	1.3361455
26.013461299228904	1.78662	1.336645
26.03144988580839	1.7713848	1.3309338
26.04943912516483	1.7917815	1.3385744
26.067429017812675	1.8220513	1.3498338
26.085419564266537	1.8078667	1.3445693
26.103410765041186	1.8188795	1.3486584
26.12140262065155	1.855811	1.3622816
26.139395131612723	1.8594587	1.3636197
26.157388298439948	1.8508238	1.3604498
26.17538212164861	1.8349172	1.3545911
26.193376601754295	1.8258035	1.351223
26.211371739272714	1.7965045	1.3403375
26.229367534719746	1.7741482	1.3319715
26.247363988611433	1.789036	1.3375485
26.26536110146397	1.7786438	1.3336581
26.283358873793727	1.8169552	1.3479449
26.301357306117204	1.814984	1.3472134
26.319356398951104	1.8149383	1.3471965
26.33735615281224	1.8189684	1.3486913
26.35535656821762	1.8238542	1.3505014
26.373357645684404	1.8151841	1.3472877
26.39135938572991	1.7972738	1.3406243
26.409361788871614	1.8376766	1.3556093
26.427364855627165	1.8313738	1.3532826
26.445368586514352	1.8150859	1.3472512
26.46337298205115	1.8133388	1.3466027
26.48137804275568	1.8155252	1.3474143
26.499383769146217	1.8137256	1.3467463
26.517390161741215	1.8460535	1.3586955
26.53539722105928	1.821455	1.349613
26.553404947619182	1.8335959	1.3541033
26.571413341939856	1.8363465	1.3551186
26.589422404540397	1.7863309	1.3365369
26.60743213594006	1.7407017	1.3193566
26.62544253665827	1.7469399	1.3217186
26.64345360721459	1.8113186	1.3458524
26.66146534812879	1.8201509	1.3491297
26.679477759920758	1.8339106	1.3542196
26.69749084311057	1.8640712	1.36531
26.71550459821847	1.8758339	1.3696108
26.733519025764842	1.8085123	1.3448094
26.751534126270258	1.8106536	1.3456053
26.769549900255434	1.7950642	1.3398001
26.787566348241267	1.8162812	1.3476948
26.80558347074881	1.8116666	1.3459816
26.823601268299267	1.8122526	1.3461993
26.841619741414036	1.8101567	1.3454206
26.85963889061465	1.805098	1.3435394
26.877658716422832	1.8124938	1.3462889
26.89567921936045	1.8630755	1.3649453
26.913700399949544	1.8667042	1.3662739
26.93172225871233	1.8599731	1.3638083
26.949744796171174	1.8509815	1.3605078
26.967768012848605	1.8178213	1.348266
26.98579190926733	1.7572597	1.3256167
27.003816485950225	1.7704668	1.3305889
27.021841743420318	1.8076209	1.3444779
27.039867682200814	1.8108323	1.3456717
27.057894302815072	1.8109183	1.3457036
27.07592160578664	1.8269134	1.3516335
27.0939495916392	1.8160957	1.347626
27.111978260896635	1.7858145	1.3363438
27.13000761408296	1.7819406	1.3348935
27.148037651722397	1.7729473	1.3315207
27.166068374339304	1.8112979	1.3458446
27.184099782458215	1.7806841	1.3344227
27.20213187660384	1.7665392	1.3291122
27.22016465730105	1.7901486	1.3379643
27.23819812507487	1.7963002	1.3402612
27.256232280450533	1.7744188	1.3320731
27.274267123953383	1.7686917	1.3299217
27.292302656108987	1.7818153	1.3348465
27.31033887744306	1.7511591	1.3233137
27.32837578848146	1.728648	1.3147806
27.34641338975026	1.7167275	1.3102394
27.364451681775673	1.7669023	1.3292488
27.382490665084074	1.838857	1.3560447
27.400530340202046	1.8702252	1.3675618
27.41857070765629	1.8557223	1.362249
27.436611767973726	1.8401792	1.3565321
27.454653521681404	1.7964414	1.3403139
27.472695969306564	1.749254	1.3225937
27.490739111376627	1.7395244	1.3189102
27.508782948419153	1.7787821	1.33371
27.526827480961902	1.8166134	1.347818
27.54487270953279	1.8252863	1.3510315
27.562918634659898	1.7869507	1.3367687
27.580965256871508	1.7950857	1.3398081
27.599012576696026	1.7926568	1.3389013
27.617060594662068	1.8209715	1.3494338
27.63510931129842	1.8258545	1.3512418
27.65315872713401	1.8374956	1.3555425
27.67120884269797	1.8969437	1.3772957
27.68925965851958	1.8950121	1.3765944
27.707311175128307	1.8424706	1.3573763
27.725363393053787	1.8233395	1.3503109
27.74341631282583	1.8587602	1.3633636
27.7614699349744	1.8890578	1.37443
27.77952426002968	2.0765378	1.4410198
27.797579288521973	2.1500905	1.4663187
27.815635020981784	2.524065	1.5887306
27.83369145793979	2.6114585	1.6160008
27.85174859992682	2.4951696	1.5796106
27.869806447473923	2.3803573	1.5428406
27.887865001112267	2.051638	1.432354
27.905924261373233	1.9038259	1.379792
27.92398422878836	1.8693339	1.3672359
27.94204490388936	1.8741137	1.3689827
27.96010628720813	1.8798366	1.3710713
27.978168379276728	1.8860235	1.3733257
27.9962311806274	1.9244034	1.3872287
28.014294691792568	1.9191145	1.385321
28.0323589133048	1.8848464	1.3728971
28.050423845696887	1.8568447	1.3626609
28.068489489501758	1.8816457	1.3717309
28.086555845252523	1.8957555	1.3768644
28.104622913482487	1.8367461	1.3552661
28.122690694725115	1.793935	1.3393786
28.14075918951405	1.7901983	1.3379829
28.15882839838312	1.8632002	1.364991
28.176898321866304	1.8685328	1.3669429
28.1949689604978	1.827764	1.3519483
28.213040314811945	1.8135698	1.3466885
28.23111238534327	1.8627844	1.3648386
28.249185172626493	1.9139814	1.3834672
28.267258677196473	1.9734669	1.4048014
28.285332899588294	1.9400482	1.3928561
28.303407840337172	1.8957968	1.3768793
28.321483499978545	1.8824247	1.3720149
28.33955987904799	1.9429832	1.3939093
28.357636978081285	1.9700677	1.403591
28.37571479761439	1.9634368	1.4012269
28.393793338183425	1.9771062	1.4060961
28.41187260032469	1.9737636	1.404907
28.429952584574686	1.9331625	1.3903822
28.448033291470065	1.8987355	1.3779461
28.46611472154769	1.9495823	1.3962744
28.484196875344566	1.9877474	1.4098749
28.502279753397914	2.0040946	1.4156605
28.52036335624511	1.9735318	1.4048245
28.538447684423716	1.9506834	1.3966687
28.556532738471482	1.9664927	1.4023169
28.574618518926325	1.9163533	1.3843242
28.59270502632635	1.9193879	1.3854197
28.61079226120985	1.9743648	1.4051208
28.628880224115274	2.0609922	1.4356157
28.646968915581287	2.076667	1.4410646
28.66505833614671	2.0638452	1.4366089
28.68314848635055	2.042066	1.4290087
28.701239366732004	2.039741	1.428195
28.71933097783044	2.0883079	1.4450979
28.737423320185403	2.1306472	1.4596736
28.75551639433665	2.165388	1.4715258
28.773610200824074	2.144253	1.4643269
28.791704740187793	2.1055145	1.4510391
28.80980001296809	2.1186037	1.4555424
28.827896019705413	2.1635127	1.4708884
28.845992760940433	2.1972573	1.4823148
28.86409023721397	2.197338	1.4823421
28.88218844906704	2.1770864	1.4754953
28.900287397040845	2.2199874	1.4899622
28.918387081676755	2.223649	1.4911904
28.936487503516343	2.2372096	1.4957304
28.954588663101365	2.2662542	1.5054083
28.97269056097374	2.3014233	1.5170443
28.990793197675597	2.302525	1.5174073
29.00889657374923	2.3307526	1.5266802
29.027000689737125	2.3870542	1.5450095
29.04510554618196	2.4447482	1.5635691
29.06321114362659	2.5309563	1.5908979
29.08131748261405	2.526226	1.5894105
29.099424563687567	2.5033371	1.5821937
29.11753238739057	2.5222712	1.588166
29.13564095426663	2.570757	1.603358
29.15375026485954	2.584135	1.6075245
29.171860319713275	2.5671086	1.6022199
29.18997111937199	2.5868464	1.6083676
29.20808266438002	2.6488316	1.6275232
29.226194955281898	2.754268	1.6595987
29.244307992622335	2.8498952	1.6881633
29.26242177694624	2.9045715	1.7042804
29.2805363087987	2.9323351	1.7124063
29.29865158872498	2.975801	1.725051
29.316767617270557	2.9901505	1.7292051
29.334884394981064	2.9952538	1.7306801
29.353001922402367	3.0227492	1.7386055
29.37112020008047	3.1063838	1.7624936
29.389239228561596	3.1902683	1.7861322
29.407359008392152	3.4159014	1.8482157
29.42547954011872	3.7269824	1.9305394
29.44360082428809	4.307443	2.075438
29.46172286144722	5.3767495	2.3187819
29.479845652143283	6.9710836	2.640281
29.497969196923606	8.862481	2.976992
29.516093496335728	11.296793	3.3610702
29.5342185509274	14.077433	3.7519906
29.55234436124651	16.51371	4.0637064
29.570470927841175	17.901731	4.231044
29.588598251259686	17.497936	4.1830535
29.60672633205055	16.016687	4.002085
29.624855170762405	14.010999	3.7431269
29.642984767944146	11.481053	3.3883703
29.66111512414481	8.733955	2.9553266
29.67924623991366	6.3871	2.5272713
29.697378115800138	4.8882203	2.210932
29.71551075235387	4.027842	2.0069485
29.733644150124675	3.653818	1.9114963
29.751778309662576	3.4428303	1.8554865
29.769913231517766	3.388829	1.8408772
29.78804891624066	3.4103277	1.8467072
29.806185364381818	3.4110618	1.846906
29.82432257649206	3.4214232	1.8497089
29.842460553122333	3.4149039	1.8479458
29.86059929482382	3.371277	1.8361038
29.878738802147872	3.339428	1.8274102
29.896879075646048	3.292656	1.8145677
29.915020115870114	3.231984	1.7977719
29.933161923371976	3.1500156	1.7748283
29.951304498703777	3.1243083	1.7675713
29.969447842417857	3.203639	1.7898712
29.987591955066733	3.234794	1.7985532
30.005736837203123	3.138734	1.7716473
30.023882489379943	3.099479	1.7605337
30.04202891215028	3.2085438	1.7912408
30.060176106067455	3.267436	1.807605
30.078324071684946	3.2498686	1.8027391
30.09647280955646	3.174864	1.7818148
30.114622320235863	3.1165855	1.7653854
30.132772604277257	3.1092024	1.763293
30.1509236622349	3.1220767	1.76694
30.16907549466328	3.090655	1.7580259
30.18722810211705	3.1157594	1.7651514
30.205381485151097	3.114731	1.76486
30.22353564432045	3.0626395	1.7500398
30.241690580180403	3.0441227	1.7447414
30.25984629328638	2.9468646	1.7166435
30.278002784194037	3.0117366	1.7354356
30.296160053459246	3.0628142	1.7500898
30.314318101638033	3.0120318	1.7355206
30.332476929286646	2.923171	1.7097284
30.35063653696153	2.9498725	1.7175193
30.368796925219307	2.9681735	1.7228388
30.386958094616844	2.9594803	1.720314
30.40512004571115	2.913001	1.7067516
30.423282779059463	2.8811007	1.6973805
30.441446295219233	2.90529	1.7044911
30.459610594748067	2.8753889	1.6956972
30.47777567820382	2.8585155	1.6907145
30.495941546144504	2.8003986	1.6734391
30.51410819912835	2.7319858	1.652872
30.532275637713795	2.708476	1.6457448
30.55044386245946	2.7821696	1.6679837
30.56861287392416	2.8440726	1.6864378
30.586782672666956	2.8222163	1.6799453
30.604953259247047	2.7732139	1.6652969
30.623124634223885	2.770672	1.6645336
30.641296798157075	2.7362905	1.6541736
30.659469751606462	2.7156615	1.6479264
30.677643495132074	2.7471895	1.6574647
30.695818029294152	2.7490501	1.658026
30.713993354653116	2.7515082	1.6587671
30.73216947176962	2.707517	1.6454535
30.75034638120448	2.6924155	1.6408582
30.768524083518756	2.7023234	1.6438745
30.786702579273673	2.767717	1.6636456
30.80488186903069	2.900687	1.7031404
30.82306195335144	3.058342	1.7488116
30.841242832797782	3.2168229	1.7935504
30.85942450793176	3.4724925	1.8634624
30.877606979315637	3.761616	1.9394886
30.895790247511883	4.0672493	2.0167422
30.913974313083134	4.380708	2.0930142
30.932159176592283	4.7186513	2.1722457
30.95034483860237	4.806269	2.1923206
30.968531299676698	4.559972	2.135409
30.98671856037873	4.28991	2.0712097
31.00490662127215	3.9222224	1.9804602
31.023095482920848	3.57633	1.8911186
31.04128514588892	3.1928809	1.7868634
31.059475610740662	2.8008158	1.6735638
31.07766687804056	2.5873542	1.6085255
31.09585894835335	2.5356417	1.5923698
31.11405182224393	2.4795284	1.5746518
31.132245500277417	2.465965	1.5703392
31.15043998301914	2.4588823	1.5680823
31.168635271034628	2.473371	1.5726955
31.18683136488964	2.4793947	1.5746094
31.20502826515008	2.518131	1.586862
31.223225972382135	2.4970198	1.5801961
31.241424487152155	2.498214	1.5805739
31.259623810026692	2.4673686	1.570786
31.27782394157253	2.4140496	1.5537212
31.296024882356644	2.4138985	1.5536726
31.314226632946237	2.4368818	1.5610515
31.332429193908684	2.4694197	1.5714388
31.350632565811598	2.5247169	1.5889357
31.368836749222787	2.5712726	1.6035188
31.387041744710295	2.4790125	1.574488
31.40524755284232	2.4537613	1.5664487
31.423454174187317	2.508555	1.5838418
31.441661609313922	2.5409222	1.594027
31.459869858791002	2.4914124	1.5784209
31.478078923187628	2.459664	1.5683316
31.496288803073064	2.405197	1.5508697
31.514499499016807	2.3741233	1.540819
31.532711011588546	2.3982277	1.5486212
31.550923341358178	2.4248972	1.5572082
31.56913648889584	2.341363	1.5301512
31.587350454771844	2.3496542	1.5328581
31.605565239556732	2.30523	1.5182984
31.62378084382127	2.2705534	1.5068356
31.641997268136382	2.3320723	1.5271124
31.660214513073274	2.4393299	1.5618354
31.67843257920331	2.369825	1.5394236
31.6966514670981	2.2691333	1.5063642
31.71487117732944	2.2426615	1.4975518
31.733091710469346	2.2622006	1.5040613
31.751313067090052	2.2970302	1.5155957
31.769535247764008	2.3851721	1.5444002
31.787758253063878	2.370459	1.5396296
31.805982083562526	2.3118389	1.5204732
31.824206739833024	2.263952	1.5046434
31.84243222244869	2.2129755	1.4876074
31.860658531983013	2.2469087	1.4989692
31.878885669009737	2.285301	1.5117213
31.897113634102784	2.3031824	1.5176239
31.91534242783632	2.2771297	1.5090162
31.933572050784694	2.2832754	1.511051
31.951802503522508	2.2249403	1.4916234
31.970033786624548	2.1801038	1.4765174
31.988265900665834	2.2058342	1.485205
32.006498846221575	2.2561963	1.502064
32.02473262386724	2.2317889	1.4939173
32.04296723417845	2.218535	1.4894748
32.0612026777311	2.2095976	1.4864715
32.07943895510129	2.1328657	1.4604334
32.097676066865304	2.108957	1.4522249
32.115914013599685	2.2177582	1.489214
32.13415279588115	2.204363	1.4847097
32.152392414286666	2.108597	1.4521009
32.1706328693934	2.05121	1.4322046
32.18887416177875	2.1343231	1.4609323
32.20711629202032	2.1784623	1.4759614
32.225359260695924	2.1092622	1.4523299
32.243603068383614	2.0971098	1.4481401
32.26184771566166	2.1464384	1.4650729
32.28009320310852	2.1356723	1.461394
32.2983395313029	2.153931	1.4676276
32.31658670082372	2.170601	1.4732959
32.33483471225012	2.1694162	1.4728938
32.35308356616143	2.1040974	1.4505507
32.371333263137245	2.0743804	1.4402709
32.38958380375734	2.0314136	1.4252766
32.407835188601744	2.045493	1.4302073
32.42608741825067	1.9946457	1.4123193
32.444340493284585	2.010093	1.4177774
32.46259441428416	2.0881267	1.4450352
32.48084918183028	2.1404974	1.4630439
32.49910479650405	2.081878	1.4428715
32.51736125888683	1.9928863	1.4116962
32.53561856956014	2.0627575	1.4362303
32.5538767291058	2.1838074	1.477771
32.572135738105764	2.1313043	1.4598987
32.59039559714228	2.0226443	1.422197
32.608656306797776	1.9620011	1.4007145
32.62691786765491	1.9774637	1.4062232
32.645180280296586	2.007833	1.4169803
32.663443545305896	2.0885065	1.4451666
32.68170766326619	2.0887837	1.4452626
32.69997263476099	1.9893	1.4104254
32.7182384603741	1.9731045	1.4046724
32.7365051406895	2.0371282	1.42728
32.75477267629144	2.0345569	1.426379
32.77304106776434	1.9867603	1.4095248
32.79131031569289	1.9450467	1.3946493
32.809580420661966	1.9830594	1.4082115
32.827851383256714	2.0602102	1.4353433
32.84612320406245	2.03394	1.4261627
32.86439588366476	1.9901159	1.4107146
32.88266942264945	2.0330348	1.4258453
32.9009438216025	2.0786707	1.4417596
32.9192190811102	2.0110934	1.4181303
32.937495201758985	1.9046224	1.3800806
32.95577218413556	1.904913	1.3801858
32.974050028826866	1.9358506	1.3913485
32.992328736420035	1.9430784	1.3939434
33.010608307502444	1.8374394	1.3555218
33.02888874266169	1.8163393	1.3477163
33.047170042485604	1.8236401	1.3504221
33.06545220756225	1.8717285	1.3681113
33.083735238479896	1.8846203	1.3728148
33.10201913582707	1.8962955	1.3770605
33.12030390019248	1.9060869	1.3806111
33.138589532165135	1.922384	1.3865006
33.15687603233419	1.9549004	1.3981775
33.17516340128909	1.8908243	1.3750725
33.19345163961947	1.8501747	1.3602113
33.211740747915215	1.8905301	1.3749655
33.23003072676643	1.9457734	1.3949099
33.248321576763466	1.9965537	1.4129946
33.266613298496885	2.0307882	1.4250573
33.28490589255747	1.9891927	1.4103874
33.30319935953626	1.870493	1.3676597
33.32149370002451	1.8409355	1.3568108
33.339788914613706	1.9236906	1.3869717
33.358085003895575	1.9460291	1.3950014
33.376381968462034	1.9232497	1.3868128
33.39467980890529	1.7913827	1.3384254
33.41297852581774	1.8419914	1.3571998
33.43127811979204	2.0040085	1.4156301
33.44957859142105	2.0834816	1.443427
33.467879941297866	2.029264	1.4245224
33.486182170015844	1.9802778	1.4072235
33.50448527816853	1.9329611	1.3903097
33.522789266349754	1.8217096	1.3497072
33.541094135153514	1.7944295	1.3395631
33.55939988517411	1.9247307	1.3873466
33.57770651700602	2.045498	1.430209
33.59601403124398	2.0397408	1.428195
33.61432242848296	1.949625	1.3962897
33.632631709318154	1.94059	1.3930507
33.650941874344994	1.9410714	1.3932234
33.66925292415916	2.0424693	1.4291499
33.68756485935654	2.025344	1.4231458
33.70587768053328	1.9244193	1.3872344
33.724191388285746	1.8652922	1.365757
33.74250598321054	1.9047567	1.3801292
33.760821465904506	1.9424022	1.393701
33.77913783696474	1.9394869	1.3926547
33.79745509698852	1.8462127	1.3587542
33.815773246573414	1.8163253	1.3477111
33.8340922863172	1.9221756	1.3864255
33.852412216817896	1.954472	1.3980243
33.87073303867377	1.9902356	1.4107571
33.889054752483304	2.043837	1.4296283
33.907377358845245	2.0439389	1.4296639
33.92570085835853	1.9087112	1.3815612
33.94402525162239	1.7617003	1.3272905
33.96235053923627	1.7923225	1.3387765
33.980676721799824	1.885109	1.3729928
33.999003799912984	1.930216	1.3893222
34.01733177417592	2.0142136	1.4192299
34.03566064518901	1.9978112	1.4134395
34.0539904135529	1.9044119	1.3800043
34.07232107986846	1.9032876	1.379597
34.090652644736785	1.9106492	1.3822623
34.108985108759235	1.8548027	1.3619114
34.12731847253742	1.8873681	1.3738152
34.14565273667313	2.0199642	1.4212544
34.16398790176847	2.062707	1.4362127
34.18232396842574	2.0382066	1.4276577
34.20066093724749	1.9303775	1.3893802
34.21899880883651	1.9615321	1.400547
34.23733758379583	1.9991299	1.4139059
34.25567726272874	2.059325	1.4350349
34.27401784623872	2.0836778	1.443495
34.29235933492957	2.0914042	1.4461688
34.31070172940526	2.1293082	1.4592149
34.32904503027003	2.0425994	1.4291954
34.347389238128386	1.9945588	1.4122885
34.36573435358502	1.9399219	1.3928108
34.38408037724492	1.839784	1.3563864
34.402427309713296	1.9465362	1.3951832
34.42077515159559	2.1378198	1.4621285
34.43912390349752	2.156702	1.4685714
34.45747356602499	2.0767536	1.4410946
34.47582413978423	2.0005703	1.4144151
34.49417562538163	1.9053389	1.3803401
34.51252802342388	1.8966023	1.3771719
34.53088133451789	2.0821915	1.44298
34.54923555927084	2.1905556	1.4800526
34.567590698290104	2.038322	1.4276981
34.58594675218336	1.9485178	1.3958932
34.6043037215585	1.849049	1.3597974
34.62266160702365	1.7728531	1.3314853
34.641020409187234	1.9011308	1.378815
34.65938012865785	2.1336663	1.4607074
34.677740766044394	2.1895416	1.47971
34.69610232195598	2.0780516	1.4415449
34.714464797002016	2.0464544	1.4305434
34.73282819179208	2.0441444	1.4297358
34.751192506936064	2.0560346	1.433888
34.76955774304408	1.9924585	1.4115447
34.7879239007265	1.8521473	1.3609362
34.80629098059391	1.9293712	1.389018
34.824658983257194	2.0518363	1.4324232
34.843027909327446	2.1111448	1.4529779
34.86139775941603	2.0182414	1.4206482
34.879768534134534	1.8900415	1.3747878
34.89814023409483	1.7818059	1.334843
34.91651285990901	1.9617037	1.4006083
34.93488641218944	1.8518232	1.3608171
34.95326089154871	1.636453	1.2792393
34.97163629859967	1.8638313	1.3652221
34.99001263395542	2.0859401	1.4442784
35.00838989822934	1.994252	1.4121798
35.02676809203499	2.0358183	1.4268211
35.04514721598624	1.9128355	1.383053
35.063527270697215	1.9788716	1.4067237
35.081908256782256	2.2078793	1.4858935
35.10029017485597	2.2497947	1.4999316
35.11867302553321	2.263486	1.5044886
35.137056809429104	2.1670775	1.4720997
35.155441527159006	2.0694807	1.438569
35.173827179338524	2.0094948	1.4175665
35.19221376658354	2.0720165	1.43945
35.21060128951017	2.070844	1.4390427
35.2289897487348	1.9278545	1.388472
35.24737914487405	1.9080658	1.3813275
35.26576947854479	1.8596748	1.363699
35.28416075036418	1.8874769	1.3738548
35.30255296094958	1.846234	1.3587619
35.32094611091867	1.7354361	1.3173596
35.33934020088932	1.8456352	1.3585416
35.35773523147969	2.0657384	1.4372677
35.3761312033082	1.9414177	1.3933476
35.394528116993506	1.9977175	1.4134064
35.41292597315452	2.0205233	1.4214511
35.431324772410434	2.038262	1.4276772
35.449724515380666	2.1235933	1.4572554
35.46812520268491	1.825408	1.3510766
35.486526834943106	1.8166035	1.3478143
35.504929412775454	2.0990305	1.4488031
35.52333293680242	2.2370343	1.4956719
35.54173740764471	1.9862399	1.4093403
35.560142825923286	1.7553456	1.3248945
35.5785491922594	1.9788141	1.4067032
35.59695650727454	1.6480277	1.2837553
35.61536477159042	1.8569168	1.3626873
