0.008763373481513119	0.0	0.0
0.026290120649546365	0.11242709	0.3353015
0.043816868432600686	0.36792704	0.6065699
0.06134361724069026	0.36640117	0.6053108
0.07887036748382949	0.27962697	0.5287977
0.0963971195720331	0.09335714	0.30554402
0.11392387391531617	0.05276994	0.22971709
0.1314506309236943	0.08376549	0.2894227
0.1489773910071836	0.1596361	0.39954486
0.16650415457580078	0.15160587	0.389366
0.18403092203956356	0.14676802	0.38310313
0.20155769380849	0.12890153	0.35902858
0.2190844702925996	0.20782462	0.45587784
0.2366112519019124	0.22421645	0.473515
0.2541380390464497	0.21532877	0.4640353
0.27166483213623416	0.1606811	0.40085047
0.28919163158128947	0.097579	0.31237638
0.3067184377916406	0.09632162	0.31035724
0.324245251177314	0.14271334	0.37777418
0.34177207214833777	0.14891557	0.38589582
0.3592989011147415	0.16022587	0.40028223
0.37682573848655654	0.14683448	0.38318986
0.39435258467381573	0.13135639	0.36243123
0.41187944008655414	0.16843657	0.41041026
0.42940630513480854	0.1669411	0.40858427
0.446933180228618	0.1757229	0.41919315
0.4644600657780234	0.18331401	0.42815185
0.48198696219306775	0.18911374	0.4348721
0.49951386988379676	0.1812818	0.425772
0.5170407892602581	0.16483839	0.40600294
0.5345677207325025	0.16452904	0.4056218
0.5520946647105822	0.16307631	0.40382707
0.5696216216045534	0.20047896	0.44774875
0.5871485918244737	0.24662872	0.4966173
0.6046755757804043	0.23973571	0.48962814
0.6222025738824094	0.19629802	0.44305533
0.6397295865405557	0.16956826	0.41178668
0.6572566141649129	0.17482166	0.4181168
0.6747836571655547	0.19956678	0.44672897
0.6923107159525568	0.16982755	0.4121014
0.7098377909359992	0.1835901	0.42847416
0.7273648825259653	0.13818246	0.37172902
0.7448919911325411	0.15411547	0.39257544
0.762419117165817	0.13652983	0.36949944
0.7799462610358868	0.17881784	0.42286858
0.7974734231528482	0.2345356	0.48428875
0.8150006039268024	0.21722539	0.46607444
0.8325278037678551	0.20616862	0.45405796
0.8500550230861152	0.16027296	0.40034106
0.8675822622916969	0.19015396	0.43606645
0.8851095217947171	0.19066693	0.43665424
0.9026368020052984	0.22276995	0.4719851
0.9201641033335665	0.19751859	0.44443062
0.9376914261896523	0.22317715	0.47241628
0.9552187709836915	0.25695682	0.5069091
0.9727461381258234	0.257696	0.5076377
0.990273528026193	0.2477984	0.49779353
1.0078009410949496	0.23376217	0.48348957
1.0253283777422473	0.26300976	0.51284474
1.0428558383782454	0.27664647	0.52597195
1.0603833234131086	0.29063496	0.5391057
1.0779108332570058	0.32449132	0.5696414
1.0954383683201119	0.32115787	0.5667079
1.112965929012607	0.34152177	0.5843986
1.1304935157446763	0.4406976	0.6638506
1.1480211289265108	0.4969773	0.7049662
1.1655487689683062	1.3171252	1.1476607
1.1830764362802655	1.5599258	1.2489699
1.200604131272596	2.0133035	1.4189093
1.2181318543555117	2.4706104	1.5718175
1.235659605939232	2.5394788	1.5935742
1.253187386433982	3.9766219	1.994147
1.270715196249994	6.3438993	2.51871
1.2882430357975057	11.879621	3.4466825
1.3057709054867608	16.570755	4.0707192
1.3232988057280106	22.152817	4.706678
1.3408267369315112	27.138731	5.2094846
1.358354699507526	30.904745	5.5592036
1.3758826938663256	34.983456	5.9146814
1.3934107204181858	36.92362	6.076481
1.410938779573391	37.101944	6.0911365
1.4284668717422309	37.737446	6.143081
1.4459949973350033	37.468838	6.1211796
1.4635231567620117	37.480396	6.1221237
1.4810513504335687	36.723106	6.0599594
1.4985795787599925	36.007008	6.000584
1.5161078421516088	35.505474	5.958647
1.5336361410187505	35.014126	5.9172735
1.5511644757717598	35.19636	5.932652
1.5686928468209842	36.168713	6.014043
1.58622125457678	36.93791	6.0776563
1.6037496994495108	37.731197	6.1425724
1.621278181849548	37.58792	6.130899
1.6388067021872719	38.420746	6.198447
1.6563352608730693	37.675785	6.1380606
1.673863858317336	36.668427	6.055446
1.6913924949304753	35.599377	5.9665213
1.7089211711228998	34.409134	5.86593
1.7264498873050296	33.500515	5.787963
1.7439786438872935	32.77144	5.724634
1.7615074412801288	31.813826	5.6403747
1.779036279893981	31.407898	5.6042747
1.796565160139305	30.504505	5.5230885
1.814094082426564	30.193306	5.4948435
1.8316230471662298	29.552858	5.436254
1.849152054768784	28.581215	5.3461404
1.8666811056447168	27.969944	5.288662
1.8842102002045273	27.286951	5.2236915
1.901739338858724	26.76947	5.173922
1.9192685220178245	26.10096	5.1089096
1.9367977500923557	24.948652	4.9948626
1.9543270234928547	24.456795	4.945381
1.971856342629867	23.624645	4.860519
1.9893857079139496	23.432001	4.840661
2.006915119755667	23.05735	4.801807
2.0244445785655945	22.552181	4.748914
2.0419740847543175	22.233812	4.7152743
2.0595036387324317	21.846209	4.6739926
2.0770332409105414	21.392359	4.6251874
2.094562891699263	20.83185	4.5641923
2.1120925915092217	20.132128	4.486884
2.129622340751053	19.720871	4.440819
2.1471521398354043	187.81775	13.704661
2.1646819891729323	444.28412	21.078049
2.182211889174303	440.56393	20.989614
2.1997418402501974	453.15732	21.287493
2.2172718428113023	433.12372	20.811625
2.234801897268317	321.0157	17.91691
2.2523320040319548	17.239725	4.152075
2.269862163512935	16.850046	4.104881
2.287392376121992	16.664911	4.0822678
2.304922642269869	16.657122	4.0813136
2.322452962367322	16.309525	4.038505
2.3399833368251164	15.839182	3.979847
2.357513766054032	15.258454	3.906207
2.3750442504648586	15.037066	3.8777657
2.3925747904683963	14.824629	3.8502765
2.410105386475459	14.720395	3.8367167
2.4276360388968707	14.607105	3.8219242
2.445166748143469	14.527324	3.8114727
2.4626975146261025	14.150655	3.7617357
2.4802283387556323	13.825769	3.718302
2.4977592209429305	13.472005	3.670423
2.5152901615988825	13.240712	3.638779
2.5328211611343865	13.045723	3.6118863
2.5503522199603523	12.827479	3.581547
2.5678833384877024	12.5108795	3.5370722
2.5854145171273712	12.286732	3.5052435
2.6029457562903064	12.017094	3.466568
2.620477056387469	11.870574	3.44537
2.6380084178298326	11.559567	3.3999364
2.655539841028383	11.345024	3.3682375
2.673071326394119	11.23789	3.3522964
2.6906028743380523	11.050122	3.3241725
2.708134485271211	11.05015	3.3241765
2.7256661596046325	10.806569	3.2873347
2.743197897749369	10.672525	3.2668831
2.760729700116486	10.584702	3.253414
2.778261567117063	10.410822	3.2265806
2.795793499162193	10.340862	3.2157211
2.8133254966629817	10.21974	3.196833
2.830857560030551	10.107257	3.1791914
2.8483896896760337	9.955906	3.155298
2.865921886010578	9.859767	3.1400266
2.883454149445347	9.744912	3.121684
2.9009864803915177	9.479559	3.0788891
2.91851887926028	9.255797	3.0423343
2.9360513464628384	9.026197	3.004363
2.953583882410413	8.904207	2.9839919
2.9711164875142373	8.71662	2.9523923
2.9886491621855606	8.591766	2.9311714
3.0061819068356455	8.395377	2.8974776
3.023714721875769	8.501919	2.915805
3.041247607717225	8.483508	2.9126463
3.0587805647713213	8.397663	2.8978722
3.0763135934493806	8.372601	2.8935447
3.0938466941627407	8.23469	2.8696148
3.1113798673227544	8.33956	2.8878295
3.1289131133407904	8.277608	2.8770833
3.1464464326282315	8.025047	2.8328514
3.1639798255964786	7.8131294	2.7951975
3.1815132926569443	7.682254	2.771688
3.1990468342210603	7.6066737	2.75802
3.216580450700272	7.5312157	2.744306
3.2341141425060416	7.5463057	2.747054
3.251647910049847	7.494299	2.7375717
3.2691817537431813	7.419235	2.7238274
3.286715673997555	7.2969728	2.7012908
3.3042496712244938	7.1916013	2.6817162
3.32178374583554	7.1582894	2.675498
3.339317898242251	6.997512	2.645281
3.3568521288562034	6.9821806	2.6423817
3.3743864380889876	6.8950515	2.625843
3.3919208263522127	6.967831	2.639665
3.4094552940575023	6.849113	2.617081
3.4269898416164972	6.646734	2.5781262
3.444524469440858	6.5663166	2.5624826
3.4620591779422587	6.600568	2.5691571
3.479593967532391	6.6432657	2.5774534
3.4971288386229658	6.571784	2.563549
3.5146637916257086	6.549463	2.559192
3.5321988269523628	6.450194	2.5397232
3.5497339450146903	6.362403	2.5223804
3.5672691462244708	6.255102	2.5010202
3.5848044309934988	6.1119614	2.472238
3.60233979973359	6.166864	2.4833171
3.619875252856575	6.3143506	2.5128372
3.6374107907743034	6.347198	2.5193646
3.6549464138986427	6.34316	2.518563
3.6724821226414788	6.288299	2.5076482
3.690017917414714	6.3920503	2.5282505
3.7075537986302702	6.4502697	2.5397382
3.7250897667000857	6.5037045	2.5502362
3.7426258220361235	6.6169057	2.5723348
3.7601619650503553	6.815894	2.6107268
3.777698196154779	7.34103	2.7094336
3.7952345157614067	8.421417	2.9019678
3.8127709242822716	9.208275	3.034514
3.830307422129425	11.345957	3.368376
3.847844009714936	30.091047	5.485531
3.8653806874508954	97.69308	9.883981
3.882917455749409	97.07024	9.852423
3.900454315022606	96.96154	9.846905
3.917991265682631	41.48501	6.4408855
3.9355283081416506	11.061221	3.3258414
3.9530654428118495	8.844965	2.9740486
3.970602670105433	7.551819	2.7480574
3.9881399904346244	6.51415	2.5522833
4.005677404211669	6.408886	2.5315778
4.023214911848827	6.375836	2.5250418
4.0407525137583855	6.4543166	2.5405347
4.058290210352644	6.5665717	2.5625322
4.075828002043927	6.4508657	2.5398555
4.0933658892445814	6.3250527	2.5149658
4.110903872366966	6.216239	2.4932387
4.128441951823468	6.2001944	2.4900188
4.145980128026488	6.216876	2.4933665
4.163518401388452	6.200666	2.4901137
4.181056772321807	6.134676	2.4768279
4.1985952412390155	6.1372423	2.4773457
4.216133808552567	6.1812277	2.4862075
4.233672474674966	6.3128486	2.5125382
4.251211240018741	6.558394	2.5609362
4.268750104996445	6.7947116	2.6066668
4.286289070020643	7.6612372	2.767894
4.303828135503928	9.308138	3.050924
4.3213673018589125	29.577665	5.438535
4.3389065694982305	90.72978	9.525218
4.356445938834537	166.04791	12.885958
4.3739854102805085	171.72108	13.104239
4.391524984248844	172.67899	13.140738
4.409064661152262	136.72011	11.692738
4.426604441403504	96.99116	9.848409
4.444144325415337	75.8456	8.708938
4.461684313600543	21.995768	4.689965
4.47922440637193	22.313295	4.7236953
4.496764604142329	20.609753	4.5397964
4.5143049073245916	18.709389	4.325435
4.531845316331589	16.607306	4.0752063
4.5493858315762195	13.81491	3.7168415
4.566926453471405	11.464861	3.3859801
4.584467182430081	9.501949	3.082523
4.602008018865218	8.319562	2.884365
4.619548963189798	7.6702695	2.769525
4.637090015816834	7.1302505	2.6702528
4.654631177159353	6.857144	2.618615
4.672172447630417	6.592916	2.5676675
4.689713827643102	6.4345107	2.5366337
4.7072553176105085	6.1863656	2.4872406
4.724796917945764	5.976613	2.4447112
4.742338629062015	5.834691	2.4155104
4.759880451372434	5.798215	2.4079483
4.777422385290215	5.7716813	2.4024324
4.794964431228581	5.759951	2.3999898
4.812506589600768	5.7371936	2.395244
4.830048860820047	5.697742	2.3869944
4.847591245299709	5.6837096	2.3840532
4.8651337434530655	5.647918	2.376535
4.882676355693457	5.6492076	2.3768063
4.900219082434242	5.543205	2.354401
4.917761924088813	5.4556136	2.3357255
4.935304881070575	5.4466853	2.3338134
4.952847953792969	5.489961	2.3430667
4.970391142669449	5.555507	2.3570123
4.9879344481135055	5.564311	2.358879
5.005477870538642	5.5537844	2.3566468
5.023021410358394	5.482188	2.3414073
5.040565067986324	5.417575	2.3275685
5.05810884383601	5.421796	2.328475
5.075652738321066	5.4569507	2.3360116
5.09319675185512	5.4233513	2.328809
5.110740884851836	5.3520856	2.3134575
5.128285137724894	5.3369303	2.3101797
5.145829510888007	5.390128	2.321665
5.163374004754908	5.4671926	2.338203
5.1809186197393595	5.3926954	2.3222177
5.198463356255145	5.398026	2.3233652
5.216008214716077	5.362659	2.3157415
5.233553195535998	5.3584146	2.314825
5.251098299128764	5.354083	2.3138893
5.268643525908272	5.3266335	2.30795
5.286188876288432	5.2882795	2.2996259
5.3037343506831895	5.2568603	2.2927845
5.32127994950651	5.173147	2.2744553
5.3388256731723915	5.1666503	2.2730267
5.356371522094851	5.160397	2.2716508
5.373917496687938	5.1932154	2.2788627
5.391463597365729	5.233915	2.287775
5.40900982454232	5.2492046	2.2911143
5.426556178631843	5.2760806	2.296972
5.444102660048449	5.226368	2.2861252
5.4616492692063225	5.198269	2.2799714
5.479196006519669	5.2540708	2.292176
5.496742872402727	5.230432	2.2870138
5.514289867269756	5.238321	2.2887378
5.531836991535049	5.245654	2.2903392
5.549384245612924	5.209194	2.2823658
5.566931629917724	5.212479	2.2830853
5.584479144863822	5.1052537	2.259481
5.6020267908656205	5.093036	2.2567756
5.619574568337545	5.067393	2.251087
5.637122477694054	5.1041384	2.259234
5.654670519349629	5.155279	2.270524
5.672218693718784	5.1749177	2.2748446
5.689767001216059	5.173276	2.2744837
5.707315442256021	5.154401	2.2703307
5.724864017253266	5.084349	2.2548501
5.7424127266224225	5.0782743	2.2535026
5.75996157077814	5.062992	2.2501094
5.777510550135105	5.1811028	2.2762036
5.795059665108022	5.200065	2.2803652
5.812608916111639	5.280362	2.2979038
5.830158303560715	5.3852596	2.3206162
5.847707827870055	5.3703337	2.317398
5.86525748945448	5.3690953	2.3171308
5.8828072887288485	5.4383	2.3320162
5.900357226108044	5.5189567	2.349246
5.917907302006979	5.666504	2.380442
5.9354575168406	6.2529593	2.5005918
5.9530078710238765	6.829534	2.6133378
5.970558364971812	7.360339	2.7129946
5.988108999099438	7.7529798	2.7844174
6.005659773821818	8.336139	2.8872373
6.023210689554039	8.129201	2.8511753
6.040761746711227	8.394343	2.8972993
6.058312945708531	7.7635984	2.7863235
6.075864286961132	7.3070264	2.7031512
6.093415770884244	6.7177296	2.5918584
6.1109673978931065	6.1841583	2.4867969
6.128519168402993	5.4876113	2.342565
6.146071082829204	5.3064675	2.3035772
6.163623141587075	5.264348	2.2944167
6.181175345091969	5.280518	2.2979379
6.198727693759281	5.327377	2.3081112
6.216280188004435	5.264021	2.2943454
6.233832828242885	5.197285	2.2797556
6.251385614890126	5.2137017	2.283353
6.268938548361669	5.2388554	2.2888546
6.286491629073067	5.1875334	2.2776158
6.304044857439898	5.1095862	2.2604394
6.321598233877777	5.003764	2.2369096
6.339151758802344	5.0467825	2.2465045
6.356705432629277	5.0701127	2.251691
6.37425925577428	5.028856	2.242511
6.391813228653095	4.912631	2.2164457
6.409367351681486	4.907952	2.2153897
6.426921625275259	5.0116186	2.2386644
6.44447604985025	5.099273	2.258157
6.46203062582232	5.1483793	2.269004
6.47958535360737	5.0839233	2.2547557
6.497140233621328	5.0394907	2.244881
6.514695266280161	4.99894	2.235831
6.532250451999859	5.0515165	2.2475579
6.549805791196454	5.044629	2.246025
6.567361284286002	5.0459204	2.2463126
6.584916931684597	4.9788384	2.231331
6.602472733808367	4.981889	2.2320144
6.6200286910734665	4.9804926	2.2317016
6.637584803896092	4.9705553	2.2294743
6.655141072692462	4.9939137	2.2347066
6.672697497878842	5.008031	2.237863
6.690254079871514	5.0060077	2.237411
6.707810819086808	4.9923086	2.2343476
6.725367715941078	4.983079	2.2322812
6.742924770850719	5.005871	2.2373803
6.760481984232151	5.012692	2.2389042
6.778039356501836	5.0497456	2.247164
6.795596888076266	4.968182	2.228942
6.813154579371963	4.9696555	2.2292724
6.830712430805492	5.0261717	2.2419126
6.84827044279344	5.0307794	2.24294
6.865828615752445	5.0425963	2.2455726
6.883386950099159	4.9975753	2.2355258
6.900945446250287	4.9775395	2.23104
6.918504104622553	5.024276	2.2414896
6.936062925632727	5.06214	2.24992
6.953621909697607	5.089228	2.2559319
6.971181057234028	5.0426826	2.2455919
6.988740368658859	5.0996876	2.2582488
7.006299844389007	5.2173767	2.2841578
7.023859484841407	5.277606	2.2973042
7.041419290433036	5.3571305	2.3145475
7.058979261580902	5.4379096	2.3319325
7.0765393987020495	5.633069	2.3734088
7.094099702213559	6.0135674	2.4522576
7.111660172532549	6.337126	2.5173647
7.129220810076164	6.7905726	2.6058726
7.146781615261595	7.397489	2.7198327
7.16434258850606	7.692054	2.7734551
7.181903730226821	8.09243	2.8447196
7.1994650408411704	8.169106	2.8581648
7.217026520766437	8.336977	2.8873823
7.234588170419983	8.610619	2.9343855
7.252149990219215	8.662883	2.9432776
7.269711980581568	8.522925	2.919405
7.2872741419245175	8.241501	2.8708014
7.304836474665574	7.7941175	2.7917948
7.322398979222286	7.533211	2.7446697
7.339961656012233	7.3072157	2.7031863
7.357524505453039	7.0188565	2.6493125
7.375087527962357	6.6928797	2.58706
7.392650723957886	6.4143076	2.5326483
7.410214093857353	6.074418	2.4646335
7.427777638078528	5.8695536	2.4227161
7.445341357039213	5.704965	2.388507
7.4629052511572525	5.5631523	2.3586335
7.480469320850524	5.4404874	2.3324852
7.498033566536948	5.2899966	2.2999992
7.5155979886344735	5.233077	2.287592
7.5331625875610975	5.24916	2.2911046
7.550727363734844	5.30197	2.3026006
7.568292317573788	5.2931376	2.300682
7.585857449496025	5.3038034	2.3029988
7.603422759919705	5.3220367	2.306954
7.620988249263007	5.3067293	2.303634
7.638553917944147	5.2171135	2.2841
7.656119766381391	5.1340046	2.265834
7.673685794993023	5.150439	2.2694578
7.691252004197388	5.219743	2.2846756
7.70881839441285	5.2600193	2.2934732
7.726384966057826	5.269394	2.295516
7.743951719550762	5.2649894	2.2945564
7.761518655310149	5.2726083	2.296216
7.779085773754511	5.3320603	2.3091254
7.796653075302419	5.3446765	2.3118556
7.814220560372475	5.274766	2.296686
7.831788229383323	5.230637	2.2870586
7.8493560827536495	5.278309	2.297457
7.866924120902174	5.356781	2.3144722
7.884492344247663	5.4639826	2.3375163
7.9020607532089135	5.4692574	2.3386443
7.919629348204771	5.437393	2.331822
7.937198129654115	5.4325414	2.3307812
7.954767097975865	5.452977	2.335161
7.972336253588986	5.4953036	2.3442063
7.989905596912472	5.5446734	2.354713
8.007475128365371	5.571147	2.3603277
8.025044848366756	5.494431	2.3440204
8.042614757335754	5.547622	2.355339
8.060184855691523	5.614045	2.3693976
8.07775514385327	5.836474	2.4158795
8.095325622240228	5.9623466	2.4417918
8.112896291271687	6.0106874	2.4516704
8.130467151366968	5.9430423	2.4378355
8.148038202945436	5.9030385	2.429617
8.165609446426497	5.8537674	2.419456
8.183180882229594	5.9213624	2.433385
8.200752510774217	5.991353	2.447724
8.218324332479893	6.0062723	2.4507697
8.235896347766193	5.999115	2.449309
8.253468557052724	6.0345316	2.4565284
8.27104096075914	6.0929165	2.4683833
8.288613559305137	6.112437	2.4723344
8.306186353110448	6.141644	2.478234
8.32375934259485	6.1737	2.484693
8.341332528178162	6.2312546	2.496248
8.358905910280246	6.2192216	2.4938366
8.376479489321003	6.209945	2.4919763
8.394053265720377	6.2335634	2.4967105
8.411627239898356	6.2510037	2.5002007
8.42920141227497	6.2612925	2.5022576
8.44677578327029	6.27643	2.5052805
8.464350353304427	6.289677	2.507923
8.48192512279754	6.2073393	2.4914532
8.499500092169827	6.121077	2.474081
8.51707526184153	6.020519	2.4536746
8.534650632232934	6.0627275	2.4622607
8.552226203764365	6.0837665	2.4665291
8.569801976856192	6.10535	2.4709005
8.587377951928834	6.1435847	2.4786255
8.60495412940274	6.2323284	2.4964633
8.622530509698416	6.381123	2.5260885
8.6401070932364	6.538717	2.5570915
8.657683880437283	6.6048727	2.5699947
8.675260871721695	6.7414923	2.5964384
8.692838067510303	6.877094	2.6224213
8.710415468223834	6.9723325	2.6405175
8.727993074283043	7.026289	2.6507149
8.745570886108737	7.065721	2.6581423
8.763148904121765	7.1404786	2.6721673
8.78072712874302	7.2119184	2.6855016
8.798305560393441	7.469135	2.732972
8.815884199494006	7.6074867	2.7581673
8.833463046465745	7.8249655	2.797314
8.851042101729728	7.94611	2.8188844
8.86862136570707	8.246648	2.8716977
8.886200838818924	8.392108	2.8969135
8.903780521486505	8.481354	2.9122765
8.921360414131055	8.583443	2.9297514
8.938940517173874	8.724775	2.953773
8.956520831036297	8.824766	2.970651
8.97410135613971	9.05369	3.008935
8.99168209290554	9.16483	3.027347
9.009263041755265	9.4126625	3.0680063
9.026844203110405	9.702597	3.1148992
9.044425577392525	9.946468	3.1538022
9.062007165023239	10.07272	3.1737547
9.079588966424197	10.300294	3.209407
9.097170982017108	10.29245	3.2081847
9.11475321222372	11.205142	3.3474083
9.132335657465825	12.084257	3.4762418
9.149918318165264	12.209173	3.4941628
9.167501194743924	12.756355	3.571604
9.18508428762374	12.486407	3.533611
9.202667597226693	12.479488	3.5326319
9.220251123974803	12.164977	3.4878328
9.237834868290143	11.897759	3.449313
9.255418830594836	11.715171	3.422743
9.273003011311046	11.162243	3.3409944
9.290587410860985	10.888535	3.299778
9.308172029666911	10.259467	3.2030404
9.32575686815113	10.054671	3.1709101
9.343341926735997	8.935352	2.989206
9.360927205843916	8.68867	2.947655
9.378512705897327	8.430485	2.9035296
9.396098427318728	8.175843	2.859343
9.413684370530664	8.089003	2.8441172
9.431270535955722	8.0357065	2.8347323
9.448856924016539	7.9418273	2.8181248
9.466443535135806	7.8346987	2.7990532
9.484030369736251	7.8033853	2.793454
9.501617428240658	7.7802057	2.789302
9.519204711071852	7.7852077	2.7901986
9.536792218652714	7.8159986	2.7957108
9.55437995140617	7.8757935	2.8063843
9.571967909755191	7.850228	2.8018258
9.589556094122802	7.7952814	2.7920032
9.60714450493207	7.7827473	2.7897575
9.624733142606116	7.8290696	2.7980475
9.642322007568108	7.886888	2.8083603
9.659911100241267	7.970567	2.8232193
9.677500421048851	8.044999	2.8363707
9.695089970414175	8.117032	2.8490405
9.712679748760609	8.095289	2.8452222
9.730269756511557	8.039704	2.8354373
9.747859994090492	8.013382	2.8307917
9.765450461920915	8.045218	2.8364093
9.78304116042639	8.17816	2.8597481
9.800632090030527	8.27784	2.8771236
9.81822325115699	8.36698	2.892573
9.835814644229481	8.318985	2.8842652
9.853406269671762	8.278711	2.877275
9.870998127907646	8.269921	2.8757472
9.888590219360985	8.317713	2.8840444
9.906182544455698	8.362251	2.8917558
9.923775103615734	8.357342	2.8909068
9.941367897265108	8.370398	2.893164
9.958960925827878	8.421475	2.9019778
9.97655418972816	8.348598	2.889394
9.994147689390106	8.345361	2.8888338
10.011741425237934	8.362821	2.8918543
10.029335397695904	8.381343	2.8950548
10.04692960718833	8.378571	2.894576
10.06452405413958	8.3119545	2.8830462
10.082118738974064	8.248878	2.8720858
10.099713662116246	8.213724	2.8659596
10.117308823990651	8.25987	2.8739989
10.134904225021844	8.3457	2.8888927
10.152499865634445	8.400047	2.8982835
10.170095746253125	8.332401	2.88659
10.18769186730261	8.264009	2.8747191
10.205288229207675	8.151972	2.8551657
10.222884832393145	8.113326	2.84839
10.2404816772839	8.17987	2.860047
10.258078764304868	8.213551	2.8659294
10.275676093881035	8.229844	2.8687706
10.293273666437438	8.135371	2.8522573
10.310871482399158	8.201364	2.8638022
10.32846954219134	8.194776	2.8626518
10.346067846239173	8.195139	2.8627152
10.363666394967908	8.176954	2.8595374
10.38126518880283	8.225296	2.8679776
10.398864228169298	8.2488165	2.8720753
10.416463513492713	8.261842	2.874342
10.434063045198531	8.293998	2.8799303
10.451662823712262	8.3757515	2.894089
10.469262849459467	8.373504	2.8937006
10.486863122865758	8.2309675	2.8689663
10.504463644356806	8.062267	2.8394132
10.522064414358338	7.9498935	2.8195555
10.539665433296118	7.867885	2.804975
10.557266701595987	7.778646	2.7890224
10.574868219683818	7.7750115	2.7883708
10.592469987985552	7.7394357	2.781984
10.610072006927185	7.7240915	2.7792249
10.627674276934751	7.609952	2.758614
10.64527679843435	7.4269	2.725234
10.662879571852143	7.246593	2.6919496
10.680482597614331	7.1574674	2.6753442
10.698085876147173	7.0796127	2.6607542
10.715689407876988	6.9778047	2.6415534
10.733293193230146	6.9162827	2.6298826
10.750897232633072	6.8571553	2.618617
10.76850152651225	6.841769	2.6156776
10.786106075294207	6.730667	2.594353
10.803710879405534	6.570671	2.563332
10.821315939272877	6.432443	2.5362263
10.83892125532294	6.3819485	2.5262518
10.856526827982472	6.3055162	2.5110786
10.874132657678285	6.3345904	2.5168612
10.891738744837243	6.313233	2.5126147
10.909345089886271	6.330051	2.5159593
10.926951693252343	6.236856	2.4973698
10.944558555362494	6.1447763	2.4788659
10.96216567664381	6.038152	2.4572651
10.979773057523436	5.97989	2.4453814
10.997380698428573	5.94293	2.4378126
11.014988599786477	5.91248	2.431559
11.032596762024461	5.8555913	2.419833
11.050205185569892	5.7406025	2.3959556
11.067813870850198	5.634745	2.373762
11.085422818292859	5.545349	2.3548565
11.10303202832541	5.5381866	2.3533351
11.120641501375454	5.464684	2.3376663
11.138251237870636	5.390912	2.3218338
11.155861238238671	5.261912	2.2938857
11.173471502907317	5.216561	2.2839792
11.191082032304402	5.18784	2.277683
11.208692826857805	5.1470995	2.268722
11.226303886995465	5.0644927	2.2504427
11.243915213145371	4.9578795	2.2266297
11.261526805735578	4.853312	2.2030234
11.279138665194196	4.810842	2.1933632
11.296750791949393	4.817286	2.1948316
11.314363186429393	4.7447824	2.1782522
11.331975849062479	4.6893835	2.1654985
11.34958878027699	4.6684475	2.160659
11.36720198050133	4.659875	2.1586742
11.384815450163948	4.675961	2.1623971
11.402429189693366	4.5942097	2.1434107
11.420043199518153	4.553848	2.1339746
11.437657480066942	63.47527	7.967137
11.455272031768422	85.19623	9.230181
11.472886855051353	107.56691	10.371447
11.490501950344528	99.20108	9.959974
11.508117318076819	84.55073	9.195147
11.52573295867715	45.897655	6.7747808
11.543348872574514	4.128865	2.0319607
11.560965060197946	4.0450735	2.011237
11.57858152197655	3.9875875	1.9968945
11.59619825833949	4.002807	2.0007017
11.613815269715985	3.9750047	1.9937414
11.631432556535323	38.489273	6.2039723
11.649050119226837	83.0469	9.113008
11.666667958219929	93.50505	9.669801
11.68428607394406	107.772705	10.381363
11.701904466828756	82.57118	9.086868
11.719523137303586	65.389175	8.086357
11.737142085798196	4.620334	2.1494963
11.754761312742286	3.7274451	1.9306593
11.772380818565619	3.6884785	1.9205412
11.790000603698015	3.670313	1.915806
11.80762066856935	3.6551962	1.9118568
11.825241013609572	3.635321	1.9066517
11.842861639248683	3.610967	1.9002545
11.860482545916748	3.535673	1.8803385
11.878103734043883	3.521819	1.876651
11.895725204060282	3.5029337	1.8716125
11.91334695639619	3.515464	1.8749571
11.930968991481919	3.4167972	1.848458
11.948591309747824	3.331129	1.8251381
11.966213911624347	3.300254	1.8166602
11.98383679754198	3.3043818	1.8177959
12.001459967931268	3.3173633	1.821363
12.019083423222835	3.3047793	1.8179052
12.036707163847352	3.26745	1.807609
12.05433119023556	3.2564242	1.8045565
12.071955502818259	3.2316592	1.7976816
12.089580102026313	3.2050261	1.7902586
12.107204988290643	3.1960592	1.7877525
12.12483016204224	3.1601946	1.7776936
12.142455623712152	3.1729121	1.781267
12.16008137373149	3.1496153	1.7747155
12.177707412531431	3.1068082	1.762614
12.19533374054321	3.0860782	1.7567238
12.212960358198126	3.0726628	1.7529013
12.230587265927545	3.095454	1.7593902
12.248214464162889	3.046743	1.7454922
12.265841953335649	3.0093918	1.7347598
12.283469733877375	2.9385462	1.7142189
12.301097806219685	2.9583282	1.7199792
12.31872617079425	2.9793556	1.726081
12.336354828032825	2.974307	1.724618
12.353983778367205	2.9441211	1.7158442
12.371613022229262	2.9416707	1.71513
12.389242560050928	2.9569647	1.7195827
12.406872392264201	2.9503622	1.7176619
12.424502519301143	2.9371624	1.7138152
12.442132941593874	2.9324393	1.7124367
12.459763659574586	2.9360242	1.7134831
12.477394673675532	2.897358	1.7021627
12.49502598432903	2.8790257	1.6967692
12.51265759196746	2.8518765	1.68875
12.530289497023267	2.8384356	1.6847657
12.547921699928967	2.8326705	1.6830539
12.565554201117134	2.7729077	1.665205
12.583187001020404	2.7322667	1.652957
12.600820100071486	2.7050712	1.6447101
12.618453498703152	2.7476113	1.657592
12.636087197348235	2.7845738	1.6687043
12.65372119643964	2.8212376	1.679654
12.671355496410326	2.824906	1.6807457
12.68899009769333	2.8645332	1.6924932
12.706625000721749	2.9032073	1.7038801
12.724260205928752	2.9798005	1.7262099
12.741895713747551	3.0031157	1.73295
12.759531524611454	3.0388136	1.7432194
12.777167638953818	2.9976273	1.7313657
12.794804057208072	2.9958787	1.7308607
12.812440779807702	3.0484989	1.745995
12.830077807186271	3.2103662	1.7917495
12.847715139777405	3.2425947	1.8007206
12.865352778014795	3.4530058	1.8582265
12.882990722332197	3.5584037	1.8863732
12.90062897316344	3.5954566	1.896169
12.918267530942412	3.6778932	1.9177834
12.935906396103071	3.5783281	1.891647
12.953545569079449	3.7506578	1.9366615
12.971185050305628	3.5932086	1.895576
12.988824840215775	3.6521547	1.9110612
13.006464939244115	3.697363	1.9228528
13.024105347824943	3.5311651	1.8791394
13.041746066392617	3.5965981	1.89647
13.05938709538157	3.4008775	1.8441468
13.077028435226296	3.4128873	1.8474002
13.094670086361363	3.277238	1.8103143
13.112312049221401	3.1701374	1.780488
13.129954324241112	3.084124	1.7561674
13.147596911855258	2.9344146	1.7130133
13.165239812498685	2.894456	1.70131
13.182883026606293	2.8266037	1.6812506
13.200526554613058	2.7601461	1.6613687
13.218170396954017	2.7173262	1.6484314
13.235814554064284	2.6992476	1.6429387
13.253459026379034	2.6575208	1.6301904
13.271103814333523	2.672323	1.6347241
13.288748918363058	2.6743279	1.6353372
13.306394338903031	2.6861331	1.6389427
13.32404007638889	2.6894143	1.6399434
13.341686131256164	2.6883106	1.6396068
13.359332503940449	2.6930058	1.6410381
13.376979194877402	2.7137764	1.6473544
13.394626204502751	2.74803	1.6577183
13.412273533252307	2.7390456	1.6550062
13.429921181561937	2.7172368	1.6484044
13.447569149867581	2.7191684	1.6489902
13.465217438605247	2.744491	1.6566505
13.482866048211022	2.6832902	1.6380751
13.500514979121052	2.6932766	1.6411206
13.518164231771568	2.720111	1.6492759
13.535813806598844	2.7497354	1.6582326
13.553463704039254	2.7496817	1.6582165
13.571113924529229	2.7604272	1.6614534
13.588764468505275	2.7677662	1.6636605
13.606415336403956	2.7809424	1.6676158
13.624066528661917	2.7434204	1.6563274
13.641718045715882	2.7771966	1.6664923
13.659369888002635	2.8417933	1.6857619
13.67702205595903	2.917927	1.7081941
13.694674550021993	2.9844062	1.7275434
13.712327370628532	3.0383408	1.7430837
13.729980518215713	3.1238608	1.7674447
13.747633993220681	3.227558	1.7965405
13.765287796080647	3.280297	1.811159
13.7829419272329	3.2965727	1.8156466
13.800596387114801	3.2715423	1.8087405
13.818251176163775	3.2806392	1.8112534
13.835906294817324	3.3254685	1.8235867
13.853561743513023	3.387509	1.8405187
13.871217522688525	3.4508069	1.8576348
13.888873632781538	3.4847822	1.8667572
13.906530074229858	3.5424619	1.8821429
13.92418684747135	3.5264425	1.8778825
13.941843952943948	3.4796457	1.8653809
13.959501391085665	3.4264038	1.8510548
13.977159162334578	3.3656976	1.8345838
13.994817267128846	3.3461435	1.8292466
14.012475705906693	3.278594	1.8106889
14.030134479106424	3.223995	1.7955487
14.047793587166414	3.1784945	1.7828332
14.065453030525108	3.1210883	1.7666602
14.083112809621026	3.0336926	1.7417499
14.100772924892766	2.9135463	1.7069113
14.118433376778997	2.8950515	1.701485
14.136094165718458	2.8472278	1.687373
14.153755292149969	2.8306441	1.6824518
14.171416756512416	2.7696486	1.664226
14.189078559244768	2.6842163	1.6383578
14.20674070078606	2.589329	1.6091392
14.224403181575408	2.52486	1.5889808
14.242066002051999	2.467771	1.570914
14.259729162655093	2.4760733	1.5735544
14.277392663824022	2.4872203	1.5770924
14.295056505998208	2.501477	1.5816058
14.312720689617128	2.4744773	1.5730472
14.330385215120348	2.4731724	1.5726323
14.348050082947497	2.4886625	1.5775496
14.3657152935383	2.464366	1.56983
14.383380847332528	2.4340253	1.5601363
14.401046744770051	2.4324305	1.5596251
14.418712986290798	2.4509375	1.565547
14.436379572334793	2.4591458	1.5681664
14.454046503342123	2.4334655	1.5599569
14.471713779752946	2.3989296	1.5488478
14.489381402007504	2.3962111	1.54797
14.507049370546113	2.4016745	1.5497336
14.524717685809168	2.3764508	1.5415741
14.542386348237134	2.3502636	1.533057
14.560055358270553	2.3633864	1.537331
14.577724716350051	2.4218452	1.5562279
14.595394422916325	2.4462914	1.5640625
14.61306447841015	2.524299	1.5888042
14.63073488327237	2.5251803	1.5890816
14.648405637943917	2.5442138	1.5950592
14.6660767428658	2.5056765	1.5829328
14.683748198479094	2.5175512	1.5866793
14.701420005224954	2.6068125	1.6145626
14.719092163544628	2.682321	1.6377794
14.73676467387942	2.737837	1.654641
14.754437536670727	2.6990824	1.6428884
14.772110752360014	2.6664596	1.6329298
14.78978432138882	2.6219206	1.6192346
14.807458244198777	2.613888	1.6167523
14.82513252123159	2.6317625	1.6222708
14.842807152929028	2.7131536	1.6471653
14.860482139732962	2.7518196	1.6588609
14.87815748208531	2.7188363	1.6488894
14.8958331804281	2.6658015	1.6327282
14.91350923520342	2.6373951	1.6240059
14.931185646853438	2.6841624	1.6383413
14.948862415820408	2.7008383	1.6434227
14.966539542546656	2.7155511	1.647893
14.98421702747459	2.735057	1.6538008
15.001894871046696	2.7585092	1.660876
15.019573073705542	2.763256	1.6623044
15.037251635893766	2.6790092	1.6367679
15.054930558054092	2.6775658	1.6363269
15.072609840629323	2.678283	1.636546
15.090289484062351	2.8143606	1.6776056
15.107969488796124	3.1069021	1.7626407
15.125649855273691	3.5275378	1.8781741
15.14333058393817	4.108583	2.026964
15.161011675232768	5.206955	2.2818754
15.17869312960076	6.702054	2.5888326
15.196374947485506	8.731314	2.9548798
15.214057129330447	12.037463	3.4695048
15.231739675579114	16.913141	4.112559
15.249422586675102	21.881388	4.6777544
15.267105863062092	24.61009	4.960856
15.284789505183847	24.384993	4.938116
15.302473513484218	22.007145	4.6911774
15.320157888407127	18.391937	4.2885823
15.337842630396578	14.296737	3.7811027
15.355527739896656	11.176672	3.343153
15.37321321735153	8.630982	2.9378533
15.39089906320545	6.2529526	2.5005906
15.408585277902748	4.6293488	2.1515923
15.42627186188783	3.6334052	1.9061493
15.443958815605198	3.1572485	1.7768648
15.461646139499424	2.957012	1.7195965
15.479333834015168	2.8162057	1.6781554
15.497021899597165	2.7515044	1.6587659
15.514710336690234	2.674461	1.6353779
15.53239914573928	2.6341836	1.6230168
15.550088327189297	2.599883	1.6124153
15.567777881485336	2.558926	1.5996643
15.58546780907256	2.4982777	1.5805941
15.6031581103962	2.4550686	1.5668658
15.620848785901568	2.4855528	1.5765636
15.638539836034063	2.4760492	1.5735466
15.656231261239173	2.4501755	1.5653037
15.673923061962451	2.4311202	1.5592049
15.691615238649552	2.460444	1.5685803
15.709307791746202	2.462898	1.5693623
15.727000721698221	2.423269	1.5566853
15.744694028951498	2.3883412	1.5454259
15.76238771395202	2.3643565	1.5376464
15.780081777145844	2.3676875	1.5387292
15.797776218979125	2.3931158	1.5469699
15.815471039898094	2.4086785	1.5519918
15.833166240349064	2.3903527	1.5460765
15.850861820778437	2.3771117	1.5417885
15.868557781632699	2.3680375	1.5388429
15.886254123358412	2.3955157	1.5477453
15.903950846402232	2.414139	1.55375
15.921647951210897	2.4128447	1.5533334
15.939345438231225	2.3976529	1.5484356
15.957043307910133	2.3785672	1.5422604
15.974741560694602	2.3819802	1.5433666
15.992440197031714	2.3876061	1.5451881
16.01013921736862	2.4180965	1.555023
16.02783862215259	2.4217832	1.556208
16.045538411830933	2.4192789	1.5554031
16.06323858685107	2.3769622	1.54174
16.080939147660512	2.375418	1.5412391
16.09864009470684	2.3914516	1.5464319
16.11634142843774	2.430628	1.5590472
16.134043149300954	2.4343576	1.5602428
16.15174525774433	2.4538999	1.5664928
16.169447754215817	2.4503117	1.5653472
16.18715063916342	2.440338	1.5621581
16.204853913035244	2.4267538	1.5578041
16.222557576279478	2.4463632	1.5640854
16.240261629344403	22.44888	4.7380247
16.257966072678386	42.983757	6.5562
16.275670906729868	38.09315	6.171965
16.293376131947387	2.540877	1.5940129
16.31108174877957	2.5528483	1.5977635
16.328787757675133	2.5736184	1.6042501
16.34649415908287	2.56022	1.6000688
16.364200953451657	2.6287246	1.6213342
16.38190814123048	2.6656668	1.632687
16.39961572286839	2.701435	1.6436043
16.41732369881455	2.7377524	1.6546155
16.43503206951817	2.8021042	1.6739486
16.45274083542859	2.8060768	1.6751349
16.47044999699522	2.8137481	1.677423
16.488159554667558	2.8131402	1.6772418
16.505869508895184	2.857217	1.6903305
16.523579860127786	2.9284928	1.7112839
16.541290608815117	2.9880245	1.7285904
16.559001755407035	3.0415325	1.743999
16.57671330035348	3.0786574	1.7546103
16.59442524410448	3.139845	1.7719607
16.61213758711015	3.1634927	1.778621
16.629850329820705	3.2263746	1.7962112
16.647563472686436	3.3165443	1.8211381
16.665277016157724	3.469171	1.8625711
16.682990960685053	3.538925	1.881203
16.70070530671898	3.561128	1.8870951
16.718420054710155	3.539066	1.8812406
16.736135205109335	3.5316613	1.8792715
16.753850758367335	3.5886908	1.894384
16.771566714935087	3.6614885	1.9135016
16.789283075263597	3.7699974	1.9416481
16.80699983980398	3.8692524	1.9670415
16.82471700900741	3.9640734	1.9909981
16.84243458332518	3.9860752	1.9965158
16.860152563208665	4.068559	2.017067
16.87787094910932	4.1207395	2.0299604
16.89558974147871	4.1327505	2.0329168
16.913308940768466	4.1172514	2.0291011
16.931028547430333	4.146655	2.0363338
16.94874856191613	4.2483506	2.0611527
16.966468984677785	4.320226	2.0785153
16.98418981616729	4.378112	2.0923939
17.00191105683676	4.424459	2.1034398
17.019632707138374	4.446629	2.1087031
17.03735476752442	4.482998	2.117309
17.05507723844728	4.5311	2.128638
17.072800120359403	4.5786066	2.139768
17.090523413713353	4.612592	2.1476946
17.108247118961785	4.656917	2.157989
17.125971236557437	4.7197123	2.17249
17.143695766953133	4.6764307	2.1625056
17.161420710601806	4.659444	2.1585746
17.179146067956477	4.664901	2.1598382
17.19687183947025	4.7039375	2.1688564
17.21459802559634	4.723767	2.1734228
17.232324626788028	4.6841063	2.1642797
17.25005164349871	4.6428494	2.1547272
17.267779076181863	4.636975	2.1533637
17.285506925291074	4.611204	2.1473715
17.30323519127999	4.5771627	2.1394305
17.320963874602384	4.548208	2.1326528
17.33869297571211	4.483381	2.1173995
17.356422495063114	4.4422445	2.1076634
17.37415243310944	4.476112	2.1156824
17.391882790305218	4.566823	2.1370127
17.40961356710468	4.598266	2.1443567
17.42734476396215	4.552006	2.133543
17.445076381332044	4.5177293	2.125495
17.462808419668868	4.584126	2.1410573
17.48054087942723	4.8128824	2.1938283
17.498273761061835	5.182378	2.2764835
17.51600706502747	5.7154636	2.3907037
17.533740791779024	6.4614215	2.5419326
17.551474941771485	8.092105	2.8446624
17.56920951545993	9.26663	3.044114
17.586944513299528	11.475284	3.387519
17.60467993574556	13.21524	3.635277
17.622415783253373	14.905764	3.8607984
17.64015205627843	16.20902	4.026043
17.657888755276293	17.084328	4.1333194
17.675625880702604	17.40501	4.1719313
17.69336343301311	17.16183	4.142684
17.71110141266366	16.455368	4.056522
17.728839820110178	15.676465	3.9593515
17.746578655808705	14.870808	3.8562686
17.764317920215372	13.359483	3.6550627
17.7820576137864	11.590657	3.4045055
17.79979773697811	9.3158865	3.0521936
17.81753829024692	7.2910714	2.7001984
17.835279274049356	5.637274	2.3742943
17.85302068884201	4.7035904	2.1687763
17.870762535081607	4.0973907	2.0242012
17.888504813224934	3.82263	1.9551547
17.90624752372891	3.697145	1.9227961
17.923990667050536	3.6509776	1.9107531
17.941734243646895	3.5714216	1.8898206
17.959478253975185	3.4773183	1.864757
17.9772226984927	3.4106793	1.8468025
17.994967577656833	3.3589056	1.8327317
18.01271289192506	3.336098	1.8264989
18.030458641754965	3.3695936	1.8356453
18.04820482760425	3.4119227	1.847139
18.06595144993067	3.4078777	1.8460438
18.083698509192125	3.3226268	1.8228074
18.101446005846576	3.2565694	1.8045968
18.119193940352105	3.2673416	1.8075789
18.136942313166887	3.3000076	1.8165923
18.1546911247492	3.2743208	1.8095084
18.1724403755574	3.232627	1.7979507
18.19019006604997	3.16726	1.7796798
18.207940196685467	3.1167762	1.7654394
18.225690767922575	3.0693543	1.7519573
18.243441780220046	3.0712879	1.752509
18.261193234036764	3.0927796	1.75863
18.278945129831676	3.1051092	1.762132
18.29669746806386	3.0810964	1.7553052
18.314450249192483	3.071345	1.7525253
18.3322034736768	3.093161	1.7587385
18.349957141976184	3.0697885	1.7520812
18.3677112545501	3.0277674	1.740048
18.385465811858108	3.001949	1.7326133
18.403220814359884	3.033342	1.7416492
18.420976262515172	3.0552888	1.7479384
18.43873215678387	3.1002865	1.760763
18.456488497625923	3.172301	1.7810955
18.474245285501407	3.2820783	1.8116508
18.492002520870486	3.3571956	1.8322651
18.50976020419343	3.4293218	1.8518428
18.527518335930615	3.729114	1.9310914
18.545276916542516	4.322203	2.078991
18.563035946489688	4.51646	2.1251965
18.580795426232832	5.01086	2.238495
18.598555356232698	4.899811	2.2135515
18.616315736950185	5.127541	2.2644074
18.63407656884626	4.6967773	2.1672049
18.65183785238201	4.8679786	2.2063496
18.669599588018617	4.683273	2.164087
18.68736177621737	4.6675916	2.160461
18.705124417439652	4.6638856	2.159603
18.72288751214696	4.483225	2.1173627
18.740651060800886	4.656864	2.1579769
18.758415063863115	4.356803	2.0872955
18.77617952179546	4.569921	2.1377373
18.793944435059814	4.31442	2.0771182
18.811709804118184	4.353801	2.0865762
18.829475629432675	4.275016	2.0676112
18.8472419114655	4.0927916	2.0230649
18.86500865067897	4.145928	2.0361552
18.88277584753551	3.8196	1.9543797
18.90054350249763	3.828271	1.9565967
18.918311616027957	3.5376818	1.8808726
18.936080188589226	3.4587054	1.8597594
18.953849220644265	3.140974	1.7722794
18.971618712656007	2.9830248	1.7271435
18.9893886650875	2.925475	1.710402
19.007159078401887	8.043411	2.8360908
19.024929953062408	32.895252	5.7354383
19.042701289532435	32.849617	5.7314587
19.060473088275405	25.397936	5.0396366
19.07824534975489	2.6522336	1.6285679
19.096018074434568	2.6517549	1.628421
19.113791262778197	2.6495454	1.6277424
19.13156491524966	2.6170378	1.6177261
19.149339032312945	2.5884013	1.608851
19.167113614432136	2.592762	1.6102055
19.184888662071433	2.5776367	1.605502
19.202664175695123	2.577729	1.6055307
19.220440155767623	2.5626974	1.6008427
19.238216602753447	2.5681927	1.6025581
19.2559935171172	2.561164	1.6003637
19.27377089932361	2.5577135	1.5992854
19.291548749837514	2.5543044	1.5982192
19.309327069123835	2.532067	1.591247
19.32710585764763	2.533985	1.5918496
19.344885115874032	2.5304327	1.5907334
19.362664844268313	2.5527701	1.5977391
19.380445043295822	2.5585768	1.5995553
19.39822571342203	2.563567	1.6011143
19.41600685511252	2.562127	1.6006646
19.43378846883297	2.5672154	1.6022532
19.451570555049173	2.5637074	1.6011581
19.469353114227037	2.550307	1.596968
19.48713614683254	2.5138779	1.5855213
19.50491965333182	2.4855216	1.5765537
19.52270363419109	2.5093858	1.5841041
19.540488089876686	2.5278811	1.5899311
19.55827302085503	2.5379128	1.5930828
19.576058427592674	2.5143056	1.5856562
19.593844310556282	2.5249624	1.589013
19.611630670212598	2.5094936	1.5841382
19.629417507028506	2.508407	1.5837952
19.64720482147098	2.4733446	1.572687
19.6649926140071	2.452852	1.5661584
19.682780885104084	2.4357352	1.5606842
19.70056963522921	2.4538124	1.5664649
19.718358864849908	2.4914246	1.5784247
19.7361485744337	2.5291438	1.5903282
19.753938764448215	2.5285652	1.5901463
19.771729435361202	2.5219805	1.5880744
19.789520587640506	2.5383136	1.5932086
19.807312221754092	2.5204895	1.587605
19.825104338170043	2.5040638	1.5824234
19.842896937356517	2.491113	1.578326
19.860690019781824	2.5201085	1.587485
19.87848358591436	2.5244544	1.5888531
19.896277636222635	2.5102582	1.5843794
19.914072171175278	2.5166445	1.5863936
19.931867191241015	2.5318074	1.5911654
19.94966269688869	2.5695384	1.602978
19.967458688587264	2.5396764	1.5936363
19.985255166805807	2.4745665	1.5730755
20.00305213201348	2.4482834	1.5646992
20.020849584679578	2.432923	1.559783
20.038647525273507	2.4304466	1.5589889
20.05644595426477	2.404564	1.5506656
20.07424487212299	2.412582	1.5532489
20.092044279317903	2.4529014	1.5661741
20.109844176319353	2.4349551	1.5604342
20.127644563597304	2.4094732	1.5522478
20.145445441621817	2.4116158	1.5529379
20.16324681086307	2.4151485	1.5540748
20.181048671791373	2.4265156	1.5577277
20.198851024877122	2.4514506	1.5657109
20.216653870590836	2.4744902	1.5730512
20.234457209403146	2.4928622	1.5788801
20.252261041784802	2.4860458	1.57672
20.270065368206662	2.4420724	1.5627131
20.287870189139685	2.391386	1.5464107
20.305675505054968	2.3496583	1.5328594
20.323481316423702	2.3516092	1.5334958
20.341287623717207	2.3948953	1.547545
20.359094427406884	2.4058435	1.5510782
20.376901727964288	2.376047	1.5414431
20.39470952586107	2.3412724	1.5301217
20.41251782156899	2.3288133	1.526045
20.430326615559935	2.3180814	1.5225247
20.448135908305886	2.3160527	1.5218583
20.465945700278965	2.3426898	1.5305848
20.483755991951384	2.3838868	1.543984
20.50156678379548	2.4027762	1.5500891
20.519378076283708	2.3817616	1.5432956
20.537189869888635	2.3428733	1.5306448
20.55500216508294	2.3522143	1.5336931
20.572814962339415	2.3302817	1.5265261
20.59062826213098	2.3490968	1.5326763
20.60844206493066	2.385933	1.5446465
20.626256371211593	2.3825374	1.543547
20.644071181447032	2.3823876	1.5434985
20.66188649611036	2.3398104	1.5296439
20.67970231567506	2.3328097	1.5273538
20.697518640614742	2.276842	1.5089208
20.715335471403122	2.2971635	1.5156397
20.73315280851404	2.3516195	1.5334991
20.750970652421447	2.3505235	1.5331417
20.768789003599412	2.3328629	1.5273712
20.786607862522136	2.3249617	1.5247825
20.8044272296639	2.3267963	1.525384
20.82224710549913	2.2837446	1.5112064
20.84006749050237	2.2838547	1.5112427
20.857888385148268	3.8457904	1.9610686
20.8757097899116	45.964832	6.779737
20.893531705267254	64.80234	8.04999
20.911354131690224	83.80104	9.154291
20.92917706965566	69.03755	8.308884
20.94700051963877	50.114346	7.079149
20.96482448211493	29.43106	5.4250402
20.982648957559622	4.192976	2.0476758
21.00047394644843	2.2832673	1.5110484
21.01829944925707	2.2564018	1.5021324
21.036125466461375	2.2445786	1.4981918
21.053951998537297	2.2608242	1.5036037
21.071779045960906	2.2565036	1.5021663
21.089606609208378	2.2523766	1.500792
21.10743468875603	2.242657	1.4975504
21.12526328508028	2.2188842	1.489592
21.143092398657675	2.2173305	1.4890703
21.16092202996488	2.1749375	1.474767
21.17875217947867	2.2014062	1.4837136
21.19658284767596	2.1837351	1.4777466
21.21441403503377	2.193304	1.4809808
21.232245742029225	2.1627896	1.4706426
21.2500779691396	2.1832612	1.4775863
21.26791071684227	2.2125888	1.4874773
21.28574398561475	2.222915	1.4909443
21.30357777593465	2.1843615	1.4779586
21.321412088279704	2.166709	1.4719745
21.339246923127792	2.1596613	1.4695786
21.357082280956888	2.1549137	1.4679624
21.3749181622451	2.141203	1.463285
21.392754567470647	2.1389623	1.4625192
21.41059149711187	2.1585493	1.4692003
21.42842895164726	2.178554	1.4759926
21.446266931555378	2.1868174	1.4787892
21.464105437314945	2.1466458	1.4651436
21.481944469404798	2.1373758	1.4619766
21.49978402830388	2.0889823	1.4453312
21.51762411449127	2.0847096	1.4438523
21.53546472844617	2.076564	1.4410288
21.553305870647876	2.0843794	1.443738
21.571147541575865	2.079417	1.4420184
21.58898974170967	2.0934656	1.4468813
21.60683247152899	2.095515	1.4475894
21.62467573151363	2.1068265	1.4514911
21.642519522143523	2.1037412	1.4504279
21.660363843898722	2.0904183	1.445828
21.6782086972594	2.0638175	1.4365993
21.696054082705864	2.0876346	1.4448649
21.713900000718535	2.113549	1.453805
21.73174645177795	2.116697	1.4548873
21.749593436364794	2.0794275	1.442022
21.767440954959845	2.0802863	1.4423198
21.785289008044032	2.0639822	1.4366566
21.803137596098388	2.0356865	1.4267749
21.820986719604086	2.004327	1.4157426
21.838836379042412	2.0467038	1.4306306
21.85668657489478	2.060661	1.4355003
21.87453730764273	2.0468926	1.4306966
21.892388577767914	2.0454943	1.4302077
21.91024038575213	2.006362	1.4164611
21.928092732077285	1.9863818	1.4093906
21.945945617225426	1.9682318	1.4029368
21.963799041678694	1.9690021	1.4032114
21.981653005919398	31.308083	5.5953627
21.999507510429943	78.193275	8.842696
22.01736255569286	73.166176	8.553723
22.035218142190818	4.2449126	2.0603185
22.05307427040661	1.9998156	1.4141483
22.07093094082315	1.9627404	1.4009783
22.088788153923474	1.9436376	1.394144
22.106645910190746	1.9752915	1.4054506
22.12450421010827	2.0249147	1.422995
22.142363054159464	2.0587952	1.4348502
22.16022244282787	2.0327466	1.4257442
22.178082376597164	1.9872464	1.4096973
22.195942855951145	1.9775307	1.406247
22.213803881373742	1.960259	1.4000925
22.231665453349002	1.9595747	1.3998481
22.24952757236111	1.9776217	1.4062793
22.26739023889438	2.0069878	1.416682
22.28525345343323	2.031578	1.4253343
22.30311721646225	2.0259566	1.4233611
22.320981528466113	2.0062165	1.4164097
22.33884638992964	1.9966109	1.4130148
22.356711801337788	1.9843599	1.408673
22.37457776317561	1.9920422	1.4113972
22.392444275928337	2.01186	1.4184005
22.410311340081282	2.0388203	1.4278727
22.428178956119904	2.02076	1.4215344
22.446047124529805	1.9968494	1.4130992
22.46391584579669	2.0240552	1.4226929
22.481785120406414	2.009084	1.4174216
22.49965494884496	1.966465	1.402307
22.51752533159841	1.9528909	1.3974587
22.53539626915302	1.9858302	1.4091948
22.553267761995137	2.029688	1.4246712
22.571139810611264	2.0082924	1.4171424
22.589012415488025	1.9589146	1.3996123
22.60688557711216	1.9437819	1.3941958
22.624759295970566	1.9520055	1.3971419
22.642633572550263	1.9322411	1.3900508
22.660508407338362	1.8969306	1.3772911
22.67838380082217	1.8856715	1.3731976
22.696259753489077	1.9151386	1.3838854
22.714136265826614	1.920474	1.3858117
22.73201333832246	1.904693	1.3801062
22.74989097146439	1.899642	1.378275
22.76776916574035	1.8927765	1.3757821
22.785647921638393	1.8832877	1.3723292
22.803527239646712	1.8964578	1.3771194
22.82140712025363	1.8919327	1.3754754
22.839287563947593	1.9051282	1.3802638
22.85716857121719	1.9211926	1.386071
22.875050142551135	1.9335002	1.3905035
22.892932278438277	1.9002572	1.3784982
22.910814979367604	1.9204326	1.3857968
22.928698245828222	1.965987	1.4021366
22.946582078309387	1.9723432	1.4044014
22.96446647730047	1.9503661	1.3965551
22.98235144329098	1.9278829	1.3884822
23.000236976770562	1.9131616	1.3831708
23.018123078229	1.9116728	1.3826326
23.03600974815619	1.9120464	1.3827677
23.053896987042194	1.9145917	1.3836877
23.071784795377173	1.8572707	1.3628172
23.08967317365145	1.8849324	1.3729284
23.10756212235546	1.9241271	1.3871291
23.125451641979787	1.9467747	1.3952687
23.143341733015134	1.918046	1.3849354
23.161232395952357	1.92397	1.3870724
23.179123631282426	1.9359981	1.3914015
23.197015439496468	1.938031	1.3921318
23.214907821085717	1.9625425	1.4009078
23.23280077654157	1.982142	1.4078857
23.250694306355538	2.005234	1.4160628
23.268588411019277	2.0065992	1.4165448
23.28648309102458	1.9933331	1.4118545
23.304378346863356	1.9531841	1.3975637
23.322274179027676	1.9558606	1.3985208
23.340170588009723	1.9547588	1.3981268
23.358067574301852	1.9617763	1.4006343
23.37596513839651	1.9237832	1.3870051
23.39386328078629	1.8938617	1.3761765
23.411762001963947	1.8936312	1.3760928
23.429661302422353	1.9124519	1.3829143
23.4475611826545	1.9468551	1.3952975
23.46546164315356	1.9453605	1.3947618
23.48336268441279	1.9050608	1.3802394
23.501264306925638	1.8792992	1.3708754
23.51916651118564	1.8733269	1.3686954
23.537069297686497	1.9114825	1.3825637
23.554972666922037	1.9438967	1.3942369
23.57287661938623	1.9774444	1.4062164
23.59078115557318	1.956321	1.3986855
23.608686275977128	1.9562155	1.3986478
23.62659198109246	1.9383718	1.3922542
23.6444982714137	1.9185777	1.3851273
23.66240514743549	1.8894205	1.3745619
23.68031260965263	1.8931986	1.3759356
23.698220658560068	1.881313	1.3716096
23.716129294652845	1.8716807	1.3680938
23.7340385184262	1.8904277	1.3749282
23.75194833037546	1.8940271	1.3762366
23.769858730996123	1.9165902	1.3844097
23.78776972078382	1.979294	1.4068738
23.80568130023431	1.9676327	1.4027233
23.823593469843495	1.9154392	1.383994
23.841506230107424	1.8805913	1.3713465
23.859419581522275	1.900591	1.3786192
23.87733352458438	1.8975056	1.3774998
23.89524805979019	1.9073101	1.381054
23.913163187636318	1.9284788	1.3886968
23.931078908619508	1.9543899	1.397995
23.948995223236633	2.0098991	1.4177091
23.966912131984735	2.0041249	1.4156712
23.98482963536096	2.012618	1.4186677
24.002747733862616	1.9812886	1.4075825
24.020666427987155	2.0015824	1.4147729
24.038585718232156	2.038774	1.4278564
24.056505605095353	2.0731225	1.4398342
24.074426089074617	2.0595944	1.4351287
24.092347170667946	2.0415375	1.4288238
24.110268850373515	2.1003811	1.4492692
24.128191128689586	2.1239438	1.4573756
24.146114006114626	2.0877743	1.4449133
24.164037483147187	2.1147742	1.4542264
24.181961560286005	2.0951223	1.4474537
24.199886238029926	2.0831819	1.4433233
24.21781151687797	2.0465035	1.4305606
24.235737397329274	2.035956	1.4268693
24.253663879883135	2.020221	1.4213448
24.271590965038975	2.0110595	1.4181184
24.289518653296376	2.0457768	1.4303066
24.30744694515505	2.0842154	1.4436812
24.32537584111486	2.1123142	1.4533802
24.34330534167581	2.0571234	1.4342675
24.361235447338046	2.001967	1.4149088
24.379166158601876	1.9696069	1.4034269
24.39709747596772	2.007378	1.4168197
24.41502939993615	2.0433497	1.4294579
24.432961931007917	2.0311682	1.4251906
24.450895069683856	2.0188973	1.420879
24.468828816465	1.981008	1.4074829
24.4867631718525	1.9967339	1.4130584
24.504698136347656	1.9804814	1.4072958
24.52263371045192	1.9775176	1.4062424
24.540569894666874	1.9865137	1.4094374
24.558506689494266	1.9780298	1.4064245
24.57644409543597	1.956357	1.3986983
24.594382112994012	1.9376935	1.3920106
24.61232074267057	1.9567221	1.3988289
24.630259984967953	1.9419485	1.3935381
24.64819984038863	1.9680291	1.4028646
24.66614030943522	1.9504867	1.3965982
24.684081392610462	1.9358351	1.3913429
24.702023090417274	1.9717305	1.4041831
24.7199654033587	1.9980657	1.4135295
24.737908331937927	2.0145428	1.4193459
24.755851876658305	2.033924	1.4261571
24.773796038023324	2.055816	1.4338117
24.79174081653661	2.0868118	1.4445802
24.809686212701962	2.1089988	1.4522393
24.827632227023294	2.089637	1.4455577
24.8455788600047	2.0872724	1.4447396
24.8635261121504	2.1278443	1.4587133
24.88147398396475	2.1531541	1.467363
24.899422475952303	2.1602051	1.4697636
24.917371588617698	2.12805	1.4587837
24.935321322465768	2.1675773	1.4722694
24.953271678001478	2.318794	1.5227587
24.97122265572994	2.6188688	1.618292
24.989174256156414	2.937462	1.7139026
25.00712647978632	3.3561225	1.8319722
25.02507932712521	3.9107943	1.9775728
25.043032798678798	4.4874516	2.1183605
25.060986894952933	5.190295	2.2782218
25.078941616453637	5.936253	2.4364426
25.096896963687055	6.9096856	2.628628
25.114852937159508	7.928344	2.8157315
25.132809537377444	8.177109	2.8595645
25.150766764847468	8.074096	2.8414953
25.168724620076347	7.376077	2.7158935
25.186683103570985	6.336536	2.5172477
25.204642215838426	5.1370487	2.266506
25.222601957385894	3.8750412	1.9685124
25.24056232872074	3.0259514	1.7395262
25.25852333035048	2.564109	1.6012836
25.276484962782778	2.2646484	1.504875
25.294447226525435	2.1280324	1.4587777
25.312410122086423	2.0369523	1.4272183
25.330373649973843	1.9797375	1.4070314
25.348337810695988	1.9142296	1.3835568
25.366302604761245	1.874758	1.369218
25.384268032678207	1.8907293	1.3750379
25.40223409495558	1.8785756	1.3706114
25.420200792102257	1.8596929	1.3637056
25.438168124627246	1.9006331	1.3786345
25.45613609303974	1.9319133	1.3899329
25.474104697849057	1.8975661	1.3775218
25.492073939564698	1.8965925	1.3771683
25.510043818696285	1.885222	1.3730339
25.528014335753614	1.8849527	1.3729358
25.54598549124664	1.8766421	1.3699058
25.56395728568544	1.918151	1.3849733
25.58192971958028	1.9110596	1.3824108
25.59990279344156	1.8990647	1.3780656
25.617876507779833	1.8755391	1.3695033
25.635850863105826	1.8662908	1.3661226
25.653825859930386	1.8871481	1.3737351
25.671801498764548	1.8739035	1.3689059
25.68977778011949	1.8922068	1.3755751
25.707754704506524	1.8877416	1.3739511
25.725732272437153	1.8669949	1.3663802
25.743710484423012	1.8313822	1.3532857
25.761689340975888	1.8273615	1.3517994
25.77966884260774	1.8258471	1.3512391
25.797648989830662	1.8527727	1.3611659
25.815629783156922	1.8642502	1.3653755
25.83361122309895	1.8556757	1.3622319
25.85159331016929	1.8695929	1.3673306
25.869576044880695	1.8677739	1.3666652
25.887559427746034	1.8709472	1.3678257
25.90554345927836	1.8532596	1.3613448
25.92352813999086	1.7980492	1.3409135
25.94151347039689	1.7845916	1.335886
25.959499451009965	1.8349433	1.3546008
25.97748608234374	1.8318315	1.3534517
25.995473364912062	1.7859138	1.3363808
26.013461299228904	1.7950238	1.339785
26.03144988580839	1.8069503	1.3442285
26.04943912516483	1.8077271	1.3445175
26.067429017812675	1.777352	1.3331736
26.085419564266537	1.7690959	1.3300736
26.103410765041186	1.7872868	1.3368944
26.12140262065155	1.7996602	1.3415141
26.139395131612723	1.8083827	1.3447613
26.157388298439948	1.8023294	1.3425087
26.17538212164861	1.8062266	1.3439593
26.193376601754295	1.8255417	1.3511261
26.211371739272714	1.8543468	1.361744
26.229367534719746	1.8715254	1.3680371
26.247363988611433	1.8430456	1.3575882
26.26536110146397	1.7804856	1.3343484
26.283358873793727	1.7781148	1.3334597
26.301357306117204	1.8239001	1.3505185
26.319356398951104	1.8032846	1.3428644
26.33735615281224	1.814637	1.3470846
26.35535656821762	1.8023081	1.3425007
26.373357645684404	1.7779986	1.3334161
26.39135938572991	1.778915	1.3337598
26.409361788871614	1.8077401	1.3445222
26.427364855627165	1.8108304	1.3456709
26.445368586514352	1.8119656	1.3460927
26.46337298205115	1.8058255	1.3438101
26.48137804275568	1.8179907	1.3483288
26.499383769146217	1.8793954	1.3709104
26.517390161741215	1.883341	1.3723487
26.53539722105928	1.8399686	1.3564544
26.553404947619182	1.784941	1.3360168
26.571413341939856	1.7539492	1.3243674
26.589422404540397	1.7583185	1.3260161
26.60743213594006	1.7648739	1.3284856
26.62544253665827	1.7696307	1.3302747
26.64345360721459	1.8136189	1.3467066
26.66146534812879	1.8273659	1.3518009
26.679477759920758	1.8742366	1.3690276
26.69749084311057	1.8554817	1.3621607
26.71550459821847	1.7839901	1.3356609
26.733519025764842	1.6899471	1.2999797
26.751534126270258	1.7392479	1.3188055
26.769549900255434	1.7667346	1.3291857
26.787566348241267	1.7658516	1.3288535
26.80558347074881	1.7716972	1.3310511
26.823601268299267	1.7933036	1.3391429
26.841619741414036	1.8266554	1.3515382
26.85963889061465	1.824789	1.3508475
26.877658716422832	1.8145212	1.3470416
26.89567921936045	1.7832	1.3353652
26.913700399949544	1.7642189	1.3282391
26.93172225871233	1.8071916	1.3443183
26.949744796171174	1.8060924	1.3439094
26.967768012848605	1.7679724	1.3296512
26.98579190926733	1.7781624	1.3334775
27.003816485950225	1.8016102	1.3422407
27.021841743420318	1.7682482	1.329755
27.039867682200814	1.779391	1.3339381
27.057894302815072	1.7831196	1.335335
27.07592160578664	1.7759826	1.33266
27.0939495916392	1.7805036	1.3343551
27.111978260896635	1.794736	1.3396776
27.13000761408296	1.8085275	1.344815
27.148037651722397	1.7906895	1.3381665
27.166068374339304	1.7824764	1.3350942
27.184099782458215	1.8278177	1.351968
27.20213187660384	1.8341361	1.3543028
27.22016465730105	1.8081467	1.3446735
27.23819812507487	1.784535	1.3358649
27.256232280450533	1.7786405	1.3336568
27.274267123953383	1.8293363	1.3525296
27.292302656108987	1.8426148	1.3574295
27.31033887744306	1.8144428	1.3470125
27.32837578848146	1.7688911	1.3299967
27.34641338975026	1.7288221	1.3148468
27.364451681775673	1.7227124	1.3125213
27.382490665084074	1.7751571	1.3323503
27.400530340202046	1.7924076	1.3388083
27.41857070765629	1.8193829	1.348845
27.436611767973726	1.788996	1.3375336
27.454653521681404	1.8233874	1.3503286
27.472695969306564	1.8438277	1.3578762
27.490739111376627	1.8713477	1.3679721
27.508782948419153	1.8445636	1.3581471
27.526827480961902	1.7999786	1.3416328
27.54487270953279	1.7554305	1.3249266
27.562918634659898	1.7863127	1.3365301
27.580965256871508	1.8187288	1.3486025
27.599012576696026	1.8337204	1.3541493
27.617060594662068	1.8774817	1.3702123
27.63510931129842	1.8895276	1.3746009
27.65315872713401	1.8664403	1.3661772
27.67120884269797	1.8239262	1.3505281
27.68925965851958	1.7976784	1.3407753
27.707311175128307	1.8203882	1.3492177
27.725363393053787	1.8178132	1.348263
27.74341631282583	1.8259822	1.351289
27.7614699349744	1.8872766	1.3737819
27.77952426002968	2.1331336	1.4605252
27.797579288521973	2.2299726	1.4933093
27.815635020981784	2.669186	1.6337644
27.83369145793979	2.6995015	1.643016
27.85174859992682	2.5046358	1.5826042
27.869806447473923	2.3103063	1.5199692
27.887865001112267	2.008109	1.4170777
27.905924261373233	1.8974435	1.3774773
27.92398422878836	1.9167155	1.384455
27.94204490388936	1.8861887	1.3733859
27.96010628720813	1.8501561	1.3602045
27.978168379276728	1.8401481	1.3565205
27.9962311806274	1.8640915	1.3653173
28.014294691792568	1.8501451	1.3602004
28.0323589133048	1.871766	1.368125
28.050423845696887	1.8546299	1.361848
28.068489489501758	1.8390868	1.3561293
28.086555845252523	1.8108636	1.3456833
28.104622913482487	1.8112674	1.3458333
28.122690694725115	1.8433146	1.3576872
28.14075918951405	1.8677408	1.3666531
28.15882839838312	1.8668866	1.3663406
28.176898321866304	1.8775271	1.3702289
28.1949689604978	1.9507575	1.3966953
28.213040314811945	1.9831828	1.4082552
28.23111238534327	1.9564657	1.3987372
28.249185172626493	1.9492209	1.396145
28.267258677196473	1.9631664	1.4011304
28.285332899588294	1.9672056	1.4025711
28.303407840337172	1.9776874	1.4063027
28.321483499978545	1.9926981	1.4116296
28.33955987904799	2.0091732	1.417453
28.357636978081285	1.9725393	1.4044712
28.37571479761439	1.9565701	1.3987745
28.393793338183425	1.986235	1.4093385
28.41187260032469	2.0120938	1.4184829
28.429952584574686	2.0203285	1.4213827
28.448033291470065	2.007544	1.4168782
28.46611472154769	1.9848608	1.4088509
28.484196875344566	1.9397968	1.3927659
28.502279753397914	1.952268	1.3972359
28.52036335624511	2.0079558	1.4170235
28.538447684423716	2.0461442	1.430435
28.556532738471482	2.0912633	1.44612
28.574618518926325	2.0584276	1.4347221
28.59270502632635	2.0240476	1.4226903
28.61079226120985	2.011938	1.4184281
28.628880224115274	2.0832553	1.4433486
28.646968915581287	2.0950305	1.447422
28.66505833614671	2.096075	1.4477828
28.68314848635055	2.0696666	1.4386336
28.701239366732004	2.0575562	1.4344184
28.71933097783044	2.070218	1.4388252
28.737423320185403	2.125106	1.4577744
28.75551639433665	2.1686487	1.4726332
28.773610200824074	2.1823123	1.4772651
28.791704740187793	2.1403604	1.4629971
28.80980001296809	2.1270432	1.4584386
28.827896019705413	2.145212	1.4646542
28.845992760940433	2.2038689	1.4845433
28.86409023721397	2.1861234	1.4785545
28.88218844906704	2.1589823	1.4693476
28.900287397040845	2.2268233	1.4922545
28.918387081676755	2.2943463	1.51471
28.936487503516343	2.371775	1.5400568
28.954588663101365	2.3569534	1.5352372
28.97269056097374	2.338765	1.5293021
28.990793197675597	2.2962947	1.515353
29.00889657374923	2.3024702	1.5173893
29.027000689737125	2.3443868	1.531139
29.04510554618196	2.394091	1.547285
29.06321114362659	2.494047	1.5792552
29.08131748261405	2.550258	1.5969527
29.099424563687567	2.5594802	1.5998375
29.11753238739057	2.523403	1.5885222
29.13564095426663	2.534805	1.592107
29.15375026485954	2.5652142	1.6016285
29.171860319713275	2.633481	1.6228004
29.18997111937199	2.7099133	1.6461815
29.20808266438002	2.777133	1.6664733
29.226194955281898	2.8357692	1.6839743
29.244307992622335	2.9114347	1.7062926
29.26242177694624	2.9646714	1.7218221
29.2805363087987	2.9438982	1.7157792
29.29865158872498	2.9849522	1.7277014
29.316767617270557	2.8977253	1.7022706
29.334884394981064	2.8607605	1.6913782
29.353001922402367	2.882791	1.6978784
29.37112020008047	2.9761975	1.725166
29.389239228561596	3.106405	1.7624997
29.407359008392152	3.3927722	1.8419479
29.42547954011872	3.8934503	1.9731828
29.44360082428809	4.6764865	2.1625185
29.46172286144722	5.941351	2.4374886
29.479845652143283	7.6506257	2.7659764
29.497969196923606	9.859297	3.1399517
29.516093496335728	12.4689665	3.5311425
29.5342185509274	15.292351	3.9105434
29.55234436124651	17.4448	4.1766973
29.570470927841175	18.425497	4.292493
29.588598251259686	17.670065	4.2035775
29.60672633205055	15.885982	3.9857223
29.624855170762405	13.548725	3.6808593
29.642984767944146	10.660171	3.2649918
29.66111512414481	8.014195	2.8309355
29.67924623991366	5.984741	2.446373
29.697378115800138	4.628141	2.1513114
29.71551075235387	3.9370244	1.9841937
29.733644150124675	3.6667635	1.9148796
29.751778309662576	3.5599902	1.8867936
29.769913231517766	3.5155542	1.8749812
29.78804891624066	3.4564962	1.8591654
29.806185364381818	3.3824258	1.8391372
29.82432257649206	3.2857666	1.8126683
29.842460553122333	3.2598906	1.8055167
29.86059929482382	3.2579274	1.804973
29.878738802147872	3.2904084	1.8139483
29.896879075646048	3.3443217	1.8287487
29.915020115870114	3.3457382	1.8291359
29.933161923371976	3.3268685	1.8239706
29.951304498703777	3.2921188	1.8144196
29.969447842417857	3.243549	1.8009856
29.987591955066733	3.1994286	1.7886946
30.005736837203123	3.224863	1.7957903
30.023882489379943	3.3074844	1.818649
30.04202891215028	3.3032339	1.8174801
30.060176106067455	3.241106	1.8003072
30.078324071684946	3.1872747	1.785294
30.09647280955646	3.1369894	1.7711548
30.114622320235863	3.0323136	1.741354
30.132772604277257	3.0374634	1.7428321
30.1509236622349	3.1019042	1.7612224
30.16907549466328	3.0867913	1.7569267
30.18722810211705	3.0889688	1.7575462
30.205381485151097	3.057184	1.7484804
30.22353564432045	3.0430722	1.7444403
30.241690580180403	3.071462	1.7525587
30.25984629328638	3.1107	1.7637177
30.278002784194037	3.0396986	1.7434732
30.296160053459246	2.9445596	1.715972
30.314318101638033	2.8799093	1.6970296
30.332476929286646	2.8276103	1.6815499
30.35063653696153	2.8875394	1.6992761
30.368796925219307	2.9519422	1.7181218
30.386958094616844	2.9491117	1.7172978
30.40512004571115	2.9306374	1.7119105
30.423282779059463	2.9460373	1.7164024
30.441446295219233	2.9353313	1.7132809
30.459610594748067	2.904953	1.7043923
30.47777567820382	2.9004395	1.7030677
30.495941546144504	2.8633997	1.6921583
30.51410819912835	2.8311205	1.6825933
30.532275637713795	2.7850795	1.6688558
30.55044386245946	2.757506	1.660574
30.56861287392416	2.812386	1.677017
30.586782672666956	2.837342	1.6844412
30.604953259247047	2.853222	1.6891483
30.623124634223885	2.8195035	1.6791377
30.641296798157075	2.8109303	1.6765829
30.659469751606462	2.7952092	1.6718879
30.677643495132074	2.743896	1.6564709
30.695818029294152	2.7057617	1.64492
30.713993354653116	2.7611554	1.6616725
30.73216947176962	2.7960598	1.6721423
30.75034638120448	2.80369	1.6744223
30.768524083518756	2.7693138	1.6641256
30.786702579273673	2.7966428	1.6723166
30.80488186903069	2.9171796	1.7079753
30.82306195335144	3.0655563	1.750873
30.841242832797782	3.2215793	1.7948759
30.85942450793176	3.5019212	1.8713421
30.877606979315637	3.9395392	1.9848273
30.895790247511883	4.315278	2.0773246
30.913974313083134	4.720055	2.1725688
30.932159176592283	4.910141	2.2158837
30.95034483860237	4.8547664	2.2033534
30.968531299676698	4.5615187	2.1357713
30.98671856037873	4.1751933	2.043329
31.00490662127215	3.809698	1.9518448
31.023095482920848	3.4388344	1.8544095
31.04128514588892	2.9778798	1.7256534
31.059475610740662	2.6120272	1.6161767
31.07766687804056	2.5086327	1.5838664
31.09585894835335	2.494629	1.5794394
31.11405182224393	2.425373	1.5573609
31.132245500277417	2.4112105	1.5528073
31.15043998301914	2.456086	1.5671904
31.168635271034628	2.4480996	1.5646404
31.18683136488964	2.4167497	1.5545899
31.20502826515008	2.4500403	1.5652605
31.223225972382135	2.4550207	1.5668505
31.241424487152155	2.418182	1.5550505
31.259623810026692	2.383627	1.5438999
31.27782394157253	2.346035	1.5316772
31.296024882356644	2.391147	1.5463333
31.314226632946237	2.3722103	1.5401981
31.332429193908684	2.3916132	1.5464841
31.350632565811598	2.420882	1.5559183
31.368836749222787	2.4995413	1.5809938
31.387041744710295	2.5157938	1.5861254
31.40524755284232	2.53671	1.5927052
31.423454174187317	2.5148156	1.585817
31.441661609313922	2.5081303	1.5837078
31.459869858791002	2.4832945	1.5758473
31.478078923187628	2.4257646	1.5574867
31.496288803073064	2.347801	1.5322535
31.514499499016807	2.3312852	1.5268546
31.532711011588546	2.3263242	1.5252292
31.550923341358178	2.2764633	1.5087953
31.56913648889584	2.2880487	1.5126297
31.587350454771844	2.3541884	1.5343364
31.605565239556732	2.2661722	1.5053811
31.62378084382127	2.188554	1.4793762
31.641997268136382	2.2424843	1.4974927
31.660214513073274	2.255146	1.5017143
31.67843257920331	2.2669995	1.5056559
31.6966514670981	2.3629885	1.5372015
31.71487117732944	2.3688931	1.5391209
31.733091710469346	2.3022666	1.5173222
31.751313067090052	2.2775881	1.509168
31.769535247764008	2.2697191	1.5065587
31.787758253063878	2.254736	1.5015779
31.805982083562526	2.2725756	1.5075064
31.824206739833024	2.2725444	1.5074961
31.84243222244869	2.2503538	1.5001179
31.860658531983013	2.2751594	1.5083631
31.878885669009737	2.255876	1.5019574
31.897113634102784	2.2310205	1.4936601
31.91534242783632	2.2593997	1.50313
31.933572050784694	2.2174287	1.4891033
31.951802503522508	2.1640453	1.4710695
31.970033786624548	2.1743088	1.4745537
31.988265900665834	2.2405658	1.4968519
32.006498846221575	2.224242	1.4913893
32.02473262386724	2.264649	1.5048751
32.04296723417845	2.3613856	1.5366801
32.0612026777311	2.3230953	1.5241704
32.07943895510129	2.275595	1.5085075
32.097676066865304	2.2038698	1.4845437
32.115914013599685	2.1671422	1.4721216
32.13415279588115	2.2290318	1.4929942
32.152392414286666	2.2263095	1.4920822
32.1706328693934	2.1033895	1.4503067
32.18887416177875	2.1032004	1.4502416
32.20711629202032	2.1195586	1.4558704
32.225359260695924	2.1311705	1.4598529
32.243603068383614	2.1510217	1.4666362
32.26184771566166	2.2039216	1.4845611
32.28009320310852	2.2238119	1.491245
32.2983395313029	2.159006	1.4693557
32.31658670082372	2.1453793	1.4647113
32.33483471225012	2.1976721	1.4824548
32.35308356616143	2.1500502	1.4663049
32.371333263137245	2.119124	1.4557211
32.38958380375734	2.170686	1.4733248
32.407835188601744	2.2436392	1.4978782
32.42608741825067	2.1734855	1.4742745
32.444340493284585	2.1158254	1.4545877
32.46259441428416	2.0352314	1.4266154
32.48084918183028	1.9554402	1.3983705
32.49910479650405	2.0003211	1.4143271
32.51736125888683	2.0623786	1.4360985
32.53561856956014	2.1247234	1.4576432
32.5538767291058	2.0657637	1.4372765
32.572135738105764	2.0051289	1.4160258
32.59039559714228	2.0147603	1.4194225
32.608656306797776	2.0360253	1.4268936
32.62691786765491	2.0144584	1.4193162
32.645180280296586	2.0207207	1.4215206
32.663443545305896	2.0493877	1.4315683
32.68170766326619	2.1377213	1.4620948
32.69997263476099	2.1497474	1.4662017
32.7182384603741	2.0950468	1.4474276
32.7365051406895	2.0394752	1.428102
32.75477267629144	2.0138924	1.4191167
32.77304106776434	2.023791	1.4226002
32.79131031569289	2.011981	1.4184432
32.809580420661966	1.9690036	1.4032118
32.827851383256714	2.0214982	1.421794
32.84612320406245	2.034989	1.4265305
32.86439588366476	1.9403652	1.39297
32.88266942264945	1.9698611	1.4035174
32.9009438216025	1.9528677	1.3974504
32.9192190811102	1.9269495	1.388146
32.937495201758985	1.8779935	1.370399
32.95577218413556	1.9456315	1.394859
32.974050028826866	1.8883923	1.3741878
32.992328736420035	1.8865668	1.3735235
33.010608307502444	1.8461168	1.3587188
33.02888874266169	1.894462	1.3763945
33.047170042485604	1.9147977	1.3837621
33.06545220756225	2.0127454	1.4187126
33.083735238479896	2.105364	1.4509872
33.10201913582707	2.0276644	1.4239608
33.12030390019248	1.9433091	1.3940262
33.138589532165135	1.9634246	1.4012225
33.15687603233419	2.070125	1.438793
33.17516340128909	2.0570838	1.4342538
33.19345163961947	1.9713149	1.4040352
33.211740747915215	1.9826132	1.408053
33.23003072676643	2.0376105	1.427449
33.248321576763466	2.0156946	1.4197516
33.266613298496885	2.0474284	1.4308838
33.28490589255747	2.0519373	1.4324585
33.30319935953626	2.088035	1.4450035
33.32149370002451	2.0603197	1.4353814
33.339788914613706	1.9319861	1.389959
33.358085003895575	1.8097328	1.3452631
33.376381968462034	1.7906688	1.3381587
33.39467980890529	1.885099	1.372989
33.41297852581774	1.9771588	1.4061148
33.43127811979204	1.9691483	1.4032634
33.44957859142105	1.9535856	1.3977072
33.467879941297866	2.0442243	1.4297637
33.486182170015844	1.9951041	1.4124815
33.50448527816853	1.9719713	1.404269
33.522789266349754	1.9667213	1.4023985
33.541094135153514	1.971513	1.4041058
33.55939988517411	1.888134	1.3740939
33.57770651700602	1.8582715	1.3631843
33.59601403124398	1.9463376	1.395112
33.61432242848296	2.0276935	1.423971
33.632631709318154	2.0663052	1.4374648
33.650941874344994	1.9422089	1.3936316
33.66925292415916	1.8582237	1.3631668
33.68756485935654	1.7871742	1.3368523
33.70587768053328	1.8709407	1.3678234
33.724191388285746	1.9575198	1.3991139
33.74250598321054	1.9801846	1.4071903
33.760821465904506	1.9333155	1.3904371
33.77913783696474	1.9383194	1.3922354
33.79745509698852	1.8555433	1.3621832
33.815773246573414	1.8152825	1.3473241
33.8340922863172	1.8300889	1.3528078
33.852412216817896	1.8554989	1.362167
33.87073303867377	1.9528339	1.3974383
33.889054752483304	2.0569866	1.4342198
33.907377358845245	1.9883746	1.4100974
33.92570085835853	1.8918371	1.3754407
33.94402525162239	1.9679074	1.4028212
33.96235053923627	2.086909	1.4446138
33.980676721799824	2.114286	1.4540584
33.999003799912984	2.1131425	1.4536651
34.01733177417592	2.1216655	1.4565938
34.03566064518901	2.114587	1.454162
34.0539904135529	2.066033	1.4373702
34.07232107986846	1.9478627	1.3956585
34.090652644736785	1.9376633	1.3919997
34.108985108759235	1.9523164	1.3972532
34.12731847253742	1.9436774	1.3941584
34.14565273667313	1.8874669	1.3738512
34.16398790176847	1.9328493	1.3902695
34.18232396842574	1.9896815	1.4105607
34.20066093724749	2.0080876	1.41707
34.21899880883651	1.9848292	1.4088397
34.23733758379583	1.93303	1.3903345
34.25567726272874	1.9353529	1.3911697
34.27401784623872	1.9975926	1.4133621
34.29235933492957	1.9983618	1.4136343
34.31070172940526	1.9834371	1.4083455
34.32904503027003	1.9985328	1.4136947
34.347389238128386	1.9852588	1.4089922
34.36573435358502	1.9862981	1.4093609
34.38408037724492	2.0193138	1.4210256
34.402427309713296	1.950347	1.3965483
34.42077515159559	1.9692411	1.4032965
34.43912390349752	1.9850063	1.4089025
34.45747356602499	2.0794878	1.442043
34.47582413978423	2.108278	1.4519911
34.49417562538163	1.8656721	1.3658961
34.51252802342388	1.803303	1.3428712
34.53088133451789	1.8175572	1.3481681
34.54923555927084	1.9040372	1.3798685
34.567590698290104	1.9535787	1.3977048
34.58594675218336	1.9928569	1.4116858
34.6043037215585	1.9450198	1.3946397
34.62266160702365	1.9806211	1.4073454
34.641020409187234	2.0786533	1.4417535
34.65938012865785	2.0930939	1.4467529
34.677740766044394	2.1314833	1.45996
34.69610232195598	2.127173	1.4584831
34.714464797002016	2.0031283	1.4153192
34.73282819179208	2.028269	1.4241731
34.751192506936064	1.9752963	1.4054524
34.76955774304408	1.8634336	1.3650764
34.7879239007265	1.902801	1.3794205
34.80629098059391	1.9001763	1.3784689
34.824658983257194	1.9877268	1.4098676
34.843027909327446	1.9444458	1.3944339
34.86139775941603	1.7446176	1.3208398
34.879768534134534	1.7218769	1.312203
34.89814023409483	1.8713917	1.3679882
34.91651285990901	1.9522899	1.3972437
34.93488641218944	2.0380476	1.427602
34.95326089154871	2.0195148	1.4210963
34.97163629859967	1.9395157	1.3926649
34.99001263395542	1.9134127	1.3832616
35.00838989822934	2.0455258	1.4302188
35.02676809203499	2.1207442	1.4562775
35.04514721598624	2.1116087	1.4531375
35.063527270697215	2.116775	1.4549141
35.081908256782256	2.0598466	1.4352165
35.10029017485597	2.1061025	1.4512417
35.11867302553321	2.1621222	1.4704157
35.137056809429104	2.1139762	1.453952
35.155441527159006	1.9334632	1.3904903
35.173827179338524	1.7690593	1.3300599
35.19221376658354	1.809198	1.3450643
35.21060128951017	1.8967259	1.3772167
35.2289897487348	1.8649503	1.3656318
35.24737914487405	2.1039033	1.4504838
35.26576947854479	2.185004	1.4781759
35.28416075036418	2.1546671	1.4678785
35.30255296094958	2.24971	1.4999033
35.32094611091867	2.4443035	1.5634269
35.33934020088932	2.3390584	1.5293981
35.35773523147969	2.3104665	1.5200219
35.3761312033082	2.3469975	1.5319914
35.394528116993506	2.2995381	1.5164229
35.41292597315452	2.225196	1.491709
35.431324772410434	2.2514637	1.5004878
35.449724515380666	2.2228854	1.4909344
35.46812520268491	2.144161	1.4642954
35.486526834943106	2.1958723	1.4818476
35.504929412775454	2.0418043	1.4289172
35.52333293680242	1.9175094	1.3847417
35.54173740764471	1.5896999	1.260833
35.560142825923286	1.3503304	1.1620371
35.5785491922594	1.1018951	1.049712
35.59695650727454	1.0853806	1.041816
35.61536477159042	0.8484193	0.9210968
