0.008763373481513119	0.0	0.0
0.026290120649546365	0.0	0.0
0.043816868432600686	0.060138714	0.24523196
0.06134361724069026	0.09440385	0.30725208
0.07887036748382949	0.1613131	0.40163803
0.0963971195720331	0.16483568	0.4059996
0.11392387391531617	0.15801214	0.3975074
0.1314506309236943	0.2063232	0.45422813
0.1489773910071836	0.1732884	0.41627923
0.16650415457580078	0.18353783	0.42841315
0.18403092203956356	0.105481364	0.32477894
0.20155769380849	0.1360264	0.36881757
0.2190844702925996	0.17354378	0.41658586
0.2366112519019124	0.25891	0.508832
0.2541380390464497	0.21050426	0.45880744
0.27166483213623416	0.19984649	0.44704193
0.28919163158128947	0.18195061	0.4265567
0.3067184377916406	0.26181105	0.51167476
0.324245251177314	0.24366778	0.49362716
0.34177207214833777	0.21485288	0.46352226
0.3592989011147415	0.17672433	0.42038593
0.37682573848655654	0.23019065	0.47978187
0.39435258467381573	0.22623198	0.4756385
0.41187944008655414	0.1735394	0.41658062
0.42940630513480854	0.1136614	0.33713707
0.446933180228618	0.1111093	0.33333063
0.4644600657780234	0.10551482	0.32483044
0.48198696219306775	0.11198374	0.33463973
0.49951386988379676	0.08424462	0.29024923
0.5170407892602581	0.08859517	0.2976494
0.5345677207325025	0.121127546	0.34803382
0.5520946647105822	0.15632278	0.39537674
0.5696216216045534	0.16979907	0.41206685
0.5871485918244737	0.15533932	0.3941311
0.6046755757804043	0.1147262	0.33871257
0.6222025738824094	0.11270536	0.3357162
0.6397295865405557	0.117217965	0.3423711
0.6572566141649129	0.15283501	0.39094117
0.6747836571655547	0.17990321	0.42415
0.6923107159525568	0.1887319	0.43443283
0.7098377909359992	0.17951992	0.42369792
0.7273648825259653	0.18839847	0.43404892
0.7448919911325411	0.2246457	0.47396803
0.762419117165817	0.25373203	0.5037182
0.7799462610358868	0.2754293	0.5248136
0.7974734231528482	0.23690078	0.48672453
0.8150006039268024	0.19523779	0.4418572
0.8325278037678551	0.19599044	0.44270808
0.8500550230861152	0.17699142	0.42070347
0.8675822622916969	0.15941353	0.39926624
0.8851095217947171	0.14641696	0.38264468
0.9026368020052984	0.14651923	0.38277832
0.9201641033335665	0.18248762	0.4271857
0.9376914261896523	0.23057759	0.48018494
0.9552187709836915	0.25305313	0.5030439
0.9727461381258234	0.25286698	0.5028588
0.990273528026193	0.23935883	0.48924312
1.0078009410949496	0.22290675	0.47213003
1.0253283777422473	0.20781913	0.45587185
1.0428558383782454	0.21635704	0.46514195
1.0603833234131086	0.21193686	0.460366
1.0779108332570058	0.27169377	0.5212425
1.0954383683201119	0.296449	0.5444713
1.112965929012607	0.39861995	0.6313636
1.1304935157446763	0.5237043	0.7236742
1.1480211289265108	0.5202614	0.7212915
1.1655487689683062	1.3730842	1.1717868
1.1830764362802655	1.6283891	1.2760835
1.200604131272596	2.0444636	1.4298474
1.2181318543555117	2.317041	1.522183
1.235659605939232	2.3779209	1.5420508
1.253187386433982	3.800689	1.9495356
1.270715196249994	6.2759967	2.505194
1.2882430357975057	11.590896	3.4045405
1.3057709054867608	16.347618	4.0432186
1.3232988057280106	22.109863	4.7021127
1.3408267369315112	27.224504	5.2177105
1.358354699507526	31.446825	5.607747
1.3758826938663256	35.778187	5.981487
1.3934107204181858	37.57587	6.129916
1.410938779573391	37.69751	6.1398296
1.4284668717422309	38.240437	6.183885
1.4459949973350033	37.955982	6.1608424
1.4635231567620117	37.84126	6.151525
1.4810513504335687	36.857708	6.071055
1.4985795787599925	35.928665	5.9940524
1.5161078421516088	35.090088	5.923689
1.5336361410187505	34.443222	5.868835
1.5511644757717598	34.63355	5.8850274
1.5686928468209842	35.34941	5.945537
1.58622125457678	35.891254	5.990931
1.6037496994495108	37.1132	6.0920606
1.621278181849548	37.41513	6.116791
1.6388067021872719	38.338833	6.191836
1.6563352608730693	37.510487	6.1245804
1.673863858317336	36.296688	6.0246735
1.6913924949304753	35.835163	5.986248
1.7089211711228998	34.95587	5.912349
1.7264498873050296	34.45571	5.869899
1.7439786438872935	33.367622	5.7764716
1.7615074412801288	32.428608	5.694612
1.779036279893981	31.784334	5.6377597
1.796565160139305	30.601423	5.531855
1.814094082426564	29.863869	5.4647846
1.8316230471662298	28.999392	5.3851085
1.849152054768784	28.284172	5.3182864
1.8666811056447168	27.931	5.284979
1.8842102002045273	26.934027	5.1898003
1.901739338858724	25.8986	5.0890665
1.9192685220178245	25.337503	5.033637
1.9367977500923557	24.731638	4.9730916
1.9543270234928547	24.437378	4.9434175
1.971856342629867	24.035858	4.902638
1.9893857079139496	23.56025	4.85389
2.006915119755667	23.059732	4.802055
2.0244445785655945	22.48347	4.741674
2.0419740847543175	22.012558	4.6917543
2.0595036387324317	21.800741	4.6691265
2.0770332409105414	21.268847	4.611816
2.094562891699263	20.976084	4.5799656
2.1120925915092217	20.371012	4.513426
2.129622340751053	19.737932	4.4427395
2.1471521398354043	187.806	13.704233
2.1646819891729323	444.12357	21.07424
2.182211889174303	440.47934	20.9876
2.1997418402501974	452.97214	21.283142
2.2172718428113023	432.95822	20.807648
2.234801897268317	320.9027	17.913757
2.2523320040319548	17.382208	4.1691976
2.269862163512935	16.97449	4.120011
2.287392376121992	16.778637	4.0961733
2.304922642269869	16.298347	4.0371213
2.322452962367322	15.776421	3.9719543
2.3399833368251164	15.276972	3.9085767
2.357513766054032	15.222053	3.9015448
2.3750442504648586	15.122072	3.888711
2.3925747904683963	15.125875	3.8891997
2.410105386475459	14.829309	3.8508842
2.4276360388968707	14.331799	3.785736
2.445166748143469	13.9702215	3.737676
2.4626975146261025	13.597308	3.6874528
2.4802283387556323	13.415409	3.6627052
2.4977592209429305	13.314224	3.6488662
2.5152901615988825	13.124628	3.622793
2.5328211611343865	13.062934	3.614268
2.5503522199603523	12.78036	3.5749629
2.5678833384877024	12.54621	3.542063
2.5854145171273712	12.096399	3.4779878
2.6029457562903064	11.817699	3.437688
2.620477056387469	11.748386	3.427592
2.6380084178298326	11.517578	3.3937557
2.655539841028383	11.491322	3.3898852
2.673071326394119	11.325774	3.3653789
2.6906028743380523	11.292798	3.3604758
2.708134485271211	11.1721945	3.3424833
2.7256661596046325	10.971628	3.3123448
2.743197897749369	10.746272	3.2781508
2.760729700116486	10.593484	3.2547634
2.778261567117063	10.560031	3.2496202
2.795793499162193	10.357333	3.218281
2.8133254966629817	10.257596	3.2027483
2.830857560030551	10.137225	3.1839008
2.8483896896760337	9.97134	3.157743
2.865921886010578	9.71938	3.117592
2.883454149445347	9.560665	3.0920324
2.9009864803915177	9.363178	3.059931
2.91851887926028	9.201666	3.0334249
2.9360513464628384	9.029003	3.00483
2.953583882410413	8.871522	2.97851
2.9711164875142373	8.8363495	2.9725997
2.9886491621855606	8.796135	2.965828
3.0061819068356455	8.729396	2.954555
3.023714721875769	8.664108	2.9434857
3.041247607717225	8.525437	2.919835
3.0587805647713213	8.385498	2.8957725
3.0763135934493806	8.236602	2.8699481
3.0938466941627407	8.11839	2.849279
3.1113798673227544	8.154965	2.85569
3.1289131133407904	8.091641	2.8445811
3.1464464326282315	7.957713	2.820942
3.1639798255964786	7.7686863	2.7872362
3.1815132926569443	7.573673	2.7520306
3.1990468342210603	7.5259514	2.7433467
3.216580450700272	7.5205574	2.7423635
3.2341141425060416	7.524655	2.7431104
3.251647910049847	7.546302	2.7470534
3.2691817537431813	7.415938	2.723222
3.286715673997555	7.253117	2.6931612
3.3042496712244938	7.072308	2.6593812
3.32178374583554	6.910247	2.6287348
3.339317898242251	6.88885	2.624662
3.3568521288562034	6.873931	2.6218183
3.3743864380889876	6.93	2.6324892
3.3919208263522127	6.8013754	2.6079447
3.4094552940575023	6.604755	2.5699718
3.4269898416164972	6.497038	2.5489287
3.444524469440858	6.4843287	2.5464344
3.4620591779422587	6.534819	2.5563293
3.479593967532391	6.475775	2.5447543
3.4971288386229658	6.358327	2.5215724
3.5146637916257086	6.322806	2.514519
3.5321988269523628	6.3566265	2.5212352
3.5497339450146903	6.3842125	2.5267
3.5672691462244708	6.4765882	2.5449142
3.5848044309934988	6.397819	2.529391
3.60233979973359	6.314014	2.5127702
3.619875252856575	6.238172	2.4976332
3.6374107907743034	6.230957	2.4961884
3.6549464138986427	6.254299	2.5008597
3.6724821226414788	6.237576	2.497514
3.690017917414714	6.2637587	2.5027502
3.7075537986302702	6.323196	2.5145965
3.7250897667000857	6.3389416	2.5177255
3.7426258220361235	6.6248665	2.5738816
3.7601619650503553	6.939701	2.6343312
3.777698196154779	7.511756	2.7407582
3.7952345157614067	8.43508	2.904321
3.8127709242822716	9.210611	3.034899
3.830307422129425	11.362912	3.3708918
3.847844009714936	30.23551	5.4986825
3.8653806874508954	97.72589	9.885641
3.882917455749409	96.953995	9.846522
3.900454315022606	96.76154	9.836744
3.917991265682631	41.301716	6.426641
3.9355283081416506	10.864407	3.29612
3.9530654428118495	8.627475	2.9372563
3.970602670105433	7.3462906	2.7104042
3.9881399904346244	6.530023	2.555391
4.005677404211669	6.4807916	2.54574
4.023214911848827	6.533305	2.5560331
4.0407525137583855	6.475489	2.5446982
4.058290210352644	6.5254636	2.5544987
4.075828002043927	6.519588	2.5533483
4.0933658892445814	6.4602375	2.5416996
4.110903872366966	6.440547	2.5378232
4.128441951823468	6.25121	2.500242
4.145980128026488	6.2215843	2.4943104
4.163518401388452	6.227537	2.4955034
4.181056772321807	6.228899	2.4957762
4.1985952412390155	6.227151	2.495426
4.216133808552567	6.1792674	2.4858131
4.233672474674966	6.2422695	2.4984534
4.251211240018741	6.4334264	2.53642
4.268750104996445	6.6358805	2.5760202
4.286289070020643	7.613392	2.7592375
4.303828135503928	9.231577	3.038351
4.3213673018589125	29.491066	5.4305677
4.3389065694982305	90.55763	9.516177
4.356445938834537	165.78998	12.875946
4.3739854102805085	171.29863	13.08811
4.391524984248844	172.29225	13.126015
4.409064661152262	136.3503	11.676913
4.426604441403504	96.734146	9.835352
4.444144325415337	75.70658	8.700953
4.461684313600543	21.829165	4.672169
4.47922440637193	22.260445	4.7180977
4.496764604142329	20.619312	4.540849
4.5143049073245916	18.79603	4.3354387
4.531845316331589	16.56757	4.0703278
4.5493858315762195	13.663853	3.6964648
4.566926453471405	11.31783	3.3641982
4.584467182430081	9.29807	3.0492737
4.602008018865218	8.101494	2.8463123
4.619548963189798	7.389292	2.7183251
4.637090015816834	6.9184875	2.6303017
4.654631177159353	6.6440125	2.577598
4.672172447630417	6.4496417	2.5396144
4.689713827643102	6.2855644	2.5071027
4.7072553176105085	6.101489	2.4701192
4.724796917945764	5.9250083	2.434134
4.742338629062015	5.779893	2.4041407
4.759880451372434	5.7316675	2.3940902
4.777422385290215	5.738094	2.3954318
4.794964431228581	5.8189464	2.4122493
4.812506589600768	5.8624783	2.4212556
4.830048860820047	5.8486395	2.418396
4.847591245299709	5.834301	2.4154298
4.8651337434530655	5.728971	2.3935268
4.882676355693457	5.7064347	2.3888144
4.900219082434242	5.6928554	2.3859706
4.917761924088813	5.692914	2.3859828
4.935304881070575	5.67386	2.3819866
4.952847953792969	5.5297723	2.3515468
4.970391142669449	5.5263033	2.350809
4.9879344481135055	5.4948153	2.3441021
5.005477870538642	5.5562577	2.3571715
5.023021410358394	5.595118	2.3654
5.040565067986324	5.6063204	2.3677669
5.05810884383601	5.565262	2.3590808
5.075652738321066	5.5462365	2.3550448
5.09319675185512	5.440767	2.332545
5.110740884851836	5.4430456	2.3330336
5.128285137724894	5.3843155	2.3204129
5.145829510888007	5.35249	2.313545
5.163374004754908	5.2766347	2.2970927
5.1809186197393595	5.2651005	2.2945807
5.198463356255145	5.23082	2.2870986
5.216008214716077	5.268318	2.2952816
5.233553195535998	5.255134	2.292408
5.251098299128764	5.2439737	2.2899725
5.268643525908272	5.2545123	2.2922723
5.286188876288432	5.2244864	2.2857134
5.3037343506831895	5.1785235	2.275637
5.32127994950651	5.1237626	2.263573
5.3388256731723915	5.092263	2.2566044
5.356371522094851	5.1131263	2.2612224
5.373917496687938	5.1924186	2.278688
5.391463597365729	5.2443748	2.29006
5.40900982454232	5.236523	2.288345
5.426556178631843	5.2099576	2.2825332
5.444102660048449	5.1979046	2.2798913
5.4616492692063225	5.153203	2.2700667
5.479196006519669	5.1476407	2.2688413
5.496742872402727	5.166614	2.2730186
5.514289867269756	5.164174	2.272482
5.531836991535049	5.129997	2.2649496
5.549384245612924	5.1031833	2.2590227
5.566931629917724	5.135655	2.2661984
5.584479144863822	5.14573	2.2684202
5.6020267908656205	5.207954	2.2820942
5.619574568337545	5.2574425	2.2929113
5.637122477694054	5.213963	2.2834103
5.654670519349629	5.115438	2.2617333
5.672218693718784	5.085902	2.2551944
5.689767001216059	5.135323	2.2661252
5.707315442256021	5.178627	2.2756598
5.724864017253266	5.177849	2.2754886
5.7424127266224225	5.1856327	2.2771983
5.75996157077814	5.100437	2.2584147
5.777510550135105	5.062175	2.2499278
5.795059665108022	5.0615234	2.249783
5.812608916111639	5.1857033	2.2772138
5.830158303560715	5.318902	2.3062744
5.847707827870055	5.3651876	2.3162875
5.86525748945448	5.4146514	2.3269403
5.8828072887288485	5.496525	2.344467
5.900357226108044	5.5284595	2.3512676
5.917907302006979	5.6021304	2.366882
5.9354575168406	6.183318	2.4866278
5.9530078710238765	6.864535	2.6200256
5.970558364971812	7.3844576	2.7174358
5.988108999099438	7.725078	2.7794025
6.005659773821818	8.289749	2.8791924
6.023210689554039	8.048655	2.8370152
6.040761746711227	8.487975	2.913413
6.058312945708531	7.8526936	2.802266
6.075864286961132	7.395664	2.719497
6.093415770884244	6.7552958	2.599095
6.1109673978931065	6.193304	2.488635
6.128519168402993	5.595481	2.3654768
6.146071082829204	5.463374	2.3373861
6.163623141587075	5.343848	2.3116765
6.181175345091969	5.2794437	2.297704
6.198727693759281	5.189171	2.277975
6.216280188004435	5.1659007	2.2728617
6.233832828242885	5.139004	2.2669373
6.251385614890126	5.223228	2.2854383
6.268938548361669	5.2591114	2.2932754
6.286491629073067	5.2577467	2.2929778
6.304044857439898	5.26117	2.293724
6.321598233877777	5.1696734	2.2736917
6.339151758802344	5.036118	2.2441297
6.356705432629277	4.99596	2.2351644
6.37425925577428	5.032345	2.2432888
6.391813228653095	5.0641017	2.250356
6.409367351681486	5.0671744	2.2510386
6.426921625275259	5.010467	2.2384074
6.44447604985025	4.947383	2.2242713
6.46203062582232	4.970696	2.2295058
6.47958535360737	4.983476	2.2323701
6.497140233621328	4.991904	2.234257
6.514695266280161	4.9684916	2.2290113
6.532250451999859	4.980333	2.2316658
6.549805791196454	4.9553633	2.2260644
6.567361284286002	4.9148293	2.2169414
6.584916931684597	5.0014753	2.2363977
6.602472733808367	5.000343	2.2361445
6.6200286910734665	5.00842	2.2379498
6.637584803896092	4.949199	2.2246795
6.655141072692462	5.003262	2.2367973
6.672697497878842	5.081338	2.2541823
6.690254079871514	5.1046157	2.2593396
6.707810819086808	5.07159	2.2520192
6.725367715941078	4.9824634	2.2321432
6.742924770850719	4.9594007	2.2269711
6.760481984232151	4.9838977	2.2324646
6.778039356501836	5.0175295	2.2399843
6.795596888076266	5.053208	2.247934
6.813154579371963	5.092262	2.256604
6.830712430805492	5.107538	2.2599864
6.84827044279344	5.0868373	2.2554018
6.865828615752445	5.0857344	2.2551572
6.883386950099159	5.0433173	2.245733
6.900945446250287	4.9841285	2.2325163
6.918504104622553	5.0386777	2.2447
6.936062925632727	5.0987244	2.2580354
6.953621909697607	5.1549034	2.2704413
6.971181057234028	5.172816	2.2743826
6.988740368658859	5.162908	2.2722034
7.006299844389007	5.2109585	2.2827523
7.023859484841407	5.2032523	2.2810638
7.041419290433036	5.2842064	2.2987401
7.058979261580902	5.4780884	2.3405316
7.0765393987020495	5.7708178	2.4022527
7.094099702213559	6.2214737	2.4942882
7.111660172532549	6.482477	2.5460708
7.129220810076164	6.8218417	2.6118655
7.146781615261595	7.358567	2.712668
7.16434258850606	7.5822887	2.7535956
7.181903730226821	7.996521	2.827812
7.1994650408411704	8.053141	2.8378055
7.217026520766437	8.26468	2.8748357
7.234588170419983	8.523705	2.9195385
7.252149990219215	8.512765	2.9176643
7.269711980581568	8.34364	2.888536
7.2872741419245175	8.102246	2.8464446
7.304836474665574	7.747389	2.7834132
7.322398979222286	7.436767	2.7270436
7.339961656012233	7.1573734	2.6753268
7.357524505453039	6.857163	2.6186185
7.375087527962357	6.567372	2.5626884
7.392650723957886	6.3100166	2.5119746
7.410214093857353	5.9956937	2.4486105
7.427777638078528	5.722664	2.392209
7.445341357039213	5.5199184	2.3494506
7.4629052511572525	5.324491	2.3074858
7.480469320850524	5.3300834	2.3086972
7.498033566536948	5.3032312	2.3028746
7.5155979886344735	5.3026443	2.302747
7.5331625875610975	5.2567773	2.2927663
7.550727363734844	5.221021	2.2849555
7.568292317573788	5.278414	2.2974799
7.585857449496025	5.3418813	2.311251
7.603422759919705	5.2673254	2.2950654
7.620988249263007	5.121928	2.2631679
7.638553917944147	5.063714	2.2502697
7.656119766381391	5.105956	2.2596362
7.673685794993023	5.2103076	2.28261
7.691252004197388	5.2682595	2.295269
7.70881839441285	5.2894673	2.2998843
7.726384966057826	5.2864633	2.299231
7.743951719550762	5.2856607	2.2990565
7.761518655310149	5.289169	2.2998192
7.779085773754511	5.29704	2.30153
7.796653075302419	5.3367047	2.3101308
7.814220560372475	5.3304157	2.3087692
7.831788229383323	5.385346	2.3206348
7.8493560827536495	5.4047246	2.3248065
7.866924120902174	5.4087763	2.3256776
7.884492344247663	5.4207997	2.3282611
7.9020607532089135	5.4180803	2.327677
7.919629348204771	5.446248	2.3337197
7.937198129654115	5.4510884	2.3347566
7.954767097975865	5.439524	2.3322787
7.972336253588986	5.4178243	2.327622
7.989905596912472	5.447364	2.3339589
8.007475128365371	5.4399834	2.3323772
8.025044848366756	5.4151845	2.327055
8.042614757335754	5.4947815	2.344095
8.060184855691523	5.5869584	2.3636749
8.07775514385327	5.7795796	2.4040756
8.095325622240228	5.802677	2.4088748
8.112896291271687	5.8526697	2.4192293
8.130467151366968	5.887547	2.426427
8.148038202945436	5.916841	2.4324558
8.165609446426497	5.9392276	2.437053
8.183180882229594	5.941069	2.4374309
8.200752510774217	5.988956	2.4472344
8.218324332479893	6.0019445	2.4498866
8.235896347766193	6.037709	2.457175
8.253468557052724	6.0294504	2.455494
8.27104096075914	6.0383735	2.4573102
8.288613559305137	6.097504	2.4693124
8.306186353110448	6.128762	2.4756336
8.32375934259485	6.239341	2.4978673
8.341332528178162	6.3083606	2.511645
8.358905910280246	6.3400836	2.5179522
8.376479489321003	6.313312	2.5126305
8.394053265720377	6.3033957	2.5106564
8.411627239898356	6.3176703	2.5134976
8.42920141227497	6.3313026	2.516208
8.44677578327029	6.3256993	2.5150943
8.464350353304427	6.27343	2.5046816
8.48192512279754	6.300351	2.51005
8.499500092169827	6.2481446	2.4996288
8.51707526184153	6.2671013	2.503418
8.534650632232934	6.2385774	2.4977145
8.552226203764365	6.2380714	2.4976132
8.569801976856192	6.2718925	2.5043747
8.587377951928834	6.322767	2.5145113
8.60495412940274	6.32051	2.5140624
8.622530509698416	6.3371043	2.5173607
8.6401070932364	6.4765725	2.5449111
8.657683880437283	6.56224	2.561687
8.675260871721695	6.6691184	2.5824637
8.692838067510303	6.7410183	2.596347
8.710415468223834	6.8896832	2.6248207
8.727993074283043	7.078259	2.6604998
8.745570886108737	7.183576	2.6802194
8.763148904121765	7.195225	2.6823916
8.78072712874302	7.2375784	2.6902747
8.798305560393441	7.4420633	2.7280145
8.815884199494006	7.59184	2.7553294
8.833463046465745	7.7712626	2.7876985
8.851042101729728	7.917901	2.8138766
8.86862136570707	8.207742	2.8649156
8.886200838818924	8.318453	2.884173
8.903780521486505	8.354814	2.8904696
8.921360414131055	8.515485	2.9181304
8.938940517173874	8.698466	2.9493163
8.956520831036297	8.845242	2.974095
8.97410135613971	9.055414	3.0092216
8.99168209290554	9.336527	3.055573
9.009263041755265	9.648721	3.106239
9.026844203110405	9.898749	3.1462278
9.044425577392525	9.950829	3.1544933
9.062007165023239	9.925546	3.1504834
9.079588966424197	10.170741	3.1891599
9.097170982017108	10.305414	3.2102046
9.11475321222372	11.264141	3.3562093
9.132335657465825	12.09863	3.4783084
9.149918318165264	12.27462	3.5035155
9.167501194743924	13.040877	3.6112156
9.18508428762374	12.747122	3.570311
9.202667597226693	12.648607	3.556488
9.220251123974803	12.207811	3.4939678
9.237834868290143	11.854042	3.44297
9.255418830594836	11.650916	3.413344
9.273003011311046	11.085331	3.329464
9.290587410860985	10.93508	3.3068233
9.308172029666911	10.311994	3.2112293
9.32575686815113	10.076186	3.174301
9.343341926735997	8.787049	2.9642959
9.360927205843916	8.571179	2.9276576
9.378512705897327	8.375393	2.894027
9.396098427318728	8.205105	2.8644555
9.413684370530664	8.023315	2.8325458
9.431270535955722	7.8212276	2.7966459
9.448856924016539	7.722936	2.7790172
9.466443535135806	7.678621	2.7710323
9.484030369736251	7.732234	2.7806895
9.501617428240658	7.8140583	2.7953637
9.519204711071852	7.823984	2.7971385
9.536792218652714	7.872555	2.8058074
9.55437995140617	7.9417505	2.8181112
9.571967909755191	7.9460907	2.818881
9.589556094122802	7.882738	2.8076215
9.60714450493207	7.817144	2.7959156
9.624733142606116	7.8587313	2.8033428
9.642322007568108	7.9375587	2.8173673
9.659911100241267	7.980162	2.824918
9.677500421048851	8.027099	2.8332136
9.695089970414175	8.095264	2.8452177
9.712679748760609	8.1302805	2.8513646
9.730269756511557	8.166951	2.8577878
9.747859994090492	8.175996	2.8593698
9.765450461920915	8.124916	2.8504238
9.78304116042639	8.108602	2.8475606
9.800632090030527	8.183309	2.8606484
9.81822325115699	8.254059	2.8729877
9.835814644229481	8.299076	2.8808117
9.853406269671762	8.270409	2.8758318
9.870998127907646	8.309884	2.8826869
9.888590219360985	8.347907	2.8892746
9.906182544455698	8.4094925	2.8999126
9.923775103615734	8.353173	2.8901856
9.941367897265108	8.269027	2.8755915
9.958960925827878	8.196125	2.8628876
9.97655418972816	8.166771	2.8577564
9.994147689390106	8.194419	2.8625896
10.011741425237934	8.1842985	2.8608212
10.029335397695904	8.243185	2.8710947
10.04692960718833	8.336121	2.887234
10.06452405413958	8.396943	2.897748
10.082118738974064	8.386726	2.8959844
10.099713662116246	8.306661	2.8821278
10.117308823990651	8.204441	2.8643396
10.134904225021844	8.111364	2.8480458
10.152499865634445	8.119957	2.8495538
10.170095746253125	8.158749	2.8563523
10.18769186730261	8.226316	2.8681555
10.205288229207675	8.22566	2.8680413
10.222884832393145	8.251315	2.8725102
10.2404816772839	8.173993	2.8590195
10.258078764304868	8.167421	2.85787
10.275676093881035	8.175621	2.8593042
10.293273666437438	8.1238985	2.8502452
10.310871482399158	8.149659	2.854761
10.32846954219134	7.999399	2.828321
10.346067846239173	7.959501	2.8212588
10.363666394967908	7.937506	2.817358
10.38126518880283	7.961387	2.821593
10.398864228169298	8.06618	2.8401022
10.416463513492713	8.1281185	2.8509855
10.434063045198531	8.177939	2.8597097
10.451662823712262	8.189552	2.8617394
10.469262849459467	8.214873	2.86616
10.486863122865758	8.204665	2.8643787
10.504463644356806	8.205023	2.8644412
10.522064414358338	8.101555	2.846323
10.539665433296118	7.976698	2.8243048
10.557266701595987	7.9056816	2.8117044
10.574868219683818	7.8162565	2.7957568
10.592469987985552	7.719479	2.778395
10.610072006927185	7.6043396	2.7575967
10.627674276934751	7.495507	2.7377923
10.64527679843435	7.3404584	2.709328
10.662879571852143	7.239279	2.6905909
10.680482597614331	7.1136084	2.6671348
10.698085876147173	7.045038	2.6542492
10.715689407876988	6.9849334	2.6429024
10.733293193230146	6.986848	2.6432645
10.750897232633072	6.8681602	2.6207175
10.76850152651225	6.727906	2.5938208
10.786106075294207	6.6490493	2.5785751
10.803710879405534	6.529618	2.5553117
10.821315939272877	6.4169216	2.5331643
10.83892125532294	6.364154	2.5227275
10.856526827982472	6.3165417	2.513273
10.874132657678285	6.2845626	2.506903
10.891738744837243	6.194642	2.4889038
10.909345089886271	6.079216	2.4656067
10.926951693252343	6.015791	2.4527109
10.944558555362494	5.9798064	2.4453642
10.96216567664381	5.973167	2.4440064
10.979773057523436	5.902059	2.4294155
10.997380698428573	5.79763	2.407827
11.014988599786477	5.701383	2.3877568
11.032596762024461	5.7213254	2.3919291
11.050205185569892	5.693543	2.3861146
11.067813870850198	5.632983	2.3733907
11.085422818292859	5.493089	2.343734
11.10303202832541	5.415809	2.3271892
11.120641501375454	5.367008	2.3166804
11.138251237870636	5.3083286	2.303981
11.155861238238671	5.2673616	2.2950733
11.173471502907317	5.234994	2.2880108
11.191082032304402	5.1957145	2.279411
11.208692826857805	5.147316	2.2687697
11.226303886995465	5.043347	2.2457397
11.243915213145371	4.981793	2.231993
11.261526805735578	4.9453025	2.2238035
11.279138665194196	4.9686375	2.229044
11.296750791949393	4.9145308	2.2168741
11.314363186429393	4.836807	2.199274
11.331975849062479	4.716935	2.1718507
11.34958878027699	4.6285834	2.1514144
11.36720198050133	4.5654635	2.1366944
11.384815450163948	4.54261	2.13134
11.402429189693366	4.5001163	2.1213477
11.420043199518153	4.4239383	2.103316
11.437657480066942	63.36434	7.960172
11.455272031768422	85.119545	9.226026
11.472886855051353	107.53875	10.37009
11.490501950344528	99.1681	9.958318
11.508117318076819	84.5251	9.193753
11.52573295867715	45.923893	6.776717
11.543348872574514	4.2561293	2.0630388
11.560965060197946	4.165104	2.0408585
11.57858152197655	4.1334753	2.0330951
11.59619825833949	4.045879	2.011437
11.613815269715985	4.030669	2.0076528
11.631432556535323	38.53281	6.20748
11.649050119226837	83.079575	9.1147995
11.666667958219929	93.51165	9.670142
11.68428607394406	107.79389	10.382383
11.701904466828756	82.58259	9.087496
11.719523137303586	65.40618	8.087409
11.737142085798196	4.600166	2.1447997
11.754761312742286	3.7071226	1.9253889
11.772380818565619	3.6413336	1.9082279
11.790000603698015	3.634927	1.9065485
11.80762066856935	3.5804193	1.8921996
11.825241013609572	3.564144	1.887894
11.842861639248683	3.5377052	1.8808788
11.860482545916748	3.5244713	1.8773575
11.878103734043883	3.5011718	1.8711419
11.895725204060282	3.4694543	1.8626472
11.91334695639619	3.4977565	1.870229
11.930968991481919	3.4791403	1.8652453
11.948591309747824	3.4082909	1.8461556
11.966213911624347	3.321074	1.8223814
11.98383679754198	3.2587483	1.8052003
12.001459967931268	3.2801962	1.8111312
12.019083423222835	3.3037584	1.8176243
12.036707163847352	3.297241	1.8158307
12.05433119023556	3.2956357	1.8153886
12.071955502818259	3.2618072	1.8060474
12.089580102026313	3.2118626	1.792167
12.107204988290643	3.127235	1.768399
12.12483016204224	3.0617163	1.7497761
12.142455623712152	3.073061	1.7530148
12.16008137373149	3.0905523	1.7579967
12.177707412531431	3.0874088	1.7571024
12.19533374054321	3.055891	1.7481107
12.212960358198126	3.0558672	1.7481039
12.230587265927545	3.0424414	1.7442596
12.248214464162889	3.033375	1.7416587
12.265841953335649	3.032889	1.7415191
12.283469733877375	3.0432389	1.7444881
12.301097806219685	2.990237	1.7292302
12.31872617079425	2.9610841	1.7207801
12.336354828032825	2.9280226	1.7111466
12.353983778367205	2.935834	1.7134275
12.371613022229262	2.938116	1.7140933
12.389242560050928	2.971283	1.7237409
12.406872392264201	2.9868436	1.7282487
12.424502519301143	2.9281917	1.711196
12.442132941593874	2.9016807	1.7034321
12.459763659574586	2.8823576	1.6977507
12.477394673675532	2.8943384	1.7012755
12.49502598432903	2.8918664	1.7005489
12.51265759196746	2.851949	1.6887715
12.530289497023267	2.831552	1.6827216
12.547921699928967	2.8222315	1.6799499
12.565554201117134	2.810609	1.6764871
12.583187001020404	2.787627	1.6696188
12.600820100071486	2.7650921	1.6628566
12.618453498703152	2.7840471	1.6685464
12.636087197348235	2.781111	1.6676663
12.65372119643964	2.7852376	1.6689031
12.671355496410326	2.7864327	1.6692611
12.68899009769333	2.7955391	1.6719866
12.706625000721749	2.8046148	1.6746985
12.724260205928752	2.8654592	1.6927668
12.741895713747551	2.8668451	1.693176
12.759531524611454	2.9274378	1.7109756
12.777167638953818	2.9561293	1.7193398
12.794804057208072	3.016361	1.7367674
12.812440779807702	3.1110835	1.7638264
12.830077807186271	3.2597327	1.805473
12.847715139777405	3.2831357	1.8119425
12.865352778014795	3.4797933	1.8654205
12.882990722332197	3.5911777	1.8950403
12.90062897316344	3.6723433	1.9163359
12.918267530942412	3.7579534	1.9385442
12.935906396103071	3.6210134	1.902896
12.953545569079449	3.7352953	1.9326912
12.971185050305628	3.4692483	1.8625919
12.988824840215775	3.501488	1.8712263
13.006464939244115	3.5399837	1.8814845
13.024105347824943	3.3941875	1.8423321
13.041746066392617	3.5144346	1.8746825
13.05938709538157	3.334295	1.8260052
13.077028435226296	3.397401	1.843204
13.094670086361363	3.281986	1.8116252
13.112312049221401	3.1899514	1.7860435
13.129954324241112	3.0651665	1.7507616
13.147596911855258	2.8944614	1.7013117
13.165239812498685	2.8838904	1.6982021
13.182883026606293	2.8485646	1.6877692
13.200526554613058	2.8223057	1.6799719
13.218170396954017	2.7622616	1.6620053
13.235814554064284	2.7508574	1.6585709
13.253459026379034	2.7667785	1.6633636
13.271103814333523	2.7623053	1.6620184
13.288748918363058	2.7497878	1.6582484
13.306394338903031	2.732616	1.6530626
13.32404007638889	2.706684	1.6452004
13.341686131256164	2.711141	1.6465544
13.359332503940449	2.6877782	1.6394445
13.376979194877402	2.7096965	1.6461155
13.394626204502751	2.758663	1.6609223
13.412273533252307	2.756633	1.6603111
13.429921181561937	2.7251537	1.6508039
13.447569149867581	2.6694617	1.6338488
13.465217438605247	2.6967993	1.6421934
13.482866048211022	2.6885	1.6396645
13.500514979121052	2.7127285	1.6470363
13.518164231771568	2.6878698	1.6394724
13.535813806598844	2.6913054	1.6405199
13.553463704039254	2.6644413	1.6323117
13.571113924529229	2.6220992	1.6192898
13.588764468505275	2.6755521	1.6357116
13.606415336403956	2.740489	1.6554422
13.624066528661917	2.7824008	1.668053
13.641718045715882	2.8013074	1.6737107
13.659369888002635	2.8241787	1.6805292
13.67702205595903	2.8766177	1.6960595
13.694674550021993	2.9541724	1.7187706
13.712327370628532	3.0501375	1.7464643
13.729980518215713	3.1542602	1.7760237
13.747633993220681	3.2310104	1.7975012
13.765287796080647	3.2340608	1.7983495
13.7829419272329	3.2454042	1.8015006
13.800596387114801	3.2581139	1.8050246
13.818251176163775	3.3158	1.8209338
13.835906294817324	3.3785124	1.838073
13.853561743513023	3.411405	1.8469989
13.871217522688525	3.4430397	1.8555429
13.888873632781538	3.464838	1.8614075
13.906530074229858	3.5632882	1.8876674
13.92418684747135	3.6024363	1.8980085
13.941843952943948	3.5762959	1.8911097
13.959501391085665	3.506009	1.872434
13.977159162334578	3.4120383	1.8471704
13.994817267128846	3.3964224	1.8429385
14.012475705906693	3.305968	1.8182322
14.030134479106424	3.2154286	1.7931616
14.047793587166414	3.1439543	1.7731199
14.065453030525108	3.0676966	1.7514842
14.083112809621026	3.0246081	1.73914
14.100772924892766	2.9597874	1.7204033
14.118433376778997	2.8943574	1.7012811
14.136094165718458	2.8456235	1.6868976
14.153755292149969	2.821267	1.6796627
14.171416756512416	2.7145853	1.6475998
14.189078559244768	2.615639	1.6172937
14.20674070078606	2.567582	1.6023676
14.224403181575408	2.5160522	1.5862069
14.242066002051999	2.463024	1.5694025
14.259729162655093	2.4286244	1.5584044
14.277392663824022	2.4367688	1.5610152
14.295056505998208	2.4360697	1.5607914
14.312720689617128	2.4396477	1.5619372
14.330385215120348	2.4307225	1.5590775
14.348050082947497	2.4179711	1.5549827
14.3657152935383	2.3656185	1.5380567
14.383380847332528	2.3501434	1.5330178
14.401046744770051	2.3908753	1.5462456
14.418712986290798	2.3974662	1.5483754
14.436379572334793	2.4179664	1.5549811
14.454046503342123	2.3977842	1.548478
14.471713779752946	2.3687239	1.539066
14.489381402007504	2.3408523	1.5299844
14.507049370546113	2.3556805	1.5348226
14.524717685809168	2.3558238	1.5348693
14.542386348237134	2.3702037	1.5395466
14.560055358270553	2.4114242	1.5528761
14.577724716350051	2.4774306	1.5739856
14.595394422916325	2.4883375	1.5774465
14.61306447841015	2.4599478	1.5684221
14.63073488327237	2.4253125	1.5573415
14.648405637943917	2.4518392	1.565835
14.6660767428658	2.4821284	1.5754772
14.683748198479094	2.5158544	1.5861444
14.701420005224954	2.5811665	1.6066009
14.719092163544628	2.617797	1.6179607
14.73676467387942	2.651418	1.6283175
14.754437536670727	2.639393	1.6246209
14.772110752360014	2.6118476	1.6161212
14.78978432138882	2.6081028	1.6149622
14.807458244198777	2.629385	1.6215378
14.82513252123159	2.6147013	1.6170038
14.842807152929028	2.6754181	1.6356705
14.860482139732962	2.6626496	1.6317627
14.87815748208531	2.6696079	1.6338935
14.8958331804281	2.6810193	1.6373818
14.91350923520342	2.6773856	1.6362718
14.931185646853438	2.7217147	1.649762
14.948862415820408	2.7171888	1.6483898
14.966539542546656	2.7369394	1.6543698
14.98421702747459	2.7071617	1.6453454
15.001894871046696	2.6939871	1.641337
15.019573073705542	2.6383214	1.6242911
15.037251635893766	2.6317363	1.6222627
15.054930558054092	2.6962569	1.6420283
15.072609840629323	2.7687306	1.6639503
15.090289484062351	2.861593	1.6916244
15.107969488796124	3.0832503	1.7559186
15.125649855273691	3.470468	1.8629192
15.14333058393817	3.9833703	1.9958383
15.161011675232768	5.0430875	2.245682
15.17869312960076	6.3879867	2.5274467
15.196374947485506	8.175127	2.859218
15.214057129330447	11.112039	3.3334725
15.231739675579114	15.808085	3.9759383
15.249422586675102	21.00892	4.583549
15.267105863062092	24.293362	4.9288297
15.284789505183847	24.700197	4.969929
15.302473513484218	22.55034	4.7487197
15.320157888407127	19.009314	4.359967
15.337842630396578	14.788491	3.8455808
15.355527739896656	11.563615	3.4005315
15.37321321735153	9.01782	3.0029685
15.39089906320545	6.5937634	2.5678325
15.408585277902748	4.9414945	2.2229474
15.42627186188783	3.7673905	1.9409767
15.443958815605198	3.246564	1.8018224
15.461646139499424	2.9345977	1.7130668
15.479333834015168	2.7827451	1.6681561
15.497021899597165	2.6912541	1.6405042
15.514710336690234	2.6269557	1.6207886
15.53239914573928	2.5750449	1.6046946
15.550088327189297	2.5450933	1.5953349
15.567777881485336	2.5337164	1.5917652
15.58546780907256	2.505444	1.5828594
15.6031581103962	2.4933527	1.5790354
15.620848785901568	2.4757454	1.5734502
15.638539836034063	2.4680152	1.5709918
15.656231261239173	2.462064	1.5690966
15.673923061962451	2.4215882	1.5561453
15.691615238649552	2.3978598	1.5485024
15.709307791746202	2.3586648	1.5357945
15.727000721698221	2.3544886	1.5344343
15.744694028951498	2.3649135	1.5378275
15.76238771395202	2.3930452	1.546947
15.780081777145844	2.3646166	1.537731
15.797776218979125	2.3501482	1.5330193
15.815471039898094	2.3542013	1.5343406
15.833166240349064	2.3598077	1.5361665
15.850861820778437	2.4127471	1.553302
15.868557781632699	2.4261994	1.5576262
15.886254123358412	2.4262846	1.5576535
15.903950846402232	2.394553	1.5474343
15.921647951210897	2.3701458	1.5395278
15.939345438231225	2.3585525	1.5357579
15.957043307910133	2.3807464	1.5429667
15.974741560694602	2.3997667	1.549118
15.992440197031714	2.4232419	1.5566765
16.01013921736862	2.387869	1.5452731
16.02783862215259	2.376201	1.541493
16.045538411830933	2.398882	1.5488324
16.06323858685107	2.4114568	1.5528866
16.080939147660512	2.4334838	1.5599627
16.09864009470684	2.4338539	1.5600814
16.11634142843774	2.434732	1.5603628
16.134043149300954	2.4350522	1.5604653
16.15174525774433	2.4332056	1.5598736
16.169447754215817	2.4275608	1.5580631
16.18715063916342	2.411555	1.5529182
16.204853913035244	2.4191775	1.5553706
16.222557576279478	2.419355	1.5554276
16.240261629344403	22.459753	4.739172
16.257966072678386	43.020657	6.5590134
16.275670906729868	38.117542	6.1739407
16.293376131947387	2.550643	1.5970732
16.31108174877957	2.5707407	1.6033529
16.328787757675133	2.5989273	1.6121188
16.34649415908287	2.578621	1.6058085
16.364200953451657	2.5949566	1.6108869
16.38190814123048	2.603121	1.613419
16.39961572286839	2.6212502	1.6190275
16.41732369881455	2.6516454	1.6283873
16.43503206951817	2.6721213	1.6346624
16.45274083542859	2.7104733	1.6463515
16.47044999699522	2.7487223	1.6579272
16.488159554667558	2.8032432	1.6742889
16.505869508895184	2.8201053	1.6793169
16.523579860127786	2.8476424	1.687496
16.541290608815117	2.9290526	1.7114475
16.559001755407035	3.0096252	1.7348272
16.57671330035348	3.0888984	1.7575263
16.59442524410448	3.1289802	1.7688924
16.61213758711015	3.1937838	1.787116
16.629850329820705	3.2362664	1.7989626
16.647563472686436	3.3061824	1.8182911
16.665277016157724	3.3350034	1.8261992
16.682990960685053	3.402005	1.8444525
16.70070530671898	3.4837012	1.8664676
16.718420054710155	3.5406694	1.8816667
16.736135205109335	3.585579	1.8935624
16.753850758367335	3.6031668	1.898201
16.771566714935087	3.6249287	1.9039246
16.789283075263597	3.6649048	1.9143941
16.80699983980398	3.6832688	1.9191844
16.82471700900741	3.7625163	1.9397206
16.84243458332518	3.8682055	1.9667754
16.860152563208665	3.9863088	1.9965743
16.87787094910932	4.04562	2.0113726
16.89558974147871	4.1133876	2.028149
16.913308940768466	4.213049	2.0525713
16.931028547430333	4.236596	2.0582993
16.94874856191613	4.258001	2.0634923
16.966468984677785	4.3351307	2.0820978
16.98418981616729	4.4028554	2.0982983
17.00191105683676	4.4519935	2.1099749
17.019632707138374	4.446498	2.1086721
17.03735476752442	4.495311	2.1202147
17.05507723844728	4.570651	2.1379082
17.072800120359403	4.624088	2.1503692
17.090523413713353	4.610767	2.1472697
17.108247118961785	4.6005454	2.1448882
17.125971236557437	4.5965767	2.1439629
17.143695766953133	4.616047	2.1484988
17.161420710601806	4.6561084	2.1578016
17.179146067956477	4.665375	2.1599479
17.19687183947025	4.693281	2.1663983
17.21459802559634	4.6892548	2.1654687
17.232324626788028	4.695227	2.1668472
17.25005164349871	4.682466	2.1639006
17.267779076181863	4.6527863	2.1570318
17.285506925291074	4.6179776	2.148948
17.30323519127999	4.604212	2.1457427
17.320963874602384	4.6190944	2.1492078
17.33869297571211	4.6014886	2.145108
17.356422495063114	4.536699	2.1299527
17.37415243310944	4.4512696	2.1098032
17.391882790305218	4.408958	2.099752
17.40961356710468	4.417477	2.1017795
17.42734476396215	4.4842925	2.1176147
17.445076381332044	4.569055	2.1375349
17.462808419668868	4.6871457	2.1649816
17.48054087942723	4.8119645	2.193619
17.498273761061835	5.072057	2.2521226
17.51600706502747	5.4910603	2.343301
17.533740791779024	6.2272396	2.4954438
17.551474941771485	7.6522493	2.76627
17.56920951545993	8.724862	2.9537878
17.586944513299528	10.891103	3.300167
17.60467993574556	12.64491	3.5559683
17.622415783253373	14.322884	3.7845585
17.64015205627843	15.705666	3.9630375
17.657888755276293	16.745321	4.092105
17.675625880702604	17.246973	4.1529474
17.69336343301311	17.073635	4.1320257
17.71110141266366	16.354935	4.0441236
17.728839820110178	15.447505	3.9303315
17.746578655808705	14.438234	3.7997677
17.764317920215372	12.955861	3.599425
17.7820576137864	11.449214	3.3836687
17.79979773697811	9.455275	3.074943
17.81753829024692	7.489182	2.7366369
17.835279274049356	5.7968473	2.4076643
17.85302068884201	4.80398	2.1917982
17.870762535081607	4.1621795	2.040142
17.888504813224934	3.8187654	1.9541662
17.90624752372891	3.6532362	1.911344
17.923990667050536	3.586899	1.893911
17.941734243646895	3.5156128	1.8749968
17.959478253975185	3.5269442	1.878016
17.9772226984927	3.4765801	1.8645589
17.994967577656833	3.4480217	1.856885
18.01271289192506	3.3851395	1.8398749
18.030458641754965	3.3284671	1.8244087
18.04820482760425	3.297989	1.8160366
18.06595144993067	3.2783346	1.8106172
18.083698509192125	3.2681952	1.8078151
18.101446005846576	3.2553585	1.8042612
18.119193940352105	3.256004	1.8044401
18.136942313166887	3.2291365	1.7969798
18.1546911247492	3.2030108	1.7896957
18.1724403755574	3.1711655	1.7807766
18.19019006604997	3.1730306	1.7813003
18.207940196685467	3.1675036	1.7797482
18.225690767922575	3.1401079	1.772035
18.243441780220046	3.1040792	1.7618397
18.261193234036764	3.0894825	1.7576923
18.278945129831676	3.1164706	1.7653528
18.29669746806386	3.129553	1.7690543
18.314450249192483	3.0949893	1.7592582
18.3322034736768	3.038472	1.7431213
18.349957141976184	2.981841	1.7268008
18.3677112545501	2.9568872	1.7195601
18.385465811858108	2.9649956	1.7219163
18.403220814359884	3.0075247	1.7342217
18.420976262515172	3.0381243	1.7430216
18.43873215678387	3.150379	1.7749307
18.456488497625923	3.2061913	1.7905841
18.474245285501407	3.306871	1.8184804
18.492002520870486	3.311588	1.8197769
18.50976020419343	3.4021692	1.844497
18.527518335930615	3.6925325	1.9215964
18.545276916542516	4.267918	2.0658941
18.563035946489688	4.4443045	2.108152
18.580795426232832	4.937534	2.2220562
18.598555356232698	4.840603	2.200137
18.616315736950185	5.146595	2.2686107
18.63407656884626	4.7851944	2.1875088
18.65183785238201	4.9599104	2.2270856
18.669599588018617	4.684093	2.1642766
18.68736177621737	4.6739783	2.1619387
18.705124417439652	4.679645	2.1632488
18.72288751214696	4.4989495	2.1210728
18.740651060800886	4.6361914	2.1531818
18.758415063863115	4.345863	2.0846734
18.77617952179546	4.4531574	2.1102505
18.793944435059814	4.1763425	2.04361
18.811709804118184	4.218101	2.0538015
18.829475629432675	4.2327156	2.0573564
18.8472419114655	4.0523133	2.0130358
18.86500865067897	4.1175523	2.0291753
18.88277584753551	3.783496	1.945121
18.90054350249763	3.8251407	1.9557967
18.918311616027957	3.5135818	1.8744551
18.936080188589226	3.38348	1.8394239
18.953849220644265	3.0080085	1.7343612
18.971618712656007	2.8311193	1.682593
18.9893886650875	2.7646043	1.66271
19.007159078401887	7.9523506	2.8199914
19.024929953062408	32.831547	5.729882
19.042701289532435	32.773685	5.7248306
19.060473088275405	25.357578	5.0356307
19.07824534975489	2.6361344	1.6236176
19.096018074434568	2.6337502	1.6228833
19.113791262778197	2.590329	1.6094499
19.13156491524966	2.555989	1.5987461
19.149339032312945	2.5330315	1.59155
19.167113614432136	2.543713	1.5949023
19.184888662071433	2.5705452	1.603292
19.202664175695123	2.5871706	1.6084684
19.220440155767623	2.557262	1.5991441
19.238216602753447	2.5222392	1.5881559
19.2559935171172	2.4853296	1.5764928
19.27377089932361	2.4922605	1.5786895
19.291548749837514	2.4777825	1.5740974
19.309327069123835	2.5189092	1.5871072
19.32710585764763	2.5052595	1.5828011
19.344885115874032	2.5049295	1.5826969
19.362664844268313	2.4824975	1.5755943
19.380445043295822	2.5173228	1.5866073
19.39822571342203	2.5178947	1.5867876
19.41600685511252	2.517247	1.5865834
19.43378846883297	2.538557	1.593285
19.451570555049173	2.5849216	1.6077691
19.469353114227037	2.5835123	1.6073308
19.48713614683254	2.54327	1.5947634
19.50491965333182	2.489855	1.5779275
19.52270363419109	2.506578	1.5832176
19.540488089876686	2.4738302	1.5728414
19.55827302085503	2.4646437	1.5699184
19.576058427592674	2.42051	1.5557989
19.593844310556282	2.447904	1.5645779
19.611630670212598	2.472597	1.5724493
19.629417507028506	2.484191	1.5761316
19.64720482147098	2.478219	1.574236
19.6649926140071	2.5078807	1.583629
19.682780885104084	2.5313601	1.5910249
19.70056963522921	2.5491955	1.5966201
19.718358864849908	2.526559	1.5895153
19.7361485744337	2.4886951	1.5775598
19.753938764448215	2.458486	1.567956
19.771729435361202	2.4757423	1.5734491
19.789520587640506	2.492682	1.578823
19.807312221754092	2.5060494	1.5830506
19.825104338170043	2.5365498	1.592655
19.842896937356517	2.5312583	1.5909929
19.860690019781824	2.5368066	1.5927355
19.87848358591436	2.503829	1.5823492
19.896277636222635	2.520551	1.5876243
19.914072171175278	2.4903154	1.5780734
19.931867191241015	2.4911957	1.5783522
19.94966269688869	2.4788315	1.5744306
19.967458688587264	2.4998717	1.5810983
19.985255166805807	2.525708	1.5892476
20.00305213201348	2.5208857	1.5877297
20.020849584679578	2.4688926	1.5712711
20.038647525273507	2.458298	1.567896
20.05644595426477	2.4494493	1.5650717
20.07424487212299	2.4499984	1.565247
20.092044279317903	2.449139	1.5649725
20.109844176319353	2.4340932	1.5601581
20.127644563597304	2.4426188	1.562888
20.145445441621817	2.4146948	1.5539289
20.16324681086307	2.3900363	1.5459743
20.181048671791373	2.3643072	1.5376303
20.198851024877122	2.3831403	1.5437423
20.216653870590836	2.4017706	1.5497646
20.234457209403146	2.4104495	1.5525622
20.252261041784802	2.3707078	1.5397103
20.270065368206662	2.3725085	1.540295
20.287870189139685	2.3586879	1.535802
20.305675505054968	2.3584538	1.5357258
20.323481316423702	2.348002	1.5323192
20.341287623717207	2.3744354	1.5409204
20.359094427406884	2.4003458	1.549305
20.376901727964288	2.3772986	1.5418491
20.39470952586107	2.3275933	1.5256453
20.41251782156899	2.3291805	1.5261652
20.430326615559935	2.3260648	1.5251442
20.448135908305886	2.3111434	1.5202445
20.465945700278965	2.3078206	1.5191512
20.483755991951384	2.3314505	1.5269088
20.50156678379548	2.3632896	1.5372994
20.519378076283708	2.3569121	1.5352238
20.537189869888635	2.3860476	1.5446837
20.55500216508294	2.4133255	1.5534881
20.572814962339415	2.417844	1.5549418
20.59062826213098	2.385894	1.544634
20.60844206493066	2.3320982	1.527121
20.626256371211593	2.3287854	1.5260359
20.644071181447032	2.3000398	1.5165882
20.66188649611036	2.309755	1.5197878
20.67970231567506	2.2967992	1.5155195
20.697518640614742	2.334518	1.527913
20.715335471403122	2.3502429	1.5330502
20.73315280851404	2.353404	1.5340809
20.750970652421447	2.316593	1.5220358
20.768789003599412	2.299959	1.5165615
20.786607862522136	2.3036313	1.5177718
20.8044272296639	2.3192055	1.5228938
20.82224710549913	2.3162994	1.5219394
20.84006749050237	2.3034725	1.5177195
20.857888385148268	3.8464468	1.961236
20.8757097899116	45.943596	6.7781706
20.893531705267254	64.80751	8.050311
20.911354131690224	83.84134	9.156491
20.92917706965566	69.10559	8.312977
20.94700051963877	50.11944	7.0795083
20.96482448211493	29.387724	5.4210443
20.982648957559622	4.116156	2.0288312
21.00047394644843	2.2382581	1.4960809
21.01829944925707	2.244139	1.4980451
21.036125466461375	2.2275114	1.4924849
21.053951998537297	2.2357059	1.4952277
21.071779045960906	2.2263088	1.492082
21.089606609208378	2.2473462	1.4991151
21.10743468875603	2.250518	1.5001727
21.12526328508028	2.252096	1.5006984
21.143092398657675	2.2409854	1.4969921
21.16092202996488	2.234795	1.4949231
21.17875217947867	2.2085075	1.4861048
21.19658284767596	2.2060971	1.4852936
21.21441403503377	2.210906	1.4869115
21.232245742029225	2.1907012	1.4801018
21.2500779691396	2.1916573	1.4804248
21.26791071684227	2.1869316	1.4788278
21.28574398561475	2.2183664	1.4894181
21.30357777593465	2.1928105	1.4808141
21.321412088279704	2.1746151	1.4746577
21.339246923127792	2.1660104	1.4717371
21.357082280956888	2.1688957	1.4727172
21.3749181622451	2.1810632	1.4768423
21.392754567470647	2.161767	1.4702948
21.41059149711187	2.1815898	1.4770206
21.42842895164726	2.1692045	1.472822
21.446266931555378	2.1335802	1.460678
21.464105437314945	2.1124103	1.4534134
21.481944469404798	2.1146564	1.4541858
21.49978402830388	2.1287694	1.4590303
21.51762411449127	2.1107435	1.4528399
21.53546472844617	2.1154547	1.4544603
21.553305870647876	2.1167858	1.4549178
21.571147541575865	2.1191156	1.4557183
21.58898974170967	2.1480067	1.465608
21.60683247152899	2.1290214	1.4591167
21.62467573151363	2.0861342	1.4443456
21.642519522143523	2.0719914	1.4394413
21.660363843898722	2.0550761	1.4335537
21.6782086972594	2.0247335	1.4229313
21.696054082705864	1.998791	1.413786
21.713900000718535	2.0170383	1.4202248
21.73174645177795	2.0389516	1.4279187
21.749593436364794	2.0454257	1.4301838
21.767440954959845	2.0607576	1.4355339
21.785289008044032	2.0848625	1.4439052
21.803137596098388	2.0641017	1.4366982
21.820986719604086	2.0557091	1.4337745
21.838836379042412	2.0609212	1.4355909
21.85668657489478	2.0698292	1.4386901
21.87453730764273	2.0005362	1.4144031
21.892388577767914	1.9814272	1.4076318
21.91024038575213	1.9927576	1.4116507
21.928092732077285	2.0262547	1.4234657
21.945945617225426	2.0093234	1.417506
21.963799041678694	1.9798814	1.4070826
21.981653005919398	31.27937	5.5927963
21.999507510429943	78.067825	8.8356
22.01736255569286	73.05443	8.547189
22.035218142190818	4.2073865	2.0511916
22.05307427040661	2.0462008	1.4304547
22.07093094082315	1.9822814	1.4079351
22.088788153923474	1.9531517	1.397552
22.106645910190746	1.9693727	1.4033434
22.12450421010827	2.0157866	1.4197841
22.142363054159464	2.0112598	1.4181889
22.16022244282787	1.9982486	1.4135942
22.178082376597164	1.971122	1.4039665
22.195942855951145	1.9719219	1.4042513
22.213803881373742	1.9744755	1.4051603
22.231665453349002	1.9728932	1.4045972
22.24952757236111	1.9771545	1.4061133
22.26739023889438	1.9742169	1.4050683
22.28525345343323	1.9850035	1.4089015
22.30311721646225	1.9731082	1.4046737
22.320981528466113	1.94509	1.3946649
22.33884638992964	1.9430281	1.3939254
22.356711801337788	1.9562132	1.398647
22.37457776317561	1.956004	1.3985721
22.392444275928337	1.9435512	1.3941131
22.410311340081282	1.9806454	1.407354
22.428178956119904	2.0034606	1.4154365
22.446047124529805	2.0043986	1.4157678
22.46391584579669	1.9643848	1.4015651
22.481785120406414	1.937993	1.3921182
22.49965494884496	1.9270875	1.3881958
22.51752533159841	1.9271863	1.3882314
22.53539626915302	1.9280428	1.3885398
22.553267761995137	1.9084084	1.3814516
22.571139810611264	1.8951479	1.3766437
22.589012415488025	1.8991585	1.3780996
22.60688557711216	1.9357998	1.3913302
22.624759295970566	1.9665658	1.402343
22.642633572550263	1.9469365	1.3953266
22.660508407338362	1.9371438	1.3918132
22.67838380082217	1.9557571	1.3984839
22.696259753489077	2.0043275	1.4157428
22.714136265826614	2.020403	1.4214088
22.73201333832246	1.993263	1.4118297
22.74989097146439	1.9661908	1.4022093
22.76776916574035	1.938449	1.3922819
22.785647921638393	1.8999408	1.3783834
22.803527239646712	1.8885776	1.3742553
22.82140712025363	1.9277261	1.3884258
22.839287563947593	1.9403181	1.392953
22.85716857121719	1.9183855	1.3850579
22.875050142551135	1.9094452	1.3818268
22.892932278438277	1.894305	1.3763375
22.910814979367604	1.9012629	1.3788629
22.928698245828222	1.9115877	1.3826017
22.946582078309387	1.9270538	1.3881836
22.96446647730047	1.9415585	1.3933982
22.98235144329098	1.9446427	1.3945044
23.000236976770562	1.9371893	1.3918295
23.018123078229	1.9278543	1.388472
23.03600974815619	1.9116292	1.3826168
23.053896987042194	1.894128	1.3762733
23.071784795377173	1.8961732	1.3770161
23.08967317365145	1.9577236	1.3991867
23.10756212235546	1.9660522	1.4021598
23.125451641979787	1.9652032	1.401857
23.143341733015134	1.9131807	1.3831778
23.161232395952357	1.8855733	1.3731618
23.179123631282426	1.8845712	1.3727969
23.197015439496468	1.9157991	1.3841239
23.214907821085717	1.9682293	1.402936
23.23280077654157	1.9777892	1.4063389
23.250694306355538	1.9366703	1.391643
23.268588411019277	1.914225	1.3835552
23.28648309102458	1.9252695	1.3875408
23.304378346863356	1.9560528	1.3985896
23.322274179027676	1.9622359	1.4007983
23.340170588009723	1.9501721	1.3964856
23.358067574301852	1.9360045	1.3914038
23.37596513839651	1.931207	1.3896787
23.39386328078629	1.8919293	1.3754742
23.411762001963947	1.871024	1.3678538
23.429661302422353	1.8894969	1.3745897
23.4475611826545	1.9025846	1.3793421
23.46546164315356	1.9122169	1.3828293
23.48336268441279	1.8956275	1.376818
23.501264306925638	1.8752049	1.3693812
23.51916651118564	1.8718596	1.3681592
23.537069297686497	1.8723997	1.3683566
23.554972666922037	1.8721416	1.3682623
23.57287661938623	1.8808718	1.3714488
23.59078115557318	1.8919759	1.3754911
23.608686275977128	1.8991581	1.3780994
23.62659198109246	1.9234462	1.3868836
23.6444982714137	1.9522228	1.3972197
23.66240514743549	1.9437257	1.3941756
23.68031260965263	1.9212116	1.3860778
23.698220658560068	1.9191669	1.38534
23.716129294652845	1.9358282	1.3913405
23.7340385184262	1.9154491	1.3839976
23.75194833037546	1.9150653	1.3838588
23.769858730996123	1.9188833	1.3852377
23.78776972078382	1.9627559	1.4009839
23.80568130023431	1.9481066	1.3957459
23.823593469843495	1.9677278	1.4027572
23.841506230107424	1.9245262	1.387273
23.859419581522275	1.9035181	1.3796804
23.87733352458438	1.8913506	1.3752638
23.89524805979019	1.9181556	1.384975
23.913163187636318	1.8958775	1.3769087
23.931078908619508	1.8671606	1.3664409
23.948995223236633	1.8899206	1.3747438
23.966912131984735	1.9296017	1.389101
23.98482963536096	2.0359547	1.4268688
24.002747733862616	2.0327895	1.4257593
24.020666427987155	2.036389	1.427021
24.038585718232156	2.0242374	1.4227569
24.056505605095353	2.0714314	1.4392468
24.074426089074617	2.1043446	1.4506359
24.092347170667946	2.0556276	1.433746
24.110268850373515	2.0397987	1.4282153
24.128191128689586	2.0731316	1.4398373
24.146114006114626	2.06105	1.4356357
24.164037483147187	2.0039105	1.4155955
24.181961560286005	1.9612664	1.4004523
24.199886238029926	1.9914141	1.4111747
24.21781151687797	2.061303	1.4357238
24.235737397329274	2.071267	1.4391897
24.253663879883135	2.023186	1.4223874
24.271590965038975	2.0316586	1.4253626
24.289518653296376	2.0760558	1.4408524
24.30744694515505	2.0612037	1.4356893
24.32537584111486	2.0195389	1.4211048
24.34330534167581	2.000472	1.4143804
24.361235447338046	2.003949	1.415609
24.379166158601876	1.9921279	1.4114276
24.39709747596772	2.008913	1.4173613
24.41502939993615	1.9826432	1.4080637
24.432961931007917	1.9496877	1.3963122
24.450895069683856	1.93948	1.3926522
24.468828816465	1.9909854	1.4110228
24.4867631718525	1.9955362	1.4126345
24.504698136347656	1.9979426	1.413486
24.52263371045192	1.9762881	1.4058051
24.540569894666874	1.9614872	1.400531
24.558506689494266	1.9344869	1.3908583
24.57644409543597	1.9341202	1.3907264
24.594382112994012	1.9332091	1.3903989
24.61232074267057	1.9221247	1.3864071
24.630259984967953	1.933574	1.3905301
24.64819984038863	1.9234805	1.386896
24.66614030943522	1.9592792	1.3997425
24.684081392610462	2.0012183	1.4146442
24.702023090417274	2.0124643	1.4186136
24.7199654033587	1.9809121	1.4074488
24.737908331937927	2.0011907	1.4146345
24.755851876658305	2.0611007	1.4356534
24.773796038023324	2.1153066	1.4544094
24.79174081653661	2.1213098	1.4564717
24.809686212701962	2.0613897	1.4357541
24.827632227023294	2.0260472	1.4233929
24.8455788600047	2.0577698	1.4344928
24.8635261121504	2.1181362	1.4553818
24.88147398396475	2.1198814	1.4559813
24.899422475952303	2.0404618	1.4284474
24.917371588617698	2.0212817	1.4217179
24.935321322465768	2.058727	1.4348265
24.953271678001478	2.1741853	1.4745119
24.97122265572994	2.395787	1.547833
24.989174256156414	2.7597892	1.6612613
25.00712647978632	3.2094033	1.7914808
25.02507932712521	3.7951233	1.9481076
25.043032798678798	4.3806324	2.0929961
25.060986894952933	5.098806	2.2580535
25.078941616453637	5.7694497	2.4019678
25.096896963687055	6.6896853	2.5864427
25.114852937159508	7.7872276	2.7905605
25.132809537377444	8.23731	2.8700714
25.150766764847468	8.1471195	2.854316
25.168724620076347	7.6105313	2.7587192
25.186683103570985	6.653197	2.579379
25.204642215838426	5.545172	2.3548188
25.222601957385894	4.150719	2.0373313
25.24056232872074	3.1508992	1.7750772
25.25852333035048	2.5539777	1.5981169
25.276484962782778	2.2365632	1.4955144
25.294447226525435	2.0903246	1.4457955
25.312410122086423	2.055396	1.4336653
25.330373649973843	2.017341	1.4203312
25.348337810695988	1.9671866	1.4025643
25.366302604761245	1.9819305	1.4078106
25.384268032678207	1.9708393	1.4038658
25.40223409495558	1.9418354	1.3934976
25.420200792102257	1.9308047	1.389534
25.438168124627246	1.9219112	1.3863301
25.45613609303974	1.9154534	1.3839991
25.474104697849057	1.9102434	1.3821156
25.492073939564698	1.9276505	1.3883985
25.510043818696285	1.891547	1.3753352
25.528014335753614	1.8494759	1.3599544
25.54598549124664	1.8448523	1.3582534
25.56395728568544	1.8631421	1.3649696
25.58192971958028	1.8399324	1.3564411
25.59990279344156	1.8589909	1.3634481
25.617876507779833	1.8379393	1.3557062
25.635850863105826	1.8317354	1.3534162
25.653825859930386	1.8465071	1.3588624
25.671801498764548	1.8483088	1.3595252
25.68977778011949	1.8330411	1.3538985
25.707754704506524	1.8154354	1.347381
25.725732272437153	1.7977276	1.3407936
25.743710484423012	1.8105044	1.3455498
25.761689340975888	1.8603617	1.3639507
25.77966884260774	1.872452	1.3683757
25.797648989830662	1.8902543	1.3748652
25.815629783156922	1.8687487	1.3670218
25.83361122309895	1.8705101	1.3676659
25.85159331016929	1.8579134	1.363053
25.869576044880695	1.8672025	1.3664562
25.887559427746034	1.8961982	1.3770251
25.90554345927836	1.8689731	1.3671039
25.92352813999086	1.8414011	1.3569824
25.94151347039689	1.8408484	1.3567787
25.959499451009965	1.8690082	1.3671167
25.97748608234374	1.8115528	1.3459394
25.995473364912062	1.7831167	1.335334
26.013461299228904	1.8197331	1.3489748
26.03144988580839	1.8712794	1.3679471
26.04943912516483	1.8425503	1.3574057
26.067429017812675	1.8093027	1.3451033
26.085419564266537	1.7782863	1.333524
26.103410765041186	1.7999554	1.3416241
26.12140262065155	1.803152	1.3428149
26.139395131612723	1.794266	1.3395021
26.157388298439948	1.8601115	1.363859
26.17538212164861	1.8978999	1.3776429
26.193376601754295	1.9122499	1.3828412
26.211371739272714	1.9016002	1.3789852
26.229367534719746	1.889425	1.3745636
26.247363988611433	1.8844441	1.3727505
26.26536110146397	1.8787913	1.3706901
26.283358873793727	1.8564024	1.3624986
26.301357306117204	1.8426135	1.357429
26.319356398951104	1.8094835	1.3451705
26.33735615281224	1.8113363	1.3458589
26.35535656821762	1.8174431	1.3481258
26.373357645684404	1.7830297	1.3353014
26.39135938572991	1.7476499	1.3219872
26.409361788871614	1.7587941	1.3261954
26.427364855627165	1.7929928	1.3390268
26.445368586514352	1.812167	1.3461676
26.46337298205115	1.8213112	1.3495597
26.48137804275568	1.8637384	1.365188
26.499383769146217	1.872671	1.3684556
26.517390161741215	1.8112026	1.3458093
26.53539722105928	1.7498262	1.3228099
26.553404947619182	1.7639911	1.3281533
26.571413341939856	1.7722287	1.3312508
26.589422404540397	1.7747976	1.3322153
26.60743213594006	1.7878021	1.3370872
26.62544253665827	1.8258679	1.3512468
26.64345360721459	1.8251561	1.3509834
26.66146534812879	1.8260795	1.351325
26.679477759920758	1.8259779	1.3512875
26.69749084311057	1.801473	1.3421897
26.71550459821847	1.8236997	1.3504443
26.733519025764842	1.8223596	1.3499479
26.751534126270258	1.78083	1.3344774
26.769549900255434	1.7536924	1.3242705
26.787566348241267	1.7945441	1.3396059
26.80558347074881	1.8025842	1.3426036
26.823601268299267	1.7988918	1.3412278
26.841619741414036	1.78967	1.3377855
26.85963889061465	1.7573631	1.3256557
26.877658716422832	1.7880356	1.3371745
26.89567921936045	1.8270167	1.3516718
26.913700399949544	1.8577577	1.3629959
26.93172225871233	1.8344892	1.3544332
26.949744796171174	1.8062468	1.3439668
26.967768012848605	1.7712319	1.3308764
26.98579190926733	1.7520561	1.3236526
27.003816485950225	1.8108393	1.3456743
27.021841743420318	1.8240792	1.3505847
27.039867682200814	1.8196346	1.3489383
27.057894302815072	1.853344	1.3613758
27.07592160578664	1.8478099	1.3593417
27.0939495916392	1.8325123	1.3537031
27.111978260896635	1.7985263	1.3410914
27.13000761408296	1.7952793	1.3398803
27.148037651722397	1.7773236	1.333163
27.166068374339304	1.7715611	1.3310001
27.184099782458215	1.746813	1.3216705
27.20213187660384	1.7481984	1.3221946
27.22016465730105	1.7818587	1.3348628
27.23819812507487	1.7767309	1.3329407
27.256232280450533	1.7534523	1.3241799
27.274267123953383	1.7456251	1.3212211
27.292302656108987	1.8231411	1.3502374
27.31033887744306	1.8430108	1.3575753
27.32837578848146	1.836958	1.3553443
27.34641338975026	1.7929906	1.339026
27.364451681775673	1.7969409	1.3405002
27.382490665084074	1.8300875	1.3528073
27.400530340202046	1.8423471	1.3573309
27.41857070765629	1.8325032	1.3536998
27.436611767973726	1.8288953	1.3523666
27.454653521681404	1.8457714	1.3585917
27.472695969306564	1.8569696	1.3627067
27.490739111376627	1.8574426	1.3628802
27.508782948419153	1.8808476	1.3714399
27.526827480961902	1.8360838	1.3550217
27.54487270953279	1.8292525	1.3524987
27.562918634659898	1.8012143	1.3420932
27.580965256871508	1.7960587	1.3401711
27.599012576696026	1.7655301	1.3287325
27.617060594662068	1.8041601	1.3431903
27.63510931129842	1.809558	1.3451982
27.65315872713401	1.7956	1.34
27.67120884269797	1.7754854	1.3324734
27.68925965851958	1.7886858	1.3374176
27.707311175128307	1.8148283	1.3471556
27.725363393053787	1.8877292	1.3739465
27.74341631282583	1.9104444	1.3821882
27.7614699349744	1.8682635	1.3668443
27.77952426002968	2.052905	1.4327962
27.797579288521973	2.161286	1.4701313
27.815635020981784	2.582751	1.6070939
27.83369145793979	2.6173656	1.6178274
27.85174859992682	2.446565	1.5641499
27.869806447473923	2.3090117	1.5195433
27.887865001112267	1.98603	1.4092658
27.905924261373233	1.8645991	1.3655032
27.92398422878836	1.8357795	1.3549094
27.94204490388936	1.811765	1.3460182
27.96010628720813	1.8161691	1.3476532
27.978168379276728	1.8144923	1.3470309
27.9962311806274	1.8070891	1.3442801
28.014294691792568	1.8377569	1.3556389
28.0323589133048	1.866614	1.3662409
28.050423845696887	1.8338643	1.3542025
28.068489489501758	1.8359387	1.3549682
28.086555845252523	1.8799268	1.3711042
28.104622913482487	1.9007493	1.3786767
28.122690694725115	1.8979503	1.3776611
28.14075918951405	1.89792	1.3776501
28.15882839838312	1.9227353	1.3866273
28.176898321866304	1.8877299	1.3739468
28.1949689604978	1.8896716	1.3746532
28.213040314811945	1.9513991	1.3969249
28.23111238534327	1.9656329	1.4020103
28.249185172626493	1.9408482	1.3931433
28.267258677196473	1.8907884	1.3750595
28.285332899588294	1.8973445	1.3774413
28.303407840337172	1.898447	1.3778415
28.321483499978545	1.9099976	1.3820267
28.33955987904799	1.8940623	1.3762493
28.357636978081285	1.9158225	1.3841324
28.37571479761439	1.9796177	1.4069889
28.393793338183425	2.0291488	1.424482
28.41187260032469	1.9981322	1.413553
28.429952584574686	1.992766	1.4116536
28.448033291470065	1.9860758	1.409282
28.46611472154769	1.930594	1.3894582
28.484196875344566	1.908094	1.3813378
28.502279753397914	1.9458739	1.3949459
28.52036335624511	1.9989328	1.4138362
28.538447684423716	2.0146606	1.4193875
28.556532738471482	2.0248456	1.4229707
28.574618518926325	1.998623	1.4137267
28.59270502632635	1.9622304	1.4007964
28.61079226120985	1.954148	1.3979084
28.628880224115274	1.9764036	1.4058462
28.646968915581287	1.973271	1.4047316
28.66505833614671	1.9930524	1.4117551
28.68314848635055	2.0624814	1.4361342
28.701239366732004	2.0291498	1.4244822
28.71933097783044	2.0323038	1.425589
28.737423320185403	2.0617714	1.435887
28.75551639433665	2.116246	1.4547323
28.773610200824074	2.1066928	1.4514451
28.791704740187793	2.067776	1.4379764
28.80980001296809	2.0653286	1.4371251
28.827896019705413	2.1661112	1.4717715
28.845992760940433	2.1712372	1.4735118
28.86409023721397	2.087979	1.4449841
28.88218844906704	2.0513914	1.4322679
28.900287397040845	2.1015482	1.4496717
28.918387081676755	2.1732433	1.4741924
28.936487503516343	2.2507064	1.5002354
28.954588663101365	2.263404	1.5044613
28.97269056097374	2.2923095	1.5140375
28.990793197675597	2.3116062	1.5203967
29.00889657374923	2.3283632	1.5258975
29.027000689737125	2.333218	1.5274875
29.04510554618196	2.3906739	1.5461804
29.06321114362659	2.4120433	1.5530754
29.08131748261405	2.4430747	1.5630338
29.099424563687567	2.4213583	1.5560714
29.11753238739057	2.44349	1.5631666
29.13564095426663	2.4864643	1.5768527
29.15375026485954	2.5768976	1.6052718
29.171860319713275	2.6527157	1.628716
29.18997111937199	2.7064857	1.64514
29.20808266438002	2.754043	1.659531
29.226194955281898	2.772971	1.665224
29.244307992622335	2.7925742	1.6710997
29.26242177694624	2.8384476	1.6847693
29.2805363087987	2.9043984	1.7042296
29.29865158872498	2.9508784	1.7178121
29.316767617270557	2.9718635	1.7239094
29.334884394981064	2.934419	1.7130146
29.353001922402367	2.883801	1.6981758
29.37112020008047	3.0020683	1.7326478
29.389239228561596	3.2110252	1.7919334
29.407359008392152	3.3757348	1.8373172
29.42547954011872	3.7147257	1.9273623
29.44360082428809	4.34178	2.083694
29.46172286144722	5.343438	2.3115878
29.479845652143283	6.849954	2.6172416
29.497969196923606	8.87911	2.9797835
29.516093496335728	11.45774	3.3849282
29.5342185509274	14.408246	3.7958195
29.55234436124651	16.813496	4.100426
29.570470927841175	18.138655	4.2589498
29.588598251259686	17.788006	4.2175827
29.60672633205055	16.525213	4.0651217
29.624855170762405	14.270456	3.7776258
29.642984767944146	11.600353	3.405929
29.66111512414481	8.939272	2.9898615
29.67924623991366	6.728756	2.5939846
29.697378115800138	5.122041	2.2631927
29.71551075235387	4.1494417	2.0370178
29.733644150124675	3.7185733	1.9283602
29.751778309662576	3.4767723	1.8646106
29.769913231517766	3.3660753	1.8346868
29.78804891624066	3.3995388	1.8437839
29.806185364381818	3.4985275	1.8704351
29.82432257649206	3.500005	1.87083
29.842460553122333	3.4067798	1.8457464
29.86059929482382	3.3649755	1.834387
29.878738802147872	3.3606153	1.8331981
29.896879075646048	3.380907	1.8387243
29.915020115870114	3.3362381	1.8265373
29.933161923371976	3.3128357	1.8201197
29.951304498703777	3.3261168	1.8237644
29.969447842417857	3.3016129	1.8170341
29.987591955066733	3.2247348	1.7957547
30.005736837203123	3.195223	1.7875187
30.023882489379943	3.1666253	1.7795014
30.04202891215028	3.1753926	1.7819631
30.060176106067455	3.215919	1.7932984
30.078324071684946	3.2251756	1.7958773
30.09647280955646	3.21393	1.7927437
30.114622320235863	3.151595	1.7752732
30.132772604277257	3.1911695	1.7863845
30.1509236622349	3.2336776	1.7982429
30.16907549466328	3.183106	1.784126
30.18722810211705	3.0992637	1.7604725
30.205381485151097	3.0646112	1.7506031
30.22353564432045	3.0671966	1.7513413
30.241690580180403	3.041271	1.743924
30.25984629328638	3.0317419	1.7411898
30.278002784194037	3.0379128	1.7429609
30.296160053459246	2.9970188	1.73119
30.314318101638033	2.9745378	1.7246848
30.332476929286646	2.9511738	1.7178981
30.35063653696153	3.0218754	1.7383542
30.368796925219307	2.9909844	1.7294463
30.386958094616844	2.9230075	1.7096806
30.40512004571115	2.8865578	1.6989872
30.423282779059463	2.85709	1.6902928
30.441446295219233	2.8113391	1.6767049
30.459610594748067	2.8185112	1.6788422
30.47777567820382	2.827468	1.6815076
30.495941546144504	2.8039587	1.6745025
30.51410819912835	2.8057053	1.6750239
30.532275637713795	2.7882376	1.6698017
30.55044386245946	2.790258	1.6704065
30.56861287392416	2.8252714	1.6808543
30.586782672666956	2.8504822	1.6883371
30.604953259247047	2.852484	1.6889298
30.623124634223885	2.871023	1.6944094
30.641296798157075	2.8528006	1.6890236
30.659469751606462	2.8543668	1.6894871
30.677643495132074	2.8117805	1.6768365
30.695818029294152	2.768104	1.663762
30.713993354653116	2.7537665	1.6594477
30.73216947176962	2.695342	1.6417497
30.75034638120448	2.6785564	1.6366296
30.768524083518756	2.7345133	1.6536363
30.786702579273673	2.7806783	1.6675366
30.80488186903069	2.744441	1.6566354
30.82306195335144	2.8544002	1.689497
30.841242832797782	3.1122804	1.7641656
30.85942450793176	3.4739742	1.86386
30.877606979315637	3.7284849	1.9309285
30.895790247511883	3.9269946	1.9816645
30.913974313083134	4.3174267	2.0778418
30.932159176592283	4.742901	2.1778202
30.95034483860237	4.8823028	2.2095933
30.968531299676698	4.655283	2.1576104
30.98671856037873	4.3341913	2.081872
31.00490662127215	3.9643016	1.9910554
31.023095482920848	3.4601235	1.8601407
31.04128514588892	3.0214353	1.7382276
31.059475610740662	2.6606445	1.6311482
31.07766687804056	2.5295753	1.5904639
31.09585894835335	2.5107462	1.5845335
31.11405182224393	2.4887886	1.5775895
31.132245500277417	2.4429371	1.5629898
31.15043998301914	2.42778	1.5581335
31.168635271034628	2.4274006	1.5580118
31.18683136488964	2.4433293	1.5631152
31.20502826515008	2.489633	1.5778571
31.223225972382135	2.529043	1.5902965
31.241424487152155	2.539203	1.5934876
31.259623810026692	2.4996364	1.5810238
31.27782394157253	2.42402	1.5569265
31.296024882356644	2.418543	1.5551666
31.314226632946237	2.3532648	1.5340354
31.332429193908684	2.3741465	1.5408266
31.350632565811598	2.448903	1.5648972
31.368836749222787	2.4581833	1.5678594
31.387041744710295	2.4989097	1.580794
31.40524755284232	2.5366936	1.5927001
31.423454174187317	2.5458677	1.5955776
31.441661609313922	2.6005375	1.6126182
31.459869858791002	2.5956779	1.6111108
31.478078923187628	2.48478	1.5763185
31.496288803073064	2.3885422	1.5454909
31.514499499016807	2.3745997	1.5409737
31.532711011588546	2.3797452	1.5426422
31.550923341358178	2.399651	1.5490807
31.56913648889584	2.3659477	1.5381638
31.587350454771844	2.3416567	1.5302472
31.605565239556732	2.309675	1.5197614
31.62378084382127	2.3070455	1.5188961
31.641997268136382	2.3463473	1.5317792
31.660214513073274	2.3049855	1.5182179
31.67843257920331	2.2453105	1.498436
31.6966514670981	2.2630587	1.5043466
31.71487117732944	2.3110647	1.5202186
31.733091710469346	2.3011186	1.5169438
31.751313067090052	2.2731075	1.5076828
31.769535247764008	2.3196588	1.5230426
31.787758253063878	2.3587575	1.5358247
31.805982083562526	2.3060067	1.5185541
31.824206739833024	2.2518613	1.5006204
31.84243222244869	2.2108116	1.4868798
31.860658531983013	2.2936409	1.5144771
31.878885669009737	2.3376794	1.5289471
31.897113634102784	2.3016956	1.517134
31.91534242783632	2.2205892	1.4901642
31.933572050784694	2.1934307	1.4810236
31.951802503522508	2.2671926	1.50572
31.970033786624548	2.2956634	1.5151447
31.988265900665834	2.3058052	1.5184878
32.006498846221575	2.2410939	1.4970284
32.02473262386724	2.1324234	1.460282
32.04296723417845	2.1158993	1.4546131
32.0612026777311	2.1833115	1.4776033
32.07943895510129	2.2638865	1.5046217
32.097676066865304	2.221006	1.490304
32.115914013599685	2.2214482	1.4904523
32.13415279588115	2.2251723	1.4917011
32.152392414286666	2.1444404	1.4643908
32.1706328693934	2.081027	1.4425765
32.18887416177875	2.0603652	1.4353973
32.20711629202032	2.0347111	1.426433
32.225359260695924	2.0960753	1.4477829
32.243603068383614	2.1371105	1.4618859
32.26184771566166	2.08935	1.4454584
32.28009320310852	2.0526829	1.4327188
32.2983395313029	2.0854826	1.44412
32.31658670082372	2.1101406	1.4526323
32.33483471225012	2.131343	1.459912
32.35308356616143	2.1033275	1.4502853
32.371333263137245	2.039465	1.4280983
32.38958380375734	2.087068	1.4446689
32.407835188601744	2.0480797	1.4311113
32.42608741825067	1.9630932	1.4011042
32.444340493284585	1.9525443	1.3973347
32.46259441428416	2.0601707	1.4353294
32.48084918183028	2.1435764	1.4640957
32.49910479650405	2.127226	1.4585013
32.51736125888683	2.0770047	1.4411817
32.53561856956014	2.0869677	1.4446341
32.5538767291058	2.0785253	1.4417092
32.572135738105764	2.1168227	1.4549305
32.59039559714228	2.1171947	1.4550583
32.608656306797776	2.0993543	1.4489149
32.62691786765491	2.0744302	1.4402882
32.645180280296586	2.0306475	1.4250079
32.663443545305896	2.0363476	1.4270065
32.68170766326619	2.0931566	1.4467745
32.69997263476099	2.122624	1.4569228
32.7182384603741	2.0973475	1.4482222
32.7365051406895	2.0271666	1.423786
32.75477267629144	1.9705944	1.4037787
32.77304106776434	1.9136463	1.3833461
32.79131031569289	1.8625004	1.3647345
32.809580420661966	1.90612	1.380623
32.827851383256714	1.9439121	1.3942425
32.84612320406245	1.8960396	1.3769675
32.86439588366476	1.8725886	1.3684256
32.88266942264945	1.8898559	1.3747203
32.9009438216025	1.9078813	1.3812608
32.9192190811102	1.9064924	1.3807579
32.937495201758985	1.9771935	1.4061271
32.95577218413556	2.0328057	1.4257649
32.974050028826866	2.027449	1.4238851
32.992328736420035	2.1047652	1.4507809
33.010608307502444	2.1137404	1.4538709
33.02888874266169	2.0412996	1.4287405
33.047170042485604	1.9555693	1.3984168
33.06545220756225	1.9316018	1.3898208
33.083735238479896	1.9438026	1.3942032
33.10201913582707	1.891227	1.3752189
33.12030390019248	1.8475794	1.3592569
33.138589532165135	1.9111644	1.3824487
33.15687603233419	1.9675207	1.4026834
33.17516340128909	1.9679791	1.4028468
33.19345163961947	1.9674063	1.4026426
33.211740747915215	1.9298362	1.3891854
33.23003072676643	1.9025435	1.3793272
33.248321576763466	1.899035	1.3780547
33.266613298496885	1.9322584	1.390057
33.28490589255747	1.9193379	1.3854017
33.30319935953626	1.957906	1.3992519
33.32149370002451	2.0810359	1.4425796
33.339788914613706	2.1333048	1.4605837
33.358085003895575	2.0675495	1.4378976
33.376381968462034	1.9407079	1.393093
33.39467980890529	1.8967406	1.3772221
33.41297852581774	1.9402856	1.3929414
33.43127811979204	1.9536768	1.3977399
33.44957859142105	1.912946	1.3830929
33.467879941297866	1.8224994	1.3499998
33.486182170015844	1.8275942	1.3518854
33.50448527816853	1.8890047	1.3744106
33.522789266349754	1.9712332	1.4040061
33.541094135153514	2.0046988	1.4158739
33.55939988517411	1.9858317	1.4091954
33.57770651700602	1.9060503	1.3805978
33.59601403124398	1.8601469	1.363872
33.61432242848296	1.9152824	1.3839372
33.632631709318154	1.9565257	1.3987586
33.650941874344994	1.9489038	1.3960315
33.66925292415916	1.9803091	1.4072345
33.68756485935654	2.0315104	1.4253106
33.70587768053328	2.0429904	1.4293321
33.724191388285746	2.013176	1.4188644
33.74250598321054	2.0519762	1.4324721
33.760821465904506	2.0181537	1.4206173
33.77913783696474	1.8787832	1.3706871
33.79745509698852	1.9204903	1.3858175
33.815773246573414	2.0694253	1.4385498
33.8340922863172	2.0514936	1.4323037
33.852412216817896	1.9018021	1.3790584
33.87073303867377	1.8175367	1.3481605
33.889054752483304	1.8964808	1.3771278
33.907377358845245	2.0142338	1.419237
33.92570085835853	2.0979934	1.4484452
33.94402525162239	2.0307457	1.4250424
33.96235053923627	2.0398097	1.4282191
33.980676721799824	1.8989084	1.3780088
33.999003799912984	1.838185	1.3557968
34.01733177417592	2.0153406	1.419627
34.03566064518901	2.1551676	1.4680489
34.0539904135529	2.0309627	1.4251184
34.07232107986846	1.9155627	1.3840386
34.090652644736785	1.8749644	1.3692933
34.108985108759235	1.8886687	1.3742884
34.12731847253742	1.95138	1.396918
34.14565273667313	1.9117305	1.3826535
34.16398790176847	1.9355701	1.3912476
34.18232396842574	1.984226	1.4086256
34.20066093724749	2.0003445	1.4143354
34.21899880883651	1.948122	1.3957515
34.23733758379583	2.0123143	1.4185606
34.25567726272874	1.9808465	1.4074255
34.27401784623872	1.9804637	1.4072895
34.29235933492957	1.9110299	1.3824
34.31070172940526	1.9256728	1.3876861
34.32904503027003	2.0315845	1.4253366
34.347389238128386	1.9645207	1.4016136
34.36573435358502	1.9609715	1.4003469
34.38408037724492	1.9380224	1.3921287
34.402427309713296	2.0794713	1.4420372
34.42077515159559	2.0922332	1.4464554
34.43912390349752	1.9769804	1.4060514
34.45747356602499	1.9821765	1.407898
34.47582413978423	1.9304732	1.3894147
34.49417562538163	1.8982838	1.3777822
34.51252802342388	1.9023902	1.3792716
34.53088133451789	2.0114362	1.4182512
34.54923555927084	2.0062041	1.4164053
34.567590698290104	1.9080834	1.381334
34.58594675218336	1.9286137	1.3887453
34.6043037215585	1.9811428	1.4075308
34.62266160702365	2.000374	1.4143459
34.641020409187234	1.9236628	1.3869617
34.65938012865785	1.9261824	1.3878697
34.677740766044394	2.1385598	1.4623816
34.69610232195598	2.158562	1.4692045
34.714464797002016	1.883376	1.3723614
34.73282819179208	1.8500434	1.360163
34.751192506936064	2.0675511	1.4378982
34.76955774304408	2.2868345	1.5122284
34.7879239007265	2.2303329	1.4934299
34.80629098059391	2.0240672	1.4226972
34.824658983257194	1.8990682	1.3780669
34.843027909327446	1.9747245	1.4052489
34.86139775941603	2.0470989	1.4307686
34.879768534134534	1.8632162	1.3649968
34.89814023409483	1.7772727	1.333144
34.91651285990901	1.99547	1.4126111
34.93488641218944	2.0713947	1.439234
34.95326089154871	2.0224998	1.4221462
34.97163629859967	1.7778356	1.3333551
34.99001263395542	1.6233863	1.2741218
35.00838989822934	1.7677038	1.3295503
35.02676809203499	1.9796786	1.4070106
35.04514721598624	1.9572997	1.3990353
35.063527270697215	1.935804	1.3913318
35.081908256782256	1.8604908	1.363998
35.10029017485597	1.835275	1.3547232
35.11867302553321	1.8366007	1.3552125
35.137056809429104	1.8463488	1.3588042
35.155441527159006	2.0057487	1.4162446
35.173827179338524	2.1048422	1.4508075
35.19221376658354	1.9673468	1.4026214
35.21060128951017	1.9937413	1.411999
35.2289897487348	2.0310898	1.425163
35.24737914487405	1.9139781	1.383466
35.26576947854479	1.7853812	1.3361815
35.28416075036418	1.6204945	1.2729864
35.30255296094958	1.6789137	1.295729
35.32094611091867	1.9096627	1.3819054
35.33934020088932	2.1468418	1.4652104
35.35773523147969	2.141502	1.4633871
35.3761312033082	2.2616136	1.5038662
35.394528116993506	2.2816608	1.5105168
35.41292597315452	2.1579185	1.4689856
35.431324772410434	1.7158788	1.3099155
35.449724515380666	1.7423228	1.3199707
35.46812520268491	2.2766564	1.5088593
35.486526834943106	2.5786676	1.605823
35.504929412775454	2.1757922	1.4750566
35.52333293680242	2.2239354	1.4912865
35.54173740764471	2.1498487	1.4662362
35.560142825923286	2.0304182	1.4249275
35.5785491922594	1.511016	1.2292339
35.59695650727454	1.2283918	1.1083283
35.61536477159042	1.4327071	1.1969575
