0.008763373481513119	0.0	0.0
0.026290120649546365	0.0	0.0
0.043816868432600686	0.0	0.0
0.06134361724069026	0.01719954	0.13114701
0.07887036748382949	0.07414247	0.27229115
0.0963971195720331	0.116477706	0.3412883
0.11392387391531617	0.15675323	0.39592072
0.1314506309236943	0.13058028	0.36135894
0.1489773910071836	0.14687456	0.38324216
0.16650415457580078	0.16997941	0.4122856
0.18403092203956356	0.21429792	0.46292323
0.20155769380849	0.24552472	0.4955045
0.2190844702925996	0.23987037	0.4897656
0.2366112519019124	0.24575967	0.49574155
0.2541380390464497	0.18677251	0.43217185
0.27166483213623416	0.17040677	0.41280356
0.28919163158128947	0.1809295	0.4253581
0.3067184377916406	0.18563582	0.43085477
0.324245251177314	0.15496705	0.39365855
0.34177207214833777	0.13926947	0.37318826
0.3592989011147415	0.1230484	0.35078254
0.37682573848655654	0.12478476	0.35324886
0.39435258467381573	0.1470534	0.38347542
0.41187944008655414	0.12276916	0.3503843
0.42940630513480854	0.18788247	0.43345413
0.446933180228618	0.22639862	0.47581363
0.4644600657780234	0.21291876	0.4614312
0.48198696219306775	0.19956563	0.4467277
0.49951386988379676	0.18717928	0.43264222
0.5170407892602581	0.22071168	0.4697996
0.5345677207325025	0.22312292	0.47235888
0.5520946647105822	0.22613113	0.47553247
0.5696216216045534	0.17458403	0.41783255
0.5871485918244737	0.19195697	0.43812895
0.6046755757804043	0.2509912	0.5009902
0.6222025738824094	0.26305336	0.5128873
0.6397295865405557	0.21124674	0.45961586
0.6572566141649129	0.12163164	0.34875727
0.6747836571655547	0.116553806	0.3413998
0.6923107159525568	0.17185034	0.41454837
0.7098377909359992	0.23662402	0.48644015
0.7273648825259653	0.26195043	0.51181096
0.7448919911325411	0.26299086	0.5128263
0.762419117165817	0.24021262	0.4901149
0.7799462610358868	0.19345874	0.43983945
0.7974734231528482	0.16808732	0.40998453
0.8150006039268024	0.16056392	0.40070426
0.8325278037678551	0.18364903	0.4285429
0.8500550230861152	0.20850338	0.4566217
0.8675822622916969	0.20391145	0.45156556
0.8851095217947171	0.19714281	0.44400766
0.9026368020052984	0.17674012	0.4204047
0.9201641033335665	0.20177822	0.4491973
0.9376914261896523	0.20581357	0.4536668
0.9552187709836915	0.22735967	0.47682247
0.9727461381258234	0.22185911	0.47101924
0.990273528026193	0.21758366	0.46645862
1.0078009410949496	0.22585261	0.47523952
1.0253283777422473	0.2610813	0.5109612
1.0428558383782454	0.2723369	0.5218591
1.0603833234131086	0.27737924	0.5266681
1.0779108332570058	0.26601118	0.5157627
1.0954383683201119	0.28898108	0.5375696
1.112965929012607	0.31557995	0.561765
1.1304935157446763	0.39413676	0.62780315
1.1480211289265108	0.42904428	0.6550147
1.1655487689683062	1.3498515	1.1618311
1.1830764362802655	1.6800425	1.2961645
1.200604131272596	2.1361542	1.4615588
1.2181318543555117	2.431941	1.5594682
1.235659605939232	2.4504704	1.5653979
1.253187386433982	3.9708824	1.9927073
1.270715196249994	6.3081365	2.5116005
1.2882430357975057	11.748869	3.4276624
1.3057709054867608	16.658184	4.081444
1.3232988057280106	22.70892	4.7653875
1.3408267369315112	27.991716	5.29072
1.358354699507526	31.839787	5.6426754
1.3758826938663256	35.73627	5.977982
1.3934107204181858	37.26335	6.1043715
1.410938779573391	37.490726	6.1229672
1.4284668717422309	38.207733	6.1812406
1.4459949973350033	37.898266	6.1561565
1.4635231567620117	37.75604	6.144594
1.4810513504335687	36.533707	6.044312
1.4985795787599925	35.626507	5.9687943
1.5161078421516088	34.77601	5.8971186
1.5336361410187505	34.107906	5.8401976
1.5511644757717598	34.317566	5.8581195
1.5686928468209842	35.10966	5.9253407
1.58622125457678	35.696293	5.9746375
1.6037496994495108	36.937645	6.077635
1.621278181849548	36.995934	6.0824285
1.6388067021872719	38.107437	6.173122
1.6563352608730693	37.632256	6.1345134
1.673863858317336	37.059544	6.087655
1.6913924949304753	35.985283	5.9987736
1.7089211711228998	34.668034	5.8879566
1.7264498873050296	33.699783	5.8051515
1.7439786438872935	32.75365	5.7230806
1.7615074412801288	31.831446	5.6419363
1.779036279893981	31.174852	5.5834446
1.796565160139305	30.196447	5.4951296
1.814094082426564	29.855202	5.463991
1.8316230471662298	29.210506	5.4046745
1.849152054768784	28.343716	5.3238816
1.8666811056447168	27.539347	5.2477946
1.8842102002045273	26.628176	5.1602497
1.901739338858724	26.066359	5.105522
1.9192685220178245	25.764912	5.075915
1.9367977500923557	25.27885	5.0278077
1.9543270234928547	24.482662	4.9479957
1.971856342629867	23.522987	4.8500504
1.9893857079139496	22.886702	4.7840047
2.006915119755667	22.500006	4.7434173
2.0244445785655945	22.250864	4.717082
2.0419740847543175	21.876503	4.6772323
2.0595036387324317	21.603779	4.6479864
2.0770332409105414	21.228073	4.6073933
2.094562891699263	20.938784	4.5758915
2.1120925915092217	20.393864	4.5159564
2.129622340751053	20.07165	4.4801393
2.1471521398354043	188.0531	13.713245
2.1646819891729323	444.24713	21.077171
2.182211889174303	440.60526	20.990599
2.1997418402501974	453.0723	21.285496
2.2172718428113023	432.9401	20.807213
2.234801897268317	320.76923	17.910032
2.2523320040319548	17.010036	4.1243224
2.269862163512935	16.743216	4.0918474
2.287392376121992	16.38228	4.047503
2.304922642269869	16.012915	4.001614
2.322452962367322	15.876427	3.9845233
2.3399833368251164	15.582149	3.947423
2.357513766054032	15.551521	3.9435418
2.3750442504648586	15.268743	3.9075239
2.3925747904683963	14.833776	3.8514643
2.410105386475459	14.4096	3.7959979
2.4276360388968707	14.137725	3.7600167
2.445166748143469	13.960848	3.7364218
2.4626975146261025	13.775456	3.7115302
2.4802283387556323	13.596884	3.6873953
2.4977592209429305	13.49191	3.6731336
2.5152901615988825	13.335636	3.651799
2.5328211611343865	13.075265	3.6159735
2.5503522199603523	12.733694	3.5684302
2.5678833384877024	12.70591	3.564535
2.5854145171273712	12.612293	3.551379
2.6029457562903064	12.341082	3.5129876
2.620477056387469	12.109734	3.4799042
2.6380084178298326	11.844994	3.4416556
2.655539841028383	11.667889	3.4158292
2.673071326394119	11.552833	3.3989458
2.6906028743380523	11.423342	3.3798435
2.708134485271211	11.280273	3.3586118
2.7256661596046325	11.068436	3.3269258
2.743197897749369	10.758056	3.2799475
2.760729700116486	10.574457	3.2518392
2.778261567117063	10.244993	3.2007802
2.795793499162193	10.1046295	3.178778
2.8133254966629817	10.049648	3.170118
2.830857560030551	9.982621	3.1595287
2.8483896896760337	9.801006	3.130656
2.865921886010578	9.680506	3.111351
2.883454149445347	9.441906	3.0727684
2.9009864803915177	9.388787	3.064113
2.91851887926028	9.254164	3.0420656
2.9360513464628384	9.079286	3.0131853
2.953583882410413	8.997817	2.9996362
2.9711164875142373	8.843288	2.9737668
2.9886491621855606	8.778058	2.9627788
3.0061819068356455	8.489383	2.9136546
3.023714721875769	8.452009	2.907234
3.041247607717225	8.343754	2.8885558
3.0587805647713213	8.308989	2.8825316
3.0763135934493806	8.357077	2.8908608
3.0938466941627407	8.26475	2.8748477
3.1113798673227544	8.160358	2.8566341
3.1289131133407904	8.01594	2.8312435
3.1464464326282315	7.882672	2.8076096
3.1639798255964786	7.7781363	2.7889311
3.1815132926569443	7.744352	2.7828677
3.1990468342210603	7.7608247	2.7858257
3.216580450700272	7.7737894	2.7881515
3.2341141425060416	7.6506395	2.765979
3.251647910049847	7.4880023	2.7364213
3.2691817537431813	7.3050227	2.7027805
3.286715673997555	7.107595	2.6660073
3.3042496712244938	7.0493813	2.6550672
3.32178374583554	6.9468846	2.6356943
3.339317898242251	6.897776	2.6263618
3.3568521288562034	6.8639884	2.6199214
3.3743864380889876	6.9752803	2.6410756
3.3919208263522127	6.9678106	2.639661
3.4094552940575023	6.7860203	2.604999
3.4269898416164972	6.659841	2.5806668
3.444524469440858	6.5081367	2.551105
3.4620591779422587	6.539545	2.5572534
3.479593967532391	6.5660925	2.5624387
3.4971288386229658	6.5355816	2.5564783
3.5146637916257086	6.5053654	2.5505617
3.5321988269523628	6.4148726	2.53276
3.5497339450146903	6.42507	2.5347722
3.5672691462244708	6.365088	2.5229125
3.5848044309934988	6.273012	2.5045981
3.60233979973359	6.2916036	2.508307
3.619875252856575	6.3815885	2.5261805
3.6374107907743034	6.4286284	2.535474
3.6549464138986427	6.424728	2.5347047
3.6724821226414788	6.324206	2.5147974
3.690017917414714	6.18753	2.4874747
3.7075537986302702	6.170749	2.4840994
3.7250897667000857	6.274972	2.5049894
3.7426258220361235	6.520825	2.5535905
3.7601619650503553	6.900899	2.6269562
3.777698196154779	7.4828405	2.7354782
3.7952345157614067	8.494413	2.9145176
3.8127709242822716	9.331961	3.0548258
3.830307422129425	11.52313	3.3945737
3.847844009714936	30.390593	5.5127664
3.8653806874508954	97.83731	9.891274
3.882917455749409	96.98896	9.848297
3.900454315022606	96.66648	9.831911
3.917991265682631	41.30363	6.42679
3.9355283081416506	11.001117	3.3167932
3.9530654428118495	8.764563	2.9605005
3.970602670105433	7.5474854	2.7472687
3.9881399904346244	6.631512	2.5751722
4.005677404211669	6.578806	2.5649183
4.023214911848827	6.5064363	2.5507717
4.0407525137583855	6.4416733	2.5380452
4.058290210352644	6.411631	2.53212
4.075828002043927	6.3609056	2.5220835
4.0933658892445814	6.3224654	2.5144513
4.110903872366966	6.1640935	2.4827592
4.128441951823468	6.104907	2.470811
4.145980128026488	6.073634	2.4644744
4.163518401388452	6.0744705	2.4646442
4.181056772321807	6.159238	2.4817812
4.1985952412390155	6.210436	2.4920747
4.216133808552567	6.292074	2.5084007
4.233672474674966	6.3646183	2.5228195
4.251211240018741	6.4228578	2.5343359
4.268750104996445	6.6601276	2.5807223
4.286289070020643	7.616314	2.759767
4.303828135503928	9.296765	3.0490596
4.3213673018589125	29.684282	5.4483285
4.3389065694982305	90.981636	9.538429
4.356445938834537	166.28906	12.895311
4.3739854102805085	171.7499	13.105338
4.391524984248844	172.56229	13.136296
4.409064661152262	136.41858	11.679836
4.426604441403504	96.6097	9.829023
4.444144325415337	75.7756	8.704918
4.461684313600543	21.936127	4.683602
4.47922440637193	22.546259	4.74829
4.496764604142329	20.90405	4.572095
4.5143049073245916	18.956522	4.353909
4.531845316331589	16.752924	4.093034
4.5493858315762195	13.721944	3.7043142
4.566926453471405	11.350939	3.3691154
4.584467182430081	9.387512	3.0639048
4.602008018865218	8.265084	2.874906
4.619548963189798	7.619787	2.7603962
4.637090015816834	7.0947475	2.6635966
4.654631177159353	6.806049	2.6088405
4.672172447630417	6.495816	2.5486891
4.689713827643102	6.339107	2.5177584
4.7072553176105085	6.102869	2.4703987
4.724796917945764	5.9966645	2.448809
4.742338629062015	5.8092937	2.4102476
4.759880451372434	5.7447333	2.3968174
4.777422385290215	5.737332	2.3952727
4.794964431228581	5.733481	2.3944688
4.812506589600768	5.792125	2.4066834
4.830048860820047	5.6970263	2.3868444
4.847591245299709	5.7431827	2.396494
4.8651337434530655	5.718613	2.3913622
4.882676355693457	5.6359367	2.3740127
4.900219082434242	5.531681	2.3519526
4.917761924088813	5.5342326	2.352495
4.935304881070575	5.5279326	2.3511555
4.952847953792969	5.5752215	2.3611908
4.970391142669449	5.5339785	2.352441
4.9879344481135055	5.5339975	2.3524451
5.005477870538642	5.456472	2.3359091
5.023021410358394	5.437062	2.3317509
5.040565067986324	5.4457154	2.3336058
5.05810884383601	5.4421716	2.3328462
5.075652738321066	5.451835	2.3349166
5.09319675185512	5.43112	2.3304763
5.110740884851836	5.468591	2.338502
5.128285137724894	5.5655336	2.3591383
5.145829510888007	5.5724726	2.3606086
5.163374004754908	5.551683	2.356201
5.1809186197393595	5.447386	2.3339636
5.198463356255145	5.3718405	2.317723
5.216008214716077	5.256009	2.2925987
5.233553195535998	5.232593	2.287486
5.251098299128764	5.2799654	2.2978175
5.268643525908272	5.2985377	2.3018553
5.286188876288432	5.285442	2.2990088
5.3037343506831895	5.26984	2.295613
5.32127994950651	5.2573886	2.2928996
5.3388256731723915	5.3029084	2.3028045
5.356371522094851	5.3170323	2.305869
5.373917496687938	5.285391	2.2989979
5.391463597365729	5.264869	2.2945304
5.40900982454232	5.2304373	2.287015
5.426556178631843	5.1838927	2.2768164
5.444102660048449	5.198775	2.2800822
5.4616492692063225	5.250536	2.2914047
5.479196006519669	5.2730417	2.2963104
5.496742872402727	5.36099	2.3153813
5.514289867269756	5.2717233	2.2960234
5.531836991535049	5.239196	2.288929
5.549384245612924	5.1655254	2.2727792
5.566931629917724	5.094913	2.2571914
5.584479144863822	5.1350408	2.2660627
5.6020267908656205	5.113712	2.2613518
5.619574568337545	5.1665587	2.2730064
5.637122477694054	5.103261	2.2590399
5.654670519349629	5.1469417	2.2686872
5.672218693718784	5.10514	2.2594557
5.689767001216059	5.047395	2.246641
5.707315442256021	5.0280237	2.2423255
5.724864017253266	5.0322986	2.2432785
5.7424127266224225	5.0906587	2.2562487
5.75996157077814	5.079547	2.2537851
5.777510550135105	5.050123	2.247248
5.795059665108022	5.0598984	2.2494218
5.812608916111639	5.0998282	2.25828
5.830158303560715	5.2160664	2.283871
5.847707827870055	5.255532	2.2924948
5.86525748945448	5.3882236	2.3212547
5.8828072887288485	5.4960604	2.3443677
5.900357226108044	5.561579	2.3583
5.917907302006979	5.635108	2.3738382
5.9354575168406	6.25046	2.500092
5.9530078710238765	6.9079013	2.6282887
5.970558364971812	7.569351	2.7512455
5.988108999099438	7.909107	2.8123136
6.005659773821818	8.477807	2.9116673
6.023210689554039	8.140459	2.853149
6.040761746711227	8.58293	2.9296637
6.058312945708531	7.9363875	2.8171594
6.075864286961132	7.481731	2.7352753
6.093415770884244	6.7877774	2.6053364
6.1109673978931065	6.179776	2.4859157
6.128519168402993	5.5191092	2.3492785
6.146071082829204	5.3431892	2.311534
6.163623141587075	5.224193	2.2856493
6.181175345091969	5.17284	2.2743878
6.198727693759281	5.1157527	2.261803
6.216280188004435	5.0843635	2.2548532
6.233832828242885	5.1412373	2.2674296
6.251385614890126	5.192115	2.2786212
6.268938548361669	5.25965	2.2933927
6.286491629073067	5.1726947	2.274356
6.304044857439898	5.1166244	2.2619956
6.321598233877777	5.0115275	2.2386441
6.339151758802344	4.9889355	2.2335925
6.356705432629277	5.0010066	2.236293
6.37425925577428	4.9708023	2.2295296
6.391813228653095	4.99088	2.2340279
6.409367351681486	4.995755	2.2351186
6.426921625275259	5.0142665	2.239256
6.44447604985025	4.965191	2.2282708
6.46203062582232	5.0575852	2.2489076
6.47958535360737	5.1097574	2.2604773
6.497140233621328	5.1557713	2.2706323
6.514695266280161	5.122599	2.263316
6.532250451999859	5.0550985	2.2483547
6.549805791196454	5.0019298	2.2364995
6.567361284286002	4.9810476	2.231826
6.584916931684597	4.97132	2.2296457
6.602472733808367	5.0227947	2.2411592
6.6200286910734665	5.0546045	2.2482448
6.637584803896092	5.080291	2.25395
6.655141072692462	5.006542	2.2375305
6.672697497878842	5.0127707	2.2389216
6.690254079871514	5.049502	2.2471097
6.707810819086808	5.0795255	2.2537804
6.725367715941078	5.045476	2.2462137
6.742924770850719	4.9413524	2.2229152
6.760481984232151	4.92278	2.2187338
6.778039356501836	4.964849	2.228194
6.795596888076266	4.9318485	2.2207766
6.813154579371963	4.9123034	2.2163718
6.830712430805492	4.8889894	2.2111058
6.84827044279344	4.93537	2.2215693
6.865828615752445	4.966099	2.2284746
6.883386950099159	4.9584317	2.2267537
6.900945446250287	4.988953	2.2335966
6.918504104622553	5.0467668	2.246501
6.936062925632727	5.0873713	2.25552
6.953621909697607	5.0544004	2.2481995
6.971181057234028	5.058894	2.2491987
6.988740368658859	5.0889535	2.2558708
7.006299844389007	5.1644583	2.2725444
7.023859484841407	5.2019515	2.2807786
7.041419290433036	5.3007007	2.302325
7.058979261580902	5.372844	2.3179398
7.0765393987020495	5.6236296	2.3714194
7.094099702213559	6.028709	2.455343
7.111660172532549	6.494635	2.5484574
7.129220810076164	6.859929	2.6191466
7.146781615261595	7.4166493	2.7233527
7.16434258850606	7.6164865	2.7597983
7.181903730226821	7.981807	2.8252091
7.1994650408411704	8.086579	2.843691
7.217026520766437	8.257641	2.8736112
7.234588170419983	8.609139	2.9341335
7.252149990219215	8.594772	2.9316843
7.269711980581568	8.472437	2.9107451
7.2872741419245175	8.252769	2.8727634
7.304836474665574	7.805728	2.7938733
7.322398979222286	7.511858	2.7407768
7.339961656012233	7.209015	2.6849608
7.357524505453039	6.8745313	2.6219327
7.375087527962357	6.5392666	2.557199
7.392650723957886	6.2507987	2.5001597
7.410214093857353	5.92085	2.4332798
7.427777638078528	5.71035	2.389634
7.445341357039213	5.5228233	2.3500688
7.4629052511572525	5.3465	2.31225
7.480469320850524	5.203054	2.2810204
7.498033566536948	5.118631	2.2624393
7.5155979886344735	5.0486107	2.2469113
7.5331625875610975	5.065707	2.2507126
7.550727363734844	5.146167	2.2685165
7.568292317573788	5.188519	2.277832
7.585857449496025	5.18505	2.2770705
7.603422759919705	5.2121086	2.2830043
7.620988249263007	5.236252	2.2882857
7.638553917944147	5.2423353	2.2896147
7.656119766381391	5.167375	2.2731862
7.673685794993023	5.1741967	2.274686
7.691252004197388	5.1753664	2.274943
7.70881839441285	5.1644664	2.2725463
7.726384966057826	5.1146493	2.261559
7.743951719550762	5.1210628	2.2629764
7.761518655310149	5.1887803	2.2778895
7.779085773754511	5.26617	2.2948136
7.796653075302419	5.339489	2.3107333
7.814220560372475	5.315847	2.305612
7.831788229383323	5.2810545	2.2980545
7.8493560827536495	5.2894673	2.2998843
7.866924120902174	5.353581	2.3137805
7.884492344247663	5.3988085	2.3235335
7.9020607532089135	5.3779955	2.3190506
7.919629348204771	5.3819156	2.3198955
7.937198129654115	5.37652	2.3187325
7.954767097975865	5.420469	2.32819
7.972336253588986	5.3960447	2.322939
7.989905596912472	5.383854	2.3203132
8.007475128365371	5.40169	2.3241537
8.025044848366756	5.471575	2.3391397
8.042614757335754	5.597905	2.3659892
8.060184855691523	5.6911526	2.3856137
8.07775514385327	5.8705792	2.4229279
8.095325622240228	5.9541683	2.4401164
8.112896291271687	5.9708543	2.4435332
8.130467151366968	5.9978495	2.4490507
8.148038202945436	6.020139	2.4535973
8.165609446426497	6.066098	2.462945
8.183180882229594	6.1166525	2.4731867
8.200752510774217	6.069542	2.463644
8.218324332479893	6.078307	2.4654224
8.235896347766193	6.027971	2.4551926
8.253468557052724	6.0401964	2.4576812
8.27104096075914	6.034347	2.4564908
8.288613559305137	6.07706	2.4651694
8.306186353110448	6.1483645	2.4795897
8.32375934259485	6.2365174	2.497302
8.341332528178162	6.272553	2.5045066
8.358905910280246	6.3105707	2.512085
8.376479489321003	6.3309875	2.5161455
8.394053265720377	6.40185	2.5301878
8.411627239898356	6.3521013	2.5203376
8.42920141227497	6.2895184	2.5078912
8.44677578327029	6.201671	2.4903154
8.464350353304427	6.17216	2.4843833
8.48192512279754	6.1792808	2.485816
8.499500092169827	6.187361	2.4874406
8.51707526184153	6.219526	2.4938977
8.534650632232934	6.212063	2.4924011
8.552226203764365	6.218787	2.4937496
8.569801976856192	6.182921	2.486548
8.587377951928834	6.2375975	2.4975183
8.60495412940274	6.3055663	2.5110886
8.622530509698416	6.400932	2.5300064
8.6401070932364	6.461237	2.5418963
8.657683880437283	6.534706	2.556307
8.675260871721695	6.672835	2.583183
8.692838067510303	6.9082713	2.628359
8.710415468223834	7.0734396	2.6595938
8.727993074283043	7.187094	2.6808755
8.745570886108737	7.2011495	2.6834958
8.763148904121765	7.2641096	2.6952012
8.78072712874302	7.2458005	2.6918025
8.798305560393441	7.4342065	2.7265742
8.815884199494006	7.618517	2.7601662
8.833463046465745	7.863475	2.8041887
8.851042101729728	8.039334	2.835372
8.86862136570707	8.274176	2.8764868
8.886200838818924	8.396978	2.897754
8.903780521486505	8.361663	2.891654
8.921360414131055	8.488118	2.9134376
8.938940517173874	8.594663	2.9316654
8.956520831036297	8.813498	2.9687536
8.97410135613971	9.062024	3.0103197
8.99168209290554	9.230889	3.0382378
9.009263041755265	9.463887	3.076343
9.026844203110405	9.680316	3.1113207
9.044425577392525	9.838671	3.1366656
9.062007165023239	9.8657255	3.1409752
9.079588966424197	10.121469	3.1814256
9.097170982017108	10.347545	3.21676
9.11475321222372	11.458465	3.3850353
9.132335657465825	12.433849	3.5261664
9.149918318165264	12.515824	3.537771
9.167501194743924	13.10868	3.6205912
9.18508428762374	12.759481	3.5720417
9.202667597226693	12.708043	3.564834
9.220251123974803	12.343603	3.5133464
9.237834868290143	12.049098	3.4711812
9.255418830594836	11.807974	3.4362733
9.273003011311046	11.283228	3.3590517
9.290587410860985	11.008119	3.3178484
9.308172029666911	10.419851	3.2279794
9.32575686815113	10.1781225	3.190317
9.343341926735997	8.923368	2.9872007
9.360927205843916	8.653518	2.9416862
9.378512705897327	8.468326	2.9100387
9.396098427318728	8.265545	2.8749862
9.413684370530664	8.177963	2.8597138
9.431270535955722	8.059246	2.838881
9.448856924016539	7.9495277	2.8194907
9.466443535135806	7.7700768	2.7874858
9.484030369736251	7.806482	2.7940083
9.501617428240658	7.7544336	2.7846785
9.519204711071852	7.863114	2.8041244
9.536792218652714	7.84365	2.8006518
9.55437995140617	7.838929	2.7998087
9.571967909755191	7.842246	2.800401
9.589556094122802	7.8412833	2.800229
9.60714450493207	7.9232597	2.8148286
9.624733142606116	7.9719687	2.8234675
9.642322007568108	8.023623	2.8326
9.659911100241267	8.105815	2.8470714
9.677500421048851	8.104049	2.846761
9.695089970414175	8.077434	2.8420825
9.712679748760609	7.948748	2.8193524
9.730269756511557	7.982403	2.8253145
9.747859994090492	8.055153	2.83816
9.765450461920915	8.162437	2.856998
9.78304116042639	8.16387	2.8572485
9.800632090030527	8.163721	2.8572226
9.81822325115699	8.222809	2.867544
9.835814644229481	8.272574	2.8762083
9.853406269671762	8.304295	2.8817172
9.870998127907646	8.271637	2.8760455
9.888590219360985	8.352899	2.8901381
9.906182544455698	8.360752	2.8914964
9.923775103615734	8.350948	2.8898008
9.941367897265108	8.307186	2.882219
9.958960925827878	8.263016	2.8745463
9.97655418972816	8.229819	2.868766
9.994147689390106	8.226875	2.868253
10.011741425237934	8.175319	2.8592515
10.029335397695904	8.224826	2.8678956
10.04692960718833	8.227421	2.8683481
10.06452405413958	8.289395	2.879131
10.082118738974064	8.273191	2.8763156
10.099713662116246	8.282987	2.878018
10.117308823990651	8.221957	2.8673956
10.134904225021844	8.219749	2.8670106
10.152499865634445	8.231111	2.8689911
10.170095746253125	8.330375	2.8862388
10.18769186730261	8.334873	2.887018
10.205288229207675	8.375544	2.8940532
10.222884832393145	8.368989	2.8929205
10.2404816772839	8.328185	2.8858595
10.258078764304868	8.284874	2.8783457
10.275676093881035	8.197214	2.8630776
10.293273666437438	8.137097	2.8525598
10.310871482399158	8.195011	2.862693
10.32846954219134	8.174565	2.8591197
10.346067846239173	8.256874	2.8734777
10.363666394967908	8.127727	2.8509169
10.38126518880283	8.097085	2.8455377
10.398864228169298	8.153568	2.8554454
10.416463513492713	8.236717	2.8699682
10.434063045198531	8.276352	2.876865
10.451662823712262	8.268633	2.875523
10.469262849459467	8.24163	2.8708239
10.486863122865758	8.155249	2.8557396
10.504463644356806	8.120128	2.8495839
10.522064414358338	8.055812	2.8382761
10.539665433296118	7.978321	2.824592
10.557266701595987	7.923649	2.8148978
10.574868219683818	7.8003187	2.792905
10.592469987985552	7.7256794	2.7795107
10.610072006927185	7.6391788	2.7639065
10.627674276934751	7.5793123	2.753055
10.64527679843435	7.465423	2.7322927
10.662879571852143	7.3948007	2.7193382
10.680482597614331	7.259927	2.694425
10.698085876147173	7.1785617	2.6792839
10.715689407876988	7.01647	2.6488621
10.733293193230146	6.886766	2.624265
10.750897232633072	6.7758317	2.6030428
10.76850152651225	6.727392	2.5937216
10.786106075294207	6.6464586	2.5780725
10.803710879405534	6.5001674	2.5495427
10.821315939272877	6.386063	2.527066
10.83892125532294	6.335913	2.517124
10.856526827982472	6.3211226	2.5141842
10.874132657678285	6.3192844	2.5138187
10.891738744837243	6.2728424	2.5045643
10.909345089886271	6.195909	2.4891584
10.926951693252343	6.144546	2.4788194
10.944558555362494	6.0332875	2.4562752
10.96216567664381	6.013918	2.4523292
10.979773057523436	5.935671	2.4363232
10.997380698428573	5.850601	2.4188015
11.014988599786477	5.7985454	2.408017
11.032596762024461	5.754831	2.398923
11.050205185569892	5.73066	2.3938797
11.067813870850198	5.681902	2.3836741
11.085422818292859	5.5981536	2.3660417
11.10303202832541	5.510138	2.3473682
11.120641501375454	5.448015	2.3340983
11.138251237870636	5.3942094	2.3225436
11.155861238238671	5.357956	2.3147259
11.173471502907317	5.2627974	2.2940788
11.191082032304402	5.1820774	2.2764177
11.208692826857805	5.13928	2.266998
11.226303886995465	5.032879	2.243408
11.243915213145371	4.987527	2.233277
11.261526805735578	4.9183774	2.2177415
11.279138665194196	4.9435015	2.2233987
11.296750791949393	4.875571	2.2080696
11.314363186429393	4.812258	2.1936858
11.331975849062479	4.7460938	2.178553
11.34958878027699	4.6382027	2.1536486
11.36720198050133	4.6322527	2.152267
11.384815450163948	4.578454	2.1397321
11.402429189693366	4.5128255	2.1243412
11.420043199518153	4.481189	2.1168818
11.437657480066942	63.44861	7.9654636
11.455272031768422	85.16431	9.228451
11.472886855051353	107.53262	10.369794
11.490501950344528	99.11082	9.955441
11.508117318076819	84.45812	9.19011
11.52573295867715	45.871494	6.7728496
11.543348872574514	4.15422	2.0381904
11.560965060197946	4.134094	2.0332472
11.57858152197655	4.080362	2.0199904
11.59619825833949	4.057099	2.014224
11.613815269715985	4.078389	2.0195022
11.631432556535323	38.634693	6.215681
11.649050119226837	83.16319	9.119386
11.666667958219929	93.4857	9.6688
11.68428607394406	107.715225	10.378594
11.701904466828756	82.5069	9.083331
11.719523137303586	65.3428	8.083489
11.737142085798196	4.5549545	2.134234
11.754761312742286	3.7129958	1.9269135
11.772380818565619	3.7197669	1.9286697
11.790000603698015	3.7220988	1.9292742
11.80762066856935	3.6818771	1.9188218
11.825241013609572	3.6202464	1.9026945
11.842861639248683	3.594553	1.8959306
11.860482545916748	3.527483	1.8781595
11.878103734043883	3.485872	1.867049
11.895725204060282	3.4179945	1.848782
11.91334695639619	3.3937297	1.8422078
11.930968991481919	3.3703873	1.8358614
11.948591309747824	3.3204527	1.8222109
11.966213911624347	3.3058953	1.8182122
11.98383679754198	3.2613966	1.8059337
12.001459967931268	3.2583268	1.8050836
12.019083423222835	3.2311192	1.7975314
12.036707163847352	3.2172055	1.7936571
12.05433119023556	3.2066886	1.790723
12.071955502818259	3.1711845	1.780782
12.089580102026313	3.1760614	1.7821507
12.107204988290643	3.1607044	1.777837
12.12483016204224	3.135141	1.7706329
12.142455623712152	3.1390443	1.7717348
12.16008137373149	3.1096518	1.7634205
12.177707412531431	3.133183	1.77008
12.19533374054321	3.1186295	1.7659642
12.212960358198126	3.116408	1.7653351
12.230587265927545	3.077672	1.7543296
12.248214464162889	3.062566	1.7500188
12.265841953335649	3.0233297	1.7387725
12.283469733877375	2.9739454	1.724513
12.301097806219685	2.954942	1.7189945
12.31872617079425	2.9385457	1.7142187
12.336354828032825	2.9707768	1.7235942
12.353983778367205	2.960329	1.7205607
12.371613022229262	2.926478	1.7106951
12.389242560050928	2.8759694	1.6958684
12.406872392264201	2.8520157	1.6887912
12.424502519301143	2.881834	1.6975965
12.442132941593874	2.8947635	1.7014004
12.459763659574586	2.8770201	1.6961781
12.477394673675532	2.8541224	1.6894149
12.49502598432903	2.867725	1.6934358
12.51265759196746	2.861363	1.6915563
12.530289497023267	2.857752	1.6904887
12.547921699928967	2.827827	1.6816144
12.565554201117134	2.8429968	1.6861188
12.583187001020404	2.8509212	1.6884671
12.600820100071486	2.8256598	1.6809698
12.618453498703152	2.8386436	1.6848274
12.636087197348235	2.8220072	1.6798831
12.65372119643964	2.8196516	1.6791818
12.671355496410326	2.792204	1.6709889
12.68899009769333	2.8016076	1.6738003
12.706625000721749	2.816386	1.6782092
12.724260205928752	2.8949468	1.7014543
12.741895713747551	2.937548	1.7139276
12.759531524611454	2.9933379	1.7301265
12.777167638953818	2.9918828	1.7297059
12.794804057208072	2.9888842	1.7288389
12.812440779807702	3.025084	1.7392769
12.830077807186271	3.197856	1.788255
12.847715139777405	3.2915049	1.8142505
12.865352778014795	3.4844692	1.8666734
12.882990722332197	3.5822432	1.8926815
12.90062897316344	3.6262233	1.9042646
12.918267530942412	3.6647072	1.9143425
12.935906396103071	3.5381248	1.8809904
12.953545569079449	3.6979742	1.9230118
12.971185050305628	3.5517879	1.8846188
12.988824840215775	3.6481278	1.9100072
13.006464939244115	3.634433	1.9064189
13.024105347824943	3.4933314	1.8690456
13.041746066392617	3.5388985	1.881196
13.05938709538157	3.347884	1.8297224
13.077028435226296	3.383937	1.839548
13.094670086361363	3.2569754	1.8047092
13.112312049221401	3.1689606	1.7801574
13.129954324241112	3.065436	1.7508386
13.147596911855258	2.8717515	1.6946243
13.165239812498685	2.8491602	1.6879456
13.182883026606293	2.8078191	1.6756549
13.200526554613058	2.7639968	1.6625272
13.218170396954017	2.7263582	1.6511687
13.235814554064284	2.6889265	1.6397946
13.253459026379034	2.7073982	1.6454173
13.271103814333523	2.7155244	1.6478848
13.288748918363058	2.7172675	1.6484137
13.306394338903031	2.6435075	1.6258867
13.32404007638889	2.6094797	1.6153884
13.341686131256164	2.625031	1.6201948
13.359332503940449	2.633108	1.6226854
13.376979194877402	2.6428218	1.6256758
13.394626204502751	2.6274412	1.6209383
13.412273533252307	2.6455135	1.6265035
13.429921181561937	2.6923282	1.6408316
13.447569149867581	2.74774	1.6576308
13.465217438605247	2.7379515	1.6546756
13.482866048211022	2.7083385	1.6457031
13.500514979121052	2.7288976	1.6519375
13.518164231771568	2.7153249	1.6478243
13.535813806598844	2.7238092	1.6503967
13.553463704039254	2.707252	1.6453729
13.571113924529229	2.712718	1.6470331
13.588764468505275	2.7181187	1.6486717
13.606415336403956	2.7494404	1.6581436
13.624066528661917	2.770042	1.6643443
13.641718045715882	2.7998488	1.6732749
13.659369888002635	2.8143592	1.6776052
13.67702205595903	2.8743162	1.6953808
13.694674550021993	2.9891999	1.7289302
13.712327370628532	3.062623	1.7500352
13.729980518215713	3.1015713	1.7611278
13.747633993220681	3.155947	1.7764986
13.765287796080647	3.219206	1.7942146
13.7829419272329	3.29627	1.8155632
13.800596387114801	3.3163338	1.8210803
13.818251176163775	3.3509219	1.8305523
13.835906294817324	3.4329312	1.852817
13.853561743513023	3.471685	1.8632458
13.871217522688525	3.496797	1.8699725
13.888873632781538	3.5064447	1.8725504
13.906530074229858	3.5549517	1.885458
13.92418684747135	3.5626202	1.8874904
13.941843952943948	3.555697	1.8856555
13.959501391085665	3.492936	1.8689398
13.977159162334578	3.4020457	1.8444636
13.994817267128846	3.3175952	1.8214267
14.012475705906693	3.2317433	1.797705
14.030134479106424	3.1644123	1.7788795
14.047793587166414	3.1388323	1.771675
14.065453030525108	3.0851176	1.7564503
14.083112809621026	3.0395453	1.7434292
14.100772924892766	2.9363136	1.7135675
14.118433376778997	2.8833764	1.6980507
14.136094165718458	2.8321595	1.6829021
14.153755292149969	2.7945888	1.6717024
14.171416756512416	2.743907	1.6564742
14.189078559244768	2.6628778	1.6318326
14.20674070078606	2.586614	1.6082953
14.224403181575408	2.5481813	1.5963024
14.242066002051999	2.4931436	1.5789691
14.259729162655093	2.4336107	1.5600034
14.277392663824022	2.401575	1.5497016
14.295056505998208	2.437059	1.5611082
14.312720689617128	2.4361475	1.5608163
14.330385215120348	2.422092	1.5563072
14.348050082947497	2.4179738	1.5549835
14.3657152935383	2.4186966	1.555216
14.383380847332528	2.407965	1.5517619
14.401046744770051	2.3591433	1.5359503
14.418712986290798	2.3363643	1.528517
14.436379572334793	2.3601072	1.5362641
14.454046503342123	2.3831816	1.5437557
14.471713779752946	2.3802142	1.5427943
14.489381402007504	2.3854923	1.5445039
14.507049370546113	2.3745513	1.5409579
14.524717685809168	2.412043	1.5530753
14.542386348237134	2.4467142	1.5641977
14.560055358270553	2.454409	1.5666553
14.577724716350051	2.4783478	1.5742769
14.595394422916325	2.478903	1.5744532
14.61306447841015	2.4742758	1.5729831
14.63073488327237	2.4678087	1.5709261
14.648405637943917	2.4566438	1.5673684
14.6660767428658	2.4422843	1.562781
14.683748198479094	2.470266	1.571708
14.701420005224954	2.5364866	1.5926352
14.719092163544628	2.6249347	1.620165
14.73676467387942	2.678428	1.6365904
14.754437536670727	2.6904457	1.6402578
14.772110752360014	2.691049	1.6404418
14.78978432138882	2.6825333	1.6378441
14.807458244198777	2.6756926	1.6357545
14.82513252123159	2.6414363	1.6252496
14.842807152929028	2.6653821	1.6325998
14.860482139732962	2.6542184	1.6291772
14.87815748208531	2.6582966	1.6304283
14.8958331804281	2.6556578	1.6296189
14.91350923520342	2.6556668	1.6296216
14.931185646853438	2.654712	1.6293287
14.948862415820408	2.6144145	1.6169151
14.966539542546656	2.6434681	1.6258745
14.98421702747459	2.605018	1.6140068
15.001894871046696	2.6386755	1.6244
15.019573073705542	2.645202	1.6264076
15.037251635893766	2.623997	1.6198756
15.054930558054092	2.6407678	1.625044
15.072609840629323	2.6630979	1.6319001
15.090289484062351	2.8149483	1.6777807
15.107969488796124	3.079758	1.7549239
15.125649855273691	3.4854264	1.8669297
15.14333058393817	4.0038733	2.0009682
15.161011675232768	5.0124254	2.2388446
15.17869312960076	6.43777	2.537276
15.196374947485506	8.297638	2.880562
15.214057129330447	11.464551	3.3859344
15.231739675579114	16.214394	4.02671
15.249422586675102	21.43729	4.630042
15.267105863062092	24.547289	4.954522
15.284789505183847	24.87417	4.987401
15.302473513484218	22.646688	4.758854
15.320157888407127	19.062181	4.366026
15.337842630396578	14.823369	3.850113
15.355527739896656	11.556428	3.3994746
15.37321321735153	8.985114	2.997518
15.39089906320545	6.5456796	2.5584526
15.408585277902748	4.887595	2.2107906
15.42627186188783	3.7287912	1.9310079
15.443958815605198	3.210126	1.7916825
15.461646139499424	2.9321368	1.7123483
15.479333834015168	2.7696657	1.6642313
15.497021899597165	2.6669424	1.6330776
15.514710336690234	2.6326475	1.6225436
15.53239914573928	2.6286688	1.621317
15.550088327189297	2.605677	1.614211
15.567777881485336	2.5625458	1.6007954
15.58546780907256	2.502357	1.581884
15.6031581103962	2.4763036	1.5736275
15.620848785901568	2.450739	1.5654836
15.638539836034063	2.4436877	1.5632299
15.656231261239173	2.4436288	1.5632111
15.673923061962451	2.4210546	1.5559739
15.691615238649552	2.3983743	1.5486685
15.709307791746202	2.4240289	1.5569293
15.727000721698221	2.4618692	1.5690345
15.744694028951498	2.4986143	1.5807005
15.76238771395202	2.4386609	1.5616212
15.780081777145844	2.383767	1.5439452
15.797776218979125	2.360622	1.5364316
15.815471039898094	2.3715866	1.5399957
15.833166240349064	2.3860254	1.5446764
15.850861820778437	2.396653	1.5481128
15.868557781632699	2.3663728	1.538302
15.886254123358412	2.344759	1.5312606
15.903950846402232	2.3642263	1.5376041
15.921647951210897	2.391497	1.5464466
15.939345438231225	2.4025004	1.5500001
15.957043307910133	2.38946	1.5457878
15.974741560694602	2.3713152	1.5399076
15.992440197031714	2.3494132	1.5327796
16.01013921736862	2.3806355	1.5429308
16.02783862215259	2.4156256	1.5542283
16.045538411830933	2.4279017	1.5581726
16.06323858685107	2.3857985	1.544603
16.080939147660512	2.3656237	1.5380584
16.09864009470684	2.3695135	1.5393224
16.11634142843774	2.4129248	1.5533592
16.134043149300954	2.4296467	1.5587324
16.15174525774433	2.438963	1.561718
16.169447754215817	2.4298158	1.5587866
16.18715063916342	2.4122329	1.5531365
16.204853913035244	2.4121532	1.5531108
16.222557576279478	2.4388518	1.5616823
16.240261629344403	22.42913	4.7359405
16.257966072678386	43.00048	6.557475
16.275670906729868	38.131737	6.17509
16.293376131947387	2.6128454	1.6164298
16.31108174877957	2.6288164	1.6213624
16.328787757675133	2.6313198	1.6221343
16.34649415908287	2.5795565	1.6060997
16.364200953451657	2.5840485	1.6074976
16.38190814123048	2.5708208	1.6033779
16.39961572286839	2.6099436	1.615532
16.41732369881455	2.6655884	1.632663
16.43503206951817	2.6898258	1.6400689
16.45274083542859	2.732186	1.6529325
16.47044999699522	2.7538972	1.659487
16.488159554667558	2.7993104	1.673114
16.505869508895184	2.8906448	1.7001896
16.523579860127786	2.954303	1.7188087
16.541290608815117	3.017585	1.7371198
16.559001755407035	3.0178099	1.7371845
16.57671330035348	3.0543308	1.7476643
16.59442524410448	3.077544	1.754293
16.61213758711015	3.1745193	1.7817181
16.629850329820705	3.2415411	1.800428
16.647563472686436	3.3804858	1.8386097
16.665277016157724	3.4244063	1.8505151
16.682990960685053	3.4485266	1.8570209
16.70070530671898	3.4634068	1.8610231
16.718420054710155	3.5274787	1.8781583
16.736135205109335	3.5649695	1.8881127
16.753850758367335	3.5673094	1.8887322
16.771566714935087	3.6340322	1.9063138
16.789283075263597	3.726805	1.9304935
16.80699983980398	3.830067	1.9570557
16.82471700900741	3.8595564	1.9645754
16.84243458332518	3.9208052	1.9801023
16.860152563208665	3.9490674	1.987226
16.87787094910932	4.005227	2.0013063
16.89558974147871	4.104346	2.0259185
16.913308940768466	4.162469	2.0402129
16.931028547430333	4.1952257	2.048225
16.94874856191613	4.2725	2.0670028
16.966468984677785	4.368547	2.090107
16.98418981616729	4.41636	2.1015136
17.00191105683676	4.4003406	2.097699
17.019632707138374	4.4481072	2.1090536
17.03735476752442	4.550213	2.1331227
17.05507723844728	4.5646296	2.1364994
17.072800120359403	4.618278	2.1490178
17.090523413713353	4.6218834	2.1498566
17.108247118961785	4.637023	2.1533747
17.125971236557437	4.654845	2.157509
17.143695766953133	4.668115	2.160582
17.161420710601806	4.674832	2.1621358
17.179146067956477	4.7020893	2.16843
17.19687183947025	4.6901736	2.165681
17.21459802559634	4.6587906	2.1584232
17.232324626788028	4.6386547	2.1537535
17.25005164349871	4.6317263	2.1521447
17.267779076181863	4.6398582	2.154033
17.285506925291074	4.6256685	2.1507368
17.30323519127999	4.625953	2.1508029
17.320963874602384	4.6391325	2.1538646
17.33869297571211	4.6289816	2.151507
17.356422495063114	4.5833426	2.1408741
17.37415243310944	4.584532	2.141152
17.391882790305218	4.60265	2.1453788
17.40961356710468	4.572222	2.1382756
17.42734476396215	4.4982595	2.1209102
17.445076381332044	4.490741	2.1191368
17.462808419668868	4.5938177	2.1433194
17.48054087942723	4.7770023	2.1856356
17.498273761061835	5.087224	2.2554874
17.51600706502747	5.5453787	2.3548627
17.533740791779024	6.22229	2.4944518
17.551474941771485	7.59992	2.7567952
17.56920951545993	8.707373	2.9508257
17.586944513299528	10.9395485	3.307499
17.60467993574556	12.720836	3.566628
17.622415783253373	14.615855	3.8230689
17.64015205627843	16.05144	4.006425
17.657888755276293	17.146315	4.140811
17.675625880702604	17.657528	4.202086
17.69336343301311	17.4205	4.173787
17.71110141266366	16.50614	4.0627747
17.728839820110178	15.462439	3.9322307
17.746578655808705	14.545428	3.8138468
17.764317920215372	13.128223	3.623289
17.7820576137864	11.591743	3.404665
17.79979773697811	9.507923	3.083492
17.81753829024692	7.541173	2.7461197
17.835279274049356	5.836877	2.415963
17.85302068884201	4.7816043	2.186688
17.870762535081607	4.141816	2.0351453
17.888504813224934	3.8648636	1.9659257
17.90624752372891	3.730595	1.9314748
17.923990667050536	3.628404	1.904837
17.941734243646895	3.5275695	1.8781825
17.959478253975185	3.461725	1.8605711
17.9772226984927	3.4740815	1.8638889
17.994967577656833	3.4507113	1.857609
18.01271289192506	3.4172144	1.848571
18.030458641754965	3.3638968	1.834093
18.04820482760425	3.3267238	1.8239309
18.06595144993067	3.2848575	1.8124176
18.083698509192125	3.295977	1.8154826
18.101446005846576	3.2837682	1.8121171
18.119193940352105	3.2789378	1.8107837
18.136942313166887	3.2739084	1.8093945
18.1546911247492	3.2461698	1.801713
18.1724403755574	3.237468	1.7992965
18.19019006604997	3.2179322	1.7938596
18.207940196685467	3.1818714	1.7837801
18.225690767922575	3.1234083	1.7673167
18.243441780220046	3.075445	1.7536947
18.261193234036764	3.0833967	1.7559603
18.278945129831676	3.067355	1.7513865
18.29669746806386	3.055445	1.7479831
18.314450249192483	3.0799432	1.7549766
18.3322034736768	3.095814	1.7594925
18.349957141976184	3.1168973	1.7654737
18.3677112545501	3.1064217	1.7625043
18.385465811858108	3.0919793	1.7584025
18.403220814359884	3.013792	1.7360277
18.420976262515172	3.029564	1.7405642
18.43873215678387	3.062418	1.7499765
18.456488497625923	3.1473565	1.7740791
18.474245285501407	3.1988456	1.7885317
18.492002520870486	3.26945	1.8081621
18.50976020419343	3.3456545	1.829113
18.527518335930615	3.6595569	1.9129968
18.545276916542516	4.24658	2.0607233
18.563035946489688	4.3996716	2.0975394
18.580795426232832	4.837654	2.1994667
18.598555356232698	4.7105556	2.1703815
18.616315736950185	4.9997063	2.2360022
18.63407656884626	4.624396	2.150441
18.65183785238201	4.875268	2.208001
18.669599588018617	4.6607056	2.1588666
18.68736177621737	4.655306	2.157616
18.705124417439652	4.5899205	2.14241
18.72288751214696	4.455366	2.1107738
18.740651060800886	4.590152	2.142464
18.758415063863115	4.3113194	2.0763717
18.77617952179546	4.4634857	2.1126964
18.793944435059814	4.2668266	2.0656297
18.811709804118184	4.274629	2.0675175
18.829475629432675	4.2616014	2.0643647
18.8472419114655	4.0541725	2.0134976
18.86500865067897	4.0886936	2.0220518
18.88277584753551	3.792016	1.94731
18.90054350249763	3.8041945	1.9504344
18.918311616027957	3.4537654	1.8584309
18.936080188589226	3.2980878	1.8160639
18.953849220644265	3.0340316	1.7418472
18.971618712656007	2.9185765	1.7083842
18.9893886650875	2.9011166	1.7032665
19.007159078401887	8.02815	2.833399
19.024929953062408	32.870224	5.733256
19.042701289532435	32.772007	5.7246842
19.060473088275405	25.356823	5.035556
19.07824534975489	2.6605477	1.6311185
19.096018074434568	2.6592205	1.6307117
19.113791262778197	2.649965	1.6278713
19.13156491524966	2.6304734	1.6218734
19.149339032312945	2.599384	1.6122606
19.167113614432136	2.5473318	1.5960363
19.184888662071433	2.5188956	1.5871029
19.202664175695123	2.5147667	1.5858016
19.220440155767623	2.562106	1.6006579
19.238216602753447	2.5301223	1.5906358
19.2559935171172	2.5340035	1.5918554
19.27377089932361	2.513398	1.58537
19.291548749837514	2.497948	1.5804898
19.309327069123835	2.5178518	1.586774
19.32710585764763	2.512682	1.5851442
19.344885115874032	2.5540383	1.5981358
19.362664844268313	2.5401967	1.5937995
19.380445043295822	2.503963	1.5823915
19.39822571342203	2.4885142	1.5775025
19.41600685511252	2.521199	1.5878284
19.43378846883297	2.552433	1.5976336
19.451570555049173	2.5236278	1.588593
19.469353114227037	2.4805977	1.5749913
19.48713614683254	2.4658241	1.5702943
19.50491965333182	2.4958684	1.5798317
19.52270363419109	2.5191638	1.5871874
19.540488089876686	2.524995	1.5890234
19.55827302085503	2.5269468	1.5896373
19.576058427592674	2.5305347	1.5907655
19.593844310556282	2.529221	1.5903525
19.611630670212598	2.5190108	1.5871391
19.629417507028506	2.4902782	1.5780616
19.64720482147098	2.5036352	1.5822879
19.6649926140071	2.5017397	1.5816889
19.682780885104084	2.5107162	1.5845239
19.70056963522921	2.4939497	1.5792243
19.718358864849908	2.4896228	1.5778539
19.7361485744337	2.4998074	1.5810779
19.753938764448215	2.5109606	1.584601
19.771729435361202	2.5127306	1.5851595
19.789520587640506	2.5101695	1.5843514
19.807312221754092	2.5184233	1.5869541
19.825104338170043	2.512636	1.5851296
19.842896937356517	2.498717	1.5807331
19.860690019781824	2.5020206	1.5817777
19.87848358591436	2.5152283	1.5859472
19.896277636222635	2.5559354	1.5987293
19.914072171175278	2.5492237	1.5966288
19.931867191241015	2.5099125	1.5842704
19.94966269688869	2.4755197	1.5733784
19.967458688587264	2.4447663	1.5635748
19.985255166805807	2.439842	1.5619993
20.00305213201348	2.4457164	1.5638787
20.020849584679578	2.4308038	1.5591035
20.038647525273507	2.4303358	1.5589534
20.05644595426477	2.4469006	1.5642573
20.07424487212299	2.500403	1.5812663
20.092044279317903	2.4671652	1.5707213
20.109844176319353	2.4129534	1.5533684
20.127644563597304	2.3997147	1.5491012
20.145445441621817	2.4269147	1.5578558
20.16324681086307	2.4197998	1.5555706
20.181048671791373	2.415233	1.554102
20.198851024877122	2.412864	1.5533396
20.216653870590836	2.4458857	1.5639328
20.234457209403146	2.4411297	1.5624115
20.252261041784802	2.4542563	1.5666066
20.270065368206662	2.4533498	1.5663173
20.287870189139685	2.402798	1.5500962
20.305675505054968	2.347534	1.5321664
20.323481316423702	2.3459244	1.5316411
20.341287623717207	2.3352263	1.5281447
20.359094427406884	2.346727	1.531903
20.376901727964288	2.3337328	1.527656
20.39470952586107	2.344937	1.5313188
20.41251782156899	2.3266115	1.5253234
20.430326615559935	2.3483884	1.5324452
20.448135908305886	2.3296394	1.5263157
20.465945700278965	2.3169315	1.5221469
20.483755991951384	2.329995	1.526432
20.50156678379548	2.3433223	1.5307914
20.519378076283708	2.3533344	1.5340582
20.537189869888635	2.3514557	1.5334457
20.55500216508294	2.3478189	1.5322593
20.572814962339415	2.317376	1.522293
20.59062826213098	2.3112967	1.5202949
20.60844206493066	2.3116674	1.5204169
20.626256371211593	2.3603938	1.5363573
20.644071181447032	2.3570006	1.5352526
20.66188649611036	2.3428733	1.5306448
20.67970231567506	2.3315792	1.526951
20.697518640614742	2.3359025	1.528366
20.715335471403122	2.329937	1.5264131
20.73315280851404	2.2980824	1.5159427
20.750970652421447	2.3222423	1.5238905
20.768789003599412	2.327431	1.525592
20.786607862522136	2.3332212	1.5274885
20.8044272296639	2.312731	1.5207666
20.82224710549913	2.3141365	1.5212287
20.84006749050237	2.3172362	1.5222471
20.857888385148268	3.873727	1.9681786
20.8757097899116	45.983723	6.78113
20.893531705267254	64.83831	8.052224
20.911354131690224	83.844215	9.156649
20.92917706965566	69.07868	8.311358
20.94700051963877	50.11734	7.07936
20.96482448211493	29.36674	5.419109
20.982648957559622	4.106117	2.0263555
21.00047394644843	2.256688	1.5022277
21.01829944925707	2.272866	1.5076027
21.036125466461375	2.2433124	1.4977691
21.053951998537297	2.2003927	1.4833721
21.071779045960906	2.237737	1.4959067
21.089606609208378	2.2319632	1.4939756
21.10743468875603	2.2151277	1.4883305
21.12526328508028	2.2028544	1.4842016
21.143092398657675	2.1903224	1.4799738
21.16092202996488	2.1929772	1.4808704
21.17875217947867	2.1992078	1.4829726
21.19658284767596	2.1916258	1.480414
21.21441403503377	2.1597452	1.4696071
21.232245742029225	2.137791	1.4621186
21.2500779691396	2.1641154	1.4710933
21.26791071684227	2.1783988	1.47594
21.28574398561475	2.184578	1.4780318
21.30357777593465	2.1694667	1.472911
21.321412088279704	2.1736152	1.4743185
21.339246923127792	2.151583	1.4668275
21.357082280956888	2.1304042	1.4595904
21.3749181622451	2.105705	1.4511048
21.392754567470647	2.1192713	1.4557717
21.41059149711187	2.1090443	1.4522549
21.42842895164726	2.0981994	1.4485162
21.446266931555378	2.1112685	1.4530205
21.464105437314945	2.1184857	1.4555019
21.481944469404798	2.1201308	1.4560668
21.49978402830388	2.1098084	1.452518
21.51762411449127	2.1224656	1.4568684
21.53546472844617	2.0784087	1.4416687
21.553305870647876	2.0510426	1.4321462
21.571147541575865	2.0559964	1.4338746
21.58898974170967	2.0967524	1.4480168
21.60683247152899	2.0994298	1.448941
21.62467573151363	2.0995238	1.4489733
21.642519522143523	2.08304	1.443274
21.660363843898722	2.0888226	1.4452759
21.6782086972594	2.0891564	1.4453914
21.696054082705864	2.0705225	1.438931
21.713900000718535	2.005996	1.4163319
21.73174645177795	1.9962147	1.4128747
21.749593436364794	2.0289366	1.4244075
21.767440954959845	2.0671902	1.4377726
21.785289008044032	2.060231	1.4353504
21.803137596098388	2.0045369	1.4158167
21.820986719604086	1.9735495	1.4048308
21.838836379042412	1.9805843	1.4073323
21.85668657489478	2.0261111	1.4234153
21.87453730764273	2.0406032	1.4284968
21.892388577767914	2.0277722	1.4239987
21.91024038575213	2.0023017	1.4150271
21.928092732077285	2.0107217	1.4179991
21.945945617225426	1.9967233	1.4130546
21.963799041678694	1.9993948	1.4139996
21.981653005919398	31.310251	5.5955563
21.999507510429943	78.139786	8.839671
22.01736255569286	73.07969	8.548666
22.035218142190818	4.166949	2.0413105
22.05307427040661	1.9989707	1.4138496
22.07093094082315	1.9950472	1.4124614
22.088788153923474	1.9870609	1.4096315
22.106645910190746	1.9608608	1.4003074
22.12450421010827	1.9745883	1.4052005
22.142363054159464	1.9706889	1.4038123
22.16022244282787	1.9357849	1.3913249
22.178082376597164	1.9285138	1.3887094
22.195942855951145	1.9512864	1.3968846
22.213803881373742	1.9868115	1.409543
22.231665453349002	1.9991671	1.4139191
22.24952757236111	1.969166	1.4032698
22.26739023889438	1.9606205	1.4002216
22.28525345343323	1.9775118	1.4062403
22.30311721646225	2.006048	1.4163502
22.320981528466113	2.015498	1.4196824
22.33884638992964	1.9880581	1.4099852
22.356711801337788	1.9534068	1.3976433
22.37457776317561	1.9658684	1.4020942
22.392444275928337	1.98486	1.4088506
22.410311340081282	2.0061467	1.416385
22.428178956119904	1.993155	1.4117914
22.446047124529805	1.9791589	1.4068258
22.46391584579669	1.9216083	1.3862209
22.481785120406414	1.9127991	1.3830398
22.49965494884496	1.9322301	1.3900468
22.51752533159841	1.9415629	1.3933997
22.53539626915302	1.9252539	1.3875352
22.553267761995137	1.9428185	1.3938502
22.571139810611264	1.955306	1.3983226
22.589012415488025	1.9396286	1.3927054
22.60688557711216	1.9594654	1.399809
22.624759295970566	1.9390146	1.392485
22.642633572550263	1.961112	1.4003971
22.660508407338362	1.9589273	1.3996168
22.67838380082217	1.9368862	1.3917205
22.696259753489077	1.9006789	1.3786511
22.714136265826614	1.8871912	1.3737508
22.73201333832246	1.9254228	1.387596
22.74989097146439	1.9449171	1.3946029
22.76776916574035	1.9713665	1.4040536
22.785647921638393	1.9405515	1.3930368
22.803527239646712	1.9330633	1.3903464
22.82140712025363	1.9402312	1.3929218
22.839287563947593	1.943523	1.3941029
22.85716857121719	1.9362133	1.3914788
22.875050142551135	1.8927141	1.3757595
22.892932278438277	1.8872585	1.3737752
22.910814979367604	1.8720101	1.3682142
22.928698245828222	1.8485937	1.35963
22.946582078309387	1.8600243	1.3638271
22.96446647730047	1.870654	1.3677186
22.98235144329098	1.8452561	1.358402
23.000236976770562	1.8244348	1.3507164
23.018123078229	1.8583528	1.3632141
23.03600974815619	1.921482	1.3861753
23.053896987042194	1.9463265	1.3951081
23.071784795377173	1.9291458	1.3889369
23.08967317365145	1.9262015	1.3878766
23.10756212235546	1.9317838	1.3898863
23.125451641979787	1.9502628	1.3965181
23.143341733015134	1.9758394	1.4056455
23.161232395952357	1.9969265	1.4131265
23.179123631282426	1.9874856	1.4097822
23.197015439496468	1.9425026	1.393737
23.214907821085717	1.9369175	1.3917319
23.23280077654157	1.9287665	1.3888004
23.250694306355538	1.9313341	1.3897245
23.268588411019277	1.9528084	1.3974292
23.28648309102458	1.9436256	1.3941398
23.304378346863356	1.9597114	1.399897
23.322274179027676	1.9874487	1.409769
23.340170588009723	2.0068953	1.4166493
23.358067574301852	2.0106387	1.41797
23.37596513839651	1.9884921	1.4101391
23.39386328078629	1.9283779	1.3886604
23.411762001963947	1.9542454	1.3979433
23.429661302422353	1.9391329	1.3925276
23.4475611826545	1.9283469	1.3886493
23.46546164315356	1.8869474	1.373662
23.48336268441279	1.897373	1.3774517
23.501264306925638	1.9497316	1.3963279
23.51916651118564	1.9359765	1.3913938
23.537069297686497	1.9274613	1.3883303
23.554972666922037	1.9250832	1.3874737
23.57287661938623	1.946012	1.3949953
23.59078115557318	1.9122199	1.3828304
23.608686275977128	1.9214283	1.386156
23.62659198109246	1.9461036	1.3950281
23.6444982714137	1.9263986	1.3879477
23.66240514743549	1.897764	1.3775935
23.68031260965263	1.908388	1.3814442
23.698220658560068	1.9194568	1.3854446
23.716129294652845	1.9098061	1.3819574
23.7340385184262	1.9015101	1.3789525
23.75194833037546	1.898781	1.3779626
23.769858730996123	1.9392904	1.3925841
23.78776972078382	1.9534761	1.3976681
23.80568130023431	1.9431231	1.3939595
23.823593469843495	1.9226058	1.3865806
23.841506230107424	1.9268212	1.3880999
23.859419581522275	1.9056046	1.3804364
23.87733352458438	1.8515643	1.360722
23.89524805979019	1.8337045	1.3541435
23.913163187636318	1.8767337	1.3699393
23.931078908619508	1.9376239	1.3919855
23.948995223236633	1.9769826	1.4060521
23.966912131984735	1.9901545	1.4107283
23.98482963536096	1.9973733	1.4132845
24.002747733862616	2.0060403	1.4163475
24.020666427987155	2.0137622	1.419071
24.038585718232156	2.0394702	1.4281002
24.056505605095353	2.0480716	1.4311085
24.074426089074617	2.0907552	1.4459444
24.092347170667946	2.058714	1.434822
24.110268850373515	2.0490346	1.4314449
24.128191128689586	2.072355	1.4395677
24.146114006114626	2.0470867	1.4307644
24.164037483147187	2.019057	1.4209353
24.181961560286005	1.9946284	1.4123131
24.199886238029926	2.031056	1.4251512
24.21781151687797	2.0754192	1.4406315
24.235737397329274	2.1007023	1.4493799
24.253663879883135	2.0664847	1.4375273
24.271590965038975	2.0220094	1.4219737
24.289518653296376	2.02187	1.4219247
24.30744694515505	2.0532904	1.4329307
24.32537584111486	2.0982027	1.4485174
24.34330534167581	2.098698	1.4486884
24.361235447338046	2.0804687	1.4423829
24.379166158601876	2.0361311	1.4269307
24.39709747596772	2.047725	1.4309874
24.41502939993615	2.0058296	1.4162731
24.432961931007917	1.9653773	1.4019191
24.450895069683856	1.9627564	1.400984
24.468828816465	2.0003283	1.4143296
24.4867631718525	1.9982697	1.4136016
24.504698136347656	1.9661498	1.4021946
24.52263371045192	1.9353763	1.391178
24.540569894666874	1.9796327	1.4069942
24.558506689494266	1.9811616	1.4075375
24.57644409543597	2.017168	1.4202704
24.594382112994012	1.9636908	1.4013175
24.61232074267057	1.9387995	1.3924078
24.630259984967953	1.9290565	1.3889048
24.64819984038863	1.9587594	1.3995569
24.66614030943522	1.94163	1.3934238
24.684081392610462	1.9417357	1.3934618
24.702023090417274	1.9414169	1.3933474
24.7199654033587	1.9883707	1.4100959
24.737908331937927	2.0298455	1.4247265
24.755851876658305	2.0518568	1.4324304
24.773796038023324	2.0662913	1.4374601
24.79174081653661	2.1354926	1.4613324
24.809686212701962	2.1529655	1.4672987
24.827632227023294	2.120741	1.4562764
24.8455788600047	2.1073344	1.4516661
24.8635261121504	2.1075616	1.4517443
24.88147398396475	2.1012697	1.4495757
24.899422475952303	2.082146	1.4429643
24.917371588617698	2.1230044	1.4570533
24.935321322465768	2.1811326	1.4768658
24.953271678001478	2.2253466	1.4917595
24.97122265572994	2.4333448	1.5599182
24.989174256156414	2.7581625	1.6607716
25.00712647978632	3.2593317	1.805362
25.02507932712521	3.8387945	1.9592842
25.043032798678798	4.426171	2.1038468
25.060986894952933	5.1717176	2.274141
25.078941616453637	5.9514174	2.4395528
25.096896963687055	6.8991623	2.6266255
25.114852937159508	8.010241	2.830237
25.132809537377444	8.489295	2.9136395
25.150766764847468	8.476539	2.9114497
25.168724620076347	7.7409086	2.7822487
25.186683103570985	6.668648	2.5823724
25.204642215838426	5.524979	2.3505275
25.222601957385894	4.2401814	2.05917
25.24056232872074	3.2430787	1.800855
25.25852333035048	2.6441462	1.6260831
25.276484962782778	2.2485642	1.4995214
25.294447226525435	2.0640116	1.4366668
25.312410122086423	2.010289	1.4178466
25.330373649973843	1.9839733	1.4085358
25.348337810695988	1.9710566	1.4039432
25.366302604761245	1.9651227	1.4018283
25.384268032678207	1.9111235	1.3824339
25.40223409495558	1.9117318	1.382654
25.420200792102257	1.9183187	1.3850338
25.438168124627246	1.9244714	1.3872532
25.45613609303974	1.9063542	1.3807079
25.474104697849057	1.8822031	1.371934
25.492073939564698	1.8674191	1.3665354
25.510043818696285	1.8706478	1.3677163
25.528014335753614	1.8703128	1.3675938
25.54598549124664	1.8972118	1.3773931
25.56395728568544	1.9207737	1.3859198
25.58192971958028	1.87812	1.3704451
25.59990279344156	1.8277086	1.3519278
25.617876507779833	1.8666558	1.3662561
25.635850863105826	1.8814595	1.371663
25.653825859930386	1.8550304	1.361995
25.671801498764548	1.8559384	1.3623283
25.68977778011949	1.8556939	1.3622385
25.707754704506524	1.8660973	1.3660517
25.725732272437153	1.8570107	1.3627218
25.743710484423012	1.8440455	1.3579564
25.761689340975888	1.826165	1.3513567
25.77966884260774	1.8432207	1.3576527
25.797648989830662	1.898941	1.3780206
25.815629783156922	1.8847303	1.3728548
25.83361122309895	1.8490659	1.3598037
25.85159331016929	1.8388723	1.3560503
25.869576044880695	1.8472933	1.3591517
25.887559427746034	1.8822031	1.371934
25.90554345927836	1.8519987	1.3608816
25.92352813999086	1.8427854	1.3574923
25.94151347039689	1.8578055	1.3630134
25.959499451009965	1.8863904	1.3734593
25.97748608234374	1.8581113	1.3631256
25.995473364912062	1.8364509	1.3551571
26.013461299228904	1.8242564	1.3506503
26.03144988580839	1.8462365	1.3587629
26.04943912516483	1.8935696	1.3760704
26.067429017812675	1.8315848	1.3533605
26.085419564266537	1.8048868	1.3434608
26.103410765041186	1.7751229	1.3323374
26.12140262065155	1.7714717	1.3309665
26.139395131612723	1.8307403	1.3530486
26.157388298439948	1.8688282	1.3670509
26.17538212164861	1.8649037	1.3656148
26.193376601754295	1.8308892	1.3531035
26.211371739272714	1.813448	1.3466432
26.229367534719746	1.8252105	1.3510035
26.247363988611433	1.8358285	1.3549275
26.26536110146397	1.8297707	1.3526902
26.283358873793727	1.7969029	1.340486
26.301357306117204	1.8107098	1.3456262
26.319356398951104	1.8167839	1.3478813
26.33735615281224	1.8127257	1.346375
26.35535656821762	1.8686665	1.3669918
26.373357645684404	1.8573469	1.3628452
26.39135938572991	1.8084544	1.3447878
26.409361788871614	1.7795784	1.3340085
26.427364855627165	1.7842902	1.3357732
26.445368586514352	1.8474361	1.3592042
26.46337298205115	1.8382796	1.3558317
26.48137804275568	1.8183322	1.3484554
26.499383769146217	1.8009695	1.342002
26.517390161741215	1.7936695	1.3392794
26.53539722105928	1.7626731	1.327657
26.553404947619182	1.7485887	1.3223422
26.571413341939856	1.7858015	1.3363389
26.589422404540397	1.8212194	1.3495257
26.60743213594006	1.7963052	1.3402631
26.62544253665827	1.7873324	1.3369116
26.64345360721459	1.8197017	1.3489631
26.66146534812879	1.8153933	1.3473654
26.679477759920758	1.8175462	1.3481641
26.69749084311057	1.7964017	1.3402991
26.71550459821847	1.7733942	1.3316885
26.733519025764842	1.8417871	1.3571246
26.751534126270258	1.9154772	1.3840077
26.769549900255434	1.9066905	1.3808297
26.787566348241267	1.8540853	1.361648
26.80558347074881	1.7786962	1.3336776
26.823601268299267	1.782924	1.3352618
26.841619741414036	1.870577	1.3676903
26.85963889061465	1.8949252	1.3765628
26.877658716422832	1.8560983	1.362387
26.89567921936045	1.8027706	1.342673
26.913700399949544	1.8213735	1.3495827
26.93172225871233	1.8405669	1.3566749
26.949744796171174	1.8893199	1.3745253
26.967768012848605	1.871805	1.3681393
26.98579190926733	1.8570985	1.362754
27.003816485950225	1.832951	1.3538651
27.021841743420318	1.8193941	1.3488492
27.039867682200814	1.8095535	1.3451965
27.057894302815072	1.8676282	1.366612
27.07592160578664	1.8728071	1.3685055
27.0939495916392	1.8347561	1.3545316
27.111978260896635	1.8097161	1.3452569
27.13000761408296	1.8177972	1.3482571
27.148037651722397	1.8342078	1.3543292
27.166068374339304	1.8057141	1.3437686
27.184099782458215	1.7963955	1.3402969
27.20213187660384	1.8084842	1.3447989
27.22016465730105	1.7944393	1.3395668
27.23819812507487	1.8150637	1.347243
27.256232280450533	1.8306513	1.3530157
27.274267123953383	1.8323327	1.3536369
27.292302656108987	1.8694855	1.3672913
27.31033887744306	1.9001628	1.378464
27.32837578848146	1.8977774	1.3775984
27.34641338975026	1.849216	1.3598588
27.364451681775673	1.7877389	1.3370636
27.382490665084074	1.787698	1.3370483
27.400530340202046	1.7524992	1.32382
27.41857070765629	1.7509342	1.3232287
27.436611767973726	1.8055465	1.3437063
27.454653521681404	1.8415855	1.3570503
27.472695969306564	1.7915975	1.3385057
27.490739111376627	1.718899	1.3110679
27.508782948419153	1.7007505	1.3041283
27.526827480961902	1.7074302	1.3066868
27.54487270953279	1.7469201	1.3217111
27.562918634659898	1.8141568	1.3469064
27.580965256871508	1.8351557	1.3546792
27.599012576696026	1.8198739	1.349027
27.617060594662068	1.8112142	1.3458136
27.63510931129842	1.8231833	1.3502531
27.65315872713401	1.8603681	1.3639531
27.67120884269797	1.8383403	1.355854
27.68925965851958	1.8206768	1.3493246
27.707311175128307	1.8228168	1.3501173
27.725363393053787	1.8937566	1.3761383
27.74341631282583	1.9257467	1.3877127
27.7614699349744	1.9302094	1.3893198
27.77952426002968	2.05124	1.4322151
27.797579288521973	2.0815408	1.4427546
27.815635020981784	2.4489527	1.564913
27.83369145793979	2.5734363	1.6041933
27.85174859992682	2.5083525	1.5837779
27.869806447473923	2.3733444	1.5405663
27.887865001112267	2.0836577	1.443488
27.905924261373233	1.9211353	1.3860502
27.92398422878836	1.8759375	1.3696487
27.94204490388936	1.8424201	1.3573577
27.96010628720813	1.7897668	1.3378216
27.978168379276728	1.772491	1.3313493
27.9962311806274	1.8200493	1.349092
28.014294691792568	1.8393259	1.3562175
28.0323589133048	1.7960539	1.3401693
28.050423845696887	1.8571315	1.3627661
28.068489489501758	1.9111382	1.3824393
28.086555845252523	1.8716362	1.3680775
28.104622913482487	1.8704277	1.3676358
28.122690694725115	1.8715863	1.3680593
28.14075918951405	1.8660553	1.3660363
28.15882839838312	1.8858372	1.3732579
28.176898321866304	1.9619097	1.4006819
28.1949689604978	1.9733024	1.4047428
28.213040314811945	1.9549389	1.3981913
28.23111238534327	1.9151807	1.3839005
28.249185172626493	1.9244678	1.3872519
28.267258677196473	1.9002814	1.3785069
28.285332899588294	1.9283776	1.3886604
28.303407840337172	1.9335605	1.3905252
28.321483499978545	1.9000337	1.3784171
28.33955987904799	1.897774	1.3775972
28.357636978081285	1.9260448	1.3878201
28.37571479761439	1.9463571	1.3951191
28.393793338183425	1.9852228	1.4089793
28.41187260032469	1.993813	1.4120245
28.429952584574686	2.006519	1.4165165
28.448033291470065	1.9755957	1.4055588
28.46611472154769	1.9378512	1.3920672
28.484196875344566	1.9523004	1.3972474
28.502279753397914	1.9855721	1.4091033
28.52036335624511	2.0084963	1.4172143
28.538447684423716	2.0452754	1.4301313
28.556532738471482	2.040357	1.4284106
28.574618518926325	1.9919703	1.4113718
28.59270502632635	1.9950852	1.4124749
28.61079226120985	2.0469558	1.4307187
28.628880224115274	2.0479794	1.4310763
28.646968915581287	2.069337	1.438519
28.66505833614671	2.0988085	1.4487265
28.68314848635055	2.1081276	1.4519392
28.701239366732004	2.1338627	1.4607747
28.71933097783044	2.142888	1.4638606
28.737423320185403	2.1778216	1.4757445
28.75551639433665	2.1505327	1.4664695
28.773610200824074	2.097504	1.4482762
28.791704740187793	2.0825205	1.443094
28.80980001296809	2.1492653	1.4660373
28.827896019705413	2.1466098	1.4651313
28.845992760940433	2.166511	1.4719073
28.86409023721397	2.1551614	1.4680468
28.88218844906704	2.1714723	1.4735917
28.900287397040845	2.1348324	1.4611065
28.918387081676755	2.1970484	1.4822444
28.936487503516343	2.335789	1.5283288
28.954588663101365	2.434403	1.5602573
28.97269056097374	2.411219	1.55281
28.990793197675597	2.3311	1.5267941
29.00889657374923	2.3720388	1.5401424
29.027000689737125	2.4606638	1.5686504
29.04510554618196	2.4625268	1.569244
29.06321114362659	2.4327006	1.5597117
29.08131748261405	2.4267583	1.5578057
29.099424563687567	2.4504504	1.5653914
29.11753238739057	2.5337427	1.5917734
29.13564095426663	2.5528996	1.5977796
29.15375026485954	2.537255	1.5928763
29.171860319713275	2.5882585	1.6088065
29.18997111937199	2.6882927	1.6396013
29.20808266438002	2.727633	1.6515547
29.226194955281898	2.754238	1.6595896
29.244307992622335	2.8366897	1.6842475
29.26242177694624	2.875003	1.6955835
29.2805363087987	2.834819	1.6836921
29.29865158872498	2.8519716	1.6887782
29.316767617270557	2.9330325	1.7126099
29.334884394981064	2.9605799	1.7206336
29.353001922402367	2.8944943	1.7013214
29.37112020008047	3.0237443	1.7388917
29.389239228561596	3.23525	1.7986801
29.407359008392152	3.388325	1.8407403
29.42547954011872	3.6504595	1.9106176
29.44360082428809	4.217127	2.0535643
29.46172286144722	5.286432	2.2992241
29.479845652143283	6.889429	2.6247723
29.497969196923606	9.110951	3.0184352
29.516093496335728	11.684991	3.4183316
29.5342185509274	14.588738	3.8195207
29.55234436124651	17.12438	4.1381617
29.570470927841175	18.700466	4.324404
29.588598251259686	18.29743	4.2775497
29.60672633205055	16.750122	4.0926914
29.624855170762405	14.4727745	3.80431
29.642984767944146	11.698947	3.4203722
29.66111512414481	8.8611765	2.9767728
29.67924623991366	6.5650597	2.5622373
29.697378115800138	5.017581	2.2399957
29.71551075235387	4.1679707	2.041561
29.733644150124675	3.7325175	1.9319724
29.751778309662576	3.493842	1.8691821
29.769913231517766	3.3496463	1.8302039
29.78804891624066	3.2861364	1.8127704
29.806185364381818	3.3207703	1.822298
29.82432257649206	3.3529224	1.8310987
29.842460553122333	3.2961154	1.8155206
29.86059929482382	3.2780035	1.8105258
29.878738802147872	3.327792	1.8242236
29.896879075646048	3.352777	1.831059
29.915020115870114	3.3553755	1.8317684
29.933161923371976	3.2965255	1.8156337
29.951304498703777	3.2706459	1.8084927
29.969447842417857	3.2297378	1.7971472
29.987591955066733	3.2405903	1.800164
30.005736837203123	3.251531	1.8032001
30.023882489379943	3.2656422	1.8071088
30.04202891215028	3.259826	1.8054988
30.060176106067455	3.1989691	1.7885662
30.078324071684946	3.1139898	1.7646501
30.09647280955646	3.0906744	1.7580314
30.114622320235863	3.133114	1.7700604
30.132772604277257	3.1610696	1.7779397
30.1509236622349	3.1903133	1.7861449
30.16907549466328	3.0842507	1.7562035
30.18722810211705	3.0406985	1.7437599
30.205381485151097	3.0190651	1.7375457
30.22353564432045	3.0615227	1.7497208
30.241690580180403	3.0026667	1.7328204
30.25984629328638	2.9145627	1.707209
30.278002784194037	2.8641522	1.6923807
30.296160053459246	2.8859682	1.6988138
30.314318101638033	2.9762843	1.7251911
30.332476929286646	3.0538325	1.7475219
30.35063653696153	3.026315	1.7396307
30.368796925219307	2.9489098	1.717239
30.386958094616844	2.8998349	1.7028902
30.40512004571115	2.9073026	1.7050815
30.423282779059463	2.8644319	1.6924633
30.441446295219233	2.822579	1.6800532
30.459610594748067	2.8598647	1.6911135
30.47777567820382	2.8447704	1.6866447
30.495941546144504	2.8118813	1.6768665
30.51410819912835	2.8130527	1.6772157
30.532275637713795	2.7948062	1.6717674
30.55044386245946	2.7743328	1.6656328
30.56861287392416	2.8361588	1.6840899
30.586782672666956	2.8754544	1.6957165
30.604953259247047	2.834584	1.6836222
30.623124634223885	2.786002	1.6691321
30.641296798157075	2.8413987	1.6856449
30.659469751606462	2.870266	1.694186
30.677643495132074	2.8202164	1.67935
30.695818029294152	2.785172	1.6688834
30.713993354653116	2.7902262	1.670397
30.73216947176962	2.7640464	1.6625421
30.75034638120448	2.6862998	1.6389935
30.768524083518756	2.7418747	1.6558607
30.786702579273673	2.818818	1.6789336
30.80488186903069	2.8677168	1.6934334
30.82306195335144	2.9940164	1.7303226
30.841242832797782	3.2333155	1.7981422
30.85942450793176	3.456957	1.8592894
30.877606979315637	3.7896395	1.9466996
30.895790247511883	4.2620025	2.0644617
30.913974313083134	4.779245	2.1861484
30.932159176592283	5.0166106	2.2397792
30.95034483860237	4.866507	2.206016
30.968531299676698	4.587073	2.1417453
30.98671856037873	4.344286	2.084295
31.00490662127215	3.952761	1.9881551
31.023095482920848	3.499578	1.8707159
31.04128514588892	3.063003	1.7501438
31.059475610740662	2.7808406	1.6675853
31.07766687804056	2.6044936	1.6138444
31.09585894835335	2.5583446	1.5994827
31.11405182224393	2.5409307	1.5940297
31.132245500277417	2.5294101	1.5904119
31.15043998301914	2.4265327	1.5577332
31.168635271034628	2.397289	1.5483181
31.18683136488964	2.3841255	1.5440613
31.20502826515008	2.3518314	1.5335683
31.223225972382135	2.3263817	1.525248
31.241424487152155	2.3720875	1.5401583
31.259623810026692	2.423325	1.5567032
31.27782394157253	2.4366558	1.5609791
31.296024882356644	2.474613	1.5730903
31.314226632946237	2.5346134	1.5920469
31.332429193908684	2.5373735	1.5929135
31.350632565811598	2.4801319	1.5748434
31.368836749222787	2.481449	1.5752615
31.387041744710295	2.5042162	1.5824715
31.40524755284232	2.4983888	1.5806292
31.423454174187317	2.57132	1.6035336
31.441661609313922	2.595517	1.6110609
31.459869858791002	2.5248175	1.5889674
31.478078923187628	2.3750055	1.5411053
31.496288803073064	2.3602586	1.5363133
31.514499499016807	2.353071	1.5339723
31.532711011588546	2.296164	1.5153099
31.550923341358178	2.328802	1.5260413
31.56913648889584	2.3867688	1.5449171
31.587350454771844	2.3708923	1.5397702
31.605565239556732	2.3660264	1.5381893
31.62378084382127	2.3690434	1.5391697
31.641997268136382	2.4262276	1.5576353
31.660214513073274	2.394334	1.5473636
31.67843257920331	2.2794142	1.5097729
31.6966514670981	2.2477136	1.4992377
31.71487117732944	2.3651721	1.5379117
31.733091710469346	2.4403126	1.56215
31.751313067090052	2.3849077	1.5443146
31.769535247764008	2.3280494	1.5257947
31.787758253063878	2.2718952	1.5072807
31.805982083562526	2.2940946	1.5146269
31.824206739833024	2.3086925	1.5194381
31.84243222244869	2.3216496	1.5236961
31.860658531983013	2.287589	1.5124778
31.878885669009737	2.2578027	1.5025986
31.897113634102784	2.183558	1.4776866
31.91534242783632	2.1361997	1.4615744
31.933572050784694	2.1535714	1.4675051
31.951802503522508	2.1868424	1.4787977
31.970033786624548	2.220706	1.4902034
31.988265900665834	2.2073529	1.4857163
32.006498846221575	2.2209232	1.4902762
32.02473262386724	2.2077172	1.4858389
32.04296723417845	2.2133927	1.4877476
32.0612026777311	2.1678925	1.4723765
32.07943895510129	2.1439822	1.4642344
32.097676066865304	2.1307695	1.4597156
32.115914013599685	2.055917	1.433847
32.13415279588115	2.0273578	1.4238532
32.152392414286666	2.0751963	1.4405541
32.1706328693934	2.1472268	1.4653419
32.18887416177875	2.1802602	1.4765704
32.20711629202032	2.1021504	1.4498794
32.225359260695924	2.1117418	1.4531833
32.243603068383614	2.1427782	1.4638231
32.26184771566166	2.1925042	1.4807107
32.28009320310852	2.1856306	1.4783878
32.2983395313029	2.1956115	1.4817595
32.31658670082372	2.2283473	1.492765
32.33483471225012	2.1852317	1.4782529
32.35308356616143	2.2350092	1.4949948
32.371333263137245	2.2940419	1.5146095
32.38958380375734	2.2052622	1.4850125
32.407835188601744	2.1187491	1.4555924
32.42608741825067	2.0858724	1.444255
32.444340493284585	2.0450435	1.4300501
32.46259441428416	1.9908394	1.410971
32.48084918183028	2.001603	1.4147801
32.49910479650405	2.0523813	1.4326135
32.51736125888683	2.092257	1.4464636
32.53561856956014	2.0708985	1.4390616
32.5538767291058	2.045165	1.4300927
32.572135738105764	2.0408401	1.4285798
32.59039559714228	2.0508883	1.4320923
32.608656306797776	2.0111053	1.4181345
32.62691786765491	2.0344286	1.426334
32.645180280296586	2.0940752	1.4470919
32.663443545305896	2.1015775	1.4496819
32.68170766326619	2.0093608	1.4175192
32.69997263476099	1.9339681	1.3906718
32.7182384603741	1.9888849	1.4102783
32.7365051406895	2.019867	1.4212202
32.75477267629144	2.0209024	1.4215845
32.77304106776434	1.9991289	1.4139056
32.79131031569289	1.9628191	1.4010065
32.809580420661966	2.020267	1.421361
32.827851383256714	1.9497191	1.3963234
32.84612320406245	1.8165972	1.347812
32.86439588366476	1.8952531	1.3766819
32.88266942264945	2.0303001	1.424886
32.9009438216025	2.0606763	1.4355056
32.9192190811102	1.9643428	1.4015502
32.937495201758985	1.936374	1.3915366
32.95577218413556	2.0107746	1.4180179
32.974050028826866	2.0071697	1.4167461
32.992328736420035	2.0261383	1.4234248
33.010608307502444	2.0377965	1.4275141
33.02888874266169	1.990792	1.4109544
33.047170042485604	1.9696864	1.4034551
33.06545220756225	1.9379321	1.3920963
33.083735238479896	1.992036	1.4113951
33.10201913582707	2.0700493	1.4387666
33.12030390019248	2.0626364	1.4361881
33.138589532165135	2.073289	1.4398919
33.15687603233419	2.0895693	1.4455342
33.17516340128909	2.0390847	1.4279652
33.19345163961947	1.9413146	1.3933107
33.211740747915215	1.8318307	1.3534514
33.23003072676643	1.8507595	1.3604262
33.248321576763466	1.9369855	1.3917563
33.266613298496885	2.0232668	1.4224159
33.28490589255747	2.005299	1.4160858
33.30319935953626	2.0047295	1.4158847
33.32149370002451	2.103436	1.4503227
33.339788914613706	2.1781595	1.4758589
33.358085003895575	2.1343098	1.4609277
33.376381968462034	2.038028	1.4275951
33.39467980890529	2.0311728	1.4251922
33.41297852581774	1.991933	1.4113586
33.43127811979204	1.9140333	1.3834859
33.44957859142105	1.8564641	1.3625213
33.467879941297866	1.9140896	1.3835063
33.486182170015844	1.9167793	1.384478
33.50448527816853	1.8537619	1.3615292
33.522789266349754	1.8224216	1.3499709
33.541094135153514	1.9235721	1.386929
33.55939988517411	1.9523199	1.3972543
33.57770651700602	1.851811	1.3608127
33.59601403124398	1.7666748	1.3291632
33.61432242848296	1.8783572	1.3705317
33.632631709318154	1.9575585	1.3991277
33.650941874344994	1.9403005	1.3929467
33.66925292415916	1.9396834	1.3927252
33.68756485935654	1.9582613	1.3993789
33.70587768053328	1.9662982	1.4022475
33.724191388285746	2.0141892	1.4192214
33.74250598321054	1.9994134	1.4140061
33.760821465904506	1.9952823	1.4125446
33.77913783696474	1.9399533	1.392822
33.79745509698852	1.8811576	1.371553
33.815773246573414	1.7967422	1.3404261
33.8340922863172	1.7833396	1.3354174
33.852412216817896	1.8220303	1.349826
33.87073303867377	1.8730044	1.3685775
33.889054752483304	1.8962262	1.3770353
33.907377358845245	1.8456594	1.3585504
33.92570085835853	1.8725272	1.3684032
33.94402525162239	1.9176167	1.3847804
33.96235053923627	1.906664	1.38082
33.980676721799824	1.8254728	1.3511006
33.999003799912984	1.8076684	1.3444957
34.01733177417592	1.8233794	1.3503257
34.03566064518901	1.9057325	1.3804827
34.0539904135529	1.9849796	1.4088931
34.07232107986846	1.9424461	1.3937167
34.090652644736785	1.8982842	1.3777823
34.108985108759235	1.8402122	1.3565443
34.12731847253742	1.8713342	1.3679671
34.14565273667313	1.9502321	1.3965071
34.16398790176847	1.9540365	1.3978685
34.18232396842574	1.9304694	1.3894134
34.20066093724749	1.9236418	1.3869542
34.21899880883651	1.9431598	1.3939726
34.23733758379583	1.9852424	1.4089863
34.25567726272874	2.1066766	1.4514395
34.27401784623872	2.1612442	1.4701171
34.29235933492957	2.0638902	1.4366246
34.31070172940526	2.004292	1.4157302
34.32904503027003	1.951877	1.3970959
34.347389238128386	1.9037322	1.379758
34.36573435358502	1.8484241	1.3595676
34.38408037724492	1.8772897	1.3701422
34.402427309713296	1.8591224	1.3634964
34.42077515159559	1.9296892	1.3891325
34.43912390349752	2.010616	1.417962
34.45747356602499	1.9948524	1.4123925
34.47582413978423	1.9448245	1.3945696
34.49417562538163	1.9708866	1.4038827
34.51252802342388	1.9537841	1.3977783
34.53088133451789	1.9454603	1.3947976
34.54923555927084	1.9643844	1.401565
34.567590698290104	1.9618701	1.4006677
34.58594675218336	1.9405494	1.393036
34.6043037215585	1.961837	1.400656
34.62266160702365	2.090012	1.4456874
34.641020409187234	2.0536067	1.4330411
34.65938012865785	2.0697253	1.438654
34.677740766044394	1.9846274	1.408768
34.69610232195598	1.9429016	1.39388
34.714464797002016	1.8800784	1.3711596
34.73282819179208	1.8041443	1.3431844
34.751192506936064	1.931664	1.3898431
34.76955774304408	2.008434	1.4171923
34.7879239007265	1.9069399	1.3809199
34.80629098059391	1.9728488	1.4045813
34.824658983257194	1.9551753	1.3982759
34.843027909327446	1.8642781	1.3653857
34.86139775941603	1.8311359	1.3531947
34.879768534134534	1.8975863	1.377529
34.89814023409483	1.8544878	1.3617958
34.91651285990901	2.0701938	1.4388168
34.93488641218944	2.2068565	1.4855492
34.95326089154871	1.955596	1.3984263
34.97163629859967	1.8056928	1.3437607
34.99001263395542	1.945435	1.3947885
35.00838989822934	1.9911021	1.4110641
35.02676809203499	1.9584545	1.3994479
35.04514721598624	1.9697784	1.4034879
35.063527270697215	2.051158	1.4321864
35.081908256782256	1.845862	1.358625
35.10029017485597	1.677869	1.2953258
35.11867302553321	1.6923984	1.3009222
35.137056809429104	1.7584654	1.3260714
35.155441527159006	1.8602142	1.3638967
35.173827179338524	1.8429585	1.3575561
35.19221376658354	1.8949958	1.3765885
35.21060128951017	2.1316247	1.4600085
35.2289897487348	2.179543	1.4763275
35.24737914487405	2.0500438	1.4317974
35.26576947854479	2.0524683	1.4326438
35.28416075036418	2.2083616	1.4860557
35.30255296094958	2.2152855	1.4883835
35.32094611091867	2.2088966	1.4862357
35.33934020088932	2.3267248	1.5253606
35.35773523147969	2.1038291	1.4504583
35.3761312033082	1.7993556	1.3414006
35.394528116993506	1.8919656	1.3754874
35.41292597315452	2.132058	1.4601568
35.431324772410434	2.238406	1.4961303
35.449724515380666	2.3765752	1.5416145
35.46812520268491	2.5915976	1.609844
35.486526834943106	2.3484774	1.5324743
35.504929412775454	2.002082	1.4149495
35.52333293680242	2.292767	1.5141885
35.54173740764471	2.9291945	1.711489
35.560142825923286	2.978923	1.7259557
35.5785491922594	2.6561348	1.6297653
35.59695650727454	2.3362408	1.5284766
35.61536477159042	2.5998158	1.6123945
