0.008763373481513119	0.0	0.0
0.026290120649546365	0.0	0.0
0.043816868432600686	0.0046239095	0.06799933
0.06134361724069026	0.083826594	0.28952822
0.07887036748382949	0.08107229	0.28473195
0.0963971195720331	0.16391373	0.4048626
0.11392387391531617	0.18990566	0.43578166
0.1314506309236943	0.17170833	0.41437703
0.1489773910071836	0.18241681	0.4271028
0.16650415457580078	0.16375816	0.40467042
0.18403092203956356	0.19422808	0.44071317
0.20155769380849	0.16698208	0.40863442
0.2190844702925996	0.15487094	0.39353645
0.2366112519019124	0.1895538	0.43537778
0.2541380390464497	0.2086312	0.45676166
0.27166483213623416	0.20177753	0.44919655
0.28919163158128947	0.19190212	0.43806633
0.3067184377916406	0.23059356	0.48020157
0.324245251177314	0.26126146	0.5111374
0.34177207214833777	0.1956977	0.44237733
0.3592989011147415	0.14941566	0.3865432
0.37682573848655654	0.123004146	0.35071948
0.39435258467381573	0.20666784	0.45460734
0.41187944008655414	0.26202953	0.5118882
0.42940630513480854	0.27772018	0.5269916
0.446933180228618	0.2678465	0.5175389
0.4644600657780234	0.2400451	0.48994398
0.48198696219306775	0.25143576	0.50143373
0.49951386988379676	0.20684	0.45479664
0.5170407892602581	0.20258224	0.45009136
0.5345677207325025	0.16625421	0.40774283
0.5520946647105822	0.14563142	0.38161686
0.5696216216045534	0.1700597	0.41238296
0.5871485918244737	0.17886399	0.42292315
0.6046755757804043	0.19111845	0.43717095
0.6222025738824094	0.15788285	0.39734477
0.6397295865405557	0.112906806	0.3360161
0.6572566141649129	0.12236016	0.34980017
0.6747836571655547	0.14082818	0.3752708
0.6923107159525568	0.18366751	0.4285645
0.7098377909359992	0.20122312	0.448579
0.7273648825259653	0.1897729	0.4356293
0.7448919911325411	0.1932385	0.43958902
0.762419117165817	0.2138451	0.4624339
0.7799462610358868	0.22254331	0.47174495
0.7974734231528482	0.19212744	0.43832344
0.8150006039268024	0.1931114	0.43944442
0.8325278037678551	0.1681931	0.4101135
0.8500550230861152	0.20225005	0.4497222
0.8675822622916969	0.18772012	0.4332668
0.8851095217947171	0.18808144	0.43368357
0.9026368020052984	0.18809198	0.43369573
0.9201641033335665	0.17480966	0.41810244
0.9376914261896523	0.18229806	0.42696378
0.9552187709836915	0.24286205	0.49281037
0.9727461381258234	0.28777844	0.53644985
0.990273528026193	0.31723952	0.5632402
1.0078009410949496	0.29663104	0.54463845
1.0253283777422473	0.30223018	0.5497547
1.0428558383782454	0.30220124	0.54972833
1.0603833234131086	0.27443612	0.52386653
1.0779108332570058	0.2741734	0.5236157
1.0954383683201119	0.260717	0.51060456
1.112965929012607	0.3028602	0.55032736
1.1304935157446763	0.37362507	0.6112488
1.1480211289265108	0.4142215	0.6436004
1.1655487689683062	1.2479843	1.1171322
1.1830764362802655	1.647002	1.2833557
1.200604131272596	2.113925	1.4539343
1.2181318543555117	2.4856935	1.5766082
1.235659605939232	2.4625003	1.5692356
1.253187386433982	3.9840496	1.9960084
1.270715196249994	6.3642154	2.5227396
1.2882430357975057	11.915677	3.4519093
1.3057709054867608	17.070295	4.1316214
1.3232988057280106	22.839504	4.7790694
1.3408267369315112	27.467922	5.240985
1.358354699507526	30.869017	5.5559893
1.3758826938663256	34.584263	5.8808384
1.3934107204181858	37.057	6.087446
1.410938779573391	37.64622	6.1356516
1.4284668717422309	38.443188	6.2002573
1.4459949973350033	37.87408	6.154192
1.4635231567620117	37.53542	6.1266155
1.4810513504335687	36.405384	6.0336876
1.4985795787599925	35.780125	5.981649
1.5161078421516088	35.318233	5.9429145
1.5336361410187505	34.59593	5.88183
1.5511644757717598	34.28456	5.855302
1.5686928468209842	35.08783	5.923498
1.58622125457678	35.93905	5.9949183
1.6037496994495108	37.459064	6.120381
1.621278181849548	37.294914	6.106956
1.6388067021872719	37.790234	6.147376
1.6563352608730693	37.29918	6.1073055
1.673863858317336	36.515076	6.0427704
1.6913924949304753	35.715057	5.9762077
1.7089211711228998	34.397655	5.8649516
1.7264498873050296	33.32666	5.772925
1.7439786438872935	32.74517	5.7223396
1.7615074412801288	31.896326	5.647683
1.779036279893981	31.472889	5.61007
1.796565160139305	30.749653	5.545237
1.814094082426564	29.979744	5.475376
1.8316230471662298	29.064785	5.3911767
1.849152054768784	27.785612	5.271206
1.8666811056447168	27.122124	5.2078905
1.8842102002045273	26.439844	5.1419687
1.901739338858724	26.098074	5.1086273
1.9192685220178245	25.563288	5.056015
1.9367977500923557	24.914806	4.991473
1.9543270234928547	24.169884	4.9162874
1.971856342629867	23.473917	4.844989
1.9893857079139496	23.054623	4.8015227
2.006915119755667	22.818232	4.776843
2.0244445785655945	22.27479	4.7196174
2.0419740847543175	21.641817	4.6520767
2.0595036387324317	21.006382	4.583272
2.0770332409105414	20.382557	4.5147047
2.094562891699263	20.005299	4.4727283
2.1120925915092217	19.410416	4.4057255
2.129622340751053	19.117022	4.3723016
2.1471521398354043	187.48888	13.692657
2.1646819891729323	443.8507	21.067764
2.182211889174303	440.25085	20.982155
2.1997418402501974	452.73203	21.2775
2.2172718428113023	432.96426	20.807793
2.234801897268317	321.0005	17.916487
2.2523320040319548	17.330822	4.16303
2.269862163512935	16.796032	4.098296
2.287392376121992	16.321512	4.039989
2.304922642269869	16.097311	4.0121455
2.322452962367322	15.629156	3.9533727
2.3399833368251164	15.344519	3.917208
2.357513766054032	15.158275	3.893363
2.3750442504648586	14.931	3.8640652
2.3925747904683963	14.503091	3.8082924
2.410105386475459	14.210314	3.769657
2.4276360388968707	14.077231	3.7519636
2.445166748143469	14.105498	3.7557287
2.4626975146261025	13.932855	3.732674
2.4802283387556323	13.578847	3.6849487
2.4977592209429305	13.245095	3.6393812
2.5152901615988825	13.00308	3.6059785
2.5328211611343865	12.779824	3.574888
2.5503522199603523	12.531619	3.5400026
2.5678833384877024	12.305776	3.507959
2.5854145171273712	12.036249	3.4693298
2.6029457562903064	11.809416	3.4364831
2.620477056387469	11.610667	3.4074428
2.6380084178298326	11.378651	3.3732255
2.655539841028383	11.251598	3.3543403
2.673071326394119	11.150373	3.3392174
2.6906028743380523	11.016086	3.319049
2.708134485271211	10.906006	3.3024242
2.7256661596046325	10.793307	3.285317
2.743197897749369	10.614175	3.2579403
2.760729700116486	10.447439	3.23225
2.778261567117063	10.327654	3.2136667
2.795793499162193	10.155976	3.1868443
2.8133254966629817	9.983658	3.1596928
2.830857560030551	9.660256	3.1080954
2.8483896896760337	9.624441	3.1023283
2.865921886010578	9.525703	3.0863738
2.883454149445347	9.56573	3.0928514
2.9009864803915177	9.444045	3.0731165
2.91851887926028	9.122529	3.0203524
2.9360513464628384	8.953055	2.9921656
2.953583882410413	8.826832	2.9709985
2.9711164875142373	8.8562765	2.9759498
2.9886491621855606	8.871944	2.978581
3.0061819068356455	8.647353	2.9406383
3.023714721875769	8.481381	2.912281
3.041247607717225	8.3233	2.885013
3.0587805647713213	8.248096	2.87195
3.0763135934493806	8.299531	2.8808906
3.0938466941627407	8.296195	2.8803117
3.1113798673227544	8.170918	2.858482
3.1289131133407904	7.917991	2.8138926
3.1464464326282315	7.7437663	2.7827623
3.1639798255964786	7.613458	2.7592494
3.1815132926569443	7.527161	2.7435672
3.1990468342210603	7.505291	2.7395787
3.216580450700272	7.574282	2.7521415
3.2341141425060416	7.541863	2.7462451
3.251647910049847	7.4800234	2.7349632
3.2691817537431813	7.2752876	2.6972742
3.286715673997555	7.0520325	2.6555662
3.3042496712244938	6.9223046	2.6310272
3.32178374583554	6.8908863	2.6250498
3.339317898242251	6.888002	2.6245003
3.3568521288562034	6.8508954	2.6174216
3.3743864380889876	6.873022	2.621645
3.3919208263522127	6.8105354	2.6097002
3.4094552940575023	6.7690167	2.6017334
3.4269898416164972	6.629119	2.5747075
3.444524469440858	6.459486	2.5415518
3.4620591779422587	6.3725457	2.5243902
3.479593967532391	6.326452	2.5152438
3.4971288386229658	6.2766438	2.5053232
3.5146637916257086	6.2907233	2.5081315
3.5321988269523628	6.333033	2.5165517
3.5497339450146903	6.3576417	2.5214365
3.5672691462244708	6.2934275	2.5086706
3.5848044309934988	6.272661	2.504528
3.60233979973359	6.298095	2.5096006
3.619875252856575	6.2872796	2.5074449
3.6374107907743034	6.1597238	2.481879
3.6549464138986427	6.0896077	2.467713
3.6724821226414788	6.0392075	2.45748
3.690017917414714	6.1356688	2.4770281
3.7075537986302702	6.217563	2.4935043
3.7250897667000857	6.2159023	2.4931712
3.7426258220361235	6.3362107	2.517183
3.7601619650503553	6.6258593	2.5740745
3.777698196154779	7.114062	2.6672199
3.7952345157614067	8.174595	2.859125
3.8127709242822716	9.031748	3.0052867
3.830307422129425	11.120986	3.3348143
3.847844009714936	12.453365	3.5289326
3.8653806874508954	15.638805	3.954593
3.882917455749409	15.1719265	3.8951156
3.900454315022606	15.397572	3.923974
3.917991265682631	12.5819645	3.5471065
3.9355283081416506	10.819792	3.2893453
3.9530654428118495	8.643328	2.9399538
3.970602670105433	7.3104916	2.703792
3.9881399904346244	6.4324803	2.5362334
4.005677404211669	6.3563046	2.5211713
4.023214911848827	6.42173	2.5341132
4.0407525137583855	6.340783	2.5180912
4.058290210352644	6.3734865	2.5245764
4.075828002043927	6.2933326	2.5086515
4.0933658892445814	6.2937407	2.5087328
4.110903872366966	6.224438	2.4948823
4.128441951823468	6.066728	2.463073
4.145980128026488	6.018374	2.4532375
4.163518401388452	6.013451	2.4522338
4.181056772321807	6.0248723	2.4545615
4.1985952412390155	6.057206	2.4611392
4.216133808552567	6.1305013	2.4759848
4.233672474674966	6.253549	2.5007098
4.251211240018741	6.4126105	2.5323133
4.268750104996445	6.6697865	2.582593
4.286289070020643	7.5625033	2.7500007
4.303828135503928	9.300378	3.049652
4.3213673018589125	29.526508	5.43383
4.3389065694982305	90.59491	9.518136
4.356445938834537	165.8846	12.87962
4.3739854102805085	171.8828	13.110408
4.391524984248844	172.82678	13.14636
4.409064661152262	136.79892	11.696107
4.426604441403504	97.035706	9.85067
4.444144325415337	75.69071	8.700041
4.461684313600543	21.79521	4.668534
4.47922440637193	22.060974	4.6969113
4.496764604142329	20.22187	4.4968734
4.5143049073245916	18.466534	4.2972703
4.531845316331589	16.296774	4.0369263
4.5493858315762195	13.5800295	3.6851091
4.566926453471405	11.16232	3.3410058
4.584467182430081	9.24412	3.0404143
4.602008018865218	8.127625	2.850899
4.619548963189798	7.4624014	2.7317395
4.637090015816834	6.929036	2.6323063
4.654631177159353	6.6710563	2.5828388
4.672172447630417	6.340408	2.5180166
4.689713827643102	6.1153355	2.4729204
4.7072553176105085	5.93024	2.4352086
4.724796917945764	5.7977376	2.407849
4.742338629062015	5.780998	2.4043705
4.759880451372434	5.631983	2.37318
4.777422385290215	5.478635	2.3406484
4.794964431228581	5.466712	2.3381002
4.812506589600768	5.458246	2.336289
4.830048860820047	5.472802	2.3394022
4.847591245299709	5.541303	2.3539972
4.8651337434530655	5.5066137	2.3466175
4.882676355693457	5.512019	2.347769
4.900219082434242	5.5407324	2.353876
4.917761924088813	5.5309815	2.3518038
4.935304881070575	5.532149	2.352052
4.952847953792969	5.4169593	2.3274362
4.970391142669449	5.3200164	2.3065162
4.9879344481135055	5.3099732	2.304338
5.005477870538642	5.3717737	2.3177087
5.023021410358394	5.4249535	2.329153
5.040565067986324	5.3875823	2.3211167
5.05810884383601	5.3661194	2.3164885
5.075652738321066	5.348002	2.3125749
5.09319675185512	5.3436475	2.311633
5.110740884851836	5.3526845	2.313587
5.128285137724894	5.373713	2.3181272
5.145829510888007	5.323186	2.307203
5.163374004754908	5.2454767	2.2903006
5.1809186197393595	5.186933	2.277484
5.198463356255145	5.148761	2.269088
5.216008214716077	5.1594195	2.2714355
5.233553195535998	5.1405306	2.267274
5.251098299128764	5.2238536	2.2855752
5.268643525908272	5.346612	2.3122742
5.286188876288432	5.3712306	2.3175917
5.3037343506831895	5.324786	2.3075497
5.32127994950651	5.2521033	2.2917469
5.3388256731723915	5.2364864	2.288337
5.356371522094851	5.241681	2.2894719
5.373917496687938	5.238669	2.2888138
5.391463597365729	5.2172937	2.2841396
5.40900982454232	5.197957	2.279903
5.426556178631843	5.1603417	2.2716386
5.444102660048449	5.0832953	2.2546165
5.4616492692063225	5.051695	2.2475977
5.479196006519669	5.0329914	2.243433
5.496742872402727	5.0020504	2.2365265
5.514289867269756	5.0623755	2.2499723
5.531836991535049	5.113343	2.2612703
5.549384245612924	5.1066365	2.2597868
5.566931629917724	5.084094	2.2547936
5.584479144863822	5.0536213	2.2480261
5.6020267908656205	5.0578732	2.2489717
5.619574568337545	5.0503387	2.2472959
5.637122477694054	5.08909	2.255901
5.654670519349629	5.136262	2.2663321
5.672218693718784	5.175353	2.2749403
5.689767001216059	5.159609	2.2714772
5.707315442256021	5.1252995	2.2639124
5.724864017253266	5.1292267	2.2647796
5.7424127266224225	5.1679807	2.2733192
5.75996157077814	5.1577697	2.2710724
5.777510550135105	5.075719	2.2529356
5.795059665108022	5.1042833	2.2592661
5.812608916111639	5.17803	2.2755284
5.830158303560715	5.3086247	2.3040452
5.847707827870055	5.360199	2.3152103
5.86525748945448	5.332427	2.3092048
5.8828072887288485	5.4167027	2.3273811
5.900357226108044	5.4376984	2.3318872
5.917907302006979	5.50232	2.3457024
5.9354575168406	6.008221	2.4511673
5.9530078710238765	6.622878	2.5734954
5.970558364971812	7.1373425	2.6715806
5.988108999099438	7.448706	2.7292318
6.005659773821818	7.889097	2.8087537
6.023210689554039	7.6451044	2.7649782
6.040761746711227	8.043904	2.8361778
6.058312945708531	7.4771385	2.7344358
6.075864286961132	7.111081	2.666661
6.093415770884244	6.499842	2.5494788
6.1109673978931065	6.0180016	2.4531615
6.128519168402993	5.5031004	2.3458688
6.146071082829204	5.392527	2.3221815
6.163623141587075	5.2864847	2.2992356
6.181175345091969	5.228938	2.2866871
6.198727693759281	5.234517	2.2879066
6.216280188004435	5.1901255	2.2781847
6.233832828242885	5.160527	2.2716794
6.251385614890126	5.146125	2.2685072
6.268938548361669	5.072381	2.2521946
6.286491629073067	4.939875	2.222583
6.304044857439898	4.9008346	2.2137828
6.321598233877777	4.8746085	2.2078516
6.339151758802344	4.8961143	2.2127166
6.356705432629277	4.9421844	2.2231023
6.37425925577428	4.889602	2.2112446
6.391813228653095	4.854689	2.203336
6.409367351681486	4.8366365	2.1992354
6.426921625275259	4.8210545	2.19569
6.44447604985025	4.8566313	2.2037766
6.46203062582232	4.875339	2.2080169
6.47958535360737	4.885875	2.2104015
6.497140233621328	4.848486	2.2019277
6.514695266280161	4.8702226	2.2068582
6.532250451999859	4.8596864	2.2044697
6.549805791196454	4.9193983	2.2179716
6.567361284286002	4.9091353	2.2156568
6.584916931684597	4.9534025	2.225624
6.602472733808367	5.045489	2.2462165
6.6200286910734665	5.0654607	2.2506578
6.637584803896092	5.0339046	2.2436364
6.655141072692462	5.066738	2.2509415
6.672697497878842	5.0617785	2.2498398
6.690254079871514	5.0371656	2.244363
6.707810819086808	4.976876	2.2308912
6.725367715941078	4.92209	2.2185783
6.742924770850719	4.8956747	2.2126172
6.760481984232151	4.901199	2.213865
6.778039356501836	4.9527555	2.2254786
6.795596888076266	4.9708757	2.229546
6.813154579371963	4.996001	2.2351735
6.830712430805492	4.969247	2.2291808
6.84827044279344	4.993901	2.2347038
6.865828615752445	4.9912076	2.234101
6.883386950099159	4.9868135	2.2331173
6.900945446250287	4.931737	2.2207515
6.918504104622553	4.883393	2.20984
6.936062925632727	4.853075	2.2029696
6.953621909697607	4.8817153	2.2094605
6.971181057234028	4.942197	2.2231052
6.988740368658859	4.9943266	2.234799
7.006299844389007	5.073006	2.2523334
7.023859484841407	5.1692567	2.2735999
7.041419290433036	5.2696915	2.2955809
7.058979261580902	5.510583	2.3474631
7.0765393987020495	5.7298465	2.3937097
7.094099702213559	6.071424	2.464026
7.111660172532549	6.351496	2.5202174
7.129220810076164	6.645632	2.5779123
7.146781615261595	7.266132	2.6955764
7.16434258850606	7.529682	2.7440267
7.181903730226821	8.046003	2.8365479
7.1994650408411704	8.068795	2.8405626
7.217026520766437	8.221749	2.8673594
7.234588170419983	8.474684	2.911131
7.252149990219215	8.470408	2.9103966
7.269711980581568	8.331266	2.8863933
7.2872741419245175	7.997744	2.8280282
7.304836474665574	7.526115	2.7433765
7.322398979222286	7.2526155	2.693068
7.339961656012233	7.035417	2.652436
7.357524505453039	6.7719665	2.6023002
7.375087527962357	6.4937735	2.5482883
7.392650723957886	6.199727	2.4899251
7.410214093857353	5.8683524	2.4224682
7.427777638078528	5.6520686	2.377408
7.445341357039213	5.4831367	2.34161
7.4629052511572525	5.361996	2.3155985
7.480469320850524	5.3304033	2.3087666
7.498033566536948	5.2877216	2.2995048
7.5155979886344735	5.299371	2.3020363
7.5331625875610975	5.2532926	2.2920063
7.550727363734844	5.2142363	2.2834702
7.568292317573788	5.167711	2.2732599
7.585857449496025	5.113027	2.2612004
7.603422759919705	5.0859528	2.2552056
7.620988249263007	5.066909	2.2509794
7.638553917944147	5.0796084	2.2537987
7.656119766381391	5.0842304	2.254824
7.673685794993023	5.090903	2.2563028
7.691252004197388	5.0414863	2.2453253
7.70881839441285	5.099417	2.258189
7.726384966057826	5.1244273	2.2637198
7.743951719550762	5.132571	2.265518
7.761518655310149	5.1258926	2.2640433
7.779085773754511	5.1500797	2.2693787
7.796653075302419	5.1701684	2.2738004
7.814220560372475	5.1983566	2.2799904
7.831788229383323	5.2057905	2.2816203
7.8493560827536495	5.277314	2.2972405
7.866924120902174	5.2742863	2.2965815
7.884492344247663	5.281008	2.2980444
7.9020607532089135	5.2559214	2.2925797
7.919629348204771	5.282229	2.29831
7.937198129654115	5.3117404	2.3047214
7.954767097975865	5.272506	2.2961938
7.972336253588986	5.289562	2.2999048
7.989905596912472	5.299894	2.3021498
8.007475128365371	5.306114	2.3035004
8.025044848366756	5.355057	2.3140996
8.042614757335754	5.538366	2.3533733
8.060184855691523	5.635742	2.3739717
8.07775514385327	5.824594	2.4134195
8.095325622240228	5.8767715	2.4242053
8.112896291271687	5.911403	2.4313378
8.130467151366968	5.947979	2.4388478
8.148038202945436	5.9824457	2.4459038
8.165609446426497	5.956934	2.4406831
8.183180882229594	5.9938354	2.448231
8.200752510774217	5.9336863	2.435916
8.218324332479893	5.9793696	2.445275
8.235896347766193	5.9696326	2.443283
8.253468557052724	5.9232435	2.4337714
8.27104096075914	5.9178414	2.4326613
8.288613559305137	5.9868317	2.4468002
8.306186353110448	6.08788	2.4673629
8.32375934259485	6.117078	2.4732728
8.341332528178162	6.155176	2.4809628
8.358905910280246	6.220569	2.4941068
8.376479489321003	6.1662335	2.4831903
8.394053265720377	6.202502	2.4904823
8.411627239898356	6.2253957	2.4950743
8.42920141227497	6.218114	2.4936147
8.44677578327029	6.2206073	2.4941146
8.464350353304427	6.2089405	2.4917746
8.48192512279754	6.1587276	2.4816785
8.499500092169827	6.0576205	2.4612234
8.51707526184153	5.998932	2.4492717
8.534650632232934	6.0021744	2.4499335
8.552226203764365	6.0505767	2.459792
8.569801976856192	6.155005	2.4809282
8.587377951928834	6.222073	2.4944084
8.60495412940274	6.207505	2.4914865
8.622530509698416	6.212985	2.492586
8.6401070932364	6.3416696	2.5182672
8.657683880437283	6.442377	2.538184
8.675260871721695	6.579169	2.564989
8.692838067510303	6.638978	2.5766215
8.710415468223834	6.8568287	2.6185546
8.727993074283043	7.067477	2.6584728
8.745570886108737	7.1637917	2.676526
8.763148904121765	7.2182	2.6866708
8.78072712874302	7.2012515	2.6835148
8.798305560393441	7.4710593	2.7333238
8.815884199494006	7.6095204	2.7585359
8.833463046465745	7.7645884	2.7865012
8.851042101729728	7.9488187	2.819365
8.86862136570707	8.303418	2.8815653
8.886200838818924	8.462484	2.909035
8.903780521486505	8.376929	2.8942926
8.921360414131055	8.426825	2.9028993
8.938940517173874	8.618674	2.9357579
8.956520831036297	8.831336	2.9717565
8.97410135613971	9.11619	3.0193028
8.99168209290554	9.245761	3.0406842
9.009263041755265	9.514529	3.084563
9.026844203110405	9.644316	3.1055298
9.044425577392525	9.802054	3.1308234
9.062007165023239	9.814988	3.132888
9.079588966424197	10.088466	3.1762345
9.097170982017108	10.1665535	3.1885033
9.11475321222372	10.991931	3.3154082
9.132335657465825	11.791576	3.4338865
9.149918318165264	11.891043	3.4483392
9.167501194743924	12.366705	3.5166326
9.18508428762374	12.195736	3.4922395
9.202667597226693	12.185062	3.490711
9.220251123974803	11.942136	3.4557395
9.237834868290143	11.615527	3.408156
9.255418830594836	11.387782	3.3745787
9.273003011311046	10.862239	3.2957911
9.290587410860985	10.661366	3.2651749
9.308172029666911	10.080105	3.1749182
9.32575686815113	9.790015	3.1289
9.343341926735997	8.557391	2.9253018
9.360927205843916	8.356188	2.8907073
9.378512705897327	8.158119	2.8562422
9.396098427318728	8.017798	2.8315718
9.413684370530664	7.943266	2.81838
9.431270535955722	7.85446	2.8025808
9.448856924016539	7.7883782	2.7907667
9.466443535135806	7.6795206	2.7711947
9.484030369736251	7.660211	2.7677085
9.501617428240658	7.640017	2.764058
9.519204711071852	7.6583714	2.7673762
9.536792218652714	7.6681437	2.7691414
9.55437995140617	7.692233	2.7734876
9.571967909755191	7.7449436	2.7829738
9.589556094122802	7.790698	2.7911823
9.60714450493207	7.798964	2.7926626
9.624733142606116	7.8660254	2.8046436
9.642322007568108	7.8913674	2.8091578
9.659911100241267	7.9066935	2.8118844
9.677500421048851	7.794981	2.7919493
9.695089970414175	7.832383	2.7986395
9.712679748760609	7.846702	2.8011966
9.730269756511557	8.04007	2.8355017
9.747859994090492	8.125481	2.8505228
9.765450461920915	8.153119	2.8553667
9.78304116042639	8.143751	2.853726
9.800632090030527	8.09741	2.845595
9.81822325115699	8.060775	2.8391504
9.835814644229481	8.048471	2.8369827
9.853406269671762	8.056914	2.8384705
9.870998127907646	8.128468	2.8510468
9.888590219360985	8.1185875	2.8493135
9.906182544455698	8.161292	2.8567975
9.923775103615734	8.174441	2.859098
9.941367897265108	8.242851	2.8710365
9.958960925827878	8.278528	2.8772433
9.97655418972816	8.221466	2.8673098
9.994147689390106	8.208036	2.864967
10.011741425237934	8.142964	2.8535879
10.029335397695904	8.1453905	2.854013
10.04692960718833	8.15579	2.8558345
10.06452405413958	8.169232	2.858187
10.082118738974064	8.161388	2.8568144
10.099713662116246	8.20782	2.8649292
10.117308823990651	8.236065	2.8698545
10.134904225021844	8.221061	2.8672392
10.152499865634445	8.1596365	2.8565078
10.170095746253125	8.170898	2.8584783
10.18769186730261	8.12021	2.8495982
10.205288229207675	8.122319	2.8499682
10.222884832393145	8.051023	2.8374324
10.2404816772839	8.02361	2.8325977
10.258078764304868	8.035511	2.8346977
10.275676093881035	8.015576	2.8311794
10.293273666437438	8.033004	2.8342555
10.310871482399158	8.070986	2.840948
10.32846954219134	8.046632	2.8366585
10.346067846239173	8.101168	2.846255
10.363666394967908	8.037157	2.834988
10.38126518880283	8.016996	2.8314302
10.398864228169298	8.06541	2.8399665
10.416463513492713	8.135503	2.8522804
10.434063045198531	8.112121	2.8481784
10.451662823712262	8.039876	2.8354676
10.469262849459467	7.9915457	2.8269322
10.486863122865758	7.882507	2.8075802
10.504463644356806	7.9074044	2.8120108
10.522064414358338	7.860757	2.803704
10.539665433296118	7.871967	2.8057024
10.557266701595987	7.8096256	2.7945707
10.574868219683818	7.681541	2.7715592
10.592469987985552	7.6098957	2.758604
10.610072006927185	7.4939117	2.737501
10.627674276934751	7.367962	2.714399
10.64527679843435	7.275806	2.6973703
10.662879571852143	7.1402082	2.6721168
10.680482597614331	7.030188	2.6514502
10.698085876147173	6.8598757	2.6191363
10.715689407876988	6.733652	2.5949283
10.733293193230146	6.6155386	2.572069
10.750897232633072	6.5353246	2.5564282
10.76850152651225	6.5689244	2.5629914
10.786106075294207	6.478487	2.5452871
10.803710879405534	6.3816786	2.5261984
10.821315939272877	6.292109	2.5084076
10.83892125532294	6.281743	2.5063405
10.856526827982472	6.1992474	2.4898288
10.874132657678285	6.158688	2.4816704
10.891738744837243	6.132151	2.4763181
10.909345089886271	6.1199775	2.4738588
10.926951693252343	6.0946584	2.4687362
10.944558555362494	5.9903474	2.4475186
10.96216567664381	5.8825026	2.4253871
10.979773057523436	5.7996945	2.4082556
10.997380698428573	5.717985	2.3912308
11.014988599786477	5.6800113	2.3832774
11.032596762024461	5.624805	2.3716671
11.050205185569892	5.5950174	2.3653789
11.067813870850198	5.504458	2.346158
11.085422818292859	5.4290953	2.330042
11.10303202832541	5.3834953	2.320236
11.120641501375454	5.345215	2.3119721
11.138251237870636	5.315546	2.3055468
11.155861238238671	5.232824	2.2875366
11.173471502907317	5.1264405	2.2641644
11.191082032304402	5.0624695	2.2499933
11.208692826857805	5.0050683	2.237201
11.226303886995465	4.967	2.2286768
11.243915213145371	4.977191	2.2309618
11.261526805735578	4.9003077	2.2136638
11.279138665194196	4.800746	2.1910605
11.296750791949393	4.725087	2.1737266
11.314363186429393	4.7219677	2.173009
11.331975849062479	4.6948667	2.166764
11.34958878027699	4.6235657	2.1502478
11.36720198050133	4.57061	2.1378984
11.384815450163948	4.472962	2.1149378
11.402429189693366	4.425462	2.1036782
11.420043199518153	4.3710065	2.0906951
11.437657480066942	63.348377	7.9591694
11.455272031768422	85.1121	9.225622
11.472886855051353	107.49351	10.367908
11.490501950344528	99.08038	9.953913
11.508117318076819	84.40495	9.187217
11.52573295867715	45.828987	6.769711
11.543348872574514	4.1456785	2.036094
11.560965060197946	4.0679464	2.016915
11.57858152197655	3.9698963	1.9924599
11.59619825833949	3.8904119	1.9724127
11.613815269715985	3.8771718	1.9690535
11.631432556535323	38.46196	6.201771
11.649050119226837	83.010056	9.110986
11.666667958219929	93.38048	9.663358
11.68428607394406	107.59517	10.372809
11.701904466828756	82.370804	9.075836
11.719523137303586	65.25126	8.077826
11.737142085798196	4.5177035	2.125489
11.754761312742286	3.6727867	1.9164516
11.772380818565619	3.635158	1.906609
11.790000603698015	3.611146	1.9003016
11.80762066856935	3.542114	1.8820505
11.825241013609572	3.4862945	1.8671621
11.842861639248683	3.4481559	1.8569211
11.860482545916748	3.405879	1.8455024
11.878103734043883	3.367656	1.8351175
11.895725204060282	3.3449266	1.828914
11.91334695639619	3.3524036	1.830957
11.930968991481919	3.3398426	1.8275236
11.948591309747824	3.3126876	1.820079
11.966213911624347	3.3130345	1.8201743
11.98383679754198	3.277048	1.8102618
12.001459967931268	3.232619	1.7979486
12.019083423222835	3.1830525	1.7841111
12.036707163847352	3.1589515	1.777344
12.05433119023556	3.1795552	1.7831308
12.071955502818259	3.2372823	1.7992449
12.089580102026313	3.2448556	1.8013483
12.107204988290643	3.2196722	1.7943445
12.12483016204224	3.156032	1.7765225
12.142455623712152	3.1142108	1.7647127
12.16008137373149	3.0607889	1.749511
12.177707412531431	3.018207	1.7372987
12.19533374054321	3.0115438	1.73538
12.212960358198126	3.0198512	1.7377719
12.230587265927545	3.0297143	1.7406075
12.248214464162889	2.9902744	1.729241
12.265841953335649	2.9547303	1.7189329
12.283469733877375	2.9537675	1.7186528
12.301097806219685	2.9561157	1.7193358
12.31872617079425	2.9409177	1.7149104
12.336354828032825	2.918	1.7082155
12.353983778367205	2.9237688	1.7099031
12.371613022229262	2.9152863	1.707421
12.389242560050928	2.9098032	1.7058145
12.406872392264201	2.8881848	1.699466
12.424502519301143	2.8876534	1.6993097
12.442132941593874	2.846826	1.687254
12.459763659574586	2.8233955	1.6802963
12.477394673675532	2.8017955	1.6738565
12.49502598432903	2.8246484	1.6806691
12.51265759196746	2.8449366	1.686694
12.530289497023267	2.797578	1.6725962
12.547921699928967	2.7875495	1.6695956
12.565554201117134	2.767073	1.6634521
12.583187001020404	2.7398775	1.6552575
12.600820100071486	2.6855075	1.6387519
12.618453498703152	2.6298404	1.6216782
12.636087197348235	2.6671999	1.6331564
12.65372119643964	2.7244549	1.6505923
12.671355496410326	2.743608	1.656384
12.68899009769333	2.7477682	1.6576394
12.706625000721749	2.8039021	1.6744857
12.724260205928752	2.905469	1.7045436
12.741895713747551	2.951396	1.7179627
12.759531524611454	2.9761724	1.7251587
12.777167638953818	2.9342902	1.7129769
12.794804057208072	2.9357204	1.7133944
12.812440779807702	2.9881768	1.7286344
12.830077807186271	3.1907032	1.7862539
12.847715139777405	3.2176287	1.793775
12.865352778014795	3.423636	1.850307
12.882990722332197	3.5005183	1.8709673
12.90062897316344	3.5906558	1.8949026
12.918267530942412	3.6649585	1.9144081
12.935906396103071	3.5596306	1.8866984
12.953545569079449	3.7008834	1.923768
12.971185050305628	3.5441768	1.8825984
12.988824840215775	3.5661294	1.8884199
13.006464939244115	3.4938405	1.8691818
13.024105347824943	3.3539684	1.8313843
13.041746066392617	3.44323	1.8555943
13.05938709538157	3.2811904	1.8114057
13.077028435226296	3.3210065	1.8223629
13.094670086361363	3.243704	1.8010286
13.112312049221401	3.144184	1.7731848
13.129954324241112	3.031544	1.741133
13.147596911855258	2.8261542	1.6811169
13.165239812498685	2.8271728	1.6814198
13.182883026606293	2.787039	1.6694428
13.200526554613058	2.7581706	1.6607741
13.218170396954017	2.7084231	1.6457287
13.235814554064284	2.695563	1.641817
13.253459026379034	2.7328136	1.6531224
13.271103814333523	2.6985848	1.642737
13.288748918363058	2.6773207	1.636252
13.306394338903031	2.6501286	1.6279216
13.32404007638889	2.6670182	1.6331007
13.341686131256164	2.6962304	1.6420202
13.359332503940449	2.6555696	1.6295918
13.376979194877402	2.632648	1.6225437
13.394626204502751	2.657373	1.6301451
13.412273533252307	2.6729152	1.6349052
13.429921181561937	2.6731467	1.634976
13.447569149867581	2.7064698	1.6451352
13.465217438605247	2.7432067	1.6562629
13.482866048211022	2.761457	1.6617632
13.500514979121052	2.729049	1.6519834
13.518164231771568	2.6655695	1.6326572
13.535813806598844	2.6240993	1.6199071
13.553463704039254	2.6439743	1.6260302
13.571113924529229	2.6784446	1.6365955
13.588764468505275	2.711213	1.6465762
13.606415336403956	2.711924	1.646792
13.624066528661917	2.7395494	1.6551584
13.641718045715882	2.8004334	1.6734495
13.659369888002635	2.8397403	1.6851529
13.67702205595903	2.8797266	1.6969757
13.694674550021993	2.9383636	1.7141656
13.712327370628532	3.0093744	1.7347548
13.729980518215713	3.0875885	1.7571535
13.747633993220681	3.141939	1.7725515
13.765287796080647	3.165755	1.7792568
13.7829419272329	3.269718	1.8082361
13.800596387114801	3.3174384	1.8213836
13.818251176163775	3.3526444	1.8310227
13.835906294817324	3.3461998	1.8292621
13.853561743513023	3.3517244	1.8307716
13.871217522688525	3.3659658	1.8346568
13.888873632781538	3.3969643	1.8430855
13.906530074229858	3.4491851	1.8571982
13.92418684747135	3.4876482	1.8675246
13.941843952943948	3.5066512	1.8726054
13.959501391085665	3.4639072	1.8611575
13.977159162334578	3.3646111	1.8342876
13.994817267128846	3.3412592	1.8279111
14.012475705906693	3.2727125	1.809064
14.030134479106424	3.2262352	1.7961724
14.047793587166414	3.1089694	1.763227
14.065453030525108	3.0333152	1.7416415
14.083112809621026	2.9887817	1.7288094
14.100772924892766	2.9391644	1.7143991
14.118433376778997	2.90434	1.7042124
14.136094165718458	2.8115315	1.6767622
14.153755292149969	2.7252657	1.6508379
14.171416756512416	2.6586735	1.630544
14.189078559244768	2.5966096	1.6113999
14.20674070078606	2.533418	1.5916715
14.224403181575408	2.4744875	1.5730504
14.242066002051999	2.455161	1.5668954
14.259729162655093	2.4605663	1.5686193
14.277392663824022	2.4557686	1.5670892
14.295056505998208	2.4398685	1.5620078
14.312720689617128	2.408952	1.5520799
14.330385215120348	2.373902	1.5407473
14.348050082947497	2.3555405	1.534777
14.3657152935383	2.3411596	1.5300848
14.383380847332528	2.3413265	1.5301393
14.401046744770051	2.3595788	1.536092
14.418712986290798	2.3610048	1.5365561
14.436379572334793	2.3259106	1.5250937
14.454046503342123	2.3177686	1.522422
14.471713779752946	2.3277602	1.5256999
14.489381402007504	2.346455	1.5318143
14.507049370546113	2.3358223	1.5283397
14.524717685809168	2.3178012	1.5224327
14.542386348237134	2.35514	1.5346465
14.560055358270553	2.3814266	1.5431871
14.577724716350051	2.4551084	1.5668786
14.595394422916325	2.4722536	1.5723401
14.61306447841015	2.456021	1.5671698
14.63073488327237	2.4584427	1.5679421
14.648405637943917	2.4639056	1.5696833
14.6660767428658	2.4727714	1.5725049
14.683748198479094	2.5076542	1.5835575
14.701420005224954	2.5124528	1.5850719
14.719092163544628	2.561418	1.6004431
14.73676467387942	2.6348627	1.623226
14.754437536670727	2.6831906	1.6380447
14.772110752360014	2.7076082	1.6454811
14.78978432138882	2.680643	1.637267
14.807458244198777	2.698983	1.6428581
14.82513252123159	2.6890032	1.6398181
14.842807152929028	2.7114723	1.6466548
14.860482139732962	2.6795871	1.6369444
14.87815748208531	2.6299865	1.6217233
14.8958331804281	2.6411095	1.625149
14.91350923520342	2.5993829	1.6122602
14.931185646853438	2.6405978	1.6249917
14.948862415820408	2.6076486	1.6148216
14.966539542546656	2.6199462	1.6186248
14.98421702747459	2.5761876	1.6050507
15.001894871046696	2.5883493	1.6088347
15.019573073705542	2.6087236	1.6151544
15.037251635893766	2.6289978	1.6214185
15.054930558054092	2.657794	1.6302742
15.072609840629323	2.7167747	1.6482642
15.090289484062351	2.8514798	1.6886325
15.107969488796124	3.1128829	1.7643363
15.125649855273691	3.4778469	1.8648986
15.14333058393817	3.9619944	1.9904759
15.161011675232768	4.8908286	2.2115219
15.17869312960076	6.267627	2.5035229
15.196374947485506	8.122046	2.8499205
15.214057129330447	11.218872	3.3494585
15.231739675579114	15.689845	3.961041
15.249422586675102	20.296263	4.5051374
15.267105863062092	22.983507	4.7941117
15.284789505183847	23.193312	4.8159437
15.302473513484218	21.081781	4.5914903
15.320157888407127	17.741755	4.212096
15.337842630396578	13.906318	3.7291176
15.355527739896656	10.918081	3.304252
15.37321321735153	8.54374	2.9229677
15.39089906320545	6.352399	2.5203965
15.408585277902748	4.8757586	2.208112
15.42627186188783	3.8367975	1.9587744
15.443958815605198	3.3049078	1.8179406
15.461646139499424	2.976515	1.725258
15.479333834015168	2.8115616	1.6767712
15.497021899597165	2.751875	1.6588776
15.514710336690234	2.6908257	1.6403736
15.53239914573928	2.668196	1.6334614
15.550088327189297	2.600323	1.6125517
15.567777881485336	2.4945433	1.5794123
15.58546780907256	2.4170628	1.5546906
15.6031581103962	2.3465319	1.5318394
15.620848785901568	2.3581676	1.5356326
15.638539836034063	2.4002771	1.5492828
15.656231261239173	2.4112287	1.5528132
15.673923061962451	2.4050047	1.5508077
15.691615238649552	2.3935952	1.5471249
15.709307791746202	2.3693614	1.539273
15.727000721698221	2.363819	1.5374715
15.744694028951498	2.3278725	1.5257367
15.76238771395202	2.3367164	1.5286322
15.780081777145844	2.3388736	1.5293376
15.797776218979125	2.3426814	1.5305821
15.815471039898094	2.34781	1.5322565
15.833166240349064	2.311938	1.5205059
15.850861820778437	2.3056211	1.5184273
15.868557781632699	2.2972262	1.5156603
15.886254123358412	2.281686	1.5105251
15.903950846402232	2.298734	1.5161576
15.921647951210897	2.337727	1.5289627
15.939345438231225	2.351792	1.5335554
15.957043307910133	2.3023698	1.5173562
15.974741560694602	2.2776759	1.5091971
15.992440197031714	2.3061197	1.5185914
16.01013921736862	2.3705037	1.539644
16.02783862215259	2.3482983	1.5324159
16.045538411830933	2.3218338	1.5237565
16.06323858685107	2.3330705	1.5274392
16.080939147660512	2.3685684	1.5390154
16.09864009470684	2.3645809	1.5377194
16.11634142843774	2.3596032	1.5361
16.134043149300954	2.324198	1.5245321
16.15174525774433	2.29148	1.5137635
16.169447754215817	2.3121498	1.5205755
16.18715063916342	2.341706	1.5302634
16.204853913035244	2.3849974	1.5443437
16.222557576279478	2.4020529	1.5498557
16.240261629344403	22.399029	4.7327614
16.257966072678386	42.939407	6.552817
16.275670906729868	38.005436	6.164855
16.293376131947387	2.4379938	1.5614076
16.31108174877957	2.4504242	1.5653831
16.328787757675133	2.4845657	1.5762506
16.34649415908287	2.504381	1.5825236
16.364200953451657	2.5006638	1.5813487
16.38190814123048	2.5593925	1.5998101
16.39961572286839	2.5935693	1.6104562
16.41732369881455	2.6437566	1.6259633
16.43503206951817	2.666853	1.6330502
16.45274083542859	2.6854591	1.6387371
16.47044999699522	2.7128873	1.6470845
16.488159554667558	2.7811394	1.6676749
16.505869508895184	2.87435	1.6953908
16.523579860127786	2.8979192	1.7023276
16.541290608815117	2.9134207	1.7068745
16.559001755407035	2.9448385	1.7160531
16.57671330035348	3.0071156	1.7341037
16.59442524410448	3.081775	1.7554985
16.61213758711015	3.1603305	1.7777319
16.629850329820705	3.176752	1.7823446
16.647563472686436	3.1982589	1.7883676
16.665277016157724	3.2356758	1.7987984
16.682990960685053	3.3126934	1.8200806
16.70070530671898	3.3986259	1.8435363
16.718420054710155	3.5005534	1.8709766
16.736135205109335	3.550722	1.8843359
16.753850758367335	3.5688055	1.8891282
16.771566714935087	3.5888174	1.8944174
16.789283075263597	3.6405864	1.9080321
16.80699983980398	3.6785655	1.9179587
16.82471700900741	3.7432606	1.9347508
16.84243458332518	3.8051572	1.9506812
16.860152563208665	3.846673	1.9612937
16.87787094910932	3.9124503	1.9779915
16.89558974147871	3.9990633	1.9997658
16.913308940768466	4.062421	2.015545
16.931028547430333	4.120038	2.0297878
16.94874856191613	4.1770344	2.0437794
16.966468984677785	4.2804937	2.0689354
16.98418981616729	4.282731	2.0694761
17.00191105683676	4.2897515	2.0711715
17.019632707138374	4.336461	2.082417
17.03735476752442	4.425126	2.1035984
17.05507723844728	4.473129	2.1149774
17.072800120359403	4.4867883	2.118204
17.090523413713353	4.541796	2.131149
17.108247118961785	4.5772605	2.1394534
17.125971236557437	4.611928	2.14754
17.143695766953133	4.612405	2.147651
17.161420710601806	4.615406	2.1483495
17.179146067956477	4.6076612	2.1465464
17.19687183947025	4.5953493	2.1436765
17.21459802559634	4.584716	2.141195
17.232324626788028	4.5849857	2.141258
17.25005164349871	4.5372	2.1300704
17.267779076181863	4.550908	2.1332858
17.285506925291074	4.5145392	2.1247444
17.30323519127999	4.544619	2.1318111
17.320963874602384	4.4781637	2.1161673
17.33869297571211	4.4623046	2.1124167
17.356422495063114	4.462472	2.1124563
17.37415243310944	4.4435816	2.1079805
17.391882790305218	4.4425325	2.1077316
17.40961356710468	4.4525743	2.1101124
17.42734476396215	4.4570127	2.1111639
17.445076381332044	4.4419427	2.1075916
17.462808419668868	4.4821978	2.1171203
17.48054087942723	4.5701866	2.1377995
17.498273761061835	4.850536	2.2023933
17.51600706502747	5.3802485	2.3195362
17.533740791779024	6.1771135	2.48538
17.551474941771485	7.686444	2.7724438
17.56920951545993	8.697641	2.9491763
17.586944513299528	10.53397	3.2456079
17.60467993574556	11.939823	3.455405
17.622415783253373	13.316695	3.6492047
17.64015205627843	14.4389305	3.7998593
17.657888755276293	15.3956	3.9237227
17.675625880702604	15.936198	3.9920168
17.69336343301311	15.811618	3.9763825
17.71110141266366	15.181814	3.8963847
17.728839820110178	14.43331	3.7991195
17.746578655808705	13.761615	3.709665
17.764317920215372	12.505764	3.536349
17.7820576137864	11.172479	3.3425257
17.79979773697811	9.281801	3.0466049
17.81753829024692	7.499131	2.738454
17.835279274049356	5.8957953	2.4281259
17.85302068884201	4.9047365	2.214664
17.870762535081607	4.2337885	2.0576172
17.888504813224934	3.8870912	1.9715707
17.90624752372891	3.663434	1.9140099
17.923990667050536	3.547658	1.8835227
17.941734243646895	3.4299078	1.8520011
17.959478253975185	3.4094257	1.8464631
17.9772226984927	3.4036505	1.8448985
17.994967577656833	3.3612454	1.83337
18.01271289192506	3.3621461	1.8336155
18.030458641754965	3.3381276	1.8270544
18.04820482760425	3.3378937	1.8269904
18.06595144993067	3.2928658	1.8146255
18.083698509192125	3.2680485	1.8077744
18.101446005846576	3.1935546	1.7870519
18.119193940352105	3.1417472	1.7724974
18.136942313166887	3.141065	1.772305
18.1546911247492	3.1739242	1.7815511
18.1724403755574	3.1173024	1.7655884
18.19019006604997	3.0872986	1.757071
18.207940196685467	3.110328	1.7636122
18.225690767922575	3.1092737	1.7633133
18.243441780220046	3.0554872	1.7479951
18.261193234036764	3.0007672	1.7322723
18.278945129831676	3.0050638	1.7335119
18.29669746806386	3.0229928	1.7386756
18.314450249192483	3.068923	1.7518342
18.3322034736768	3.0827887	1.7557873
18.349957141976184	3.083218	1.7559094
18.3677112545501	2.998097	1.7315013
18.385465811858108	2.9439764	1.715802
18.403220814359884	2.9759936	1.7251068
18.420976262515172	3.0484278	1.7459748
18.43873215678387	3.1154146	1.7650537
18.456488497625923	3.1086216	1.7631284
18.474245285501407	3.1956115	1.7876273
18.492002520870486	3.248632	1.8023962
18.50976020419343	3.30938	1.8191701
18.527518335930615	3.6007504	1.8975643
18.545276916542516	4.1863832	2.0460653
18.563035946489688	4.3567924	2.0872931
18.580795426232832	4.8096776	2.1930978
18.598555356232698	4.736173	2.176275
18.616315736950185	5.02908	2.242561
18.63407656884626	4.667382	2.1604123
18.65183785238201	4.891065	2.2115753
18.669599588018617	4.698124	2.1675155
18.68736177621737	4.7239103	2.173456
18.705124417439652	4.680455	2.163436
18.72288751214696	4.4521565	2.1100135
18.740651060800886	4.589206	2.1422434
18.758415063863115	4.287089	2.0705287
18.77617952179546	4.4391932	2.1069393
18.793944435059814	4.197652	2.0488172
18.811709804118184	4.2716117	2.0667877
18.829475629432675	4.274563	2.0675015
18.8472419114655	4.086103	2.0214112
18.86500865067897	4.1601496	2.0396445
18.88277584753551	3.792369	1.9474006
18.90054350249763	3.805303	1.9507186
18.918311616027957	3.4564424	1.859151
18.936080188589226	3.3579502	1.832471
18.953849220644265	3.0146594	1.7362775
18.971618712656007	2.819158	1.6790348
18.9893886650875	2.788814	1.6699743
19.007159078401887	7.973536	2.823745
19.024929953062408	32.870804	5.7333064
19.042701289532435	32.83407	5.730102
19.060473088275405	25.39915	5.0397573
19.07824534975489	2.6290495	1.6214345
19.096018074434568	2.576121	1.60503
19.113791262778197	2.5695963	1.602996
19.13156491524966	2.6072032	1.6146836
19.149339032312945	2.6038797	1.6136541
19.167113614432136	2.5701113	1.6031567
19.184888662071433	2.5306165	1.5907911
19.202664175695123	2.48399	1.5760679
19.220440155767623	2.4964302	1.5800096
19.238216602753447	2.506935	1.5833303
19.2559935171172	2.4898515	1.5779263
19.27377089932361	2.4339154	1.560101
19.291548749837514	2.3854136	1.5444784
19.309327069123835	2.3789191	1.5423745
19.32710585764763	2.4138577	1.5536594
19.344885115874032	2.4604127	1.5685703
19.362664844268313	2.4813728	1.5752374
19.380445043295822	2.4857805	1.5766358
19.39822571342203	2.4961982	1.5799361
19.41600685511252	2.5029583	1.582074
19.43378846883297	2.4874194	1.5771555
19.451570555049173	2.4307406	1.5590832
19.469353114227037	2.4057171	1.5510374
19.48713614683254	2.4209025	1.555925
19.50491965333182	2.490057	1.5779915
19.52270363419109	2.5316653	1.5911207
19.540488089876686	2.5202522	1.5875303
19.55827302085503	2.4718642	1.5722164
19.576058427592674	2.467671	1.5708822
19.593844310556282	2.4522097	1.5659533
19.611630670212598	2.4273567	1.5579977
19.629417507028506	2.4243643	1.557037
19.64720482147098	2.4097607	1.5523404
19.6649926140071	2.4406874	1.5622699
19.682780885104084	2.4611106	1.5687927
19.70056963522921	2.45595	1.5671471
19.718358864849908	2.448203	1.5646734
19.7361485744337	2.4672997	1.5707641
19.753938764448215	2.4458625	1.5639254
19.771729435361202	2.44046	1.5621972
19.789520587640506	2.4492977	1.5650232
19.807312221754092	2.471888	1.5722239
19.825104338170043	2.4639218	1.5696884
19.842896937356517	2.4386187	1.5616077
19.860690019781824	2.455303	1.5669407
19.87848358591436	2.482252	1.5755163
19.896277636222635	2.547585	1.5961156
19.914072171175278	2.5470235	1.5959398
19.931867191241015	2.5284874	1.5901219
19.94966269688869	2.4817622	1.575361
19.967458688587264	2.459138	1.5681639
19.985255166805807	2.4562743	1.5672505
20.00305213201348	2.448211	1.564676
20.020849584679578	2.4298728	1.5588049
20.038647525273507	2.4181254	1.5550323
20.05644595426477	2.4172	1.5547347
20.07424487212299	2.4200451	1.5556494
20.092044279317903	2.3859556	1.5446539
20.109844176319353	2.3854413	1.5444874
20.127644563597304	2.4159365	1.5543283
20.145445441621817	2.4367852	1.5610206
20.16324681086307	2.3871272	1.5450331
20.181048671791373	2.3512096	1.5333655
20.198851024877122	2.321999	1.5238107
20.216653870590836	2.3569472	1.5352352
20.234457209403146	2.3530593	1.5339684
20.252261041784802	2.357335	1.5353615
20.270065368206662	2.337796	1.5289853
20.287870189139685	2.303756	1.5178128
20.305675505054968	2.296446	1.5154029
20.323481316423702	2.2832468	1.5110416
20.341287623717207	2.3171537	1.52222
20.359094427406884	2.3320174	1.5270945
20.376901727964288	2.3408206	1.529974
20.39470952586107	2.313892	1.5211482
20.41251782156899	2.3208342	1.5234284
20.430326615559935	2.328476	1.5259345
20.448135908305886	2.325414	1.5249308
20.465945700278965	2.3296437	1.526317
20.483755991951384	2.3305676	1.5266197
20.50156678379548	2.324165	1.5245212
20.519378076283708	2.311539	1.5203747
20.537189869888635	2.2995865	1.5164387
20.55500216508294	2.3163965	1.5219712
20.572814962339415	2.2984695	1.5160705
20.59062826213098	2.2596326	1.5032074
20.60844206493066	2.24045	1.4968133
20.626256371211593	2.257934	1.5026424
20.644071181447032	2.274642	1.5081916
20.66188649611036	2.2817276	1.5105388
20.67970231567506	2.268382	1.5061148
20.697518640614742	2.279663	1.5098553
20.715335471403122	2.2977505	1.5158333
20.73315280851404	2.2963138	1.5153593
20.750970652421447	2.2724226	1.5074557
20.768789003599412	2.2362907	1.4954232
20.786607862522136	2.2336013	1.4945238
20.8044272296639	2.2369807	1.495654
20.82224710549913	2.2653978	1.5051239
20.84006749050237	2.2964768	1.515413
20.857888385148268	3.8633835	1.9655491
20.8757097899116	45.94231	6.7780757
20.893531705267254	64.759026	8.047299
20.911354131690224	83.761215	9.152115
20.92917706965566	69.03179	8.3085375
20.94700051963877	50.1078	7.078686
20.96482448211493	29.356247	5.4181404
20.982648957559622	4.067952	2.0169165
21.00047394644843	2.1760004	1.4751272
21.01829944925707	2.167219	1.4721477
21.036125466461375	2.178801	1.4760762
21.053951998537297	2.172771	1.4740322
21.071779045960906	2.1941495	1.4812661
21.089606609208378	2.2158635	1.4885777
21.10743468875603	2.2223737	1.4907628
21.12526328508028	2.229594	1.4931825
21.143092398657675	2.2007926	1.4835068
21.16092202996488	2.1682947	1.4725131
21.17875217947867	2.1574779	1.4688356
21.19658284767596	2.157917	1.4689851
21.21441403503377	2.1418185	1.4634953
21.232245742029225	2.1255662	1.4579322
21.2500779691396	2.136814	1.4617846
21.26791071684227	2.1617193	1.4702786
21.28574398561475	2.169608	1.4729589
21.30357777593465	2.1511176	1.4666688
21.321412088279704	2.1301951	1.4595188
21.339246923127792	2.110839	1.4528726
21.357082280956888	2.0908773	1.4459866
21.3749181622451	2.1184187	1.4554789
21.392754567470647	2.1201909	1.4560875
21.41059149711187	2.1089082	1.452208
21.42842895164726	2.0917811	1.4462991
21.446266931555378	2.074496	1.4403111
21.464105437314945	2.086215	1.4443736
21.481944469404798	2.0898018	1.4456147
21.49978402830388	2.0839097	1.4435754
21.51762411449127	2.0926893	1.4466131
21.53546472844617	2.0781844	1.4415909
21.553305870647876	2.0515358	1.4323183
21.571147541575865	2.0522616	1.4325716
21.58898974170967	2.075318	1.4405965
21.60683247152899	2.0945616	1.44726
21.62467573151363	2.0898013	1.4456145
21.642519522143523	2.0950997	1.4474459
21.660363843898722	2.0762937	1.440935
21.6782086972594	2.0562983	1.4339799
21.696054082705864	1.9995545	1.4140561
21.713900000718535	1.9672717	1.4025947
21.73174645177795	1.9602507	1.4000895
21.749593436364794	2.005901	1.4162984
21.767440954959845	2.0098612	1.4176958
21.785289008044032	2.0112908	1.4181999
21.803137596098388	2.042644	1.429211
21.820986719604086	2.0543082	1.4332858
21.838836379042412	1.9948523	1.4123924
21.85668657489478	1.9622207	1.4007928
21.87453730764273	1.9680954	1.4028883
21.892388577767914	1.974866	1.4052993
21.91024038575213	1.9851025	1.4089366
21.928092732077285	2.0043044	1.4157345
21.945945617225426	2.0257287	1.423281
21.963799041678694	2.0075457	1.4168788
21.981653005919398	31.296427	5.594321
21.999507510429943	78.12	8.838552
22.01736255569286	73.11717	8.550858
22.035218142190818	4.193038	2.0476909
22.05307427040661	1.9642916	1.4015318
22.07093094082315	1.9287088	1.3887796
22.088788153923474	1.9233525	1.3868499
22.106645910190746	1.9141154	1.3835156
22.12450421010827	1.89141	1.3752854
22.142363054159464	1.9060994	1.3806156
22.16022244282787	1.893239	1.3759502
22.178082376597164	1.8980472	1.3776964
22.195942855951145	1.9277338	1.3884286
22.213803881373742	1.9211526	1.3860565
22.231665453349002	1.9123871	1.3828908
22.24952757236111	1.8854249	1.3731078
22.26739023889438	1.9159869	1.3841918
22.28525345343323	1.9363643	1.391533
22.30311721646225	1.9194275	1.385434
22.320981528466113	1.8683441	1.3668739
22.33884638992964	1.857251	1.36281
22.356711801337788	1.8806125	1.3713542
22.37457776317561	1.8978215	1.3776145
22.392444275928337	1.9059075	1.3805461
22.410311340081282	1.92065	1.3858752
22.428178956119904	1.9352366	1.3911278
22.446047124529805	1.9466213	1.3952137
22.46391584579669	1.9501832	1.3964896
22.481785120406414	1.9413825	1.393335
22.49965494884496	1.9125887	1.3829638
22.51752533159841	1.937222	1.3918412
22.53539626915302	1.9258386	1.3877459
22.553267761995137	1.94615	1.3950448
22.571139810611264	1.9199908	1.3856373
22.589012415488025	1.9140209	1.3834814
22.60688557711216	1.8462332	1.3587617
22.624759295970566	1.8356069	1.3548458
22.642633572550263	1.8426416	1.3574394
22.660508407338362	1.8754755	1.36948
22.67838380082217	1.9021584	1.3791876
22.696259753489077	1.9400811	1.3928679
22.714136265826614	1.9227705	1.38664
22.73201333832246	1.8969668	1.3773042
22.74989097146439	1.8708287	1.3677825
22.76776916574035	1.8808686	1.3714476
22.785647921638393	1.899954	1.3783882
22.803527239646712	1.910522	1.3822163
22.82140712025363	1.8859433	1.3732965
22.839287563947593	1.9053352	1.3803388
22.85716857121719	1.8802394	1.3712182
22.875050142551135	1.9045769	1.3800641
22.892932278438277	1.8868641	1.3736317
22.910814979367604	1.8942717	1.3763255
22.928698245828222	1.8863773	1.3734546
22.946582078309387	1.889855	1.37472
22.96446647730047	1.9068661	1.3808932
22.98235144329098	1.8718653	1.3681613
23.000236976770562	1.8764137	1.3698225
23.018123078229	1.8825431	1.372058
23.03600974815619	1.885309	1.3730656
23.053896987042194	1.8623852	1.3646923
23.071784795377173	1.8338859	1.3542105
23.08967317365145	1.8645186	1.3654737
23.10756212235546	1.8854047	1.3731004
23.125451641979787	1.9198804	1.3855975
23.143341733015134	1.9191663	1.3853397
23.161232395952357	1.9265938	1.3880179
23.179123631282426	1.8679847	1.3667424
23.197015439496468	1.8438063	1.3578683
23.214907821085717	1.8529487	1.3612306
23.23280077654157	1.878288	1.3705065
23.250694306355538	1.9257693	1.387721
23.268588411019277	1.9314923	1.3897814
23.28648309102458	1.9366994	1.3916534
23.304378346863356	1.8978736	1.3776333
23.322274179027676	1.8880802	1.3740743
23.340170588009723	1.8951072	1.3766289
23.358067574301852	1.8566297	1.362582
23.37596513839651	1.8393544	1.356228
23.39386328078629	1.8542238	1.3616989
23.411762001963947	1.8980507	1.3776976
23.429661302422353	1.954781	1.3981348
23.4475611826545	1.9145639	1.3836777
23.46546164315356	1.888335	1.374167
23.48336268441279	1.8941689	1.376288
23.501264306925638	1.8990115	1.3780463
23.51916651118564	1.8701571	1.3675369
23.537069297686497	1.8871343	1.3737301
23.554972666922037	1.9451834	1.3946983
23.57287661938623	1.9637165	1.4013267
23.59078115557318	2.0012922	1.4146703
23.608686275977128	1.9269522	1.388147
23.62659198109246	1.9012601	1.3788619
23.6444982714137	1.8561083	1.3623906
23.66240514743549	1.8600065	1.3638206
23.68031260965263	1.8603301	1.3639392
23.698220658560068	1.8850857	1.3729843
23.716129294652845	1.8673176	1.3664982
23.7340385184262	1.8629342	1.3648934
23.75194833037546	1.8440516	1.3579586
23.769858730996123	1.8921193	1.3755432
23.78776972078382	1.8917737	1.3754176
23.80568130023431	1.9062921	1.3806853
23.823593469843495	1.8726518	1.3684487
23.841506230107424	1.8922259	1.375582
23.859419581522275	1.873142	1.3686278
23.87733352458438	1.8947663	1.3765051
23.89524805979019	1.8401923	1.3565369
23.913163187636318	1.8265954	1.351516
23.931078908619508	1.8684202	1.3669016
23.948995223236633	1.9549615	1.3981994
23.966912131984735	2.0238276	1.4226129
23.98482963536096	2.040415	1.4284309
24.002747733862616	2.0054255	1.4161304
24.020666427987155	2.0080707	1.4170641
24.038585718232156	2.0145779	1.4193583
24.056505605095353	1.9885135	1.4101466
24.074426089074617	1.977832	1.4063542
24.092347170667946	2.0159974	1.4198582
24.110268850373515	2.1145542	1.4541507
24.128191128689586	2.1478102	1.4655409
24.146114006114626	2.0941696	1.4471246
24.164037483147187	2.0150433	1.4195222
24.181961560286005	1.9875823	1.4098164
24.199886238029926	1.9940537	1.4121096
24.21781151687797	2.0202408	1.4213518
24.235737397329274	2.0617802	1.4358901
24.253663879883135	2.0387468	1.4278469
24.271590965038975	2.033823	1.4261217
24.289518653296376	2.055608	1.4337392
24.30744694515505	2.047767	1.431002
24.32537584111486	2.054297	1.4332819
24.34330534167581	2.0368237	1.4271734
24.361235447338046	2.0362017	1.4269553
24.379166158601876	1.9899125	1.4106426
24.39709747596772	2.032024	1.4254907
24.41502939993615	2.0647058	1.4369085
24.432961931007917	2.0388741	1.4278915
24.450895069683856	2.004251	1.4157157
24.468828816465	1.9260092	1.3878074
24.4867631718525	1.878468	1.3705722
24.504698136347656	1.8694648	1.3672837
24.52263371045192	1.9037724	1.3797725
24.540569894666874	1.9311439	1.3896561
24.558506689494266	1.8969498	1.377298
24.57644409543597	1.885663	1.3731945
24.594382112994012	1.8954136	1.3767402
24.61232074267057	1.9548295	1.3981521
24.630259984967953	1.9942402	1.4121757
24.64819984038863	1.9696072	1.403427
24.66614030943522	1.9610689	1.4003817
24.684081392610462	1.9152155	1.3839132
24.702023090417274	1.8903539	1.3749014
24.7199654033587	1.8911233	1.3751812
24.737908331937927	1.909876	1.3819827
24.755851876658305	1.9467001	1.395242
24.773796038023324	1.9487454	1.3959748
24.79174081653661	2.0097673	1.4176626
24.809686212701962	2.0452259	1.4301139
24.827632227023294	2.057854	1.4345222
24.8455788600047	2.017592	1.4204197
24.8635261121504	2.028184	1.4241432
24.88147398396475	2.0477881	1.4310095
24.899422475952303	2.0928934	1.4466835
24.917371588617698	2.0867171	1.4445474
24.935321322465768	2.1561255	1.4683751
24.953271678001478	2.2695825	1.5065134
24.97122265572994	2.4436002	1.5632019
24.989174256156414	2.690923	1.6404033
25.00712647978632	3.0461712	1.7453284
25.02507932712521	3.5597568	1.8867317
25.043032798678798	4.111262	2.0276246
25.060986894952933	4.7267556	2.1741104
25.078941616453637	5.40191	2.3242009
25.096896963687055	6.2300262	2.496002
25.114852937159508	7.2789474	2.6979525
25.132809537377444	7.7271123	2.7797685
25.150766764847468	7.745376	2.7830515
25.168724620076347	7.227278	2.6883597
25.186683103570985	6.241481	2.4982955
25.204642215838426	5.251793	2.2916791
25.222601957385894	4.109093	2.0270898
25.24056232872074	3.2624207	1.8062172
25.25852333035048	2.6557217	1.6296386
25.276484962782778	2.28558	1.5118134
25.294447226525435	2.1044288	1.450665
25.312410122086423	2.0087662	1.4173095
25.330373649973843	1.9978263	1.4134449
25.348337810695988	1.998737	1.413767
25.366302604761245	1.9325581	1.3901647
25.384268032678207	1.8615758	1.3643957
25.40223409495558	1.8568478	1.362662
25.420200792102257	1.922869	1.3866755
25.438168124627246	1.9074062	1.3810887
25.45613609303974	1.8636794	1.3651664
25.474104697849057	1.8043922	1.3432766
25.492073939564698	1.8031119	1.3428
25.510043818696285	1.8769965	1.3700352
25.528014335753614	1.947198	1.3954204
25.54598549124664	1.9069538	1.3809249
25.56395728568544	1.8221316	1.3498635
25.58192971958028	1.824188	1.350625
25.59990279344156	1.8600512	1.3638369
25.617876507779833	1.8898982	1.3747357
25.635850863105826	1.8848016	1.3728808
25.653825859930386	1.883739	1.3724937
25.671801498764548	1.8786806	1.3706497
25.68977778011949	1.8763732	1.3698077
25.707754704506524	1.8901343	1.3748215
25.725732272437153	1.9097173	1.3819252
25.743710484423012	1.8293556	1.3525367
25.761689340975888	1.8003364	1.3417661
25.77966884260774	1.7947059	1.3396664
25.797648989830662	1.8272829	1.3517703
25.815629783156922	1.8338991	1.3542153
25.83361122309895	1.841546	1.3570358
25.85159331016929	1.8570806	1.3627474
25.869576044880695	1.8477591	1.359323
25.887559427746034	1.8434194	1.3577259
25.90554345927836	1.8049272	1.3434758
25.92352813999086	1.7815924	1.334763
25.94151347039689	1.8148446	1.3471617
25.959499451009965	1.8488909	1.3597393
25.97748608234374	1.8592261	1.3635345
25.995473364912062	1.8049629	1.343489
26.013461299228904	1.8052795	1.343607
26.03144988580839	1.774157	1.3319749
26.04943912516483	1.7377802	1.3182489
26.067429017812675	1.7446349	1.3208463
26.085419564266537	1.7701588	1.3304732
26.103410765041186	1.8214843	1.3496238
26.12140262065155	1.8699311	1.3674543
26.139395131612723	1.8591787	1.363517
26.157388298439948	1.7732005	1.3316158
26.17538212164861	1.7276546	1.3144027
26.193376601754295	1.7127701	1.3087285
26.211371739272714	1.7110361	1.3080658
26.229367534719746	1.7383677	1.3184717
26.247363988611433	1.7600594	1.3266723
26.26536110146397	1.7521797	1.3236992
26.283358873793727	1.7953483	1.3399061
26.301357306117204	1.7521772	1.3236983
26.319356398951104	1.6918899	1.3007267
26.33735615281224	1.679934	1.2961227
26.35535656821762	1.7227379	1.3125311
26.373357645684404	1.7214075	1.3120242
26.39135938572991	1.7091255	1.3073353
26.409361788871614	1.7591714	1.3263376
26.427364855627165	1.8029878	1.3427538
26.445368586514352	1.8168654	1.3479115
26.46337298205115	1.799127	1.3413154
26.48137804275568	1.8174405	1.3481249
26.499383769146217	1.8445783	1.3581525
26.517390161741215	1.8411064	1.3568738
26.53539722105928	1.750251	1.3229705
26.553404947619182	1.7306218	1.315531
26.571413341939856	1.7719407	1.3311427
26.589422404540397	1.8342206	1.354334
26.60743213594006	1.7834109	1.3354441
26.62544253665827	1.7383931	1.3184813
26.64345360721459	1.6982348	1.3031634
26.66146534812879	1.7010274	1.3042344
26.679477759920758	1.7201681	1.3115518
26.69749084311057	1.750419	1.323034
26.71550459821847	1.7551332	1.3248144
26.733519025764842	1.7329247	1.316406
26.751534126270258	1.7434585	1.3204008
26.769549900255434	1.7566942	1.3254035
26.787566348241267	1.7510808	1.323284
26.80558347074881	1.7427583	1.3201357
26.823601268299267	1.7281452	1.3145894
26.841619741414036	1.7399111	1.3190569
26.85963889061465	1.7618837	1.3273597
26.877658716422832	1.7884281	1.3373213
26.89567921936045	1.7948192	1.3397087
26.913700399949544	1.7898172	1.3378406
26.93172225871233	1.7722872	1.3312728
26.949744796171174	1.7651762	1.3285993
26.967768012848605	1.7529869	1.3240042
26.98579190926733	1.8208716	1.3493967
27.003816485950225	1.857161	1.362777
27.021841743420318	1.8542826	1.3617204
27.039867682200814	1.8174105	1.3481137
27.057894302815072	1.7993988	1.3414167
27.07592160578664	1.7415934	1.3196944
27.0939495916392	1.7227584	1.3125389
27.111978260896635	1.7543646	1.3245243
27.13000761408296	1.751692	1.323515
27.148037651722397	1.7192862	1.3112155
27.166068374339304	1.7289611	1.3148997
27.184099782458215	1.7402592	1.3191888
27.20213187660384	1.7093507	1.3074214
27.22016465730105	1.7115031	1.3082443
27.23819812507487	1.7468364	1.3216794
27.256232280450533	1.8093755	1.3451303
27.274267123953383	1.8131634	1.3465376
27.292302656108987	1.8072959	1.344357
27.31033887744306	1.7775165	1.3332354
27.32837578848146	1.7609352	1.3270023
27.34641338975026	1.7511299	1.3233026
27.364451681775673	1.7490153	1.3225034
27.382490665084074	1.7481954	1.3221934
27.400530340202046	1.8116615	1.3459797
27.41857070765629	1.8575376	1.3629152
27.436611767973726	1.8306017	1.3529973
27.454653521681404	1.7926688	1.3389058
27.472695969306564	1.8007861	1.3419337
27.490739111376627	1.807463	1.3444192
27.508782948419153	1.7936343	1.3392663
27.526827480961902	1.7841456	1.3357191
27.54487270953279	1.7776788	1.3332962
27.562918634659898	1.7747203	1.3321863
27.580965256871508	1.7707498	1.3306953
27.599012576696026	1.7852503	1.3361326
27.617060594662068	1.8166138	1.3478181
27.63510931129842	1.7935814	1.3392465
27.65315872713401	1.76986	1.3303609
27.67120884269797	1.7373836	1.3180984
27.68925965851958	1.7513067	1.3233694
27.707311175128307	1.7879065	1.3371263
27.725363393053787	1.8647606	1.3655624
27.74341631282583	1.8853793	1.3730911
27.7614699349744	1.8581035	1.3631227
27.77952426002968	2.0515275	1.4323155
27.797579288521973	2.1300023	1.4594527
27.815635020981784	2.672052	1.6346412
27.83369145793979	2.7210557	1.6495622
27.85174859992682	2.494136	1.5792834
27.869806447473923	2.3111887	1.5202594
27.887865001112267	1.9730928	1.4046682
27.905924261373233	1.8659793	1.3660085
27.92398422878836	1.8273814	1.3518068
27.94204490388936	1.857582	1.3629314
27.96010628720813	1.863147	1.3649714
27.978168379276728	1.8536826	1.3615001
27.9962311806274	1.7616112	1.327257
28.014294691792568	1.7142705	1.3093015
28.0323589133048	1.7627382	1.3276815
28.050423845696887	1.823009	1.3501885
28.068489489501758	1.8657962	1.3659415
28.086555845252523	1.9002311	1.3784887
28.104622913482487	1.87533	1.3694268
28.122690694725115	1.8538715	1.3615695
28.14075918951405	1.8529899	1.3612458
28.15882839838312	1.8633897	1.3650603
28.176898321866304	1.8523757	1.3610201
28.1949689604978	1.860624	1.3640469
28.213040314811945	1.8630724	1.3649441
28.23111238534327	1.9001795	1.37847
28.249185172626493	1.8700216	1.3674873
28.267258677196473	1.8567518	1.3626268
28.285332899588294	1.8949941	1.3765879
28.303407840337172	1.8974574	1.3774823
28.321483499978545	1.8767298	1.3699379
28.33955987904799	1.8347985	1.3545474
28.357636978081285	1.8133274	1.3465985
28.37571479761439	1.8878132	1.3739772
28.393793338183425	1.9313718	1.3897381
28.41187260032469	1.9267136	1.388061
28.429952584574686	1.9144794	1.3836471
28.448033291470065	1.8874538	1.3738463
28.46611472154769	1.8496125	1.3600045
28.484196875344566	1.8253736	1.3510638
28.502279753397914	1.8935158	1.3760508
28.52036335624511	1.8824159	1.3720117
28.538447684423716	1.8472813	1.3591473
28.556532738471482	1.8835894	1.3724393
28.574618518926325	1.974746	1.4052565
28.59270502632635	2.003087	1.4153045
28.61079226120985	1.9455845	1.3948421
28.628880224115274	1.8775889	1.3702514
28.646968915581287	1.890687	1.3750225
28.66505833614671	1.9487637	1.3959813
28.68314848635055	1.9968565	1.4131017
28.701239366732004	2.0190349	1.4209275
28.71933097783044	1.9854342	1.4090544
28.737423320185403	1.9574707	1.3990964
28.75551639433665	1.9995214	1.4140444
28.773610200824074	2.0244665	1.4228375
28.791704740187793	2.0522544	1.4325691
28.80980001296809	2.0657394	1.437268
28.827896019705413	2.0882483	1.4450773
28.845992760940433	2.0714803	1.4392638
28.86409023721397	2.1037848	1.4504429
28.88218844906704	2.1493776	1.4660755
28.900287397040845	2.1516447	1.4668486
28.918387081676755	2.2127452	1.4875299
28.936487503516343	2.2300715	1.4933424
28.954588663101365	2.2684557	1.5061394
28.97269056097374	2.3196244	1.5230314
28.990793197675597	2.373942	1.5407602
29.00889657374923	2.3633869	1.5373311
29.027000689737125	2.3029919	1.5175612
29.04510554618196	2.288862	1.5128986
29.06321114362659	2.373356	1.54057
29.08131748261405	2.4953656	1.5796726
29.099424563687567	2.536166	1.5925344
29.11753238739057	2.4801385	1.5748456
29.13564095426663	2.4870086	1.5770252
29.15375026485954	2.6070828	1.6146463
29.171860319713275	2.6627185	1.6317838
29.18997111937199	2.6878192	1.639457
29.20808266438002	2.700823	1.6434181
29.226194955281898	2.737747	1.6546139
29.244307992622335	2.7637546	1.6624544
29.26242177694624	2.75962	1.6612104
29.2805363087987	2.761775	1.6618589
29.29865158872498	2.8210049	1.6795847
29.316767617270557	2.8646617	1.6925311
29.334884394981064	2.8775759	1.6963419
29.353001922402367	2.9020314	1.703535
29.37112020008047	2.97998	1.7262619
29.389239228561596	3.1314032	1.7695771
29.407359008392152	3.2867033	1.8129268
29.42547954011872	3.6256166	1.9041052
29.44360082428809	4.3389015	2.083003
29.46172286144722	5.2540045	2.2921615
29.479845652143283	6.5673547	2.562685
29.497969196923606	8.509071	2.9170313
29.516093496335728	10.822822	3.2898057
29.5342185509274	13.323037	3.6500735
29.55234436124651	15.346381	3.9174457
29.570470927841175	16.508593	4.063077
29.588598251259686	16.16637	4.0207424
29.60672633205055	14.797864	3.8467991
29.624855170762405	12.830826	3.5820143
29.642984767944146	10.614249	3.2579517
29.66111512414481	8.301258	2.8811903
29.67924623991366	6.3120885	2.512387
29.697378115800138	4.92751	2.2197995
29.71551075235387	4.144697	2.035853
29.733644150124675	3.7284644	1.9309232
29.751778309662576	3.4747455	1.864067
29.769913231517766	3.2881467	1.8133248
29.78804891624066	3.2535293	1.8037542
29.806185364381818	3.252428	1.8034489
29.82432257649206	3.251057	1.8030688
29.842460553122333	3.1934977	1.787036
29.86059929482382	3.1328857	1.7699959
29.878738802147872	3.166595	1.7794929
29.896879075646048	3.1738582	1.7815325
29.915020115870114	3.180193	1.7833096
29.933161923371976	3.1552575	1.7763045
29.951304498703777	3.1405933	1.7721719
29.969447842417857	3.183681	1.7842872
29.987591955066733	3.1455822	1.7735789
30.005736837203123	3.0720131	1.752716
30.023882489379943	3.0633483	1.7502424
30.04202891215028	3.0498004	1.7463678
30.060176106067455	3.0432372	1.7444876
30.078324071684946	3.0673234	1.7513776
30.09647280955646	3.1768293	1.7823663
30.114622320235863	3.2180808	1.793901
30.132772604277257	3.1611106	1.7779512
30.1509236622349	3.0706272	1.7523205
30.16907549466328	3.0282185	1.7401778
30.18722810211705	3.0526757	1.7471908
30.205381485151097	2.9892766	1.7289525
30.22353564432045	2.9465694	1.7165574
30.241690580180403	2.9429655	1.7155074
30.25984629328638	3.0005329	1.7322047
30.278002784194037	2.9655595	1.72208
30.296160053459246	2.9449515	1.7160861
30.314318101638033	2.904376	1.704223
30.332476929286646	2.843066	1.6861393
30.35063653696153	2.8270707	1.6813896
30.368796925219307	2.802133	1.6739573
30.386958094616844	2.8254333	1.6809025
30.40512004571115	2.8668995	1.6931921
30.423282779059463	2.8424563	1.6859586
30.441446295219233	2.8492846	1.6879824
30.459610594748067	2.818384	1.6788043
30.47777567820382	2.766805	1.6633716
30.495941546144504	2.7849264	1.6688099
30.51410819912835	2.8474214	1.6874304
30.532275637713795	2.8330376	1.6831629
30.55044386245946	2.720377	1.6493565
30.56861287392416	2.645957	1.6266398
30.586782672666956	2.6822605	1.6377609
30.604953259247047	2.6727886	1.6348666
30.623124634223885	2.72111	1.6495788
30.641296798157075	2.7739396	1.6655148
30.659469751606462	2.8096666	1.676206
30.677643495132074	2.7878766	1.6696936
30.695818029294152	2.7516572	1.658812
30.713993354653116	2.6773498	1.6362609
30.73216947176962	2.6751637	1.6355928
30.75034638120448	2.7137668	1.6473515
30.768524083518756	2.728198	1.6517258
30.786702579273673	2.7185168	1.6487925
30.80488186903069	2.7574036	1.6605432
30.82306195335144	2.9377356	1.7139823
30.841242832797782	3.1182187	1.7658478
30.85942450793176	3.3248944	1.8234293
30.877606979315637	3.548496	1.8837452
30.895790247511883	3.7954292	1.9481862
30.913974313083134	4.212306	2.0523903
30.932159176592283	4.5601206	2.135444
30.95034483860237	4.6423936	2.1546214
30.968531299676698	4.3608313	2.0882604
30.98671856037873	4.0954313	2.0237172
31.00490662127215	3.803447	1.9502428
31.023095482920848	3.4208586	1.8495563
31.04128514588892	2.9896586	1.7290629
31.059475610740662	2.6097481	1.6154715
31.07766687804056	2.4529335	1.5661844
31.09585894835335	2.4205709	1.5558184
31.11405182224393	2.3797293	1.5426371
31.132245500277417	2.430506	1.559008
31.15043998301914	2.4599159	1.568412
31.168635271034628	2.4156413	1.5542333
31.18683136488964	2.3735893	1.5406457
31.20502826515008	2.3516362	1.5335045
31.223225972382135	2.3410614	1.5300528
31.241424487152155	2.291574	1.5137945
31.259623810026692	2.327828	1.5257221
31.27782394157253	2.3282554	1.5258622
31.296024882356644	2.3671336	1.5385492
31.314226632946237	2.3825712	1.543558
31.332429193908684	2.385201	1.5444096
31.350632565811598	2.4145987	1.5538979
31.368836749222787	2.4152808	1.5541173
31.387041744710295	2.4356189	1.5606469
31.40524755284232	2.5239224	1.5886858
31.423454174187317	2.543565	1.5948558
31.441661609313922	2.5397408	1.5936564
31.459869858791002	2.4907506	1.5782112
31.478078923187628	2.3990867	1.5488986
31.496288803073064	2.3688378	1.5391029
31.514499499016807	2.3848798	1.5443056
31.532711011588546	2.3730383	1.5404669
31.550923341358178	2.3146596	1.5214006
31.56913648889584	2.251315	1.5004383
31.587350454771844	2.2359803	1.4953195
31.605565239556732	2.2211585	1.4903551
31.62378084382127	2.2833235	1.511067
31.641997268136382	2.353191	1.5340114
31.660214513073274	2.3185828	1.5226893
31.67843257920331	2.3243823	1.5245925
31.6966514670981	2.3078473	1.51916
31.71487117732944	2.27093	1.5069605
31.733091710469346	2.3227985	1.524073
31.751313067090052	2.3318405	1.5270365
31.769535247764008	2.2676313	1.5058656
31.787758253063878	2.1350017	1.4611645
31.805982083562526	2.1134396	1.4537674
31.824206739833024	2.1710925	1.4734628
31.84243222244869	2.2057762	1.4851856
31.860658531983013	2.1967402	1.4821404
31.878885669009737	2.1640608	1.4710747
31.897113634102784	2.1341572	1.4608755
31.91534242783632	2.1465058	1.4650959
31.933572050784694	2.2488196	1.4996065
31.951802503522508	2.263354	1.5044447
31.970033786624548	2.1771743	1.4755251
31.988265900665834	2.156011	1.4683362
32.006498846221575	2.2118676	1.4872348
32.02473262386724	2.2571242	1.5023729
32.04296723417845	2.210798	1.4868753
32.0612026777311	2.1415377	1.4633994
32.07943895510129	2.1274474	1.4585772
32.097676066865304	2.141247	1.4633
32.115914013599685	2.1852992	1.4782758
32.13415279588115	2.132639	1.4603558
32.152392414286666	2.072194	1.4395118
32.1706328693934	2.056599	1.4340847
32.18887416177875	2.082191	1.4429799
32.20711629202032	2.021415	1.4217647
32.225359260695924	2.0235999	1.4225329
32.243603068383614	2.0487049	1.4313297
32.26184771566166	2.0848129	1.4438881
32.28009320310852	2.1224084	1.4568487
32.2983395313029	2.0299704	1.4247704
32.31658670082372	2.028144	1.4241291
32.33483471225012	2.1073496	1.4516714
32.35308356616143	2.1664658	1.4718919
32.371333263137245	2.1327024	1.4603775
32.38958380375734	2.0602584	1.4353601
32.407835188601744	2.0428023	1.4292663
32.42608741825067	2.0880263	1.4450004
32.444340493284585	2.0819588	1.4428995
32.46259441428416	1.9566294	1.3987957
32.48084918183028	1.9086964	1.3815558
32.49910479650405	1.9360902	1.3914346
32.51736125888683	1.9891775	1.410382
32.53561856956014	2.0403905	1.4284223
32.5538767291058	2.0710008	1.4390972
32.572135738105764	2.0928333	1.4466628
32.59039559714228	2.0384905	1.4277571
32.608656306797776	1.9471421	1.3954004
32.62691786765491	1.9322939	1.3900697
32.645180280296586	2.001582	1.4147727
32.663443545305896	2.0611687	1.435677
32.68170766326619	2.006685	1.4165751
32.69997263476099	1.9232113	1.386799
32.7182384603741	1.8554012	1.3621311
32.7365051406895	1.8696498	1.3673514
32.75477267629144	1.9111611	1.3824475
32.77304106776434	1.9686729	1.403094
32.79131031569289	1.9742407	1.4050767
32.809580420661966	2.0691884	1.4384674
32.827851383256714	2.10421	1.4505895
32.84612320406245	2.1269672	1.4584125
32.86439588366476	2.0662582	1.4374485
32.88266942264945	2.011433	1.41825
32.9009438216025	1.9489311	1.3960413
32.9192190811102	1.9171374	1.3846073
32.937495201758985	1.9215249	1.3861908
32.95577218413556	1.9168079	1.3844883
32.974050028826866	1.9587921	1.3995686
32.992328736420035	1.9415727	1.3934033
33.010608307502444	1.8686523	1.3669866
33.02888874266169	1.9246119	1.3873038
33.047170042485604	1.9286311	1.3887516
33.06545220756225	1.9503578	1.3965521
33.083735238479896	1.9892584	1.4104108
33.10201913582707	1.9959909	1.4127954
33.12030390019248	1.9552002	1.3982847
33.138589532165135	1.9599843	1.3999944
33.15687603233419	1.9382949	1.3922266
33.17516340128909	1.9455425	1.394827
33.19345163961947	1.9209594	1.3859868
33.211740747915215	1.9238561	1.3870314
33.23003072676643	1.8875407	1.373878
33.248321576763466	1.8887159	1.3743056
33.266613298496885	1.9469593	1.3953348
33.28490589255747	2.0340571	1.4262037
33.30319935953626	1.9983394	1.4136263
33.32149370002451	1.9896549	1.4105513
33.339788914613706	1.9214797	1.3861744
33.358085003895575	1.8687134	1.3670089
33.376381968462034	1.8880228	1.3740534
33.39467980890529	1.9430908	1.393948
33.41297852581774	1.9661518	1.4021953
33.43127811979204	1.9679767	1.402846
33.44957859142105	1.9029119	1.3794607
33.467879941297866	1.91652	1.3843844
33.486182170015844	1.8661065	1.3660551
33.50448527816853	1.804441	1.3432949
33.522789266349754	1.8075714	1.3444595
33.541094135153514	1.8930932	1.3758973
33.55939988517411	1.9349865	1.391038
33.57770651700602	1.9035561	1.3796942
33.59601403124398	1.8180794	1.3483617
33.61432242848296	1.7969456	1.340502
33.632631709318154	1.8567594	1.3626297
33.650941874344994	1.8925531	1.375701
33.66925292415916	1.9112072	1.3824642
33.68756485935654	1.8993553	1.378171
33.70587768053328	1.8301996	1.3528486
33.724191388285746	1.7390256	1.3187212
33.74250598321054	1.8484098	1.3595624
33.760821465904506	1.865396	1.365795
33.77913783696474	1.7822584	1.3350126
33.79745509698852	1.7477325	1.3220184
33.815773246573414	1.8350153	1.3546274
33.8340922863172	1.9093663	1.3817981
33.852412216817896	1.8553435	1.3621099
33.87073303867377	1.8293238	1.352525
33.889054752483304	1.8965985	1.3771704
33.907377358845245	1.9236249	1.386948
33.92570085835853	1.9790021	1.4067701
33.94402525162239	2.0081615	1.4170961
33.96235053923627	2.01027	1.41784
33.980676721799824	1.992325	1.4114974
33.999003799912984	1.9248443	1.3873875
34.01733177417592	1.822788	1.3501067
34.03566064518901	1.7513701	1.3233933
34.0539904135529	1.7811049	1.3345804
34.07232107986846	1.7915027	1.3384703
34.090652644736785	1.8515558	1.3607188
34.108985108759235	1.8889747	1.3743998
34.12731847253742	1.9084187	1.3814553
34.14565273667313	1.9670888	1.4025295
34.16398790176847	2.0062077	1.4164066
34.18232396842574	1.9804432	1.4072822
34.20066093724749	1.9743122	1.4051023
34.21899880883651	2.0139341	1.4191315
34.23733758379583	2.038141	1.4276347
34.25567726272874	2.0661957	1.4374268
34.27401784623872	1.919112	1.3853202
34.29235933492957	1.9074247	1.3810954
34.31070172940526	1.932836	1.3902647
34.32904503027003	1.9499906	1.3964206
34.347389238128386	2.0394094	1.4280789
34.36573435358502	2.0641587	1.436718
34.38408037724492	2.0381527	1.4276389
34.402427309713296	1.9839885	1.4085413
34.42077515159559	2.0001025	1.4142498
34.43912390349752	1.9933751	1.4118694
34.45747356602499	1.7956117	1.3400043
34.47582413978423	1.8097531	1.3452706
34.49417562538163	1.8187132	1.3485967
34.51252802342388	1.7908086	1.3382109
34.53088133451789	1.7612455	1.3271192
34.54923555927084	1.8206763	1.3493243
34.567590698290104	1.9502857	1.3965263
34.58594675218336	2.065516	1.4371903
34.6043037215585	2.0062313	1.416415
34.62266160702365	1.9308343	1.3895446
34.641020409187234	1.9543858	1.3979934
34.65938012865785	1.9767542	1.4059709
34.677740766044394	1.993544	1.4119291
34.69610232195598	1.9657564	1.4020543
34.714464797002016	1.9008137	1.3787
34.73282819179208	1.6764238	1.2947679
34.751192506936064	1.7019958	1.3046056
34.76955774304408	1.8144473	1.3470142
34.7879239007265	1.931372	1.3897381
34.80629098059391	1.8595198	1.3636421
34.824658983257194	1.7836835	1.3355461
34.843027909327446	1.6642095	1.2900424
34.86139775941603	1.703086	1.3050234
34.879768534134534	1.805451	1.3436707
34.89814023409483	1.8727587	1.3684877
34.91651285990901	1.8663918	1.3661596
34.93488641218944	2.0931883	1.4467854
34.95326089154871	2.0984128	1.4485899
34.97163629859967	1.9662871	1.4022436
34.99001263395542	1.7440217	1.3206141
35.00838989822934	1.7476512	1.3219876
35.02676809203499	1.8008386	1.3419533
35.04514721598624	1.6692265	1.2919855
35.063527270697215	1.3775088	1.1736732
35.081908256782256	1.5323998	1.2379013
35.10029017485597	1.8304708	1.3529489
35.11867302553321	1.8834105	1.372374
35.137056809429104	2.0412474	1.4287223
35.155441527159006	1.9979504	1.4134887
35.173827179338524	1.8746536	1.3691798
35.19221376658354	1.88822	1.3741251
35.21060128951017	1.9956765	1.4126842
35.2289897487348	1.890098	1.3748083
35.24737914487405	1.7216619	1.3121212
35.26576947854479	1.7461843	1.3214327
35.28416075036418	2.0195258	1.4211001
35.30255296094958	2.0890682	1.4453609
35.32094611091867	2.1850543	1.4781929
35.33934020088932	2.3030396	1.5175768
35.35773523147969	2.220708	1.490204
35.3761312033082	2.2211866	1.4903646
35.394528116993506	2.4796681	1.5746962
35.41292597315452	2.3561592	1.5349786
35.431324772410434	2.1479836	1.4656
35.449724515380666	2.4701633	1.5716753
35.46812520268491	2.2218535	1.4905883
35.486526834943106	1.7300944	1.3153305
35.504929412775454	1.8254983	1.35111
35.52333293680242	2.0724308	1.439594
35.54173740764471	2.0002053	1.4142861
35.560142825923286	1.9031789	1.3795575
35.5785491922594	1.5106944	1.2291031
35.59695650727454	1.41292	1.1886631
35.61536477159042	1.4857981	1.2189332
