0.008763373481513119	0.0	0.0
0.026290120649546365	0.0	0.0
0.043816868432600686	0.13170215	0.36290792
0.06134361724069026	0.22303021	0.47226074
0.07887036748382949	0.21508467	0.4637722
0.0963971195720331	0.16931681	0.41148123
0.11392387391531617	0.16597511	0.40740043
0.1314506309236943	0.100521564	0.31705135
0.1489773910071836	0.12542757	0.35415757
0.16650415457580078	0.11790143	0.3433678
0.18403092203956356	0.17426074	0.41744548
0.20155769380849	0.1160448	0.34065348
0.2190844702925996	0.11895601	0.34489998
0.2366112519019124	0.098636925	0.31406516
0.2541380390464497	0.09272333	0.30450505
0.27166483213623416	0.08908177	0.2984657
0.28919163158128947	0.095370665	0.3088214
0.3067184377916406	0.112009116	0.33467764
0.324245251177314	0.08464156	0.29093224
0.34177207214833777	0.104614496	0.32344165
0.3592989011147415	0.1075239	0.32790837
0.37682573848655654	0.12758979	0.35719714
0.39435258467381573	0.18539032	0.43056977
0.41187944008655414	0.18919826	0.43496925
0.42940630513480854	0.218037	0.4669443
0.446933180228618	0.2021877	0.44965288
0.4644600657780234	0.20040853	0.4476701
0.48198696219306775	0.18431829	0.42932305
0.49951386988379676	0.16089742	0.40112022
0.5170407892602581	0.1665282	0.40807867
0.5345677207325025	0.17463729	0.41789627
0.5520946647105822	0.16925359	0.4114044
0.5696216216045534	0.14352934	0.37885267
0.5871485918244737	0.17987849	0.42412084
0.6046755757804043	0.1854712	0.43066368
0.6222025738824094	0.19035614	0.43629822
0.6397295865405557	0.2139406	0.46253714
0.6572566141649129	0.18403892	0.42899758
0.6747836571655547	0.19055106	0.43652153
0.6923107159525568	0.16455488	0.40565366
0.7098377909359992	0.16210401	0.40262142
0.7273648825259653	0.17724599	0.42100593
0.7448919911325411	0.1622916	0.40285432
0.762419117165817	0.14633869	0.3825424
0.7799462610358868	0.142154	0.37703314
0.7974734231528482	0.16307501	0.40382546
0.8150006039268024	0.19346556	0.4398472
0.8325278037678551	0.20808476	0.45616308
0.8500550230861152	0.16177039	0.4022069
0.8675822622916969	0.14173377	0.37647545
0.8851095217947171	0.16851735	0.41050866
0.9026368020052984	0.19584312	0.44254166
0.9201641033335665	0.23345068	0.48316735
0.9376914261896523	0.19993521	0.44714114
0.9552187709836915	0.21079594	0.4591252
0.9727461381258234	0.24365029	0.49360946
0.990273528026193	0.27941155	0.52859396
1.0078009410949496	0.2757698	0.5251379
1.0253283777422473	0.28680852	0.53554505
1.0428558383782454	0.28250661	0.5315135
1.0603833234131086	0.30833066	0.5552753
1.0779108332570058	0.33802247	0.581397
1.0954383683201119	0.34504205	0.5874028
1.112965929012607	0.36021683	0.6001807
1.1304935157446763	0.4703459	0.6858177
1.1480211289265108	0.5036439	0.7096787
1.1655487689683062	1.3122492	1.1455344
1.1830764362802655	1.5938089	1.2624614
1.200604131272596	2.0866947	1.4445397
1.2181318543555117	2.4552314	1.5669178
1.235659605939232	2.5035532	1.582262
1.253187386433982	4.0208697	2.0052106
1.270715196249994	6.6795197	2.5844767
1.2882430357975057	12.432122	3.5259216
1.3057709054867608	17.385231	4.16956
1.3232988057280106	23.160303	4.8125153
1.3408267369315112	28.19936	5.310307
1.358354699507526	32.081676	5.6640687
1.3758826938663256	36.048473	6.004038
1.3934107204181858	38.362244	6.193726
1.410938779573391	38.654896	6.217306
1.4284668717422309	39.09406	6.2525244
1.4459949973350033	38.374683	6.1947303
1.4635231567620117	38.276104	6.1867685
1.4810513504335687	37.204327	6.099535
1.4985795787599925	36.500175	6.0415373
1.5161078421516088	36.07314	6.006092
1.5336361410187505	35.615456	5.967869
1.5511644757717598	35.553375	5.962665
1.5686928468209842	36.518364	6.0430427
1.58622125457678	37.041294	6.086156
1.6037496994495108	38.402367	6.1969643
1.621278181849548	38.37242	6.1945477
1.6388067021872719	39.062866	6.250029
1.6563352608730693	38.58167	6.2114143
1.673863858317336	37.428604	6.1178923
1.6913924949304753	36.245617	6.0204334
1.7089211711228998	34.892975	5.9070277
1.7264498873050296	34.027416	5.8333025
1.7439786438872935	33.191616	5.7612166
1.7615074412801288	32.32238	5.6852775
1.779036279893981	31.69587	5.6299086
1.796565160139305	30.84796	5.554094
1.814094082426564	30.259872	5.5008974
1.8316230471662298	29.618624	5.4422994
1.849152054768784	28.982895	5.3835764
1.8666811056447168	28.108772	5.3017707
1.8842102002045273	27.2731	5.2223654
1.901739338858724	26.481531	5.146021
1.9192685220178245	25.815054	5.0808516
1.9367977500923557	25.07895	5.007889
1.9543270234928547	24.796831	4.9796414
1.971856342629867	24.193304	4.9186687
1.9893857079139496	23.851158	4.8837647
2.006915119755667	23.27719	4.824644
2.0244445785655945	22.771776	4.7719784
2.0419740847543175	22.207224	4.7124543
2.0595036387324317	21.601158	4.6477046
2.0770332409105414	20.996107	4.582151
2.094562891699263	20.72348	4.5523047
2.1120925915092217	20.316654	4.5074
2.129622340751053	20.267235	4.5019145
2.1471521398354043	188.53401	13.730769
2.1646819891729323	444.82416	21.090855
2.182211889174303	440.81384	20.995567
2.1997418402501974	452.97897	21.283302
2.2172718428113023	432.80142	20.80388
2.234801897268317	320.81427	17.91129
2.2523320040319548	17.35121	4.165478
2.269862163512935	17.229712	4.150869
2.287392376121992	17.06275	4.130708
2.304922642269869	16.923006	4.113758
2.322452962367322	16.563236	4.0697956
2.3399833368251164	16.224854	4.0280085
2.357513766054032	15.872329	3.984009
2.3750442504648586	15.551227	3.9435043
2.3925747904683963	15.187224	3.897079
2.410105386475459	14.767033	3.8427896
2.4276360388968707	14.440398	3.8000524
2.445166748143469	14.211831	3.7698581
2.4626975146261025	13.933586	3.7327719
2.4802283387556323	13.687963	3.6997247
2.4977592209429305	13.510581	3.6756742
2.5152901615988825	13.231378	3.637496
2.5328211611343865	13.156238	3.627153
2.5503522199603523	13.040938	3.611224
2.5678833384877024	12.805113	3.5784233
2.5854145171273712	12.576806	3.5463793
2.6029457562903064	12.319065	3.5098526
2.620477056387469	12.14762	3.4853437
2.6380084178298326	12.017934	3.466689
2.655539841028383	11.827162	3.439064
2.673071326394119	11.667683	3.415799
2.6906028743380523	11.346345	3.3684337
2.708134485271211	11.00787	3.317811
2.7256661596046325	10.824646	3.290083
2.743197897749369	10.662603	3.2653642
2.760729700116486	10.590665	3.2543302
2.778261567117063	10.335593	3.2149017
2.795793499162193	10.1848755	3.1913753
2.8133254966629817	10.085067	3.1756995
2.830857560030551	10.012406	3.1642387
2.8483896896760337	9.996308	3.1616938
2.865921886010578	9.794719	3.1296515
2.883454149445347	9.65417	3.107116
2.9009864803915177	9.482535	3.0793726
2.91851887926028	9.259837	3.042998
2.9360513464628384	9.147994	3.024565
2.953583882410413	8.905607	2.9842265
2.9711164875142373	8.806923	2.9676461
2.9886491621855606	8.657087	2.942293
3.0061819068356455	8.436479	2.9045618
3.023714721875769	8.304138	2.8816903
3.041247607717225	8.231064	2.868983
3.0587805647713213	8.343711	2.8885481
3.0763135934493806	8.280408	2.8775697
3.0938466941627407	8.206213	2.8646488
3.1113798673227544	8.088105	2.8439593
3.1289131133407904	7.971169	2.8233259
3.1464464326282315	7.8828516	2.8076417
3.1639798255964786	7.780263	2.7893124
3.1815132926569443	7.7371497	2.7815733
3.1990468342210603	7.675777	2.7705193
3.216580450700272	7.5724607	2.7518106
3.2341141425060416	7.4857483	2.7360096
3.251647910049847	7.3317714	2.7077243
3.2691817537431813	7.2408957	2.6908913
3.286715673997555	7.157348	2.675322
3.3042496712244938	7.084984	2.6617632
3.32178374583554	7.081503	2.6611094
3.339317898242251	7.093456	2.6633542
3.3568521288562034	7.1216745	2.6686466
3.3743864380889876	7.033724	2.6521168
3.3919208263522127	6.9037375	2.6274965
3.4094552940575023	6.776104	2.603095
3.4269898416164972	6.6763015	2.583854
3.444524469440858	6.593384	2.5677586
3.4620591779422587	6.5209846	2.5536218
3.479593967532391	6.4635653	2.5423543
3.4971288386229658	6.5146937	2.5523899
3.5146637916257086	6.4884286	2.5472393
3.5321988269523628	6.495203	2.5485687
3.5497339450146903	6.3836102	2.5265808
3.5672691462244708	6.341371	2.5182078
3.5848044309934988	6.28391	2.5067728
3.60233979973359	6.180118	2.4859843
3.619875252856575	6.067069	2.4631422
3.6374107907743034	6.1703944	2.4840279
3.6549464138986427	6.276545	2.5053034
3.6724821226414788	6.357855	2.5214787
3.690017917414714	6.443637	2.538432
3.7075537986302702	6.5259695	2.5545976
3.7250897667000857	6.6811647	2.584795
3.7426258220361235	6.838557	2.6150634
3.7601619650503553	7.120887	2.668499
3.777698196154779	7.518126	2.7419202
3.7952345157614067	8.507625	2.9167833
3.8127709242822716	9.281496	3.0465548
3.830307422129425	11.371737	3.3722005
3.847844009714936	30.208092	5.4961886
3.8653806874508954	97.8076	9.889772
3.882917455749409	97.11255	9.85457
3.900454315022606	96.92204	9.844899
3.917991265682631	41.36934	6.4319
3.9355283081416506	11.068457	3.326929
3.9530654428118495	8.93548	2.9892273
3.970602670105433	7.7229023	2.779011
3.9881399904346244	6.80428	2.6085014
4.005677404211669	6.698207	2.5880895
4.023214911848827	6.6996727	2.5883727
4.0407525137583855	6.701592	2.5887432
4.058290210352644	6.664699	2.5816078
4.075828002043927	6.527388	2.5548754
4.0933658892445814	6.4102807	2.5318532
4.110903872366966	6.3179417	2.5135517
4.128441951823468	6.3182564	2.5136142
4.145980128026488	6.289988	2.5079849
4.163518401388452	6.2652416	2.5030465
4.181056772321807	6.3260574	2.5151656
4.1985952412390155	6.358205	2.521548
4.216133808552567	6.4379945	2.5373204
4.233672474674966	6.462289	2.5421033
4.251211240018741	6.5824757	2.5656335
4.268750104996445	6.704085	2.5892248
4.286289070020643	7.7161255	2.7777915
4.303828135503928	9.331518	3.0547533
4.3213673018589125	29.586279	5.4393272
4.3389065694982305	90.68293	9.5227585
4.356445938834537	165.88786	12.879746
4.3739854102805085	171.79836	13.107187
4.391524984248844	172.6917	13.141221
4.409064661152262	136.7952	11.695948
4.426604441403504	97.04777	9.851282
4.444144325415337	76.02744	8.719372
4.461684313600543	22.105984	4.7017
4.47922440637193	22.235132	4.7154145
4.496764604142329	20.436804	4.5207086
4.5143049073245916	18.633131	4.3166113
4.531845316331589	16.6048	4.0748987
4.5493858315762195	13.848656	3.721378
4.566926453471405	11.380547	3.3735065
4.584467182430081	9.273351	3.0452178
4.602008018865218	8.147582	2.854397
4.619548963189798	7.475949	2.7342181
4.637090015816834	7.094385	2.6635287
4.654631177159353	6.839466	2.6152372
4.672172447630417	6.6358	2.5760047
4.689713827643102	6.419114	2.533597
4.7072553176105085	6.155739	2.4810762
4.724796917945764	6.0865493	2.4670932
4.742338629062015	6.083522	2.4664795
4.759880451372434	5.981908	2.4457939
4.777422385290215	5.807727	2.4099226
4.794964431228581	5.767119	2.4014826
4.812506589600768	5.808586	2.410101
4.830048860820047	5.8401494	2.41664
4.847591245299709	5.76126	2.4002626
4.8651337434530655	5.6751013	2.3822472
4.882676355693457	5.6908464	2.3855495
4.900219082434242	5.709377	2.3894303
4.917761924088813	5.713807	2.390357
4.935304881070575	5.59164	2.3646648
4.952847953792969	5.547269	2.3552642
4.970391142669449	5.4989047	2.3449743
4.9879344481135055	5.4981914	2.3448222
5.005477870538642	5.444201	2.3332813
5.023021410358394	5.385827	2.3207386
5.040565067986324	5.4315987	2.330579
5.05810884383601	5.379963	2.3194747
5.075652738321066	5.4420214	2.332814
5.09319675185512	5.3692884	2.3171725
5.110740884851836	5.3943524	2.3225746
5.128285137724894	5.415155	2.3270485
5.145829510888007	5.5000687	2.3452225
5.163374004754908	5.621709	2.3710144
5.1809186197393595	5.5739374	2.3609188
5.198463356255145	5.4358945	2.3315005
5.216008214716077	5.43626	2.331579
5.233553195535998	5.3670273	2.3166845
5.251098299128764	5.4259043	2.3293571
5.268643525908272	5.335033	2.309769
5.286188876288432	5.3328853	2.309304
5.3037343506831895	5.2184486	2.2843924
5.32127994950651	5.203786	2.2811809
5.3388256731723915	5.2529125	2.2919233
5.356371522094851	5.2760973	2.2969756
5.373917496687938	5.317729	2.3060203
5.391463597365729	5.343755	2.3116562
5.40900982454232	5.3975267	2.3232577
5.426556178631843	5.3462934	2.3122053
5.444102660048449	5.28399	2.2986932
5.4616492692063225	5.1962996	2.2795393
5.479196006519669	5.188742	2.2778811
5.496742872402727	5.2029085	2.2809885
5.514289867269756	5.1936336	2.2789545
5.531836991535049	5.194161	2.2790701
5.549384245612924	5.190132	2.278186
5.566931629917724	5.190873	2.2783487
5.584479144863822	5.181253	2.2762365
5.6020267908656205	5.18649	2.2773867
5.619574568337545	5.245621	2.290332
5.637122477694054	5.245907	2.2903945
5.654670519349629	5.3026023	2.302738
5.672218693718784	5.344308	2.311776
5.689767001216059	5.3492756	2.31285
5.707315442256021	5.2816834	2.2981913
5.724864017253266	5.1947985	2.27921
5.7424127266224225	5.1525016	2.2699122
5.75996157077814	5.1216993	2.263117
5.777510550135105	5.136253	2.2663302
5.795059665108022	5.239959	2.2890956
5.812608916111639	5.3394504	2.310725
5.830158303560715	5.4654474	2.3378296
5.847707827870055	5.419311	2.3279414
5.86525748945448	5.332484	2.3092172
5.8828072887288485	5.4726467	2.3393688
5.900357226108044	5.6033745	2.3671448
5.917907302006979	5.723553	2.3923948
5.9354575168406	6.266974	2.5033925
5.9530078710238765	6.894566	2.6257505
5.970558364971812	7.518231	2.7419393
5.988108999099438	7.94778	2.8191807
6.005659773821818	8.385938	2.8958483
6.023210689554039	8.12946	2.8512208
6.040761746711227	8.478175	2.9117305
6.058312945708531	7.8718996	2.8056905
6.075864286961132	7.4020844	2.7206771
6.093415770884244	6.7406483	2.5962758
6.1109673978931065	6.223991	2.4947927
6.128519168402993	5.639454	2.3747535
6.146071082829204	5.525249	2.3505847
6.163623141587075	5.356596	2.3144321
6.181175345091969	5.282613	2.2983935
6.198727693759281	5.2826047	2.2983918
6.216280188004435	5.3001943	2.302215
6.233832828242885	5.302151	2.30264
6.251385614890126	5.3078666	2.3038807
6.268938548361669	5.289677	2.2999299
6.286491629073067	5.214619	2.283554
6.304044857439898	5.0821385	2.25436
6.321598233877777	4.995799	2.2351284
6.339151758802344	5.009761	2.2382495
6.356705432629277	5.0301147	2.2427917
6.37425925577428	5.0303116	2.2428355
6.391813228653095	4.9842634	2.2325463
6.409367351681486	5.020597	2.2406688
6.426921625275259	5.023642	2.2413483
6.44447604985025	5.079704	2.25382
6.46203062582232	5.087939	2.255646
6.47958535360737	5.1393247	2.2670078
6.497140233621328	5.1637177	2.2723815
6.514695266280161	5.161166	2.27182
6.532250451999859	5.143903	2.2680173
6.549805791196454	5.071937	2.2520962
6.567361284286002	5.087784	2.2556117
6.584916931684597	5.0758405	2.2529626
6.602472733808367	5.0748854	2.2527506
6.6200286910734665	5.0696135	2.2515802
6.637584803896092	5.01677	2.2398148
6.655141072692462	5.047594	2.246685
6.672697497878842	5.0635114	2.2502248
6.690254079871514	5.0832195	2.2545996
6.707810819086808	5.1358976	2.2662518
6.725367715941078	5.1259875	2.2640643
6.742924770850719	5.090324	2.2561746
6.760481984232151	5.0859966	2.2552154
6.778039356501836	5.0645366	2.2504525
6.795596888076266	5.047719	2.246713
6.813154579371963	5.0144873	2.239305
6.830712430805492	4.992144	2.2343106
6.84827044279344	5.0500007	2.2472208
6.865828615752445	5.0885553	2.2557826
6.883386950099159	5.1273503	2.2643654
6.900945446250287	5.1011047	2.2585626
6.918504104622553	5.0586567	2.2491457
6.936062925632727	5.0510116	2.2474456
6.953621909697607	5.106007	2.2596476
6.971181057234028	5.2078586	2.2820733
6.988740368658859	5.2543817	2.2922437
7.006299844389007	5.3202176	2.3065598
7.023859484841407	5.3503656	2.3130858
7.041419290433036	5.42825	2.3298604
7.058979261580902	5.514886	2.3483794
7.0765393987020495	5.7261496	2.3929374
7.094099702213559	6.1111097	2.472066
7.111660172532549	6.4491973	2.539527
7.129220810076164	6.9142895	2.6295037
7.146781615261595	7.5827217	2.7536743
7.16434258850606	7.814215	2.7953918
7.181903730226821	8.194755	2.8626482
7.1994650408411704	8.201539	2.863833
7.217026520766437	8.328256	2.8858716
7.234588170419983	8.620031	2.935989
7.252149990219215	8.731867	2.9549732
7.269711980581568	8.609112	2.9341288
7.2872741419245175	8.341864	2.8882284
7.304836474665574	7.8541894	2.8025327
7.322398979222286	7.5351005	2.7450137
7.339961656012233	7.303722	2.70254
7.357524505453039	6.9330206	2.633063
7.375087527962357	6.664492	2.5815678
7.392650723957886	6.32626	2.5152059
7.410214093857353	5.968614	2.4430747
7.427777638078528	5.7696476	2.402009
7.445341357039213	5.693018	2.3860047
7.4629052511572525	5.621326	2.3709335
7.480469320850524	5.5269656	2.35095
7.498033566536948	5.3918734	2.3220408
7.5155979886344735	5.293018	2.300656
7.5331625875610975	5.246228	2.2904646
7.550727363734844	5.225279	2.285887
7.568292317573788	5.1695347	2.2736611
7.585857449496025	5.146738	2.2686424
7.603422759919705	5.2052894	2.2815104
7.620988249263007	5.2520127	2.291727
7.638553917944147	5.3165607	2.3057668
7.656119766381391	5.2603927	2.2935545
7.673685794993023	5.268147	2.2952445
7.691252004197388	5.2826424	2.2984
7.70881839441285	5.305784	2.303429
7.726384966057826	5.284792	2.2988675
7.743951719550762	5.294232	2.3009198
7.761518655310149	5.2866197	2.299265
7.779085773754511	5.330141	2.3087099
7.796653075302419	5.322345	2.3070207
7.814220560372475	5.321146	2.306761
7.831788229383323	5.3365636	2.3101003
7.8493560827536495	5.3973217	2.3232136
7.866924120902174	5.43445	2.3311908
7.884492344247663	5.435086	2.331327
7.9020607532089135	5.507044	2.3467093
7.919629348204771	5.5139284	2.3481755
7.937198129654115	5.5518947	2.356246
7.954767097975865	5.539195	2.3535495
7.972336253588986	5.5090637	2.3471394
7.989905596912472	5.4462056	2.3337107
8.007475128365371	5.4442444	2.3332906
8.025044848366756	5.4382186	2.3319988
8.042614757335754	5.540132	2.3537486
8.060184855691523	5.71739	2.3911064
8.07775514385327	5.968226	2.4429953
8.095325622240228	6.0120034	2.4519386
8.112896291271687	6.071359	2.4640129
8.130467151366968	6.0606384	2.4618363
8.148038202945436	6.0398464	2.45761
8.165609446426497	6.036636	2.4569566
8.183180882229594	6.037277	2.457087
8.200752510774217	6.0449576	2.4586496
8.218324332479893	6.1056447	2.4709604
8.235896347766193	6.0866313	2.46711
8.253468557052724	6.0458226	2.4588253
8.27104096075914	6.069681	2.4636724
8.288613559305137	6.1341643	2.4767246
8.306186353110448	6.188622	2.487694
8.32375934259485	6.235652	2.4971287
8.341332528178162	6.3076572	2.511505
8.358905910280246	6.3999963	2.5298214
8.376479489321003	6.4001575	2.5298533
8.394053265720377	6.444841	2.538669
8.411627239898356	6.3917656	2.5281942
8.42920141227497	6.369476	2.523782
8.44677578327029	6.3868084	2.5272136
8.464350353304427	6.3046484	2.510906
8.48192512279754	6.262207	2.5024402
8.499500092169827	6.245083	2.4990163
8.51707526184153	6.234518	2.4969018
8.534650632232934	6.1953473	2.4890454
8.552226203764365	6.1883	2.4876294
8.569801976856192	6.2365274	2.497304
8.587377951928834	6.2970343	2.5093892
8.60495412940274	6.370472	2.5239794
8.622530509698416	6.4018292	2.5301836
8.6401070932364	6.5539618	2.5600708
8.657683880437283	6.648562	2.5784805
8.675260871721695	6.796914	2.6070893
8.692838067510303	6.9064016	2.6280034
8.710415468223834	6.992907	2.6444106
8.727993074283043	7.1480927	2.6735916
8.745570886108737	7.1408143	2.6722302
8.763148904121765	7.2667193	2.6956854
8.78072712874302	7.3416247	2.7095432
8.798305560393441	7.595578	2.7560077
8.815884199494006	7.751951	2.7842326
8.833463046465745	7.972395	2.823543
8.851042101729728	8.157155	2.8560734
8.86862136570707	8.4960375	2.9147964
8.886200838818924	8.592862	2.9313583
8.903780521486505	8.623288	2.9365435
8.921360414131055	8.658183	2.9424791
8.938940517173874	8.828529	2.9712842
8.956520831036297	8.97478	2.9957938
8.97410135613971	9.284948	3.0471213
8.99168209290554	9.4450445	3.0732791
9.009263041755265	9.707923	3.115754
9.026844203110405	9.852432	3.1388583
9.044425577392525	10.080525	3.1749842
9.062007165023239	10.174823	3.1897998
9.079588966424197	10.463824	3.2347834
9.097170982017108	10.525083	3.2442384
9.11475321222372	11.474718	3.3874354
9.132335657465825	12.3673935	3.5167305
9.149918318165264	12.4770565	3.5322876
9.167501194743924	13.214038	3.6351118
9.18508428762374	12.823573	3.5810018
9.202667597226693	12.741327	3.5694995
9.220251123974803	12.214019	3.494856
9.237834868290143	11.9798155	3.461187
9.255418830594836	11.834909	3.4401903
9.273003011311046	11.297637	3.3611958
9.290587410860985	10.982199	3.31394
9.308172029666911	10.35665	3.218175
9.32575686815113	10.132562	3.1831684
9.343341926735997	8.903962	2.9839509
9.360927205843916	8.70019	2.9496083
9.378512705897327	8.442394	2.9055798
9.396098427318728	8.1737175	2.8589714
9.413684370530664	8.033549	2.8343515
9.431270535955722	7.977625	2.8244689
9.448856924016539	7.960954	2.8215163
9.466443535135806	7.859025	2.8033953
9.484030369736251	7.8399763	2.7999957
9.501617428240658	7.8259196	2.7974846
9.519204711071852	7.872503	2.805798
9.536792218652714	7.856087	2.8028712
9.55437995140617	7.872946	2.805877
9.571967909755191	7.9211855	2.81446
9.589556094122802	8.0217705	2.832273
9.60714450493207	8.09025	2.8443365
9.624733142606116	8.11904	2.849393
9.642322007568108	8.124128	2.8502858
9.659911100241267	8.156886	2.8560262
9.677500421048851	8.21317	2.8658628
9.695089970414175	8.290455	2.879315
9.712679748760609	8.327645	2.885766
9.730269756511557	8.304862	2.8818157
9.747859994090492	8.303743	2.8816216
9.765450461920915	8.362137	2.891736
9.78304116042639	8.3688135	2.8928902
9.800632090030527	8.362373	2.8917768
9.81822325115699	8.352893	2.8901372
9.835814644229481	8.377067	2.8943162
9.853406269671762	8.441034	2.905346
9.870998127907646	8.459664	2.9085503
9.888590219360985	8.486345	2.9131331
9.906182544455698	8.526548	2.9200253
9.923775103615734	8.484252	2.9127738
9.941367897265108	8.399725	2.898228
9.958960925827878	8.354195	2.8903623
9.97655418972816	8.367319	2.8926318
9.994147689390106	8.338953	2.8877246
10.011741425237934	8.347798	2.8892558
10.029335397695904	8.35527	2.8905485
10.04692960718833	8.395608	2.8975174
10.06452405413958	8.376975	2.8943005
10.082118738974064	8.385124	2.8957078
10.099713662116246	8.39604	2.897592
10.117308823990651	8.438073	2.9048362
10.134904225021844	8.410717	2.9001236
10.152499865634445	8.330309	2.8862274
10.170095746253125	8.265059	2.8749015
10.18769186730261	8.269404	2.8756573
10.205288229207675	8.333904	2.88685
10.222884832393145	8.3243065	2.8851874
10.2404816772839	8.28217	2.877876
10.258078764304868	8.256153	2.8733523
10.275676093881035	8.284646	2.8783062
10.293273666437438	8.3263855	2.8855476
10.310871482399158	8.350756	2.8897674
10.32846954219134	8.3749485	2.8939502
10.346067846239173	8.364631	2.892167
10.363666394967908	8.342755	2.888383
10.38126518880283	8.30335	2.8815534
10.398864228169298	8.331804	2.8864865
10.416463513492713	8.349688	2.8895826
10.434063045198531	8.350914	2.8897948
10.451662823712262	8.3140545	2.8834102
10.469262849459467	8.277462	2.8770578
10.486863122865758	8.305866	2.88199
10.504463644356806	8.357588	2.8909492
10.522064414358338	8.316517	2.8838372
10.539665433296118	8.148827	2.854615
10.557266701595987	8.055274	2.8381815
10.574868219683818	7.961295	2.8215766
10.592469987985552	7.931682	2.8163242
10.610072006927185	7.7875295	2.7906146
10.627674276934751	7.685047	2.7721918
10.64527679843435	7.5709324	2.7515328
10.662879571852143	7.5157037	2.7414784
10.680482597614331	7.402045	2.72067
10.698085876147173	7.24265	2.6912172
10.715689407876988	7.146155	2.6732292
10.733293193230146	7.017154	2.648991
10.750897232633072	6.903251	2.627404
10.76850152651225	6.7491183	2.5979066
10.786106075294207	6.6727543	2.5831676
10.803710879405534	6.6464176	2.5780647
10.821315939272877	6.501632	2.5498297
10.83892125532294	6.383615	2.5265818
10.856526827982472	6.3031707	2.5106115
10.874132657678285	6.327193	2.515391
10.891738744837243	6.375365	2.5249484
10.909345089886271	6.320135	2.5139878
10.926951693252343	6.1803737	2.4860358
10.944558555362494	6.05994	2.4616945
10.96216567664381	5.984773	2.4463797
10.979773057523436	5.970853	2.443533
10.997380698428573	5.9524875	2.4397721
11.014988599786477	5.951347	2.4395382
11.032596762024461	5.8766003	2.42417
11.050205185569892	5.780399	2.404246
11.067813870850198	5.695563	2.3865378
11.085422818292859	5.5733113	2.3607862
11.10303202832541	5.481631	2.3412883
11.120641501375454	5.4202185	2.3281362
11.138251237870636	5.3977375	2.3233032
11.155861238238671	5.376343	2.318694
11.173471502907317	5.28985	2.2999675
11.191082032304402	5.157727	2.2710629
11.208692826857805	5.058711	2.249158
11.226303886995465	5.106527	2.2597625
11.243915213145371	5.047168	2.2465901
11.261526805735578	5.0122375	2.2388027
11.279138665194196	4.924509	2.2191236
11.296750791949393	4.8725653	2.2073889
11.314363186429393	4.8071117	2.1925128
11.331975849062479	4.745278	2.178366
11.34958878027699	4.6627264	2.1593347
11.36720198050133	4.6693387	2.1608653
11.384815450163948	4.6443124	2.1550667
11.402429189693366	4.641809	2.1544857
11.420043199518153	4.6201696	2.149458
11.437657480066942	63.544632	7.9714885
11.455272031768422	85.237724	9.232428
11.472886855051353	107.57554	10.371862
11.490501950344528	99.18019	9.958925
11.508117318076819	84.56348	9.19584
11.52573295867715	45.90945	6.7756515
11.543348872574514	4.212639	2.0524714
11.560965060197946	4.174112	2.0430644
11.57858152197655	4.1708565	2.0422676
11.59619825833949	4.0773897	2.0192547
11.613815269715985	4.0291376	2.0072713
11.631432556535323	38.580067	6.2112856
11.649050119226837	83.1318	9.117664
11.666667958219929	93.505775	9.669839
11.68428607394406	107.734245	10.379511
11.701904466828756	82.5876	9.087772
11.719523137303586	65.455505	8.090458
11.737142085798196	4.7151494	2.1714394
11.754761312742286	3.8334277	1.9579141
11.772380818565619	3.7785892	1.9438593
11.790000603698015	3.7350028	1.9326155
11.80762066856935	3.6848297	1.9195911
11.825241013609572	3.6842113	1.9194299
11.842861639248683	3.6273704	1.9045657
11.860482545916748	3.6094105	1.8998449
11.878103734043883	3.5693598	1.889275
11.895725204060282	3.5282345	1.8783596
11.91334695639619	3.487292	1.8674293
11.930968991481919	3.471934	1.8633127
11.948591309747824	3.4055223	1.8454057
11.966213911624347	3.3588514	1.832717
11.98383679754198	3.3177638	1.821473
12.001459967931268	3.330915	1.8250794
12.019083423222835	3.2967312	1.8156903
12.036707163847352	3.280529	1.811223
12.05433119023556	3.2414129	1.8003924
12.071955502818259	3.2351158	1.7986428
12.089580102026313	3.233245	1.7981226
12.107204988290643	3.2058	1.7904748
12.12483016204224	3.1620936	1.7782277
12.142455623712152	3.1341476	1.7703524
12.16008137373149	3.1432745	1.7729282
12.177707412531431	3.1269474	1.7683177
12.19533374054321	3.1186068	1.7659577
12.212960358198126	3.1044967	1.7619582
12.230587265927545	3.0724444	1.752839
12.248214464162889	3.0684566	1.7517011
12.265841953335649	3.0105295	1.7350878
12.283469733877375	2.9937215	1.7302374
12.301097806219685	2.9815257	1.7267095
12.31872617079425	3.0160491	1.7366776
12.336354828032825	3.0278358	1.7400677
12.353983778367205	2.9826436	1.7270331
12.371613022229262	2.959958	1.7204529
12.389242560050928	2.9543536	1.7188233
12.406872392264201	2.943112	1.7155501
12.424502519301143	2.9640625	1.7216452
12.442132941593874	2.9657688	1.7221408
12.459763659574586	2.9717915	1.7238885
12.477394673675532	2.924181	1.7100236
12.49502598432903	2.8866386	1.6990111
12.51265759196746	2.877997	1.696466
12.530289497023267	2.8870113	1.6991208
12.547921699928967	2.8670313	1.693231
12.565554201117134	2.8246949	1.6806829
12.583187001020404	2.8206131	1.6794682
12.600820100071486	2.8352635	1.6838241
12.618453498703152	2.8807025	1.6972632
12.636087197348235	2.8782864	1.6965513
12.65372119643964	2.8460898	1.6870358
12.671355496410326	2.820285	1.6793704
12.68899009769333	2.8485875	1.6877759
12.706625000721749	2.9156144	1.707517
12.724260205928752	3.0077286	1.7342805
12.741895713747551	3.0229287	1.7386571
12.759531524611454	3.005576	1.7336596
12.777167638953818	2.9687567	1.723008
12.794804057208072	3.0037737	1.7331399
12.812440779807702	3.0466402	1.7454628
12.830077807186271	3.2333107	1.7981409
12.847715139777405	3.2923691	1.8144886
12.865352778014795	3.5425584	1.8821685
12.882990722332197	3.6264756	1.9043307
12.90062897316344	3.6820824	1.9188753
12.918267530942412	3.773187	1.9424692
12.935906396103071	3.6680303	1.9152102
12.953545569079449	3.8659346	1.966198
12.971185050305628	3.6704156	1.9158329
12.988824840215775	3.6979177	1.9229971
13.006464939244115	3.7022953	1.924135
13.024105347824943	3.5550885	1.8854942
13.041746066392617	3.6412487	1.9082056
13.05938709538157	3.4273872	1.8513204
13.077028435226296	3.4479527	1.8568664
13.094670086361363	3.3553722	1.8317676
13.112312049221401	3.2459655	1.8016564
13.129954324241112	3.134081	1.7703335
13.147596911855258	2.9233863	1.7097913
13.165239812498685	2.919676	1.708706
13.182883026606293	2.8743012	1.6953764
13.200526554613058	2.8269684	1.681359
13.218170396954017	2.7926965	1.6711363
13.235814554064284	2.7510927	1.6586418
13.253459026379034	2.7058253	1.6449393
13.271103814333523	2.684929	1.6385753
13.288748918363058	2.6747067	1.6354531
13.306394338903031	2.689464	1.6399586
13.32404007638889	2.7067323	1.6452149
13.341686131256164	2.7329404	1.6531607
13.359332503940449	2.7323034	1.652968
13.376979194877402	2.737616	1.6545743
13.394626204502751	2.7484615	1.6578485
13.412273533252307	2.7361417	1.6541287
13.429921181561937	2.7293522	1.6520752
13.447569149867581	2.776304	1.6662245
13.465217438605247	2.8337364	1.6833706
13.482866048211022	2.797901	1.6726927
13.500514979121052	2.7220087	1.6498511
13.518164231771568	2.6388404	1.6244508
13.535813806598844	2.6302514	1.621805
13.553463704039254	2.6508327	1.6281378
13.571113924529229	2.64001	1.6248108
13.588764468505275	2.6699202	1.6339891
13.606415336403956	2.6681604	1.6334505
13.624066528661917	2.7063015	1.645084
13.641718045715882	2.8065374	1.6752723
13.659369888002635	2.8800347	1.6970665
13.67702205595903	2.9568012	1.7195351
13.694674550021993	3.0308843	1.7409436
13.712327370628532	3.1092231	1.763299
13.729980518215713	3.1721098	1.7810417
13.747633993220681	3.2123528	1.7923038
13.765287796080647	3.2484384	1.8023424
13.7829419272329	3.3182232	1.8215991
13.800596387114801	3.356687	1.8321264
13.818251176163775	3.3813078	1.8388333
13.835906294817324	3.3992062	1.8436936
13.853561743513023	3.4432395	1.8555968
13.871217522688525	3.4971821	1.8700755
13.888873632781538	3.5624402	1.8874427
13.906530074229858	3.5596888	1.8867137
13.92418684747135	3.5373623	1.8807877
13.941843952943948	3.5259783	1.8777589
13.959501391085665	3.4630055	1.8609152
13.977159162334578	3.402261	1.8445219
13.994817267128846	3.3420413	1.8281251
14.012475705906693	3.2698104	1.8082618
14.030134479106424	3.2222712	1.7950686
14.047793587166414	3.1796577	1.7831595
14.065453030525108	3.0979939	1.7601119
14.083112809621026	3.0247834	1.7391905
14.100772924892766	2.975877	1.7250731
14.118433376778997	2.923411	1.7097985
14.136094165718458	2.874136	1.6953276
14.153755292149969	2.8206966	1.679493
14.171416756512416	2.7451773	1.6568576
14.189078559244768	2.6851068	1.6386296
14.20674070078606	2.6276186	1.620993
14.224403181575408	2.5935917	1.6104631
14.242066002051999	2.571857	1.603701
14.259729162655093	2.5411882	1.5941105
14.277392663824022	2.5137382	1.5854772
14.295056505998208	2.4490552	1.5649457
14.312720689617128	2.432478	1.5596403
14.330385215120348	2.414849	1.5539784
14.348050082947497	2.4599288	1.568416
14.3657152935383	2.4653091	1.5701303
14.383380847332528	2.465774	1.5702783
14.401046744770051	2.4573486	1.5675932
14.418712986290798	2.4094365	1.552236
14.436379572334793	2.416514	1.554514
14.454046503342123	2.421216	1.5560257
14.471713779752946	2.438183	1.5614682
14.489381402007504	2.4163976	1.5544766
14.507049370546113	2.434948	1.560432
14.524717685809168	2.4671767	1.5707248
14.542386348237134	2.4804225	1.5749357
14.560055358270553	2.4719331	1.5722382
14.577724716350051	2.456332	1.567269
14.595394422916325	2.4638371	1.5696615
14.61306447841015	2.48848	1.5774918
14.63073488327237	2.479855	1.5747555
14.648405637943917	2.516644	1.5863934
14.6660767428658	2.5087657	1.5839083
14.683748198479094	2.5771582	1.605353
14.701420005224954	2.6156454	1.6172957
14.719092163544628	2.705161	1.6447374
14.73676467387942	2.6959999	1.64195
14.754437536670727	2.7043996	1.6445059
14.772110752360014	2.7154312	1.6478566
14.78978432138882	2.7165856	1.6482068
14.807458244198777	2.7197964	1.6491805
14.82513252123159	2.7005172	1.6433251
14.842807152929028	2.716421	1.6481568
14.860482139732962	2.714907	1.6476974
14.87815748208531	2.7270882	1.6513898
14.8958331804281	2.7518487	1.6588697
14.91350923520342	2.7309253	1.6525512
14.931185646853438	2.721579	1.6497209
14.948862415820408	2.6972783	1.6423392
14.966539542546656	2.6987493	1.6427871
14.98421702747459	2.6852798	1.6386824
15.001894871046696	2.6436815	1.6259402
15.019573073705542	2.643541	1.625897
15.037251635893766	2.641302	1.6252084
15.054930558054092	2.7069058	1.6452677
15.072609840629323	2.7626975	1.6621364
15.090289484062351	2.8606355	1.6913413
15.107969488796124	3.1360562	1.7708913
15.125649855273691	3.5503128	1.8842274
15.14333058393817	4.02176	2.0054326
15.161011675232768	4.975418	2.2305646
15.17869312960076	6.2921124	2.5084083
15.196374947485506	8.22097	2.8672235
15.214057129330447	11.408649	3.3776693
15.231739675579114	16.018442	4.0023046
15.249422586675102	20.896067	4.5712214
15.267105863062092	23.823114	4.8808928
15.284789505183847	24.185566	4.9178824
15.302473513484218	22.206501	4.7123775
15.320157888407127	18.782413	4.333868
15.337842630396578	14.772351	3.8434815
15.355527739896656	11.563262	3.4004796
15.37321321735153	9.014522	3.0024192
15.39089906320545	6.5612197	2.5614877
15.408585277902748	4.955339	2.226059
15.42627186188783	3.8552673	1.9634835
15.443958815605198	3.3312593	1.8251737
15.461646139499424	3.0083473	1.7344588
15.479333834015168	2.872681	1.6948985
15.497021899597165	2.7756994	1.666043
15.514710336690234	2.719486	1.6490864
15.53239914573928	2.6804454	1.6372066
15.550088327189297	2.648141	1.627311
15.567777881485336	2.5815625	1.6067241
15.58546780907256	2.54401	1.5949953
15.6031581103962	2.545415	1.5954356
15.620848785901568	2.5431762	1.5947338
15.638539836034063	2.5242577	1.5887913
15.656231261239173	2.482382	1.5755577
15.673923061962451	2.4534795	1.5663587
15.691615238649552	2.4669414	1.57065
15.709307791746202	2.5001082	1.5811731
15.727000721698221	2.485153	1.5764368
15.744694028951498	2.4625034	1.5692366
15.76238771395202	2.440596	1.5622407
15.780081777145844	2.464288	1.569805
15.797776218979125	2.4057353	1.5510433
15.815471039898094	2.400796	1.5494502
15.833166240349064	2.3977356	1.5484624
15.850861820778437	2.4519465	1.5658692
15.868557781632699	2.4525568	1.5660641
15.886254123358412	2.444295	1.5634241
15.903950846402232	2.3914492	1.5464311
15.921647951210897	2.379412	1.5425342
15.939345438231225	2.385817	1.5446091
15.957043307910133	2.4358592	1.5607239
15.974741560694602	2.4422972	1.562785
15.992440197031714	2.4212918	1.5560501
16.01013921736862	2.3878312	1.5452609
16.02783862215259	2.3957148	1.5478097
16.045538411830933	2.444844	1.5635997
16.06323858685107	2.48509	1.5764169
16.080939147660512	2.4931517	1.5789717
16.09864009470684	2.4493978	1.5650553
16.11634142843774	2.4088237	1.5520386
16.134043149300954	2.3660798	1.5382067
16.15174525774433	2.3802009	1.5427899
16.169447754215817	2.3817992	1.5433079
16.18715063916342	2.4022422	1.5499169
16.204853913035244	2.4402351	1.5621252
16.222557576279478	2.46191	1.5690475
16.240261629344403	22.457508	4.7389355
16.257966072678386	43.01715	6.5587463
16.275670906729868	38.136364	6.1754646
16.293376131947387	2.5637212	1.6011624
16.31108174877957	2.5671306	1.6022267
16.328787757675133	2.5796123	1.6061171
16.34649415908287	2.6081264	1.6149695
16.364200953451657	2.6564155	1.6298513
16.38190814123048	2.6828651	1.6379454
16.39961572286839	2.7030733	1.6441026
16.41732369881455	2.747211	1.6574713
16.43503206951817	2.8075788	1.6755831
16.45274083542859	2.8056605	1.6750106
16.47044999699522	2.8192382	1.6790587
16.488159554667558	2.8449678	1.6867032
16.505869508895184	2.9037175	1.7040298
16.523579860127786	2.9416022	1.71511
16.541290608815117	2.953417	1.7185509
16.559001755407035	2.98533	1.7278107
16.57671330035348	3.0436883	1.744617
16.59442524410448	3.152483	1.7755233
16.61213758711015	3.2201598	1.7944803
16.629850329820705	3.2779553	1.8105124
16.647563472686436	3.312885	1.8201332
16.665277016157724	3.3612561	1.8333728
16.682990960685053	3.4223676	1.8499643
16.70070530671898	3.4815066	1.8658795
16.718420054710155	3.5097318	1.8734279
16.736135205109335	3.5466208	1.8832474
16.753850758367335	3.6319113	1.9057574
16.771566714935087	3.7298634	1.9312854
16.789283075263597	3.8076715	1.9513255
16.80699983980398	3.840517	1.9597237
16.82471700900741	3.891237	1.9726219
16.84243458332518	3.9388533	1.9846544
16.860152563208665	3.979853	1.9949569
16.87787094910932	4.054973	2.0136964
16.89558974147871	4.1336856	2.0331466
16.913308940768466	4.2075253	2.0512254
16.931028547430333	4.2662926	2.0655005
16.94874856191613	4.3327837	2.081534
16.966468984677785	4.4341335	2.1057382
16.98418981616729	4.5273314	2.1277525
17.00191105683676	4.5555844	2.1343815
17.019632707138374	4.517111	2.1253495
17.03735476752442	4.5461154	2.132162
17.05507723844728	4.6305494	2.1518712
17.072800120359403	4.709579	2.1701565
17.090523413713353	4.679185	2.1631424
17.108247118961785	4.6578183	2.1581979
17.125971236557437	4.694861	2.1667628
17.143695766953133	4.7589765	2.1815078
17.161420710601806	4.7687902	2.183756
17.179146067956477	4.7200646	2.172571
17.19687183947025	4.686422	2.1648145
17.21459802559634	4.722504	2.1731324
17.232324626788028	4.7661495	2.1831512
17.25005164349871	4.759419	2.1816092
17.267779076181863	4.6831727	2.164064
17.285506925291074	4.6284924	2.1513932
17.30323519127999	4.5890574	2.1422086
17.320963874602384	4.620657	2.1495714
17.33869297571211	4.6339517	2.1526616
17.356422495063114	4.635001	2.1529052
17.37415243310944	4.611635	2.147472
17.391882790305218	4.5566087	2.1346214
17.40961356710468	4.5130124	2.124385
17.42734476396215	4.4991655	2.1211236
17.445076381332044	4.570755	2.1379323
17.462808419668868	4.6625104	2.1592846
17.48054087942723	4.799286	2.1907272
17.498273761061835	5.0239706	2.2414215
17.51600706502747	5.4877834	2.3426018
17.533740791779024	6.2393036	2.4978597
17.551474941771485	7.784212	2.79002
17.56920951545993	8.827129	2.9710486
17.586944513299528	10.930683	3.3061583
17.60467993574556	12.523984	3.5389242
17.622415783253373	14.26888	3.7774172
17.64015205627843	15.64293	3.9551144
17.657888755276293	16.711973	4.088028
17.675625880702604	17.107178	4.1360826
17.69336343301311	16.963085	4.1186266
17.71110141266366	16.195879	4.0244102
17.728839820110178	15.32594	3.914836
17.746578655808705	14.401112	3.7948797
17.764317920215372	12.983052	3.6032002
17.7820576137864	11.467728	3.3864033
17.79979773697811	9.463147	3.076223
17.81753829024692	7.5678067	2.7509646
17.835279274049356	5.879031	2.4246714
17.85302068884201	4.8591065	2.204338
17.870762535081607	4.2384877	2.0587587
17.888504813224934	3.9968803	1.9992199
17.90624752372891	3.8179007	1.9539449
17.923990667050536	3.7105265	1.9262726
17.941734243646895	3.5857038	1.8935955
17.959478253975185	3.547397	1.8834535
17.9772226984927	3.4981241	1.8703272
17.994967577656833	3.4428182	1.8554833
18.01271289192506	3.3931582	1.8420527
18.030458641754965	3.344511	1.8288004
18.04820482760425	3.3525026	1.830984
18.06595144993067	3.347825	1.8297063
18.083698509192125	3.345058	1.8289499
18.101446005846576	3.2698512	1.808273
18.119193940352105	3.2532213	1.8036689
18.136942313166887	3.2715323	1.8087378
18.1546911247492	3.270907	1.8085649
18.1724403755574	3.2632558	1.8064485
18.19019006604997	3.2341666	1.798379
18.207940196685467	3.1940165	1.7871811
18.225690767922575	3.1558883	1.776482
18.243441780220046	3.10346	1.761664
18.261193234036764	3.075846	1.753809
18.278945129831676	3.0946465	1.7591608
18.29669746806386	3.0958724	1.7595091
18.314450249192483	3.0792599	1.754782
18.3322034736768	3.050797	1.7466531
18.349957141976184	3.099329	1.7604911
18.3677112545501	3.1363869	1.7709848
18.385465811858108	3.1727684	1.7812266
18.403220814359884	3.1710289	1.7807382
18.420976262515172	3.192954	1.786884
18.43873215678387	3.1737964	1.7815152
18.456488497625923	3.1846418	1.7845565
18.474245285501407	3.2392185	1.7997829
18.492002520870486	3.317032	1.8212721
18.50976020419343	3.4015062	1.8443173
18.527518335930615	3.7332041	1.9321501
18.545276916542516	4.399594	2.0975208
18.563035946489688	4.5876083	2.1418703
18.580795426232832	5.085199	2.2550385
18.598555356232698	4.934562	2.2213874
18.616315736950185	5.3206396	2.306651
18.63407656884626	4.93009	2.2203805
18.65183785238201	5.1385	2.266826
18.669599588018617	4.862778	2.2051709
18.68736177621737	4.8051333	2.1920614
18.705124417439652	4.722859	2.173214
18.72288751214696	4.4966903	2.1205401
18.740651060800886	4.6516724	2.1567736
18.758415063863115	4.3949294	2.0964086
18.77617952179546	4.5891075	2.1422203
18.793944435059814	4.305015	2.074853
18.811709804118184	4.314868	2.077226
18.829475629432675	4.2620306	2.0644686
18.8472419114655	4.0673084	2.016757
18.86500865067897	4.158925	2.0393443
18.88277584753551	3.8074973	1.951281
18.90054350249763	3.8465004	1.9612497
18.918311616027957	3.533816	1.8798447
18.936080188589226	3.4437532	1.8557352
18.953849220644265	3.1319585	1.769734
18.971618712656007	2.9361777	1.7135279
18.9893886650875	2.8678224	1.6934646
19.007159078401887	8.006363	2.8295517
19.024929953062408	32.85931	5.732304
19.042701289532435	32.824146	5.729236
19.060473088275405	25.404148	5.0402527
19.07824534975489	2.7055445	1.644854
19.096018074434568	2.699278	1.642948
19.113791262778197	2.6910117	1.6404303
19.13156491524966	2.6491022	1.6276063
19.149339032312945	2.6327727	1.6225821
19.167113614432136	2.6100824	1.615575
19.184888662071433	2.5929186	1.6102542
19.202664175695123	2.5566587	1.5989555
19.220440155767623	2.5949764	1.610893
19.238216602753447	2.5831661	1.6072232
19.2559935171172	2.5684464	1.6026373
19.27377089932361	2.5184445	1.5869608
19.291548749837514	2.4925466	1.57878
19.309327069123835	2.4910603	1.5783093
19.32710585764763	2.531971	1.5912168
19.344885115874032	2.543845	1.5949435
19.362664844268313	2.5397024	1.5936444
19.380445043295822	2.5114746	1.5847633
19.39822571342203	2.5331326	1.5915818
19.41600685511252	2.5450103	1.5953089
19.43378846883297	2.527327	1.589757
19.451570555049173	2.494491	1.5793958
19.469353114227037	2.5146425	1.5857624
19.48713614683254	2.526815	1.5895958
19.50491965333182	2.5293088	1.5903801
19.52270363419109	2.530396	1.5907218
19.540488089876686	2.5462236	1.595689
19.55827302085503	2.555621	1.5986309
19.576058427592674	2.534105	1.5918872
19.593844310556282	2.5104077	1.5844266
19.611630670212598	2.501032	1.5814651
19.629417507028506	2.4854589	1.5765338
19.64720482147098	2.4740531	1.5729123
19.6649926140071	2.451393	1.5656924
19.682780885104084	2.4821324	1.5754784
19.70056963522921	2.5082293	1.583739
19.718358864849908	2.5516536	1.5973896
19.7361485744337	2.5484877	1.5963984
19.753938764448215	2.53672	1.5927083
19.771729435361202	2.5733898	1.6041788
19.789520587640506	2.561041	1.6003253
19.807312221754092	2.5353937	1.592292
19.825104338170043	2.5451336	1.5953475
19.842896937356517	2.5525775	1.5976788
19.860690019781824	2.5417845	1.5942975
19.87848358591436	2.5095813	1.5841658
19.896277636222635	2.5059056	1.5830053
19.914072171175278	2.5443847	1.5951128
19.931867191241015	2.537324	1.592898
19.94966269688869	2.5128903	1.5852098
19.967458688587264	2.48859	1.5775266
19.985255166805807	2.4797955	1.5747366
20.00305213201348	2.4906373	1.5781753
20.020849584679578	2.5101364	1.5843409
20.038647525273507	2.5379853	1.5931056
20.05644595426477	2.5406501	1.5939417
20.07424487212299	2.5003622	1.5812534
20.092044279317903	2.4857635	1.5766305
20.109844176319353	2.4740121	1.5728992
20.127644563597304	2.4925375	1.5787772
20.145445441621817	2.48965	1.5778625
20.16324681086307	2.4750738	1.5732367
20.181048671791373	2.4625208	1.5692421
20.198851024877122	2.42736	1.5579988
20.216653870590836	2.4139676	1.5536948
20.234457209403146	2.3960547	1.5479195
20.252261041784802	2.4027364	1.5500762
20.270065368206662	2.4347794	1.560378
20.287870189139685	2.4284866	1.5583602
20.305675505054968	2.4112258	1.5528122
20.323481316423702	2.4094386	1.5522367
20.341287623717207	2.4067671	1.5513759
20.359094427406884	2.377483	1.5419089
20.376901727964288	2.339305	1.5294787
20.39470952586107	2.3495886	1.5328368
20.41251782156899	2.394746	1.5474967
20.430326615559935	2.3889463	1.5456216
20.448135908305886	2.3587658	1.5358274
20.465945700278965	2.2957773	1.5151823
20.483755991951384	2.303975	1.5178851
20.50156678379548	2.3110118	1.5202012
20.519378076283708	2.3333528	1.5275316
20.537189869888635	2.3273063	1.5255511
20.55500216508294	2.3071282	1.5189234
20.572814962339415	2.2824173	1.5107671
20.59062826213098	2.2595263	1.503172
20.60844206493066	2.2673967	1.5057877
20.626256371211593	2.292611	1.514137
20.644071181447032	2.3170002	1.5221696
20.66188649611036	2.3279498	1.5257621
20.67970231567506	2.354181	1.5343341
20.697518640614742	2.358952	1.5358881
20.715335471403122	2.3504717	1.5331248
20.73315280851404	2.339836	1.5296522
20.750970652421447	2.3125515	1.5207076
20.768789003599412	2.277828	1.5092475
20.786607862522136	2.283383	1.5110867
20.8044272296639	2.2864254	1.5120931
20.82224710549913	2.3076296	1.5190884
20.84006749050237	2.3033082	1.5176654
20.857888385148268	3.8598032	1.9646382
20.8757097899116	45.952965	6.7788615
20.893531705267254	64.82884	8.051636
20.911354131690224	83.854645	9.157218
20.92917706965566	69.08656	8.311832
20.94700051963877	50.145256	7.0813317
20.96482448211493	29.43743	5.425627
20.982648957559622	4.1978693	2.0488703
21.00047394644843	2.314001	1.5211841
21.01829944925707	2.3181825	1.5225579
21.036125466461375	2.2938728	1.5145537
21.053951998537297	2.248575	1.499525
21.071779045960906	2.2280045	1.4926502
21.089606609208378	2.252099	1.5006995
21.10743468875603	2.2774642	1.5091269
21.12526328508028	2.2827725	1.5108846
21.143092398657675	2.2455063	1.4985013
21.16092202996488	2.2317495	1.4939041
21.17875217947867	2.2470202	1.4990064
21.19658284767596	2.2534592	1.5011526
21.21441403503377	2.2581787	1.5027238
21.232245742029225	2.2053747	1.4850504
21.2500779691396	2.1994734	1.4830621
21.26791071684227	2.2016206	1.4837859
21.28574398561475	2.202348	1.484031
21.30357777593465	2.1735885	1.4743096
21.321412088279704	2.1852756	1.4782678
21.339246923127792	2.1985905	1.4827645
21.357082280956888	2.222829	1.4909155
21.3749181622451	2.192231	1.4806185
21.392754567470647	2.1581688	1.4690707
21.41059149711187	2.12923	1.4591881
21.42842895164726	2.1116192	1.4531412
21.446266931555378	2.0890045	1.4453388
21.464105437314945	2.1132028	1.453686
21.481944469404798	2.1335106	1.4606541
21.49978402830388	2.1515942	1.4668313
21.51762411449127	2.1252444	1.4578218
21.53546472844617	2.1302068	1.4595228
21.553305870647876	2.1265879	1.4582825
21.571147541575865	2.090921	1.4460016
21.58898974170967	2.0854383	1.4441047
21.60683247152899	2.0985353	1.4486322
21.62467573151363	2.0990145	1.4487976
21.642519522143523	2.1008089	1.4494168
21.660363843898722	2.121402	1.4565034
21.6782086972594	2.1331978	1.4605471
21.696054082705864	2.1063528	1.4513279
21.713900000718535	2.0718038	1.4393762
21.73174645177795	2.1169178	1.4549632
21.749593436364794	2.1127322	1.453524
21.767440954959845	2.102053	1.4498458
21.785289008044032	2.0337164	1.4260843
21.803137596098388	2.0248847	1.4229845
21.820986719604086	2.0409968	1.4286346
21.838836379042412	2.0602336	1.4353514
21.85668657489478	2.0492527	1.4315212
21.87453730764273	2.029926	1.4247547
21.892388577767914	2.0392542	1.4280245
21.91024038575213	2.0162272	1.4199392
21.928092732077285	2.0100222	1.4177525
21.945945617225426	1.9892987	1.410425
21.963799041678694	2.0225525	1.4221647
21.981653005919398	31.36963	5.6008596
21.999507510429943	78.156944	8.840642
22.01736255569286	73.05457	8.547196
22.035218142190818	4.1721125	2.042575
22.05307427040661	2.016087	1.4198898
22.07093094082315	2.0221763	1.4220325
22.088788153923474	2.0044978	1.4158028
22.106645910190746	1.994576	1.4122946
22.12450421010827	1.9907118	1.4109259
22.142363054159464	1.9925681	1.4115835
22.16022244282787	1.9912031	1.4110999
22.178082376597164	1.9655257	1.401972
22.195942855951145	1.9659239	1.402114
22.213803881373742	1.9751531	1.4054013
22.231665453349002	2.0256093	1.423239
22.24952757236111	2.0249798	1.4230179
22.26739023889438	1.9961891	1.4128655
22.28525345343323	1.9972613	1.413245
22.30311721646225	2.0343828	1.4263179
22.320981528466113	2.048092	1.4311156
22.33884638992964	2.009916	1.4177151
22.356711801337788	1.987425	1.4097606
22.37457776317561	1.9796258	1.4069917
22.392444275928337	1.9748276	1.4052856
22.410311340081282	1.9490842	1.396096
22.428178956119904	1.9654452	1.4019433
22.446047124529805	1.9625838	1.4009224
22.46391584579669	1.983935	1.4085222
22.481785120406414	2.0109632	1.4180844
22.49965494884496	1.9895157	1.410502
22.51752533159841	1.9325675	1.3901682
22.53539626915302	1.9119056	1.3827168
22.553267761995137	1.9534806	1.3976697
22.571139810611264	2.0019195	1.4148921
22.589012415488025	1.9867562	1.4095234
22.60688557711216	1.9491671	1.3961258
22.624759295970566	1.9531335	1.3975455
22.642633572550263	1.9532315	1.3975806
22.660508407338362	1.9569255	1.3989016
22.67838380082217	1.9354519	1.3912052
22.696259753489077	1.9542675	1.3979511
22.714136265826614	1.931931	1.3899392
22.73201333832246	1.9352231	1.3911229
22.74989097146439	1.9311564	1.3896605
22.76776916574035	1.928996	1.388883
22.785647921638393	1.9157552	1.3841081
22.803527239646712	1.9031754	1.3795562
22.82140712025363	1.9369652	1.391749
22.839287563947593	1.9631888	1.4011384
22.85716857121719	1.968935	1.4031874
22.875050142551135	1.9450349	1.3946451
22.892932278438277	1.9013817	1.378906
22.910814979367604	1.8886044	1.3742651
22.928698245828222	1.9181262	1.3849643
22.946582078309387	1.9279276	1.3884983
22.96446647730047	1.9095466	1.3818635
22.98235144329098	1.867063	1.3664051
23.000236976770562	1.8794914	1.3709455
23.018123078229	1.8899096	1.3747399
23.03600974815619	1.9073483	1.3810678
23.053896987042194	1.9379358	1.3920976
23.071784795377173	1.9679363	1.4028316
23.08967317365145	1.9850087	1.4089034
23.10756212235546	1.944279	1.394374
23.125451641979787	1.9270158	1.3881699
23.143341733015134	1.8929602	1.3758489
23.161232395952357	1.9076478	1.3811762
23.179123631282426	1.9023271	1.3792487
23.197015439496468	1.9401147	1.39288
23.214907821085717	1.9217436	1.3862697
23.23280077654157	1.9300501	1.3892624
23.250694306355538	1.9453474	1.3947572
23.268588411019277	1.9752004	1.4054183
23.28648309102458	1.9649119	1.4017532
23.304378346863356	1.9551934	1.3982823
23.322274179027676	1.9432948	1.394021
23.340170588009723	1.9521945	1.3972095
23.358067574301852	1.9356023	1.3912592
23.37596513839651	1.9369433	1.3917412
23.39386328078629	1.9443461	1.3943981
23.411762001963947	1.9275475	1.3883615
23.429661302422353	1.9081979	1.3813753
23.4475611826545	1.9258426	1.3877473
23.46546164315356	1.923038	1.3867365
23.48336268441279	1.914557	1.3836752
23.501264306925638	1.9130518	1.3831311
23.51916651118564	1.9643497	1.4015527
23.537069297686497	2.002798	1.4152025
23.554972666922037	1.9856724	1.4091389
23.57287661938623	1.9704736	1.4037356
23.59078115557318	1.9523883	1.3972789
23.608686275977128	1.9470247	1.3953583
23.62659198109246	1.9227676	1.386639
23.6444982714137	1.9461797	1.3950554
23.66240514743549	1.9571835	1.3989937
23.68031260965263	1.9497684	1.3963411
23.698220658560068	1.9335287	1.3905138
23.716129294652845	1.9525192	1.3973258
23.7340385184262	1.9507611	1.3966964
23.75194833037546	1.9542017	1.3979276
23.769858730996123	1.9267626	1.3880787
23.78776972078382	1.9332145	1.3904009
23.80568130023431	1.8898507	1.3747184
23.823593469843495	1.889394	1.3745522
23.841506230107424	1.9181055	1.3849568
23.859419581522275	1.9367127	1.3916583
23.87733352458438	1.9530144	1.3975029
23.89524805979019	1.9390905	1.3925123
23.913163187636318	1.9433507	1.3940412
23.931078908619508	1.9436331	1.3941424
23.948995223236633	1.9696033	1.4034256
23.966912131984735	2.013659	1.4190345
23.98482963536096	2.0853434	1.4440718
24.002747733862616	2.1121142	1.4533114
24.020666427987155	2.1351955	1.4612309
24.038585718232156	2.1441412	1.4642886
24.056505605095353	2.1342769	1.4609164
24.074426089074617	2.1470928	1.4652961
24.092347170667946	2.1021657	1.4498848
24.110268850373515	2.095989	1.4477531
24.128191128689586	2.0885427	1.4451791
24.146114006114626	2.0800498	1.4422377
24.164037483147187	2.118603	1.4555422
24.181961560286005	2.117168	1.4550492
24.199886238029926	2.1263719	1.4582084
24.21781151687797	2.1016514	1.4497074
24.235737397329274	2.086074	1.4443249
24.253663879883135	2.0905507	1.4458736
24.271590965038975	2.1035223	1.4503524
24.289518653296376	2.056022	1.4338835
24.30744694515505	2.0231595	1.4223781
24.32537584111486	2.0240383	1.422687
24.34330534167581	2.1041727	1.4505767
24.361235447338046	2.1400647	1.462896
24.379166158601876	2.1247396	1.4576486
24.39709747596772	2.08563	1.4441711
24.41502939993615	2.0907724	1.4459504
24.432961931007917	2.0647008	1.4369067
24.450895069683856	2.036068	1.4269085
24.468828816465	1.9985276	1.413693
24.4867631718525	2.018515	1.4207445
24.504698136347656	2.0041199	1.4156694
24.52263371045192	2.001324	1.4146816
24.540569894666874	1.9750612	1.4053687
24.558506689494266	1.9612101	1.4004321
24.57644409543597	1.9712213	1.404002
24.594382112994012	1.9687431	1.4031191
24.61232074267057	1.9508872	1.3967416
24.630259984967953	1.9377769	1.3920406
24.64819984038863	1.9568624	1.398879
24.66614030943522	1.9948719	1.4123993
24.684081392610462	1.9976877	1.4133958
24.702023090417274	1.9805816	1.4073313
24.7199654033587	1.9745905	1.4052012
24.737908331937927	2.025682	1.4232645
24.755851876658305	2.0800588	1.442241
24.773796038023324	2.11431	1.4540668
24.79174081653661	2.1072278	1.4516294
24.809686212701962	2.0862103	1.4443719
24.827632227023294	2.0630887	1.4363456
24.8455788600047	2.0770311	1.4411908
24.8635261121504	2.0642421	1.4367471
24.88147398396475	2.0657914	1.4372861
24.899422475952303	2.1095545	1.4524306
24.917371588617698	2.161129	1.4700779
24.935321322465768	2.2128885	1.487578
24.953271678001478	2.2773254	1.509081
24.97122265572994	2.4372091	1.5611564
24.989174256156414	2.8069177	1.6753858
25.00712647978632	3.294691	1.8151284
25.02507932712521	3.8245125	1.955636
25.043032798678798	4.3363147	2.082382
25.060986894952933	5.0176177	2.240004
25.078941616453637	5.723651	2.3924153
25.096896963687055	6.558743	2.5610044
25.114852937159508	7.6765795	2.770664
25.132809537377444	8.191065	2.8620036
25.150766764847468	8.251941	2.8726192
25.168724620076347	7.7477465	2.7834773
25.186683103570985	6.817415	2.611018
25.204642215838426	5.6999784	2.3874629
25.222601957385894	4.288378	2.07084
25.24056232872074	3.256409	1.8045523
25.25852333035048	2.6571476	1.6300759
25.276484962782778	2.3091075	1.5195748
25.294447226525435	2.1618161	1.4703115
25.312410122086423	2.090785	1.4459547
25.330373649973843	1.9834707	1.4083574
25.348337810695988	1.9380678	1.392145
25.366302604761245	1.9285731	1.3887308
25.384268032678207	1.9339892	1.3906794
25.40223409495558	1.8761389	1.3697222
25.420200792102257	1.8552638	1.3620807
25.438168124627246	1.9010679	1.3787922
25.45613609303974	1.9263873	1.3879435
25.474104697849057	1.9036318	1.3797216
25.492073939564698	1.9304354	1.3894011
25.510043818696285	1.948722	1.3959663
25.528014335753614	1.9412719	1.3932953
25.54598549124664	1.9049579	1.3802022
25.56395728568544	1.877623	1.3702638
25.58192971958028	1.9053376	1.3803396
25.59990279344156	1.9306229	1.3894686
25.617876507779833	1.9248385	1.3873855
25.635850863105826	1.9007053	1.3786607
25.653825859930386	1.900342	1.378529
25.671801498764548	1.9026142	1.3793528
25.68977778011949	1.923611	1.3869431
25.707754704506524	1.8868153	1.373614
25.725732272437153	1.8660961	1.3660513
25.743710484423012	1.8363945	1.3551364
25.761689340975888	1.8669765	1.3663735
25.77966884260774	1.8658602	1.3659649
25.797648989830662	1.8651562	1.3657072
25.815629783156922	1.8168446	1.3479037
25.83361122309895	1.8432806	1.3576747
25.85159331016929	1.9088862	1.3816245
25.869576044880695	1.9536054	1.3977144
25.887559427746034	1.933536	1.3905165
25.90554345927836	1.8957498	1.3768623
25.92352813999086	1.8846682	1.3728322
25.94151347039689	1.8716346	1.3680769
25.959499451009965	1.8843575	1.372719
25.97748608234374	1.866173	1.3660794
25.995473364912062	1.8555835	1.3621981
26.013461299228904	1.8530754	1.3612771
26.03144988580839	1.8497756	1.3600645
26.04943912516483	1.868211	1.3668252
26.067429017812675	1.8744973	1.3691229
26.085419564266537	1.8697495	1.3673879
26.103410765041186	1.8674868	1.3665602
26.12140262065155	1.9095607	1.3818686
26.139395131612723	1.8513263	1.3606346
26.157388298439948	1.8350563	1.3546425
26.17538212164861	1.7800047	1.3341682
26.193376601754295	1.7853775	1.3361802
26.211371739272714	1.8128568	1.3464237
26.229367534719746	1.8527151	1.3611448
26.247363988611433	1.8392342	1.3561836
26.26536110146397	1.8475556	1.3592482
26.283358873793727	1.8450357	1.358321
26.301357306117204	1.8213683	1.3495808
26.319356398951104	1.7959276	1.3401222
26.33735615281224	1.7957497	1.3400558
26.35535656821762	1.8164319	1.3477507
26.373357645684404	1.8201486	1.3491288
26.39135938572991	1.8196453	1.3489423
26.409361788871614	1.8513227	1.3606331
26.427364855627165	1.868767	1.3670286
26.445368586514352	1.889669	1.3746523
26.46337298205115	1.8830472	1.3722417
26.48137804275568	1.8496755	1.3600278
26.499383769146217	1.8380582	1.3557501
26.517390161741215	1.7959901	1.3401456
26.53539722105928	1.7583734	1.3260367
26.553404947619182	1.7760129	1.3326713
26.571413341939856	1.7750998	1.3323287
26.589422404540397	1.7749814	1.3322842
26.60743213594006	1.8026092	1.3426129
26.62544253665827	1.8200651	1.3490978
26.64345360721459	1.7784475	1.3335844
26.66146534812879	1.8187163	1.3485979
26.679477759920758	1.8285422	1.352236
26.69749084311057	1.7991307	1.3413168
26.71550459821847	1.7832202	1.3353727
26.733519025764842	1.8249105	1.3508925
26.751534126270258	1.8000922	1.3416752
26.769549900255434	1.7480719	1.3221467
26.787566348241267	1.778074	1.3334445
26.80558347074881	1.8389986	1.3560969
26.823601268299267	1.8676766	1.3666296
26.841619741414036	1.857522	1.3629094
26.85963889061465	1.8380005	1.3557287
26.877658716422832	1.8053359	1.3436279
26.89567921936045	1.7952998	1.339888
26.913700399949544	1.8316301	1.3533773
26.93172225871233	1.9034697	1.3796629
26.949744796171174	1.8813522	1.3716239
26.967768012848605	1.847683	1.359295
26.98579190926733	1.8392613	1.3561937
27.003816485950225	1.8286387	1.3522717
27.021841743420318	1.8424642	1.357374
27.039867682200814	1.8488051	1.3597077
27.057894302815072	1.805969	1.3438635
27.07592160578664	1.7797129	1.3340588
27.0939495916392	1.8197131	1.3489674
27.111978260896635	1.8072486	1.3443395
27.13000761408296	1.7590483	1.3262912
27.148037651722397	1.7805254	1.3343633
27.166068374339304	1.7661589	1.3289691
27.184099782458215	1.7914319	1.3384439
27.20213187660384	1.7798529	1.3341112
27.22016465730105	1.7637318	1.3280556
27.23819812507487	1.7887852	1.3374548
27.256232280450533	1.7965264	1.3403456
27.274267123953383	1.834626	1.3544836
27.292302656108987	1.8421589	1.3572615
27.31033887744306	1.840366	1.3566009
27.32837578848146	1.8572059	1.3627934
27.34641338975026	1.8675891	1.3665977
27.364451681775673	1.8368855	1.3553175
27.382490665084074	1.8192984	1.3488137
27.400530340202046	1.840739	1.3567383
27.41857070765629	1.8870621	1.3737038
27.436611767973726	1.8769754	1.3700275
27.454653521681404	1.8501275	1.3601938
27.472695969306564	1.8125339	1.3463038
27.490739111376627	1.8400745	1.3564935
27.508782948419153	1.8607956	1.3641099
27.526827480961902	1.8385887	1.3559457
27.54487270953279	1.7969825	1.3405157
27.562918634659898	1.7627761	1.3276958
27.580965256871508	1.790691	1.3381671
27.599012576696026	1.8285509	1.3522393
27.617060594662068	1.8590901	1.3634845
27.63510931129842	1.8532879	1.3613552
27.65315872713401	1.7954382	1.3399396
27.67120884269797	1.7983446	1.3410237
27.68925965851958	1.820717	1.3493395
27.707311175128307	1.8474618	1.3592137
27.725363393053787	1.8585607	1.3632904
27.74341631282583	1.9023131	1.3792437
27.7614699349744	1.9135703	1.3833185
27.77952426002968	2.099839	1.4490821
27.797579288521973	2.1539192	1.4676237
27.815635020981784	2.6500301	1.6278913
27.83369145793979	2.7071128	1.6453305
27.85174859992682	2.4805057	1.5749621
27.869806447473923	2.3032026	1.5176306
27.887865001112267	2.0193608	1.4210422
27.905924261373233	1.9466202	1.3952134
27.92398422878836	1.895832	1.3768921
27.94204490388936	1.8594985	1.3636343
27.96010628720813	1.8683909	1.366891
27.978168379276728	1.8863802	1.3734555
27.9962311806274	1.887528	1.3738734
28.014294691792568	1.8788387	1.3707074
28.0323589133048	1.879644	1.3710011
28.050423845696887	1.8675725	1.3665916
28.068489489501758	1.889993	1.3747702
28.086555845252523	1.8407567	1.3567449
28.104622913482487	1.8534281	1.3614067
28.122690694725115	1.8581702	1.3631471
28.14075918951405	1.8819242	1.3718324
28.15882839838312	1.9052873	1.3803214
28.176898321866304	1.9457349	1.394896
28.1949689604978	2.003	1.4152738
28.213040314811945	1.9810727	1.4075059
28.23111238534327	1.9149611	1.3838212
28.249185172626493	1.8942088	1.3763026
28.267258677196473	1.93334	1.390446
28.285332899588294	1.9879072	1.4099317
28.303407840337172	1.9753804	1.4054823
28.321483499978545	1.9196277	1.3855063
28.33955987904799	1.9303797	1.389381
28.357636978081285	1.9542935	1.3979604
28.37571479761439	1.9506555	1.3966587
28.393793338183425	1.9647012	1.401678
28.41187260032469	1.9775934	1.4062693
28.429952584574686	1.9749266	1.4053208
28.448033291470065	1.9982473	1.4135938
28.46611472154769	1.9921038	1.411419
28.484196875344566	1.9857	1.4091487
28.502279753397914	1.9669491	1.4024796
28.52036335624511	1.9198323	1.3855802
28.538447684423716	1.9188008	1.3852079
28.556532738471482	1.9897426	1.4105824
28.574618518926325	1.9890946	1.4103527
28.59270502632635	1.9666165	1.402361
28.61079226120985	1.9721819	1.404344
28.628880224115274	2.0111225	1.4181405
28.646968915581287	2.0425017	1.4291612
28.66505833614671	2.0620916	1.4359984
28.68314848635055	2.0719113	1.4394135
28.701239366732004	2.074935	1.4404634
28.71933097783044	2.1010032	1.4494838
28.737423320185403	2.0974832	1.448269
28.75551639433665	2.1350045	1.4611654
28.773610200824074	2.1349638	1.4611515
28.791704740187793	2.1531973	1.4673777
28.80980001296809	2.1586213	1.4692247
28.827896019705413	2.1905825	1.4800617
28.845992760940433	2.188058	1.4792086
28.86409023721397	2.1847107	1.4780767
28.88218844906704	2.1726418	1.4739884
28.900287397040845	2.2393894	1.496459
28.918387081676755	2.2717361	1.507228
28.936487503516343	2.2465858	1.4988616
28.954588663101365	2.2215877	1.4904991
28.97269056097374	2.2591078	1.5030329
28.990793197675597	2.3361273	1.5284395
29.00889657374923	2.3727682	1.5403793
29.027000689737125	2.3943515	1.5473692
29.04510554618196	2.407229	1.5515248
29.06321114362659	2.4536452	1.5664116
29.08131748261405	2.515377	1.585994
29.099424563687567	2.5019777	1.5817641
29.11753238739057	2.4760976	1.573562
29.13564095426663	2.5026839	1.5819873
29.15375026485954	2.5569174	1.5990365
29.171860319713275	2.5951679	1.6109525
29.18997111937199	2.6462412	1.6267271
29.20808266438002	2.7641556	1.662575
29.226194955281898	2.823593	1.680355
29.244307992622335	2.9099052	1.7058444
29.26242177694624	2.956884	1.7195592
29.2805363087987	2.9245305	1.7101259
29.29865158872498	2.9258964	1.7105252
29.316767617270557	2.957836	1.719836
29.334884394981064	2.9504125	1.7176765
29.353001922402367	2.9848914	1.7276838
29.37112020008047	3.0567904	1.7483679
29.389239228561596	3.1188333	1.7660218
29.407359008392152	3.3802161	1.8385364
29.42547954011872	3.7761037	1.9432199
29.44360082428809	4.365087	2.0892792
29.46172286144722	5.3822165	2.3199604
29.479845652143283	6.8216023	2.6118197
29.497969196923606	8.800448	2.9665549
29.516093496335728	11.303089	3.3620067
29.5342185509274	14.034984	3.7463293
29.55234436124651	16.338491	4.04209
29.570470927841175	17.635368	4.1994486
29.588598251259686	17.413162	4.1729083
29.60672633205055	16.099438	4.0124106
29.624855170762405	13.968794	3.737485
29.642984767944146	11.306908	3.3625746
29.66111512414481	8.752044	2.9583852
29.67924623991366	6.6203375	2.5730016
29.697378115800138	5.1304812	2.2650566
29.71551075235387	4.237335	2.0584788
29.733644150124675	3.8308606	1.9572585
29.751778309662576	3.6401238	1.9079108
29.769913231517766	3.5632641	1.887661
29.78804891624066	3.4046092	1.8451583
29.806185364381818	3.330241	1.8248948
29.82432257649206	3.3261945	1.8237858
29.842460553122333	3.3219395	1.8226188
29.86059929482382	3.2252965	1.7959111
29.878738802147872	3.2522018	1.8033862
29.896879075646048	3.3051043	1.8179946
29.915020115870114	3.3083951	1.8188994
29.933161923371976	3.3436706	1.8285706
29.951304498703777	3.2936804	1.81485
29.969447842417857	3.2341163	1.7983649
29.987591955066733	3.2205215	1.7945812
30.005736837203123	3.2481866	1.8022726
30.023882489379943	3.2132401	1.7925513
30.04202891215028	3.1864603	1.7850659
30.060176106067455	3.204041	1.7899835
30.078324071684946	3.2055407	1.7904024
30.09647280955646	3.1447353	1.7733401
30.114622320235863	3.154358	1.7760512
30.132772604277257	3.2290103	1.7969447
30.1509236622349	3.2342947	1.7984145
30.16907549466328	3.1708596	1.7806908
30.18722810211705	3.104698	1.7620153
30.205381485151097	3.0484827	1.7459904
30.22353564432045	3.0363426	1.7425104
30.241690580180403	3.0181632	1.7372862
30.25984629328638	3.0060875	1.7338072
30.278002784194037	3.000161	1.7320973
30.296160053459246	3.0191197	1.7375615
30.314318101638033	3.0103128	1.7350253
30.332476929286646	2.9750826	1.7248428
30.35063653696153	2.9068575	1.7049509
30.368796925219307	2.851793	1.6887252
30.386958094616844	2.9077678	1.7052178
30.40512004571115	2.9833755	1.7272451
30.423282779059463	3.0088685	1.734609
30.441446295219233	2.9881175	1.7286172
30.459610594748067	2.9199271	1.7087795
30.47777567820382	2.880834	1.697302
30.495941546144504	2.841468	1.6856655
30.51410819912835	2.868946	1.6937964
30.532275637713795	2.8619614	1.6917332
30.55044386245946	2.8709002	1.6943731
30.56861287392416	2.8412693	1.6856065
30.586782672666956	2.8603055	1.6912438
30.604953259247047	2.8428435	1.6860734
30.623124634223885	2.769776	1.6642644
30.641296798157075	2.7736354	1.6654235
30.659469751606462	2.815397	1.6779145
30.677643495132074	2.7383008	1.6547812
30.695818029294152	2.7140648	1.6474419
30.713993354653116	2.7735715	1.6654043
30.73216947176962	2.7375185	1.6545448
30.75034638120448	2.7038834	1.644349
30.768524083518756	2.740327	1.6553932
30.786702579273673	2.7966328	1.6723136
30.80488186903069	2.851035	1.6885009
30.82306195335144	2.9873729	1.7284018
30.841242832797782	3.2668848	1.8074526
30.85942450793176	3.4713755	1.8631628
30.877606979315637	3.7606559	1.939241
30.895790247511883	4.029436	2.0073454
30.913974313083134	4.411222	2.100291
30.932159176592283	4.683258	2.1640837
30.95034483860237	4.7228913	2.1732213
30.968531299676698	4.6210284	2.1496577
30.98671856037873	4.389806	2.0951862
31.00490662127215	4.0211554	2.005282
31.023095482920848	3.6164374	1.9016933
31.04128514588892	3.142842	1.7728063
31.059475610740662	2.758531	1.6608826
31.07766687804056	2.5330596	1.5915588
31.09585894835335	2.5278752	1.5899293
31.11405182224393	2.5401137	1.5937734
31.132245500277417	2.534347	1.5919633
31.15043998301914	2.4505026	1.5654081
31.168635271034628	2.4650486	1.5700473
31.18683136488964	2.480206	1.574867
31.20502826515008	2.507167	1.5834036
31.223225972382135	2.4819665	1.5754259
31.241424487152155	2.4740896	1.5729239
31.259623810026692	2.4867227	1.5769346
31.27782394157253	2.5006657	1.5813494
31.296024882356644	2.4820619	1.575456
31.314226632946237	2.403717	1.5503925
31.332429193908684	2.4352896	1.5605415
31.350632565811598	2.4116	1.5529327
31.368836749222787	2.3954847	1.5477353
31.387041744710295	2.3912337	1.5463614
31.40524755284232	2.4388015	1.5616663
31.423454174187317	2.4462085	1.564036
31.441661609313922	2.4816756	1.5753335
31.459869858791002	2.53673	1.5927116
31.478078923187628	2.498716	1.5807328
31.496288803073064	2.392265	1.5466949
31.514499499016807	2.3311121	1.526798
31.532711011588546	2.3532677	1.5340364
31.550923341358178	2.3437808	1.5309411
31.56913648889584	2.2805054	1.5101342
31.587350454771844	2.3151917	1.5215755
31.605565239556732	2.3653502	1.5379695
31.62378084382127	2.296164	1.5153099
31.641997268136382	2.2906947	1.5135041
31.660214513073274	2.3080912	1.5192404
31.67843257920331	2.300984	1.5168995
31.6966514670981	2.3514934	1.533458
31.71487117732944	2.3541367	1.5343196
31.733091710469346	2.3286602	1.5259949
31.751313067090052	2.3579981	1.5355774
31.769535247764008	2.3523047	1.5337225
31.787758253063878	2.368786	1.5390861
31.805982083562526	2.3701208	1.5395197
31.824206739833024	2.3031657	1.5176184
31.84243222244869	2.3111944	1.5202613
31.860658531983013	2.2995014	1.5164107
31.878885669009737	2.293838	1.5145422
31.897113634102784	2.2786405	1.5095166
31.91534242783632	2.2742324	1.5080558
31.933572050784694	2.2911575	1.513657
31.951802503522508	2.269878	1.5066113
31.970033786624548	2.2701194	1.5066916
31.988265900665834	2.3155804	1.5217031
32.006498846221575	2.2289388	1.4929631
32.02473262386724	2.1307168	1.4596975
32.04296723417845	2.2035153	1.4844242
32.0612026777311	2.3162904	1.5219364
32.07943895510129	2.2988517	1.5161965
32.097676066865304	2.324542	1.5246449
32.115914013599685	2.3099835	1.519863
32.13415279588115	2.2459424	1.4986469
32.152392414286666	2.2580516	1.5026815
32.1706328693934	2.285402	1.5117546
32.18887416177875	2.2586393	1.502877
32.20711629202032	2.1505587	1.4664783
32.225359260695924	2.0975156	1.4482802
32.243603068383614	2.043946	1.4296664
32.26184771566166	2.061541	1.4358068
32.28009320310852	2.14285	1.4638476
32.2983395313029	2.133105	1.4605154
32.31658670082372	2.123852	1.4573442
32.33483471225012	2.1178787	1.4552933
32.35308356616143	2.123188	1.4571164
32.371333263137245	2.1888356	1.4794714
32.38958380375734	2.2133274	1.4877256
32.407835188601744	2.142776	1.4638224
32.42608741825067	2.1373355	1.4619629
32.444340493284585	2.1424563	1.4637132
32.46259441428416	2.1243503	1.4575151
32.48084918183028	2.227105	1.4923488
32.49910479650405	2.2207289	1.490211
32.51736125888683	2.140961	1.4632022
32.53561856956014	2.1557765	1.4682562
32.5538767291058	2.207516	1.4857712
32.572135738105764	2.1582086	1.4690843
32.59039559714228	2.1293132	1.4592166
32.608656306797776	2.0672476	1.4377927
32.62691786765491	2.027841	1.4240229
32.645180280296586	2.0480926	1.4311159
32.663443545305896	2.0376616	1.4274669
32.68170766326619	2.0513005	1.4322362
32.69997263476099	2.0838025	1.4435382
32.7182384603741	2.010735	1.4180039
32.7365051406895	1.9829581	1.4081755
32.75477267629144	2.0146692	1.4193904
32.77304106776434	2.1061513	1.4512585
32.79131031569289	2.0848176	1.4438897
32.809580420661966	2.061894	1.4359297
32.827851383256714	2.0158792	1.4198166
32.84612320406245	2.045546	1.4302258
32.86439588366476	2.021173	1.4216796
32.88266942264945	2.0161932	1.4199271
32.9009438216025	1.956485	1.3987441
32.9192190811102	2.0017781	1.4148421
32.937495201758985	2.0205526	1.4214615
32.95577218413556	1.9563966	1.3987125
32.974050028826866	1.8701133	1.3675208
32.992328736420035	2.0038216	1.4155641
33.010608307502444	2.0538187	1.433115
33.02888874266169	1.9802626	1.4072181
33.047170042485604	1.8907508	1.3750458
33.06545220756225	1.9534417	1.3976558
33.083735238479896	1.9790554	1.4067891
33.10201913582707	1.9845644	1.4087456
33.12030390019248	2.042406	1.4291277
33.138589532165135	2.077251	1.4412671
33.15687603233419	1.9583305	1.3994036
33.17516340128909	1.8736485	1.3688128
33.19345163961947	1.8828988	1.3721876
33.211740747915215	1.8425084	1.3573903
33.23003072676643	1.88389	1.3725487
33.248321576763466	1.9148306	1.383774
33.266613298496885	1.9388566	1.3924283
33.28490589255747	1.9079702	1.3812929
33.30319935953626	1.9733917	1.4047745
33.32149370002451	1.9399761	1.3928303
33.339788914613706	1.9391022	1.3925165
33.358085003895575	1.9961053	1.412836
33.376381968462034	2.0170581	1.4202317
33.39467980890529	1.8977188	1.3775772
33.41297852581774	1.8682398	1.3668357
33.43127811979204	1.9315922	1.3898174
33.44957859142105	1.9786305	1.406638
33.467879941297866	2.0256803	1.4232639
33.486182170015844	2.0148728	1.4194622
33.50448527816853	2.044684	1.4299245
33.522789266349754	1.9416827	1.3934427
33.541094135153514	1.8241403	1.3506074
33.55939988517411	1.7437823	1.3205235
33.57770651700602	1.7913725	1.3384217
33.59601403124398	1.8173388	1.3480871
33.61432242848296	1.9199558	1.3856248
33.632631709318154	2.0450428	1.4300499
33.650941874344994	2.118696	1.4555742
33.66925292415916	1.9645499	1.401624
33.68756485935654	1.8036712	1.3430083
33.70587768053328	1.7877678	1.3370743
33.724191388285746	1.8822695	1.3719583
33.74250598321054	1.978659	1.4066482
33.760821465904506	2.0080476	1.417056
33.77913783696474	2.0595162	1.4351015
33.79745509698852	1.944834	1.3945731
33.815773246573414	1.8906839	1.3750215
33.8340922863172	2.0043058	1.4157351
33.852412216817896	2.1462765	1.4650176
33.87073303867377	2.084704	1.4438504
33.889054752483304	1.9238803	1.3870401
33.907377358845245	1.9600711	1.4000254
33.92570085835853	2.0733523	1.439914
33.94402525162239	2.0219262	1.4219445
33.96235053923627	2.0128214	1.4187394
33.980676721799824	2.0907671	1.4459485
33.999003799912984	2.082066	1.4429367
34.01733177417592	2.1146405	1.4541804
34.03566064518901	2.1364498	1.4616599
34.0539904135529	2.0879366	1.4449694
34.07232107986846	1.9931428	1.4117872
34.090652644736785	1.9525331	1.3973308
34.108985108759235	1.869072	1.36714
34.12731847253742	1.9146488	1.3837084
34.14565273667313	1.9329895	1.39032
34.16398790176847	1.9711134	1.4039634
34.18232396842574	2.0349069	1.4265016
34.20066093724749	1.9814335	1.407634
34.21899880883651	1.9678551	1.4028026
34.23733758379583	1.9647083	1.4016806
34.25567726272874	1.9255197	1.3876309
34.27401784623872	1.9789348	1.4067461
34.29235933492957	2.0180504	1.420581
34.31070172940526	2.072162	1.4395006
34.32904503027003	2.1299593	1.459438
34.347389238128386	2.0025806	1.4151256
34.36573435358502	1.8818303	1.3717982
34.38408037724492	1.9765888	1.4059122
34.402427309713296	2.0307286	1.4250363
34.42077515159559	2.024362	1.4228008
34.43912390349752	1.9412372	1.3932829
34.45747356602499	1.9124572	1.3829162
34.47582413978423	1.9517734	1.3970588
34.49417562538163	1.8730042	1.3685775
34.51252802342388	1.9541779	1.397919
34.53088133451789	2.0326993	1.4257276
34.54923555927084	1.9174774	1.3847301
34.567590698290104	1.823778	1.3504733
34.58594675218336	1.8797084	1.3710246
34.6043037215585	1.8721124	1.3682516
34.62266160702365	1.9837835	1.4084685
34.641020409187234	2.0964496	1.4479122
34.65938012865785	1.944473	1.3944436
34.677740766044394	1.8600816	1.3638481
34.69610232195598	1.89078	1.3750564
34.714464797002016	1.9040751	1.3798823
34.73282819179208	1.9369618	1.3917477
34.751192506936064	2.055877	1.433833
34.76955774304408	2.0832999	1.443364
34.7879239007265	1.9278737	1.3884789
34.80629098059391	1.7786202	1.3336493
34.824658983257194	1.7090586	1.3073097
34.843027909327446	1.7495971	1.3227234
34.86139775941603	1.8597342	1.3637207
34.879768534134534	2.0815446	1.4427559
34.89814023409483	2.2488286	1.4996095
34.91651285990901	2.0907824	1.4459538
34.93488641218944	1.8387997	1.3560236
34.95326089154871	1.7883896	1.3373069
34.97163629859967	1.7206393	1.3117315
34.99001263395542	1.711394	1.3082026
35.00838989822934	1.8138412	1.3467892
35.02676809203499	2.0191202	1.4209574
35.04514721598624	2.0756276	1.4407039
35.063527270697215	2.2088964	1.4862356
35.081908256782256	2.3079472	1.5191929
35.10029017485597	2.3092759	1.5196302
35.11867302553321	2.0293496	1.4245524
35.137056809429104	1.8031869	1.3428279
35.155441527159006	1.780048	1.3341844
35.173827179338524	1.6959294	1.3022785
35.19221376658354	1.8130026	1.3464779
35.21060128951017	1.9356316	1.3912698
35.2289897487348	1.9245605	1.3872854
35.24737914487405	1.9267156	1.3880618
35.26576947854479	2.015172	1.4195676
35.28416075036418	2.2150126	1.4882919
35.30255296094958	2.3783677	1.5421957
35.32094611091867	2.2585413	1.5028445
35.33934020088932	2.2020066	1.4839159
35.35773523147969	2.148327	1.4657173
35.3761312033082	1.9908227	1.4109652
35.394528116993506	1.755456	1.3249363
35.41292597315452	1.9313482	1.3897295
35.431324772410434	2.2376106	1.4958645
35.449724515380666	2.3923795	1.5467318
35.46812520268491	2.3431356	1.5307304
35.486526834943106	1.9129174	1.3830825
35.504929412775454	1.646144	1.2830215
35.52333293680242	1.713059	1.3088387
35.54173740764471	1.7524031	1.3237836
35.560142825923286	2.0948517	1.4473603
35.5785491922594	2.074602	1.4403478
35.59695650727454	2.0659504	1.4373415
35.61536477159042	1.9318032	1.3898933
