0.008763373481513119	0.0	0.0
0.026290120649546365	0.0	0.0
0.043816868432600686	0.0	0.0
0.06134361724069026	0.0	0.0
0.07887036748382949	0.032968722	0.18157291
0.0963971195720331	0.18752013	0.43303594
0.11392387391531617	0.18907191	0.434824
0.1314506309236943	0.1688286	0.41088757
0.1489773910071836	0.055228375	0.23500718
0.16650415457580078	0.006483711	0.080521494
0.18403092203956356	0.059239354	0.24339136
0.20155769380849	0.053639345	0.2316017
0.2190844702925996	0.05017383	0.22399516
0.2366112519019124	0.039159626	0.19788791
0.2541380390464497	0.0874996	0.2958033
0.27166483213623416	0.11208158	0.33478588
0.28919163158128947	0.14002465	0.37419868
0.3067184377916406	0.20570946	0.45355204
0.324245251177314	0.24023445	0.49013716
0.34177207214833777	0.22564895	0.4750252
0.3592989011147415	0.15384316	0.39222845
0.37682573848655654	0.0833674	0.28873414
0.39435258467381573	0.05093655	0.22569127
0.41187944008655414	0.067843735	0.2604683
0.42940630513480854	0.096671045	0.31091967
0.446933180228618	0.13407326	0.36616015
0.4644600657780234	0.15325725	0.39148083
0.48198696219306775	0.141954	0.37676784
0.49951386988379676	0.15725854	0.39655837
0.5170407892602581	0.1491628	0.386216
0.5345677207325025	0.12636442	0.35547775
0.5520946647105822	0.13549083	0.3680908
0.5696216216045534	0.13989773	0.37402904
0.5871485918244737	0.18022433	0.42452836
0.6046755757804043	0.17010231	0.4124346
0.6222025738824094	0.1489897	0.38599184
0.6397295865405557	0.10211565	0.3195554
0.6572566141649129	0.12151038	0.3485834
0.6747836571655547	0.13186401	0.36313084
0.6923107159525568	0.15343548	0.3917084
0.7098377909359992	0.18403508	0.4289931
0.7273648825259653	0.18753725	0.43305573
0.7448919911325411	0.19215801	0.4383583
0.762419117165817	0.20263997	0.4501555
0.7799462610358868	0.17730308	0.4210737
0.7974734231528482	0.1605561	0.40069452
0.8150006039268024	0.12867454	0.35871235
0.8325278037678551	0.14531955	0.381208
0.8500550230861152	0.16022171	0.40027705
0.8675822622916969	0.15862639	0.39827928
0.8851095217947171	0.18539177	0.43057144
0.9026368020052984	0.1938464	0.44027993
0.9201641033335665	0.17952025	0.4236983
0.9376914261896523	0.18260385	0.42732173
0.9552187709836915	0.17639157	0.41998997
0.9727461381258234	0.18642054	0.43176445
0.990273528026193	0.18249218	0.42719105
1.0078009410949496	0.22475176	0.4740799
1.0253283777422473	0.26757297	0.51727456
1.0428558383782454	0.27884552	0.52805823
1.0603833234131086	0.26242632	0.51227564
1.0779108332570058	0.32177693	0.5672538
1.0954383683201119	0.33806822	0.58143634
1.112965929012607	0.37070334	0.6088541
1.1304935157446763	0.49857664	0.70609957
1.1480211289265108	0.5377422	0.7333091
1.1655487689683062	1.4638319	1.2098892
1.1830764362802655	1.7220248	1.3122594
1.200604131272596	2.0465126	1.4305637
1.2181318543555117	2.3312018	1.5268273
1.235659605939232	2.4757967	1.5734664
1.253187386433982	4.1884675	2.0465746
1.270715196249994	6.6086035	2.5707204
1.2882430357975057	12.12677	3.4823513
1.3057709054867608	16.940119	4.1158376
1.3232988057280106	23.026512	4.798595
1.3408267369315112	27.61868	5.2553477
1.358354699507526	31.118	5.578351
1.3758826938663256	34.99889	5.915986
1.3934107204181858	37.247772	6.1030955
1.410938779573391	37.926098	6.1584167
1.4284668717422309	38.60511	6.213301
1.4459949973350033	37.730347	6.1425033
1.4635231567620117	37.676662	6.1381316
1.4810513504335687	36.768925	6.0637383
1.4985795787599925	35.947983	5.9956636
1.5161078421516088	35.51359	5.959328
1.5336361410187505	34.711975	5.891687
1.5511644757717598	35.29173	5.9406843
1.5686928468209842	36.23762	6.019769
1.58622125457678	36.659912	6.054743
1.6037496994495108	37.719864	6.1416497
1.621278181849548	37.490185	6.122923
1.6388067021872719	38.521824	6.2065954
1.6563352608730693	38.23507	6.183451
1.673863858317336	37.128696	6.0933323
1.6913924949304753	36.15481	6.012887
1.7089211711228998	34.886684	5.906495
1.7264498873050296	34.141277	5.843054
1.7439786438872935	33.748642	5.809358
1.7615074412801288	32.760372	5.7236676
1.779036279893981	31.780666	5.6374345
1.796565160139305	30.348497	5.508947
1.814094082426564	29.799091	5.458854
1.8316230471662298	29.237062	5.4071307
1.849152054768784	28.199442	5.3103147
1.8666811056447168	27.384443	5.2330146
1.8842102002045273	26.662647	5.1635885
1.901739338858724	26.213139	5.119877
1.9192685220178245	25.535084	5.053225
1.9367977500923557	24.652685	4.965147
1.9543270234928547	24.407185	4.940363
1.971856342629867	23.891338	4.8878765
1.9893857079139496	23.475115	4.8451123
2.006915119755667	23.004133	4.7962623
2.0244445785655945	22.371521	4.729854
2.0419740847543175	21.865692	4.6760764
2.0595036387324317	21.514097	4.638329
2.0770332409105414	21.08353	4.5916805
2.094562891699263	21.033474	4.5862265
2.1120925915092217	20.488167	4.526386
2.129622340751053	20.304363	4.5060363
2.1471521398354043	188.2825	13.721607
2.1646819891729323	444.5791	21.085045
2.182211889174303	440.74002	20.993809
2.1997418402501974	453.19153	21.288296
2.2172718428113023	433.18192	20.813023
2.234801897268317	320.93777	17.914736
2.2523320040319548	17.283005	4.1572833
2.269862163512935	16.790154	4.097579
2.287392376121992	16.661446	4.0818434
2.304922642269869	16.503937	4.062504
2.322452962367322	16.360672	4.0448327
2.3399833368251164	15.986066	3.9982579
2.357513766054032	15.683724	3.9602683
2.3750442504648586	15.4127865	3.9259121
2.3925747904683963	15.317916	3.913811
2.410105386475459	15.118888	3.8883014
2.4276360388968707	14.816033	3.8491602
2.445166748143469	14.388406	3.7932053
2.4626975146261025	14.038266	3.7467675
2.4802283387556323	13.722094	3.7043345
2.4977592209429305	13.375574	3.6572633
2.5152901615988825	13.156089	3.6271324
2.5328211611343865	13.063291	3.6143174
2.5503522199603523	12.8829775	3.5892866
2.5678833384877024	12.517809	3.5380516
2.5854145171273712	12.345827	3.5136628
2.6029457562903064	12.152737	3.4860775
2.620477056387469	11.962954	3.4587502
2.6380084178298326	11.737163	3.4259543
2.655539841028383	11.407399	3.377484
2.673071326394119	11.115208	3.3339477
2.6906028743380523	10.912827	3.3034568
2.708134485271211	10.807684	3.2875042
2.7256661596046325	10.799545	3.286266
2.743197897749369	10.811192	3.2880375
2.760729700116486	10.704649	3.271796
2.778261567117063	10.469981	3.235735
2.795793499162193	10.196729	3.1932318
2.8133254966629817	9.901578	3.1466773
2.830857560030551	9.755752	3.1234198
2.8483896896760337	9.654617	3.107188
2.865921886010578	9.60215	3.0987337
2.883454149445347	9.494185	3.0812635
2.9009864803915177	9.281408	3.0465405
2.91851887926028	9.205762	3.0340998
2.9360513464628384	9.195698	3.032441
2.953583882410413	9.17464	3.0289667
2.9711164875142373	9.029773	3.004958
2.9886491621855606	8.795924	2.9657924
3.0061819068356455	8.684782	2.9469955
3.023714721875769	8.650375	2.941152
3.041247607717225	8.686373	2.9472654
3.0587805647713213	8.624335	2.9367218
3.0763135934493806	8.526541	2.9200242
3.0938466941627407	8.375757	2.89409
3.1113798673227544	8.257331	2.873557
3.1289131133407904	8.104194	2.8467865
3.1464464326282315	7.9476447	2.8191566
3.1639798255964786	7.8447423	2.8008468
3.1815132926569443	7.7654777	2.7866607
3.1990468342210603	7.6981177	2.7745483
3.216580450700272	7.54802	2.747366
3.2341141425060416	7.4943976	2.7375898
3.251647910049847	7.5091434	2.7402816
3.2691817537431813	7.504017	2.739346
3.286715673997555	7.3736196	2.715441
3.3042496712244938	7.1401772	2.672111
3.32178374583554	6.9128685	2.6292334
3.339317898242251	6.7780237	2.603464
3.3568521288562034	6.761335	2.6002567
3.3743864380889876	6.8581614	2.6188092
3.3919208263522127	6.831641	2.613741
3.4094552940575023	6.72308	2.5928903
3.4269898416164972	6.66863	2.582369
3.444524469440858	6.652719	2.5792866
3.4620591779422587	6.747787	2.5976503
3.479593967532391	6.71754	2.5918217
3.4971288386229658	6.629316	2.574746
3.5146637916257086	6.609194	2.5708354
3.5321988269523628	6.61216	2.571412
3.5497339450146903	6.5941844	2.5679145
3.5672691462244708	6.587535	2.5666194
3.5848044309934988	6.4963965	2.5488029
3.60233979973359	6.411442	2.5320826
3.619875252856575	6.375334	2.5249424
3.6374107907743034	6.366938	2.5232792
3.6549464138986427	6.371622	2.524207
3.6724821226414788	6.3758945	2.5250533
3.690017917414714	6.3975434	2.5293365
3.7075537986302702	6.449924	2.53967
3.7250897667000857	6.559536	2.5611591
3.7426258220361235	6.7308817	2.5943942
3.7601619650503553	6.9647202	2.6390758
3.777698196154779	7.430838	2.7259564
3.7952345157614067	8.499526	2.9153945
3.8127709242822716	9.37263	3.061475
3.830307422129425	11.568761	3.401288
3.847844009714936	30.306435	5.505128
3.8653806874508954	97.687386	9.883693
3.882917455749409	97.00284	9.849002
3.900454315022606	96.66198	9.831682
3.917991265682631	41.2623	6.4235735
3.9355283081416506	10.892507	3.3003798
3.9530654428118495	8.722772	2.953434
3.970602670105433	7.5768223	2.7526028
3.9881399904346244	6.755688	2.5991707
4.005677404211669	6.7624345	2.6004682
4.023214911848827	6.694612	2.587395
4.0407525137583855	6.559702	2.5611916
4.058290210352644	6.454946	2.5406585
4.075828002043927	6.3170547	2.5133753
4.0933658892445814	6.1817093	2.4863043
4.110903872366966	6.125919	2.4750593
4.128441951823468	6.1132703	2.472503
4.145980128026488	6.21892	2.4937763
4.163518401388452	6.1552167	2.4809709
4.181056772321807	6.083666	2.4665089
4.1985952412390155	6.017821	2.4531248
4.216133808552567	6.116053	2.4730656
4.233672474674966	6.2259383	2.495183
4.251211240018741	6.5142574	2.5523043
4.268750104996445	6.729994	2.5942233
4.286289070020643	7.5559616	2.748811
4.303828135503928	9.188842	3.0313103
4.3213673018589125	29.560154	5.436925
4.3389065694982305	90.65357	9.521217
4.356445938834537	165.83525	12.877704
4.3739854102805085	171.39236	13.091691
4.391524984248844	172.3736	13.129112
4.409064661152262	136.54533	11.685262
4.426604441403504	96.869255	9.842218
4.444144325415337	75.95084	8.714978
4.461684313600543	22.01159	4.691651
4.47922440637193	22.271456	4.7192645
4.496764604142329	20.618149	4.540721
4.5143049073245916	18.755009	4.330705
4.531845316331589	16.65621	4.081202
4.5493858315762195	13.753339	3.7085495
4.566926453471405	11.373867	3.3725164
4.584467182430081	9.302563	3.0500102
4.602008018865218	8.115267	2.8487308
4.619548963189798	7.448185	2.7291362
4.637090015816834	6.9821587	2.6423774
4.654631177159353	6.8015165	2.6079717
4.672172447630417	6.55682	2.560629
4.689713827643102	6.290966	2.50818
4.7072553176105085	6.0683823	2.4634087
4.724796917945764	5.9593043	2.4411685
4.742338629062015	5.915393	2.432158
4.759880451372434	5.8667006	2.4221272
4.777422385290215	5.7328854	2.3943446
4.794964431228581	5.636418	2.374114
4.812506589600768	5.616777	2.3699741
4.830048860820047	5.6050234	2.3674932
4.847591245299709	5.569099	2.3598938
4.8651337434530655	5.638976	2.3746529
4.882676355693457	5.659801	2.3790336
4.900219082434242	5.64052	2.3749778
4.917761924088813	5.573027	2.3607259
4.935304881070575	5.547464	2.3553054
4.952847953792969	5.571596	2.3604228
4.970391142669449	5.603122	2.3670914
4.9879344481135055	5.636553	2.3741426
5.005477870538642	5.5187707	2.3492064
5.023021410358394	5.536861	2.3530536
5.040565067986324	5.542904	2.3543372
5.05810884383601	5.532537	2.3521345
5.075652738321066	5.4640803	2.3375373
5.09319675185512	5.3775806	2.3189611
5.110740884851836	5.41533	2.3270862
5.128285137724894	5.4538374	2.3353453
5.145829510888007	5.439	2.3321664
5.163374004754908	5.4167824	2.3273983
5.1809186197393595	5.3849187	2.3205428
5.198463356255145	5.3803544	2.319559
5.216008214716077	5.349056	2.3128026
5.233553195535998	5.232592	2.287486
5.251098299128764	5.219558	2.284635
5.268643525908272	5.1335444	2.2657328
5.286188876288432	5.200037	2.280359
5.3037343506831895	5.288306	2.2996318
5.32127994950651	5.3209105	2.3067098
5.3388256731723915	5.3348894	2.309738
5.356371522094851	5.311527	2.3046749
5.373917496687938	5.340984	2.3110569
5.391463597365729	5.3064227	2.3035674
5.40900982454232	5.2344713	2.2878966
5.426556178631843	5.1921425	2.2786274
5.444102660048449	5.212944	2.2831872
5.4616492692063225	5.26434	2.294415
5.479196006519669	5.280066	2.2978394
5.496742872402727	5.232397	2.2874434
5.514289867269756	5.2121	2.2830024
5.531836991535049	5.2406077	2.2892373
5.549384245612924	5.215427	2.283731
5.566931629917724	5.156515	2.270796
5.584479144863822	5.120263	2.2627997
5.6020267908656205	5.168676	2.2734723
5.619574568337545	5.2128844	2.2831743
5.637122477694054	5.220619	2.2848675
5.654670519349629	5.170551	2.2738845
5.672218693718784	5.162987	2.2722208
5.689767001216059	5.132502	2.2655027
5.707315442256021	5.1771927	2.2753446
5.724864017253266	5.169714	2.2737005
5.7424127266224225	5.1840887	2.2768593
5.75996157077814	5.1906157	2.2782922
5.777510550135105	5.196451	2.2795725
5.795059665108022	5.153119	2.2700481
5.812608916111639	5.1460857	2.2684987
5.830158303560715	5.247469	2.2907355
5.847707827870055	5.3196907	2.3064454
5.86525748945448	5.377487	2.3189409
5.8828072887288485	5.457347	2.3360965
5.900357226108044	5.500588	2.3453333
5.917907302006979	5.608285	2.3681817
5.9354575168406	6.242504	2.4985003
5.9530078710238765	6.917981	2.6302056
5.970558364971812	7.390538	2.7185545
5.988108999099438	7.720692	2.7786133
6.005659773821818	8.30482	2.8818085
6.023210689554039	8.152334	2.8552294
6.040761746711227	8.552057	2.92439
6.058312945708531	7.866226	2.8046794
6.075864286961132	7.4279056	2.7254183
6.093415770884244	6.7790275	2.6036565
6.1109673978931065	6.2085524	2.4916966
6.128519168402993	5.6140666	2.3694022
6.146071082829204	5.428464	2.3299065
6.163623141587075	5.332792	2.3092837
6.181175345091969	5.329086	2.3084812
6.198727693759281	5.333162	2.3093638
6.216280188004435	5.3505993	2.3131363
6.233832828242885	5.250823	2.2914674
6.251385614890126	5.2668467	2.2949612
6.268938548361669	5.2671103	2.2950187
6.286491629073067	5.119453	2.262621
6.304044857439898	5.0259366	2.2418602
6.321598233877777	4.89034	2.2114112
6.339151758802344	4.889568	2.2112367
6.356705432629277	4.944305	2.2235794
6.37425925577428	4.9660664	2.2284672
6.391813228653095	4.9653153	2.2282987
6.409367351681486	5.083492	2.2546601
6.426921625275259	5.1261954	2.2641103
6.44447604985025	5.0823946	2.2544167
6.46203062582232	5.0461497	2.2463636
6.47958535360737	5.0129147	2.2389538
6.497140233621328	5.028945	2.2425308
6.514695266280161	4.994882	2.2349234
6.532250451999859	5.0052543	2.2372425
6.549805791196454	5.0399914	2.2449925
6.567361284286002	5.01964	2.2404554
6.584916931684597	5.048327	2.2468483
6.602472733808367	4.95244	2.2254078
6.6200286910734665	4.9419146	2.2230418
6.637584803896092	4.92753	2.219804
6.655141072692462	4.9726796	2.2299507
6.672697497878842	5.032234	2.2432642
6.690254079871514	4.980974	2.2318096
6.707810819086808	4.9854608	2.2328146
6.725367715941078	4.9387965	2.2223403
6.742924770850719	4.9504085	2.2249513
6.760481984232151	4.9671044	2.2287002
6.778039356501836	4.987811	2.2333407
6.795596888076266	5.0737314	2.2524946
6.813154579371963	5.079675	2.2538135
6.830712430805492	5.029338	2.2426186
6.84827044279344	5.004304	2.2370303
6.865828615752445	5.0177493	2.2400334
6.883386950099159	5.0598736	2.2494164
6.900945446250287	5.047519	2.2466686
6.918504104622553	5.0490475	2.2470086
6.936062925632727	5.044695	2.2460399
6.953621909697607	5.1126013	2.2611063
6.971181057234028	5.1686254	2.273461
6.988740368658859	5.17696	2.2752934
7.006299844389007	5.262639	2.2940443
7.023859484841407	5.4011583	2.3240392
7.041419290433036	5.5092125	2.347171
7.058979261580902	5.60049	2.3665354
7.0765393987020495	5.8388634	2.416374
7.094099702213559	6.1832256	2.4866092
7.111660172532549	6.5105424	2.5515764
7.129220810076164	6.852727	2.6177714
7.146781615261595	7.482007	2.7353258
7.16434258850606	7.732972	2.7808223
7.181903730226821	8.1428175	2.8535624
7.1994650408411704	8.199461	2.86347
7.217026520766437	8.310279	2.8827555
7.234588170419983	8.509376	2.9170835
7.252149990219215	8.5342455	2.921343
7.269711980581568	8.441864	2.9054885
7.2872741419245175	8.224731	2.8678792
7.304836474665574	7.7714653	2.7877347
7.322398979222286	7.334286	2.7081888
7.339961656012233	7.1263194	2.6695168
7.357524505453039	6.8091626	2.6094372
7.375087527962357	6.6023417	2.569502
7.392650723957886	6.377188	2.5253096
7.410214093857353	6.060887	2.461887
7.427777638078528	5.7986083	2.40803
7.445341357039213	5.5189548	2.3492455
7.4629052511572525	5.3236985	2.3073142
7.480469320850524	5.2472696	2.2906919
7.498033566536948	5.268901	2.2954087
7.5155979886344735	5.235739	2.2881737
7.5331625875610975	5.2093697	2.2824044
7.550727363734844	5.1948247	2.2792158
7.568292317573788	5.235234	2.2880633
7.585857449496025	5.2798214	2.2977862
7.603422759919705	5.337518	2.310307
7.620988249263007	5.335134	2.3097908
7.638553917944147	5.2900577	2.3000126
7.656119766381391	5.259444	2.2933478
7.673685794993023	5.2739515	2.2965086
7.691252004197388	5.25812	2.293059
7.70881839441285	5.286538	2.2992473
7.726384966057826	5.2946744	2.3010159
7.743951719550762	5.28804	2.299574
7.761518655310149	5.2777667	2.297339
7.779085773754511	5.2915463	2.3003361
7.796653075302419	5.31349	2.305101
7.814220560372475	5.3062506	2.30353
7.831788229383323	5.3407917	2.3110154
7.8493560827536495	5.330706	2.3088322
7.866924120902174	5.394463	2.3225985
7.884492344247663	5.3973556	2.323221
7.9020607532089135	5.401165	2.3240407
7.919629348204771	5.4321666	2.3307009
7.937198129654115	5.460533	2.3367784
7.954767097975865	5.471102	2.3390388
7.972336253588986	5.4663863	2.3380303
7.989905596912472	5.467006	2.338163
8.007475128365371	5.4588404	2.3364162
8.025044848366756	5.475241	2.3399234
8.042614757335754	5.5438714	2.3545427
8.060184855691523	5.643581	2.3756223
8.07775514385327	5.803765	2.4091005
8.095325622240228	5.863488	2.421464
8.112896291271687	5.8863416	2.4261785
8.130467151366968	5.8597693	2.420696
8.148038202945436	5.8437037	2.4173753
8.165609446426497	5.829684	2.4144738
8.183180882229594	5.860107	2.4207659
8.200752510774217	5.9480257	2.4388576
8.218324332479893	5.9841313	2.4462485
8.235896347766193	5.9914007	2.4477339
8.253468557052724	6.012515	2.452043
8.27104096075914	5.976698	2.4447286
8.288613559305137	6.072687	2.4642823
8.306186353110448	6.137875	2.4774735
8.32375934259485	6.1897855	2.487928
8.341332528178162	6.2236257	2.4947195
8.358905910280246	6.2777867	2.505551
8.376479489321003	6.2540765	2.5008152
8.394053265720377	6.329757	2.5159009
8.411627239898356	6.3625336	2.5224063
8.42920141227497	6.440312	2.537777
8.44677578327029	6.4490485	2.5394976
8.464350353304427	6.4288816	2.535524
8.48192512279754	6.312674	2.5125036
8.499500092169827	6.1832366	2.4866114
8.51707526184153	6.085415	2.4668634
8.534650632232934	6.1065226	2.471138
8.552226203764365	6.160676	2.482071
8.569801976856192	6.267641	2.5035257
8.587377951928834	6.321205	2.5142007
8.60495412940274	6.3783474	2.525539
8.622530509698416	6.4061112	2.5310297
8.6401070932364	6.462038	2.542054
8.657683880437283	6.51095	2.5516562
8.675260871721695	6.7073393	2.589853
8.692838067510303	6.874639	2.6219532
8.710415468223834	7.084788	2.6617265
8.727993074283043	7.218069	2.6866465
8.745570886108737	7.208851	2.6849303
8.763148904121765	7.2780657	2.697789
8.78072712874302	7.363369	2.713553
8.798305560393441	7.6133547	2.7592309
8.815884199494006	7.7139125	2.777393
8.833463046465745	7.840456	2.8000815
8.851042101729728	7.9598227	2.8213158
8.86862136570707	8.247226	2.8717983
8.886200838818924	8.426242	2.902799
8.903780521486505	8.453188	2.9074366
8.921360414131055	8.56223	2.9261289
8.938940517173874	8.713186	2.9518106
8.956520831036297	8.877366	2.979491
8.97410135613971	9.123171	3.0204587
8.99168209290554	9.194664	3.0322704
9.009263041755265	9.356101	3.0587745
9.026844203110405	9.586315	3.0961776
9.044425577392525	9.826606	3.1347418
9.062007165023239	9.972455	3.1579194
9.079588966424197	10.2774935	3.205853
9.097170982017108	10.384898	3.222561
9.11475321222372	11.41437	3.378516
9.132335657465825	12.30002	3.5071385
9.149918318165264	12.377955	3.5182319
9.167501194743924	12.919772	3.5944085
9.18508428762374	12.524981	3.539065
9.202667597226693	12.5696745	3.5453737
9.220251123974803	12.318129	3.5097191
9.237834868290143	12.027985	3.4681385
9.255418830594836	11.91124	3.4512663
9.273003011311046	11.437684	3.3819644
9.290587410860985	11.210833	3.3482583
9.308172029666911	10.512229	3.2422569
9.32575686815113	10.187938	3.191855
9.343341926735997	8.830507	2.971617
9.360927205843916	8.578728	2.9289465
9.378512705897327	8.374989	2.8939571
9.396098427318728	8.153373	2.855411
9.413684370530664	8.076252	2.8418748
9.431270535955722	7.989543	2.826578
9.448856924016539	7.959347	2.8212314
9.466443535135806	7.888999	2.808736
9.484030369736251	7.7997313	2.7928
9.501617428240658	7.7504854	2.7839694
9.519204711071852	7.747221	2.7833831
9.536792218652714	7.798197	2.792525
9.55437995140617	7.8154826	2.7956185
9.571967909755191	7.8614106	2.8038206
9.589556094122802	7.8888006	2.8087008
9.60714450493207	7.909377	2.8123615
9.624733142606116	7.9071827	2.8119714
9.642322007568108	7.9058447	2.8117335
9.659911100241267	7.968586	2.8228683
9.677500421048851	7.9988914	2.828231
9.695089970414175	8.006609	2.829595
9.712679748760609	8.014341	2.8309612
9.730269756511557	8.029838	2.8336968
9.747859994090492	8.10956	2.847729
9.765450461920915	8.165415	2.857519
9.78304116042639	8.212396	2.8657277
9.800632090030527	8.228526	2.8685408
9.81822325115699	8.333052	2.8867025
9.835814644229481	8.409534	2.8999197
9.853406269671762	8.471493	2.9105828
9.870998127907646	8.460152	2.908634
9.888590219360985	8.4528	2.9073699
9.906182544455698	8.450336	2.9069462
9.923775103615734	8.4294405	2.9033499
9.941367897265108	8.404521	2.8990552
9.958960925827878	8.383156	2.895368
9.97655418972816	8.405922	2.8992968
9.994147689390106	8.496756	2.9149194
10.011741425237934	8.435987	2.9044771
10.029335397695904	8.450231	2.906928
10.04692960718833	8.353048	2.8901641
10.06452405413958	8.367232	2.8926167
10.082118738974064	8.404522	2.8990552
10.099713662116246	8.376462	2.8942118
10.117308823990651	8.344184	2.8886302
10.134904225021844	8.29213	2.879606
10.152499865634445	8.309277	2.8825815
10.170095746253125	8.31198	2.8830504
10.18769186730261	8.287667	2.878831
10.205288229207675	8.245461	2.8714912
10.222884832393145	8.197256	2.863085
10.2404816772839	8.1978445	2.8631878
10.258078764304868	8.22953	2.8687158
10.275676093881035	8.183105	2.8606129
10.293273666437438	8.166284	2.857671
10.310871482399158	8.1363325	2.8524258
10.32846954219134	8.164661	2.857387
10.346067846239173	8.197028	2.8630452
10.363666394967908	8.242399	2.8709579
10.38126518880283	8.248548	2.8720286
10.398864228169298	8.21417	2.8660374
10.416463513492713	8.21083	2.8654544
10.434063045198531	8.224942	2.867916
10.451662823712262	8.245616	2.8715181
10.469262849459467	8.290275	2.8792837
10.486863122865758	8.165547	2.8575423
10.504463644356806	8.111355	2.848044
10.522064414358338	8.019251	2.831828
10.539665433296118	8.019228	2.831824
10.557266701595987	7.9440627	2.8185213
10.574868219683818	7.8703027	2.8054059
10.592469987985552	7.8040257	2.7935686
10.610072006927185	7.705757	2.7759244
10.627674276934751	7.6378956	2.7636743
10.64527679843435	7.5462246	2.7470393
10.662879571852143	7.430994	2.725985
10.680482597614331	7.282444	2.6986003
10.698085876147173	7.132694	2.6707103
10.715689407876988	7.0408607	2.653462
10.733293193230146	6.9581943	2.6378388
10.750897232633072	6.883278	2.6236002
10.76850152651225	6.8136883	2.6103044
10.786106075294207	6.6794972	2.5844724
10.803710879405534	6.6310706	2.5750866
10.821315939272877	6.5234585	2.5541062
10.83892125532294	6.455685	2.5408041
10.856526827982472	6.3340273	2.5167494
10.874132657678285	6.292517	2.5084891
10.891738744837243	6.2973576	2.5094535
10.909345089886271	6.293869	2.5087585
10.926951693252343	6.2467785	2.4993556
10.944558555362494	6.166435	2.4832308
10.96216567664381	6.055946	2.4608831
10.979773057523436	6.036266	2.4568813
10.997380698428573	5.982308	2.4458756
11.014988599786477	5.9235716	2.4338388
11.032596762024461	5.761462	2.4003046
11.050205185569892	5.632667	2.3733242
11.067813870850198	5.5949364	2.3653617
11.085422818292859	5.560802	2.3581352
11.10303202832541	5.4843435	2.3418674
11.120641501375454	5.4305797	2.3303604
11.138251237870636	5.38243	2.3200064
11.155861238238671	5.379483	2.3193712
11.173471502907317	5.296776	2.3014724
11.191082032304402	5.249754	2.2912343
11.208692826857805	5.2227564	2.285335
11.226303886995465	5.2027016	2.2809432
11.243915213145371	5.1467395	2.2686427
11.261526805735578	5.051061	2.2474566
11.279138665194196	4.9620495	2.2275658
11.296750791949393	4.8928714	2.2119837
11.314363186429393	4.8513627	2.202581
11.331975849062479	4.8057575	2.1922038
11.34958878027699	4.7641277	2.1826882
11.36720198050133	4.697609	2.1673968
11.384815450163948	4.679884	2.1633039
11.402429189693366	4.6479383	2.1559079
11.420043199518153	4.603381	2.145549
11.437657480066942	63.57804	7.973584
11.455272031768422	85.27684	9.234546
11.472886855051353	107.65394	10.375642
11.490501950344528	99.224365	9.961143
11.508117318076819	84.555115	9.195386
11.52573295867715	45.95181	6.778776
11.543348872574514	4.2201076	2.05429
11.560965060197946	4.175728	2.04346
11.57858152197655	4.1330986	2.0330024
11.59619825833949	4.0899763	2.022369
11.613815269715985	4.0648804	2.0161548
11.631432556535323	38.5617	6.2098064
11.649050119226837	83.09526	9.11566
11.666667958219929	93.47967	9.6684885
11.68428607394406	107.74653	10.380102
11.701904466828756	82.560356	9.086273
11.719523137303586	65.39842	8.086929
11.737142085798196	4.648097	2.1559446
11.754761312742286	3.7516556	1.9369191
11.772380818565619	3.7257326	1.9302157
11.790000603698015	3.6612139	1.9134299
11.80762066856935	3.59419	1.8958349
11.825241013609572	3.5654173	1.8882313
11.842861639248683	3.5658028	1.8883333
11.860482545916748	3.5837688	1.8930845
11.878103734043883	3.5410764	1.8817748
11.895725204060282	3.4947217	1.8694174
11.91334695639619	3.453075	1.8582451
11.930968991481919	3.4214883	1.8497266
11.948591309747824	3.380057	1.8384931
11.966213911624347	3.3604689	1.8331581
11.98383679754198	3.330831	1.8250564
12.001459967931268	3.3089585	1.8190542
12.019083423222835	3.3165233	1.8211324
12.036707163847352	3.3138685	1.8204033
12.05433119023556	3.269681	1.8082259
12.071955502818259	3.1937373	1.787103
12.089580102026313	3.1751163	1.7818856
12.107204988290643	3.1964896	1.7878729
12.12483016204224	3.2055154	1.7903953
12.142455623712152	3.2030926	1.7897186
12.16008137373149	3.1389103	1.771697
12.177707412531431	3.1044443	1.7619433
12.19533374054321	3.100694	1.7608787
12.212960358198126	3.1162632	1.7652941
12.230587265927545	3.0921922	1.758463
12.248214464162889	3.0328412	1.7415054
12.265841953335649	2.9755065	1.7249657
12.283469733877375	2.9729009	1.7242103
12.301097806219685	2.9515603	1.7180105
12.31872617079425	2.9673486	1.7225994
12.336354828032825	2.9629607	1.7213253
12.353983778367205	2.9733036	1.724327
12.371613022229262	2.9598994	1.7204359
12.389242560050928	2.9610054	1.7207572
12.406872392264201	2.9483957	1.7170893
12.424502519301143	2.9518363	1.7180909
12.442132941593874	2.9225056	1.7095337
12.459763659574586	2.8967004	1.7019695
12.477394673675532	2.8811138	1.6973844
12.49502598432903	2.8796148	1.6969428
12.51265759196746	2.8917084	1.7005024
12.530289497023267	2.8848686	1.6984901
12.547921699928967	2.8632443	1.6921123
12.565554201117134	2.8548236	1.6896223
12.583187001020404	2.818231	1.6787587
12.600820100071486	2.8079333	1.6756889
12.618453498703152	2.7981825	1.6727769
12.636087197348235	2.786965	1.6694205
12.65372119643964	2.7813792	1.6677468
12.671355496410326	2.7610373	1.661637
12.68899009769333	2.8091776	1.6760602
12.706625000721749	2.8538854	1.6893446
12.724260205928752	2.9379563	1.7140467
12.741895713747551	2.980007	1.7262696
12.759531524611454	2.9915552	1.7296113
12.777167638953818	2.979448	1.7261078
12.794804057208072	2.9614835	1.7208961
12.812440779807702	2.9832928	1.7272211
12.830077807186271	3.1737435	1.7815003
12.847715139777405	3.225164	1.7958741
12.865352778014795	3.4511447	1.8577256
12.882990722332197	3.5598361	1.8867528
12.90062897316344	3.5983672	1.8969363
12.918267530942412	3.66774	1.9151344
12.935906396103071	3.5903335	1.8948175
12.953545569079449	3.8172638	1.953782
12.971185050305628	3.6486957	1.9101559
12.988824840215775	3.670234	1.9157854
13.006464939244115	3.6491535	1.9102758
13.024105347824943	3.5054977	1.8722974
13.041746066392617	3.6058834	1.8989164
13.05938709538157	3.4529195	1.8582033
13.077028435226296	3.5112467	1.8738321
13.094670086361363	3.4097345	1.8465466
13.112312049221401	3.2878637	1.8132467
13.129954324241112	3.1695216	1.780315
13.147596911855258	2.9241931	1.7100272
13.165239812498685	2.9034152	1.7039411
13.182883026606293	2.8193364	1.679088
13.200526554613058	2.7843177	1.6686275
13.218170396954017	2.7284832	1.6518121
13.235814554064284	2.6956532	1.6418444
13.253459026379034	2.6930382	1.641048
13.271103814333523	2.702395	1.6438962
13.288748918363058	2.721552	1.6497127
13.306394338903031	2.712914	1.6470926
13.32404007638889	2.7092168	1.6459699
13.341686131256164	2.7494354	1.6581422
13.359332503940449	2.7452898	1.6568916
13.376979194877402	2.7452798	1.6568886
13.394626204502751	2.7408419	1.6555488
13.412273533252307	2.7589965	1.6610228
13.429921181561937	2.7360888	1.6541127
13.447569149867581	2.7819552	1.6679194
13.465217438605247	2.7457578	1.6570328
13.482866048211022	2.7260835	1.6510856
13.500514979121052	2.6761167	1.635884
13.518164231771568	2.6657817	1.6327221
13.535813806598844	2.690124	1.6401597
13.553463704039254	2.709058	1.6459216
13.571113924529229	2.7368488	1.6543424
13.588764468505275	2.716851	1.6482873
13.606415336403956	2.7111883	1.6465687
13.624066528661917	2.717307	1.6484257
13.641718045715882	2.7935905	1.6714038
13.659369888002635	2.8433266	1.6862166
13.67702205595903	2.9303596	1.7118293
13.694674550021993	2.9964542	1.7310269
13.712327370628532	3.0890696	1.7575749
13.729980518215713	3.1691408	1.7802081
13.747633993220681	3.23299	1.7980517
13.765287796080647	3.275154	1.8097386
13.7829419272329	3.322896	1.8228812
13.800596387114801	3.3555665	1.8318205
13.818251176163775	3.3781297	1.837969
13.835906294817324	3.375997	1.8373886
13.853561743513023	3.4332995	1.8529165
13.871217522688525	3.4918609	1.8686521
13.888873632781538	3.535797	1.8803716
13.906530074229858	3.5720663	1.889991
13.92418684747135	3.5999773	1.8973606
13.941843952943948	3.5790782	1.8918452
13.959501391085665	3.5309157	1.8790731
13.977159162334578	3.4384377	1.8543025
13.994817267128846	3.4157212	1.848167
14.012475705906693	3.34253	1.8282588
14.030134479106424	3.2138476	1.7927208
14.047793587166414	3.0946188	1.7591529
14.065453030525108	3.0203726	1.737922
14.083112809621026	2.9913528	1.7295527
14.100772924892766	2.9266272	1.7107388
14.118433376778997	2.9230752	1.7097003
14.136094165718458	2.8844576	1.6983691
14.153755292149969	2.8510704	1.6885113
14.171416756512416	2.723704	1.6503649
14.189078559244768	2.6624753	1.6317093
14.20674070078606	2.5929618	1.6102676
14.224403181575408	2.5761538	1.6050401
14.242066002051999	2.5563195	1.5988494
14.259729162655093	2.542852	1.5946323
14.277392663824022	2.5455408	1.5954751
14.295056505998208	2.49594	1.5798544
14.312720689617128	2.4641209	1.5697519
14.330385215120348	2.4444659	1.5634788
14.348050082947497	2.428321	1.558307
14.3657152935383	2.4316692	1.559381
14.383380847332528	2.4235084	1.5567621
14.401046744770051	2.4299715	1.5588366
14.418712986290798	2.4454112	1.563781
14.436379572334793	2.468302	1.5710831
14.454046503342123	2.4701142	1.5716597
14.471713779752946	2.4244695	1.5570709
14.489381402007504	2.4018269	1.5497829
14.507049370546113	2.402628	1.5500413
14.524717685809168	2.4052207	1.5508775
14.542386348237134	2.4200826	1.5556614
14.560055358270553	2.4119353	1.5530406
14.577724716350051	2.4254844	1.5573967
14.595394422916325	2.4221916	1.5563391
14.61306447841015	2.4368489	1.561041
14.63073488327237	2.442692	1.5629114
14.648405637943917	2.4493935	1.5650538
14.6660767428658	2.4549625	1.566832
14.683748198479094	2.4943194	1.5793414
14.701420005224954	2.5575716	1.599241
14.719092163544628	2.6302643	1.621809
14.73676467387942	2.6726048	1.6348103
14.754437536670727	2.6668828	1.6330594
14.772110752360014	2.6621768	1.6316179
14.78978432138882	2.67029	1.6341022
14.807458244198777	2.6805384	1.637235
14.82513252123159	2.6937096	1.6412524
14.842807152929028	2.6855807	1.6387742
14.860482139732962	2.645238	1.6264187
14.87815748208531	2.6405058	1.6249633
14.8958331804281	2.677203	1.636216
14.91350923520342	2.6891084	1.6398501
14.931185646853438	2.7349014	1.6537538
14.948862415820408	2.7188878	1.648905
14.966539542546656	2.6894357	1.6399499
14.98421702747459	2.6429987	1.6257302
15.001894871046696	2.6464057	1.6267776
15.019573073705542	2.6952574	1.6417239
15.037251635893766	2.7060387	1.6450042
15.054930558054092	2.7203906	1.6493607
15.072609840629323	2.753808	1.6594602
15.090289484062351	2.8728516	1.6949488
15.107969488796124	3.1843135	1.7844645
15.125649855273691	3.6107886	1.9002075
15.14333058393817	4.14044	2.0348072
15.161011675232768	5.1149335	2.261622
15.17869312960076	6.443282	2.538362
15.196374947485506	8.245574	2.8715107
15.214057129330447	11.347312	3.3685772
15.231739675579114	16.107153	4.013372
15.249422586675102	21.10998	4.5945597
15.267105863062092	24.1273	4.911955
15.284789505183847	24.42823	4.9424925
15.302473513484218	22.447853	4.7379165
15.320157888407127	18.965118	4.354896
15.337842630396578	14.735357	3.838666
15.355527739896656	11.420266	3.3793883
15.37321321735153	8.826636	2.9709656
15.39089906320545	6.4670515	2.5430398
15.408585277902748	4.888113	2.2109077
15.42627186188783	3.7550614	1.937798
15.443958815605198	3.199282	1.7886536
15.461646139499424	2.9134295	1.7068771
15.479333834015168	2.7734432	1.6653658
15.497021899597165	2.726323	1.6511581
15.514710336690234	2.647456	1.6271005
15.53239914573928	2.5719934	1.6037436
15.550088327189297	2.5238478	1.5886623
15.567777881485336	2.540479	1.593888
15.58546780907256	2.5399842	1.5937328
15.6031581103962	2.5283036	1.590064
15.620848785901568	2.527385	1.5897751
15.638539836034063	2.5484335	1.5963814
15.656231261239173	2.5430682	1.5947
15.673923061962451	2.4945328	1.579409
15.691615238649552	2.4948666	1.5795146
15.709307791746202	2.4524958	1.5660447
15.727000721698221	2.4268892	1.5578476
15.744694028951498	2.39145	1.5464313
15.76238771395202	2.409782	1.5523472
15.780081777145844	2.400534	1.5493656
15.797776218979125	2.3672214	1.5385777
15.815471039898094	2.3616369	1.5367618
15.833166240349064	2.356855	1.5352051
15.850861820778437	2.3563588	1.5350436
15.868557781632699	2.3809528	1.5430336
15.886254123358412	2.411485	1.5528957
15.903950846402232	2.4370842	1.5611163
15.921647951210897	2.41816	1.5550433
15.939345438231225	2.3723447	1.5402417
15.957043307910133	2.3564622	1.5350773
15.974741560694602	2.3837461	1.5439385
15.992440197031714	2.42138	1.5560784
16.01013921736862	2.4427724	1.5629371
16.02783862215259	2.439791	1.561983
16.045538411830933	2.4000745	1.5492173
16.06323858685107	2.3718092	1.5400679
16.080939147660512	2.3639078	1.5375005
16.09864009470684	2.3806095	1.5429224
16.11634142843774	2.4049835	1.5508009
16.134043149300954	2.4304464	1.5589889
16.15174525774433	2.4403994	1.5621778
16.169447754215817	2.423	1.5565989
16.18715063916342	2.374619	1.5409799
16.204853913035244	2.4023826	1.5499622
16.222557576279478	2.4367185	1.5609992
16.240261629344403	22.441637	4.7372603
16.257966072678386	43.00977	6.558183
16.275670906729868	38.119854	6.1741276
16.293376131947387	2.556778	1.5989928
16.31108174877957	2.5732594	1.6041383
16.328787757675133	2.57317	1.6041104
16.34649415908287	2.5797637	1.6061642
16.364200953451657	2.6022618	1.6131527
16.38190814123048	2.6606104	1.6311377
16.39961572286839	2.6946173	1.641529
16.41732369881455	2.7166038	1.6482123
16.43503206951817	2.7266989	1.6512719
16.45274083542859	2.7655196	1.6629852
16.47044999699522	2.7661774	1.663183
16.488159554667558	2.8385036	1.684786
16.505869508895184	2.8983772	1.7024621
16.523579860127786	2.9331977	1.712658
16.541290608815117	2.9793434	1.7260774
16.559001755407035	3.024196	1.7390215
16.57671330035348	3.0830884	1.7558725
16.59442524410448	3.155456	1.7763604
16.61213758711015	3.1861122	1.7849684
16.629850329820705	3.2488832	1.8024659
16.647563472686436	3.3189871	1.8218087
16.665277016157724	3.4333913	1.8529413
16.682990960685053	3.4521964	1.8580087
16.70070530671898	3.4524004	1.8580636
16.718420054710155	3.4597948	1.8600523
16.736135205109335	3.546657	1.883257
16.753850758367335	3.649375	1.9103338
16.771566714935087	3.7420702	1.9344431
16.789283075263597	3.783146	1.945031
16.80699983980398	3.7941396	1.9478551
16.82471700900741	3.8465378	1.9612592
16.84243458332518	3.9124434	1.9779898
16.860152563208665	4.012878	2.003217
16.87787094910932	4.1224437	2.0303802
16.89558974147871	4.1397557	2.034639
16.913308940768466	4.1917367	2.047373
16.931028547430333	4.240653	2.0592847
16.94874856191613	4.3306475	2.0810208
16.966468984677785	4.415936	2.1014128
16.98418981616729	4.4600325	2.1118789
17.00191105683676	4.4780035	2.1161294
17.019632707138374	4.5152817	2.1249192
17.03735476752442	4.5183315	2.1256368
17.05507723844728	4.5343547	2.1294024
17.072800120359403	4.586147	2.141529
17.090523413713353	4.68402	2.1642597
17.108247118961785	4.796016	2.189981
17.125971236557437	4.855951	2.203622
17.143695766953133	4.8098097	2.1931279
17.161420710601806	4.754518	2.1804857
17.179146067956477	4.72993	2.1748402
17.19687183947025	4.7378197	2.1766534
17.21459802559634	4.7325916	2.175452
17.232324626788028	4.696781	2.1672058
17.25005164349871	4.6919613	2.1660936
17.267779076181863	4.707121	2.16959
17.285506925291074	4.686393	2.1648078
17.30323519127999	4.6515775	2.1567516
17.320963874602384	4.5913725	2.1427488
17.33869297571211	4.4740224	2.1151886
17.356422495063114	4.382645	2.0934768
17.37415243310944	4.394012	2.09619
17.391882790305218	4.460201	2.1119187
17.40961356710468	4.536346	2.12987
17.42734476396215	4.547882	2.1325765
17.445076381332044	4.533926	2.1293018
17.462808419668868	4.5517817	2.1334906
17.48054087942723	4.6863375	2.164795
17.498273761061835	4.9979506	2.2356098
17.51600706502747	5.5286903	2.3513167
17.533740791779024	6.247008	2.4994016
17.551474941771485	7.62726	2.7617495
17.56920951545993	8.740514	2.956436
17.586944513299528	10.916056	3.3039455
17.60467993574556	12.605833	3.5504694
17.622415783253373	14.3457775	3.787582
17.64015205627843	15.805368	3.9755967
17.657888755276293	16.95394	4.117516
17.675625880702604	17.386393	4.169699
17.69336343301311	17.132545	4.1391478
17.71110141266366	16.323887	4.040283
17.728839820110178	15.39635	3.9238183
17.746578655808705	14.594345	3.8202546
17.764317920215372	13.182165	3.6307251
17.7820576137864	11.656101	3.4141033
17.79979773697811	9.581075	3.0953312
17.81753829024692	7.596993	2.7562642
17.835279274049356	5.89111	2.427161
17.85302068884201	4.851666	2.2026498
17.870762535081607	4.235586	2.058054
17.888504813224934	3.9744036	1.9935906
17.90624752372891	3.8290849	1.9568048
17.923990667050536	3.6846044	1.9195323
17.941734243646895	3.568941	1.8891641
17.959478253975185	3.5020485	1.871376
17.9772226984927	3.466136	1.8617562
17.994967577656833	3.4648416	1.8614085
18.01271289192506	3.4534605	1.8583488
18.030458641754965	3.425657	1.8508531
18.04820482760425	3.4042697	1.8450663
18.06595144993067	3.3569584	1.8322004
18.083698509192125	3.3467166	1.8294034
18.101446005846576	3.3327131	1.825572
18.119193940352105	3.309212	1.819124
18.136942313166887	3.2537699	1.803821
18.1546911247492	3.196314	1.7878238
18.1724403755574	3.1919575	1.786605
18.19019006604997	3.2081292	1.791125
18.207940196685467	3.237652	1.7993476
18.225690767922575	3.2114892	1.7920629
18.243441780220046	3.1191163	1.766102
18.261193234036764	3.081873	1.7555264
18.278945129831676	3.1008477	1.7609224
18.29669746806386	3.117936	1.7657678
18.314450249192483	3.110552	1.7636757
18.3322034736768	3.1200109	1.7663553
18.349957141976184	3.1227415	1.767128
18.3677112545501	3.0744565	1.7534128
18.385465811858108	3.0693955	1.7519691
18.403220814359884	3.065182	1.7507662
18.420976262515172	3.0835068	1.7559917
18.43873215678387	3.0853198	1.7565079
18.456488497625923	3.1620014	1.7782017
18.474245285501407	3.277364	1.8103491
18.492002520870486	3.366441	1.8347864
18.50976020419343	3.428764	1.8516922
18.527518335930615	3.7294176	1.93117
18.545276916542516	4.3142204	2.0770702
18.563035946489688	4.483155	2.117346
18.580795426232832	4.853746	2.203122
18.598555356232698	4.7443337	2.1781492
18.616315736950185	5.074272	2.2526145
18.63407656884626	4.795297	2.1898167
18.65183785238201	5.0043726	2.2370455
18.669599588018617	4.7219625	2.1730077
18.68736177621737	4.667579	2.160458
18.705124417439652	4.610975	2.1473181
18.72288751214696	4.45626	2.1109855
18.740651060800886	4.6312537	2.1520348
18.758415063863115	4.386424	2.0943792
18.77617952179546	4.552825	2.133735
18.793944435059814	4.2458606	2.0605485
18.811709804118184	4.186344	2.0460558
18.829475629432675	4.1069	2.0265489
18.8472419114655	3.961772	1.9904201
18.86500865067897	4.1235704	2.0306575
18.88277584753551	3.8161538	1.9534979
18.90054350249763	3.7977488	1.9487814
18.918311616027957	3.464482	1.8613119
18.936080188589226	3.375874	1.8373551
18.953849220644265	3.085052	1.7564316
18.971618712656007	2.9134495	1.706883
18.9893886650875	2.8427527	1.6860465
19.007159078401887	7.9887795	2.826443
19.024929953062408	32.89477	5.7353964
19.042701289532435	32.849827	5.731477
19.060473088275405	25.43099	5.042915
19.07824534975489	2.6719484	1.6346096
19.096018074434568	2.6721823	1.6346811
19.113791262778197	2.6460958	1.6266824
19.13156491524966	2.6445467	1.6262063
19.149339032312945	2.616079	1.6174297
19.167113614432136	2.6255124	1.6203433
19.184888662071433	2.5749872	1.6046766
19.202664175695123	2.5330217	1.5915469
19.220440155767623	2.5070376	1.5833628
19.238216602753447	2.5275326	1.5898216
19.2559935171172	2.5564282	1.5988834
19.27377089932361	2.537585	1.5929799
19.291548749837514	2.5392861	1.5935137
19.309327069123835	2.5396612	1.5936314
19.32710585764763	2.5658765	1.6018354
19.344885115874032	2.556766	1.598989
19.362664844268313	2.5304794	1.5907481
19.380445043295822	2.5347466	1.5920888
19.39822571342203	2.534694	1.5920722
19.41600685511252	2.5129845	1.5852395
19.43378846883297	2.451362	1.5656825
19.451570555049173	2.472884	1.5725406
19.469353114227037	2.478995	1.5744824
19.48713614683254	2.4877143	1.5772489
19.50491965333182	2.492659	1.5788157
19.52270363419109	2.4995525	1.5809973
19.540488089876686	2.506143	1.5830803
19.55827302085503	2.4976394	1.5803921
19.576058427592674	2.517729	1.5867354
19.593844310556282	2.5134404	1.5853833
19.611630670212598	2.492148	1.5786538
19.629417507028506	2.4705796	1.5718077
19.64720482147098	2.464639	1.5699168
19.6649926140071	2.4655464	1.5702058
19.682780885104084	2.4641185	1.5697511
19.70056963522921	2.4801748	1.5748571
19.718358864849908	2.4879777	1.5773325
19.7361485744337	2.489648	1.5778619
19.753938764448215	2.504554	1.5825783
19.771729435361202	2.5197268	1.5873647
19.789520587640506	2.5181837	1.5868787
19.807312221754092	2.5263371	1.5894456
19.825104338170043	2.5308535	1.5908656
19.842896937356517	2.5431948	1.5947397
19.860690019781824	2.5252223	1.5890948
19.87848358591436	2.4920568	1.578625
19.896277636222635	2.4591167	1.5681571
19.914072171175278	2.4803333	1.5749074
19.931867191241015	2.5185022	1.5869789
19.94966269688869	2.5309653	1.5909008
19.967458688587264	2.497115	1.5802262
19.985255166805807	2.4625573	1.5692538
20.00305213201348	2.4600089	1.5684415
20.020849584679578	2.468278	1.5710754
20.038647525273507	2.4470825	1.5643153
20.05644595426477	2.4404929	1.5622077
20.07424487212299	2.4241288	1.5569614
20.092044279317903	2.4183965	1.5551194
20.109844176319353	2.4072547	1.551533
20.127644563597304	2.3868716	1.5449504
20.145445441621817	2.4095852	1.5522839
20.16324681086307	2.4016662	1.549731
20.181048671791373	2.3917873	1.5465404
20.198851024877122	2.4109535	1.5527246
20.216653870590836	2.4173453	1.5547814
20.234457209403146	2.3954957	1.5477389
20.252261041784802	2.3521068	1.533658
20.270065368206662	2.372261	1.5402147
20.287870189139685	2.364187	1.5375913
20.305675505054968	2.3593526	1.5360184
20.323481316423702	2.3216524	1.5236969
20.341287623717207	2.3363123	1.5285
20.359094427406884	2.3772757	1.5418416
20.376901727964288	2.3789933	1.5423986
20.39470952586107	2.3804724	1.5428779
20.41251782156899	2.3614063	1.5366868
20.430326615559935	2.3729117	1.5404258
20.448135908305886	2.3879673	1.5453049
20.465945700278965	2.4244032	1.5570495
20.483755991951384	2.4081988	1.5518372
20.50156678379548	2.3654442	1.5380001
20.519378076283708	2.341838	1.5303065
20.537189869888635	2.3373044	1.5288244
20.55500216508294	2.3358757	1.5283571
20.572814962339415	2.335665	1.5282882
20.59062826213098	2.3173168	1.5222735
20.60844206493066	2.3230283	1.5241483
20.626256371211593	2.3483906	1.5324459
20.644071181447032	2.3757334	1.5413414
20.66188649611036	2.3410583	1.5300517
20.67970231567506	2.2988057	1.5161813
20.697518640614742	2.3155422	1.5216906
20.715335471403122	2.3439534	1.5309975
20.73315280851404	2.3310776	1.5267867
20.750970652421447	2.3382668	1.5291393
20.768789003599412	2.3135958	1.5210509
20.786607862522136	2.305918	1.5185249
20.8044272296639	2.285369	1.5117437
20.82224710549913	2.2766445	1.5088553
20.84006749050237	2.2738614	1.5079328
20.857888385148268	3.846886	1.9613479
20.8757097899116	45.963257	6.7796206
20.893531705267254	64.83639	8.052105
20.911354131690224	83.851006	9.15702
20.92917706965566	69.11888	8.313777
20.94700051963877	50.16357	7.0826244
20.96482448211493	29.418324	5.4238663
20.982648957559622	4.1997914	2.0493393
21.00047394644843	2.3113492	1.5203122
21.01829944925707	2.3104851	1.520028
21.036125466461375	2.3044853	1.5180532
21.053951998537297	2.2684968	1.506153
21.071779045960906	2.2431488	1.4977145
21.089606609208378	2.2092185	1.486344
21.10743468875603	2.232539	1.4941683
21.12526328508028	2.246458	1.4988189
21.143092398657675	2.238697	1.4962276
21.16092202996488	2.1988323	1.482846
21.17875217947867	2.2110388	1.4869562
21.19658284767596	2.2239523	1.4912921
21.21441403503377	2.2490742	1.4996914
21.232245742029225	2.2399557	1.4966482
21.2500779691396	2.234648	1.4948739
21.26791071684227	2.2027328	1.4841607
21.28574398561475	2.1498237	1.4662277
21.30357777593465	2.1274374	1.4585737
21.321412088279704	2.1364832	1.4616714
21.339246923127792	2.1367025	1.4617465
21.357082280956888	2.1193163	1.4557872
21.3749181622451	2.1415973	1.4634197
21.392754567470647	2.1441762	1.4643006
21.41059149711187	2.1620173	1.47038
21.42842895164726	2.1380942	1.4622223
21.446266931555378	2.1612778	1.4701285
21.464105437314945	2.1402543	1.4629608
21.481944469404798	2.1251593	1.4577926
21.49978402830388	2.1127589	1.4535333
21.51762411449127	2.102176	1.4498882
21.53546472844617	2.0997806	1.449062
21.553305870647876	2.1287463	1.4590224
21.571147541575865	2.13425	1.4609072
21.58898974170967	2.1296701	1.4593389
21.60683247152899	2.0878797	1.4449497
21.62467573151363	2.0683124	1.4381628
21.642519522143523	2.0468988	1.4306988
21.660363843898722	2.04582	1.4303217
21.6782086972594	2.0529006	1.4327947
21.696054082705864	2.0582664	1.4346659
21.713900000718535	2.030028	1.4247905
21.73174645177795	2.0176597	1.4204434
21.749593436364794	2.013569	1.4190029
21.767440954959845	2.0329065	1.4258003
21.785289008044032	2.0629241	1.4362884
21.803137596098388	2.0745907	1.440344
21.820986719604086	2.0769303	1.4411559
21.838836379042412	2.0829587	1.4432459
21.85668657489478	2.070071	1.4387741
21.87453730764273	2.052392	1.4326172
21.892388577767914	2.0437655	1.4296033
21.91024038575213	1.9894128	1.4104655
21.928092732077285	1.9539764	1.397847
21.945945617225426	1.95693	1.3989031
21.963799041678694	1.9917371	1.4112892
21.981653005919398	31.3287	5.5972047
21.999507510429943	78.140396	8.839705
22.01736255569286	73.05464	8.547201
22.035218142190818	4.1521826	2.0376904
22.05307427040661	1.9819657	1.407823
22.07093094082315	2.0093806	1.4175262
22.088788153923474	2.0081987	1.4171093
22.106645910190746	2.0240688	1.4226978
22.12450421010827	2.0144143	1.4193007
22.142363054159464	1.9915435	1.4112206
22.16022244282787	1.9811513	1.4075338
22.178082376597164	1.9662434	1.402228
22.195942855951145	1.966253	1.4022315
22.213803881373742	1.9952751	1.4125421
22.231665453349002	2.0308955	1.4250948
22.24952757236111	2.0558925	1.4338384
22.26739023889438	2.0356166	1.4267504
22.28525345343323	2.0248396	1.4229686
22.30311721646225	2.0092714	1.4174877
22.320981528466113	1.9869558	1.4095942
22.33884638992964	1.9769921	1.4060556
22.356711801337788	1.9770606	1.4060799
22.37457776317561	1.9673098	1.4026083
22.392444275928337	1.9765716	1.405906
22.410311340081282	1.9699876	1.4035624
22.428178956119904	1.9866138	1.4094728
22.446047124529805	1.986477	1.4094243
22.46391584579669	2.0084403	1.4171945
22.481785120406414	2.0263705	1.4235064
22.49965494884496	2.003458	1.4154357
22.51752533159841	1.9462725	1.3950887
22.53539626915302	1.9214308	1.3861568
22.553267761995137	1.9422363	1.3936414
22.571139810611264	1.9638665	1.4013802
22.589012415488025	1.9730058	1.4046372
22.60688557711216	1.9452792	1.3947327
22.624759295970566	1.9678544	1.4028023
22.642633572550263	2.0036001	1.4154859
22.660508407338362	1.9983268	1.4136219
22.67838380082217	1.9511608	1.3968396
22.696259753489077	1.9017873	1.379053
22.714136265826614	1.8872342	1.3737664
22.73201333832246	1.8921154	1.3755418
22.74989097146439	1.903769	1.3797714
22.76776916574035	1.9734137	1.4047824
22.785647921638393	1.9751521	1.4054011
22.803527239646712	2.0023131	1.4150312
22.82140712025363	1.9879737	1.4099553
22.839287563947593	1.9936752	1.4119756
22.85716857121719	1.979235	1.4068528
22.875050142551135	1.9739344	1.4049678
22.892932278438277	1.9294838	1.3890586
22.910814979367604	1.8974384	1.3774754
22.928698245828222	1.9055243	1.3804073
22.946582078309387	1.9465213	1.3951778
22.96446647730047	1.9349607	1.3910286
22.98235144329098	1.9188616	1.3852298
23.000236976770562	1.8889022	1.3743734
23.018123078229	1.87959	1.3709815
23.03600974815619	1.8657496	1.3659245
23.053896987042194	1.8980813	1.3777087
23.071784795377173	1.903246	1.3795818
23.08967317365145	1.9255452	1.3876401
23.10756212235546	1.9393566	1.3926078
23.125451641979787	1.9459307	1.3949662
23.143341733015134	1.8931233	1.3759081
23.161232395952357	1.8647716	1.3655664
23.179123631282426	1.9028388	1.3794342
23.197015439496468	1.9268849	1.3881228
23.214907821085717	1.987173	1.4096712
23.23280077654157	2.009469	1.4175574
23.250694306355538	1.9944612	1.412254
23.268588411019277	1.959793	1.3999261
23.28648309102458	1.9394507	1.3926417
23.304378346863356	1.9395034	1.3926606
23.322274179027676	1.954377	1.3979903
23.340170588009723	1.9951018	1.4124807
23.358067574301852	1.9922227	1.4114612
23.37596513839651	1.9772807	1.4061581
23.39386328078629	1.9729577	1.4046202
23.411762001963947	1.9446476	1.3945062
23.429661302422353	1.9170853	1.3845885
23.4475611826545	1.9263886	1.387944
23.46546164315356	1.934845	1.390987
23.48336268441279	1.9303983	1.3893877
23.501264306925638	1.9508327	1.3967221
23.51916651118564	1.9820483	1.4078524
23.537069297686497	1.9639484	1.4014094
23.554972666922037	1.9349434	1.3910224
23.57287661938623	1.9238598	1.3870327
23.59078115557318	1.9135448	1.3833094
23.608686275977128	1.8800181	1.3711375
23.62659198109246	1.8652166	1.3657293
23.6444982714137	1.9071188	1.3809847
23.66240514743549	1.9082507	1.3813945
23.68031260965263	1.9069312	1.3809168
23.698220658560068	1.9173168	1.384672
23.716129294652845	1.9290897	1.3889167
23.7340385184262	1.9304954	1.3894227
23.75194833037546	1.9188962	1.3852423
23.769858730996123	1.8920261	1.3755094
23.78776972078382	1.8625367	1.3647479
23.80568130023431	1.9065164	1.3807666
23.823593469843495	1.9191779	1.3853439
23.841506230107424	1.9245099	1.3872671
23.859419581522275	1.9240204	1.3870907
23.87733352458438	1.963562	1.4012716
23.89524805979019	1.9851241	1.4089444
23.913163187636318	1.9858738	1.4092103
23.931078908619508	1.9609399	1.4003357
23.948995223236633	1.9726168	1.4044988
23.966912131984735	2.0078125	1.416973
23.98482963536096	2.0602114	1.4353436
24.002747733862616	2.0791235	1.4419166
24.020666427987155	2.076792	1.4411079
24.038585718232156	2.0911584	1.4460838
24.056505605095353	2.0819938	1.4429116
24.074426089074617	2.0980942	1.44848
24.092347170667946	2.099134	1.4488388
24.110268850373515	2.0579138	1.434543
24.128191128689586	2.017367	1.4203404
24.146114006114626	2.0228996	1.4222867
24.164037483147187	2.052085	1.43251
24.181961560286005	2.0211034	1.4216552
24.199886238029926	2.019771	1.4211866
24.21781151687797	2.0704045	1.43889
24.235737397329274	2.066512	1.4375368
24.253663879883135	2.0340705	1.4262084
24.271590965038975	1.9931055	1.4117739
24.289518653296376	1.991149	1.4110807
24.30744694515505	1.9980881	1.4135375
24.32537584111486	2.0163848	1.4199947
24.34330534167581	2.043369	1.4294646
24.361235447338046	2.0220902	1.4220022
24.379166158601876	1.9819596	1.4078208
24.39709747596772	1.9487811	1.3959875
24.41502939993615	1.9549857	1.398208
24.432961931007917	2.0246694	1.4229088
24.450895069683856	2.0833507	1.4433817
24.468828816465	2.0576603	1.4344547
24.4867631718525	1.9941161	1.4121318
24.504698136347656	1.9993416	1.4139807
24.52263371045192	2.0140996	1.4191898
24.540569894666874	2.0278287	1.4240185
24.558506689494266	2.0268667	1.4236807
24.57644409543597	2.0231404	1.4223714
24.594382112994012	2.0099227	1.4177175
24.61232074267057	1.9560697	1.3985956
24.630259984967953	1.9159918	1.3841935
24.64819984038863	1.9725908	1.4044895
24.66614030943522	2.0310218	1.4251392
24.684081392610462	2.003924	1.4156002
24.702023090417274	1.9856095	1.4091166
24.7199654033587	1.988962	1.4103056
24.737908331937927	2.0381367	1.4276333
24.755851876658305	2.0592594	1.435012
24.773796038023324	2.0738292	1.4400796
24.79174081653661	2.0632396	1.4363981
24.809686212701962	2.0717084	1.4393431
24.827632227023294	2.0695467	1.438592
24.8455788600047	2.041448	1.4287926
24.8635261121504	2.0601373	1.4353179
24.88147398396475	2.1177173	1.4552379
24.899422475952303	2.127938	1.4587454
24.917371588617698	2.1029484	1.4501547
24.935321322465768	2.1652858	1.471491
24.953271678001478	2.3127804	1.5207828
24.97122265572994	2.5467207	1.5958449
24.989174256156414	2.8838549	1.6981916
25.00712647978632	3.3230293	1.8229178
25.02507932712521	3.8337958	1.9580082
25.043032798678798	4.370786	2.0906425
25.060986894952933	5.101613	2.258675
25.078941616453637	5.888957	2.4267173
25.096896963687055	6.732016	2.5946128
25.114852937159508	7.733951	2.7809982
25.132809537377444	8.207684	2.8649056
25.150766764847468	8.360345	2.891426
25.168724620076347	7.840498	2.800089
25.186683103570985	6.8802986	2.6230323
25.204642215838426	5.682738	2.3838494
25.222601957385894	4.2892857	2.071059
25.24056232872074	3.2221327	1.79503
25.25852333035048	2.6004314	1.6125853
25.276484962782778	2.221619	1.4905096
25.294447226525435	2.040393	1.4284233
25.312410122086423	1.9417882	1.3934807
25.330373649973843	1.918975	1.3852707
25.348337810695988	1.9297208	1.389144
25.366302604761245	1.9214292	1.3861562
25.384268032678207	1.9550273	1.3982229
25.40223409495558	1.9477687	1.3956249
25.420200792102257	1.9425263	1.3937454
25.438168124627246	1.8753376	1.3694297
25.45613609303974	1.8352785	1.3547245
25.474104697849057	1.8886377	1.3742771
25.492073939564698	1.9118315	1.38269
25.510043818696285	1.8980072	1.3776819
25.528014335753614	1.904177	1.3799192
25.54598549124664	1.870029	1.36749
25.56395728568544	1.8343863	1.3543952
25.58192971958028	1.8523111	1.3609964
25.59990279344156	1.9117503	1.3826606
25.617876507779833	1.92263	1.3865893
25.635850863105826	1.9448069	1.3945633
25.653825859930386	1.9043345	1.3799763
25.671801498764548	1.866004	1.3660176
25.68977778011949	1.82284	1.3501259
25.707754704506524	1.89015	1.3748273
25.725732272437153	1.917496	1.3847368
25.743710484423012	1.9116528	1.3826253
25.761689340975888	1.8587794	1.3633707
25.77966884260774	1.8457341	1.358578
25.797648989830662	1.8300455	1.3527918
25.815629783156922	1.807973	1.3446089
25.83361122309895	1.8392735	1.3561982
25.85159331016929	1.8350266	1.3546315
25.869576044880695	1.9104396	1.3821865
25.887559427746034	1.9027836	1.3794142
25.90554345927836	1.8837339	1.3724918
25.92352813999086	1.8273484	1.3517945
25.94151347039689	1.8365065	1.3551776
25.959499451009965	1.8762778	1.3697729
25.97748608234374	1.8931646	1.3759232
25.995473364912062	1.882036	1.3718731
26.013461299228904	1.9139948	1.383472
26.03144988580839	1.8715389	1.368042
26.04943912516483	1.8101647	1.3454236
26.067429017812675	1.7825512	1.3351221
26.085419564266537	1.811798	1.3460305
26.103410765041186	1.832745	1.3537891
26.12140262065155	1.8358432	1.3549329
26.139395131612723	1.8437363	1.3578426
26.157388298439948	1.8173052	1.3480747
26.17538212164861	1.793184	1.3390982
26.193376601754295	1.8179936	1.3483299
26.211371739272714	1.8917546	1.3754107
26.229367534719746	1.916586	1.3844082
26.247363988611433	1.8874276	1.3738368
26.26536110146397	1.8370711	1.3553859
26.283358873793727	1.8484359	1.3595719
26.301357306117204	1.7896518	1.3377787
26.319356398951104	1.7801659	1.3342286
26.33735615281224	1.7836363	1.3355285
26.35535656821762	1.7893697	1.3376732
26.373357645684404	1.7645427	1.3283609
26.39135938572991	1.7757806	1.3325841
26.409361788871614	1.8140821	1.3468786
26.427364855627165	1.8615351	1.3643808
26.445368586514352	1.8340254	1.3542619
26.46337298205115	1.8296894	1.3526601
26.48137804275568	1.8304397	1.3529375
26.499383769146217	1.8399764	1.3564574
26.517390161741215	1.831302	1.3532561
26.53539722105928	1.8088018	1.344917
26.553404947619182	1.7914332	1.3384444
26.571413341939856	1.8062565	1.3439704
26.589422404540397	1.8002614	1.3417382
26.60743213594006	1.7638408	1.3280966
26.62544253665827	1.8028374	1.3426977
26.64345360721459	1.8057603	1.3437858
26.66146534812879	1.8334448	1.3540475
26.679477759920758	1.8055575	1.3437103
26.69749084311057	1.7799114	1.3341331
26.71550459821847	1.773719	1.3318104
26.733519025764842	1.8004866	1.3418221
26.751534126270258	1.826552	1.3514999
26.769549900255434	1.8119937	1.3461032
26.787566348241267	1.8173847	1.3481041
26.80558347074881	1.8053066	1.343617
26.823601268299267	1.8046352	1.3433671
26.841619741414036	1.7938797	1.339358
26.85963889061465	1.7775556	1.33325
26.877658716422832	1.8069012	1.3442103
26.89567921936045	1.8387555	1.3560072
26.913700399949544	1.895228	1.3766729
26.93172225871233	1.8773849	1.3701769
26.949744796171174	1.8470173	1.3590502
26.967768012848605	1.8011626	1.342074
26.98579190926733	1.8249972	1.3509246
27.003816485950225	1.8398017	1.3563929
27.021841743420318	1.8737143	1.3688369
27.039867682200814	1.850904	1.3604794
27.057894302815072	1.8093467	1.3451196
27.07592160578664	1.7992446	1.3413593
27.0939495916392	1.8057691	1.3437891
27.111978260896635	1.8186489	1.348573
27.13000761408296	1.7944108	1.3395562
27.148037651722397	1.7616023	1.3272537
27.166068374339304	1.7396063	1.3189414
27.184099782458215	1.7944313	1.3395638
27.20213187660384	1.809699	1.3452506
27.22016465730105	1.8219423	1.3497934
27.23819812507487	1.8080679	1.3446442
27.256232280450533	1.8375291	1.3555549
27.274267123953383	1.8521632	1.360942
27.292302656108987	1.8573749	1.3628554
27.31033887744306	1.8299723	1.3527647
27.32837578848146	1.8280706	1.3520616
27.34641338975026	1.8497273	1.3600467
27.364451681775673	1.820477	1.3492506
27.382490665084074	1.7983294	1.3410181
27.400530340202046	1.8050956	1.3435384
27.41857070765629	1.821431	1.349604
27.436611767973726	1.8367647	1.3552729
27.454653521681404	1.8682126	1.3668257
27.472695969306564	1.8399992	1.3564657
27.490739111376627	1.8060957	1.3439106
27.508782948419153	1.802209	1.3424637
27.526827480961902	1.825198	1.3509989
27.54487270953279	1.8571283	1.362765
27.562918634659898	1.8668742	1.3663361
27.580965256871508	1.8111682	1.3457965
27.599012576696026	1.8012139	1.3420931
27.617060594662068	1.8288513	1.3523504
27.63510931129842	1.8582442	1.3631743
27.65315872713401	1.8142633	1.3469459
27.67120884269797	1.8125174	1.3462976
27.68925965851958	1.8102441	1.3454531
27.707311175128307	1.8702934	1.3675867
27.725363393053787	1.8901479	1.3748266
27.74341631282583	1.9256299	1.3876706
27.7614699349744	1.9208155	1.3859348
27.77952426002968	2.111277	1.4530234
27.797579288521973	2.1660194	1.4717402
27.815635020981784	2.558873	1.5996478
27.83369145793979	2.5761204	1.6050297
27.85174859992682	2.4219997	1.5562775
27.869806447473923	2.316734	1.5220822
27.887865001112267	2.0630348	1.4363269
27.905924261373233	1.9669715	1.4024876
27.92398422878836	1.9183517	1.3850458
27.94204490388936	1.8706945	1.3677334
27.96010628720813	1.8642672	1.3653817
27.978168379276728	1.8994951	1.3782218
27.9962311806274	1.918104	1.3849564
28.014294691792568	1.8881844	1.3741122
28.0323589133048	1.8671645	1.3664423
28.050423845696887	1.8015798	1.3422295
28.068489489501758	1.7811509	1.3345977
28.086555845252523	1.7944165	1.3395584
28.104622913482487	1.8762205	1.3697519
28.122690694725115	1.91376	1.3833871
28.14075918951405	1.914627	1.3837005
28.15882839838312	1.8889923	1.3744062
28.176898321866304	1.9019792	1.3791226
28.1949689604978	1.8866848	1.3735664
28.213040314811945	1.8924992	1.3756814
28.23111238534327	1.8983623	1.3778107
28.249185172626493	1.9729241	1.4046081
28.267258677196473	1.9620286	1.4007243
28.285332899588294	1.9263996	1.387948
28.303407840337172	1.9721402	1.4043291
28.321483499978545	1.9789004	1.406734
28.33955987904799	1.9627534	1.400983
28.357636978081285	1.9617876	1.4006382
28.37571479761439	1.9815121	1.4076619
28.393793338183425	2.001001	1.4145674
28.41187260032469	1.9433981	1.3940581
28.429952584574686	1.939382	1.392617
28.448033291470065	1.9950436	1.4124601
28.46611472154769	2.0169935	1.4202089
28.484196875344566	2.015123	1.4195503
28.502279753397914	1.940553	1.3930373
28.52036335624511	1.9044237	1.3800086
28.538447684423716	1.9796185	1.4069892
28.556532738471482	2.0793552	1.4419969
28.574618518926325	2.0833576	1.443384
28.59270502632635	2.0501747	1.4318432
28.61079226120985	2.0456955	1.4302782
28.628880224115274	2.0659297	1.4373342
28.646968915581287	2.0422132	1.4290602
28.66505833614671	2.0425572	1.4291806
28.68314848635055	2.0481384	1.4311318
28.701239366732004	2.087043	1.4446602
28.71933097783044	2.084556	1.4437991
28.737423320185403	2.0793188	1.4419843
28.75551639433665	2.0979295	1.4484231
28.773610200824074	2.1259227	1.4580544
28.791704740187793	2.1314728	1.4599564
28.80980001296809	2.1825135	1.4773332
28.827896019705413	2.1610286	1.4700438
28.845992760940433	2.1790266	1.4761527
28.86409023721397	2.1567605	1.4685913
28.88218844906704	2.2296636	1.4932058
28.900287397040845	2.2557049	1.5019004
28.918387081676755	2.2601454	1.503378
28.936487503516343	2.2534049	1.5011345
28.954588663101365	2.2787592	1.5095559
28.97269056097374	2.2748919	1.5082744
28.990793197675597	2.2579403	1.5026444
29.00889657374923	2.2572856	1.5024266
29.027000689737125	2.3352435	1.5281503
29.04510554618196	2.4527411	1.566123
29.06321114362659	2.5038698	1.582362
29.08131748261405	2.5179603	1.5868082
29.099424563687567	2.5523794	1.5976168
29.11753238739057	2.5962644	1.6112927
29.13564095426663	2.6148014	1.6170348
29.15375026485954	2.6281412	1.6211543
29.171860319713275	2.6598356	1.6309003
29.18997111937199	2.6866274	1.6390935
29.20808266438002	2.7475042	1.6575598
29.226194955281898	2.8181841	1.6787448
29.244307992622335	2.866515	1.6930785
29.26242177694624	2.886104	1.6988537
29.2805363087987	2.8416173	1.6857097
29.29865158872498	2.8270352	1.681379
29.316767617270557	2.8850067	1.6985308
29.334884394981064	3.039968	1.7435504
29.353001922402367	3.0289276	1.7403815
29.37112020008047	3.0726025	1.752884
29.389239228561596	3.188482	1.7856321
29.407359008392152	3.3493588	1.8301253
29.42547954011872	3.6144342	1.9011666
29.44360082428809	4.2965097	2.0728023
29.46172286144722	5.4308295	2.330414
29.479845652143283	6.9958143	2.6449602
29.497969196923606	9.033507	3.0055795
29.516093496335728	11.542069	3.3973622
29.5342185509274	14.455049	3.8019795
29.55234436124651	16.792217	4.097831
29.570470927841175	18.28213	4.2757607
29.588598251259686	18.00288	4.24298
29.60672633205055	16.576183	4.071386
29.624855170762405	14.323924	3.784696
29.642984767944146	11.53807	3.3967733
29.66111512414481	8.781044	2.9632826
29.67924623991366	6.5526524	2.559815
29.697378115800138	5.0730658	2.2523468
29.71551075235387	4.1867213	2.0461478
29.733644150124675	3.7567358	1.93823
29.751778309662576	3.5660675	1.8884034
29.769913231517766	3.4867163	1.8672751
29.78804891624066	3.411862	1.8471226
29.806185364381818	3.2803028	1.8111606
29.82432257649206	3.203189	1.7897455
29.842460553122333	3.2210574	1.7947304
29.86059929482382	3.28025	1.811146
29.878738802147872	3.2915397	1.8142601
29.896879075646048	3.2818296	1.8115821
29.915020115870114	3.2864258	1.8128502
29.933161923371976	3.2913868	1.8142179
29.951304498703777	3.2647874	1.8068722
29.969447842417857	3.2125103	1.7923477
29.987591955066733	3.2349238	1.7985893
30.005736837203123	3.2549872	1.8041583
30.023882489379943	3.199018	1.78858
30.04202891215028	3.1463563	1.7737972
30.060176106067455	3.1050158	1.7621055
30.078324071684946	3.0973542	1.7599301
30.09647280955646	3.1200018	1.7663527
30.114622320235863	3.1405742	1.7721665
30.132772604277257	3.150017	1.7748287
30.1509236622349	3.128104	1.7686447
30.16907549466328	3.1194391	1.7661934
30.18722810211705	3.1263206	1.7681404
30.205381485151097	3.0659773	1.7509933
30.22353564432045	3.0295618	1.7405636
30.241690580180403	2.998445	1.7316018
30.25984629328638	3.0097215	1.7348549
30.278002784194037	3.07265	1.7528976
30.296160053459246	3.037236	1.7427667
30.314318101638033	2.9450037	1.7161013
30.332476929286646	2.9236064	1.7098557
30.35063653696153	2.9904869	1.7293024
30.368796925219307	2.9676456	1.7226856
30.386958094616844	2.9330182	1.7126057
30.40512004571115	2.8836818	1.6981407
30.423282779059463	2.8992	1.7027037
30.441446295219233	2.9312615	1.7120928
30.459610594748067	2.9056501	1.7045968
30.47777567820382	2.8657672	1.6928577
30.495941546144504	2.9006805	1.7031385
30.51410819912835	2.9204447	1.7089309
30.532275637713795	2.8677595	1.693446
30.55044386245946	2.846987	1.6873016
30.56861287392416	2.8295088	1.6821144
30.586782672666956	2.807095	1.6754388
30.604953259247047	2.8084617	1.6758466
30.623124634223885	2.8204608	1.6794227
30.641296798157075	2.850004	1.6881955
30.659469751606462	2.8637857	1.6922723
30.677643495132074	2.8539119	1.6893525
30.695818029294152	2.783273	1.6683145
30.713993354653116	2.7377527	1.6546155
30.73216947176962	2.7347023	1.6536936
30.75034638120448	2.7875156	1.6695855
30.768524083518756	2.7602446	1.6613984
30.786702579273673	2.7837155	1.668447
30.80488186903069	2.8823338	1.6977438
30.82306195335144	2.982085	1.7268715
30.841242832797782	3.0920975	1.7584361
30.85942450793176	3.3806186	1.8386458
30.877606979315637	3.7414854	1.934292
30.895790247511883	4.126773	2.031446
30.913974313083134	4.51939	2.1258857
30.932159176592283	4.856684	2.2037885
30.95034483860237	4.9532313	2.2255857
30.968531299676698	4.64904	2.1561632
30.98671856037873	4.27934	2.0686564
31.00490662127215	3.898426	1.9744432
31.023095482920848	3.504338	1.8719877
31.04128514588892	3.1419508	1.7725549
31.059475610740662	2.8085012	1.6758584
31.07766687804056	2.6277306	1.6210276
31.09585894835335	2.5308158	1.5908538
31.11405182224393	2.4364467	1.5609121
31.132245500277417	2.4758253	1.5734756
31.15043998301914	2.5037937	1.5823381
31.168635271034628	2.5202801	1.587539
31.18683136488964	2.4660501	1.5703663
31.20502826515008	2.4457383	1.5638857
31.223225972382135	2.4249005	1.5572093
31.241424487152155	2.401392	1.5496426
31.259623810026692	2.4020705	1.5498614
31.27782394157253	2.4263616	1.5576782
31.296024882356644	2.4852138	1.5764561
31.314226632946237	2.4980204	1.5805128
31.332429193908684	2.3831918	1.543759
31.350632565811598	2.3869696	1.5449821
31.368836749222787	2.444759	1.5635725
31.387041744710295	2.49434	1.579348
31.40524755284232	2.5716078	1.6036234
31.423454174187317	2.6021652	1.6131228
31.441661609313922	2.5882978	1.6088188
31.459869858791002	2.5307655	1.590838
31.478078923187628	2.4796875	1.5747024
31.496288803073064	2.4016092	1.5497127
31.514499499016807	2.3516746	1.533517
31.532711011588546	2.3872983	1.5450884
31.550923341358178	2.390827	1.54623
31.56913648889584	2.381206	1.5431157
31.587350454771844	2.3223913	1.5239394
31.605565239556732	2.2764108	1.508778
31.62378084382127	2.3135955	1.5210508
31.641997268136382	2.2617857	1.5039234
31.660214513073274	2.217641	1.4891746
31.67843257920331	2.2369952	1.4956588
31.6966514670981	2.2777648	1.5092266
31.71487117732944	2.3076768	1.5191039
31.733091710469346	2.270674	1.5068755
31.751313067090052	2.3042305	1.5179691
31.769535247764008	2.3664334	1.5383216
31.787758253063878	2.2992327	1.5163221
31.805982083562526	2.1843596	1.4779578
31.824206739833024	2.207199	1.4856645
31.84243222244869	2.2144394	1.4880992
31.860658531983013	2.1769953	1.4754645
31.878885669009737	2.1697445	1.4730053
31.897113634102784	2.2827168	1.5108663
31.91534242783632	2.2628043	1.5042621
31.933572050784694	2.177472	1.475626
31.951802503522508	2.1637578	1.4709717
31.970033786624548	2.2007294	1.4834856
31.988265900665834	2.23276	1.4942423
32.006498846221575	2.2312872	1.4937494
32.02473262386724	2.213795	1.4878827
32.04296723417845	2.2847192	1.5115287
32.0612026777311	2.324749	1.5247128
32.07943895510129	2.3335788	1.5276055
32.097676066865304	2.2519522	1.5006505
32.115914013599685	2.1589043	1.469321
32.13415279588115	2.138937	1.4625105
32.152392414286666	2.1429403	1.4638785
32.1706328693934	2.164081	1.4710816
32.18887416177875	2.1787753	1.4760675
32.20711629202032	2.1621137	1.4704127
32.225359260695924	2.1637733	1.470977
32.243603068383614	2.1426044	1.4637637
32.26184771566166	2.089699	1.4455792
32.28009320310852	2.1425667	1.4637508
32.2983395313029	2.123172	1.4571109
32.31658670082372	2.115261	1.4543937
32.33483471225012	2.088411	1.4451336
32.35308356616143	2.046357	1.4305093
32.371333263137245	2.0004222	1.4143628
32.38958380375734	2.0087986	1.417321
32.407835188601744	1.9695563	1.4034089
32.42608741825067	1.9921358	1.4114304
32.444340493284585	1.9840027	1.4085463
32.46259441428416	2.020637	1.4214911
32.48084918183028	2.034749	1.4264463
32.49910479650405	2.0053887	1.4161174
32.51736125888683	1.9722936	1.4043837
32.53561856956014	1.9055066	1.3804009
32.5538767291058	1.9535676	1.3977008
32.572135738105764	1.9879115	1.4099331
32.59039559714228	2.005497	1.4161557
32.608656306797776	2.0844536	1.4437637
32.62691786765491	2.1706464	1.4733114
32.645180280296586	2.097418	1.4482466
32.663443545305896	1.9850575	1.4089206
32.68170766326619	1.9895428	1.4105115
32.69997263476099	2.0114048	1.4182401
32.7182384603741	1.9313258	1.3897215
32.7365051406895	1.9483745	1.3958418
32.75477267629144	2.0712776	1.4391934
32.77304106776434	2.0435853	1.4295403
32.79131031569289	1.982896	1.4081534
32.809580420661966	2.0105176	1.4179273
32.827851383256714	1.9627434	1.4009794
32.84612320406245	1.9135114	1.3832973
32.86439588366476	1.9079535	1.3812869
32.88266942264945	1.9175422	1.3847535
32.9009438216025	1.903996	1.3798536
32.9192190811102	2.0239766	1.4226654
32.937495201758985	2.0559156	1.4338465
32.95577218413556	2.012683	1.4186906
32.974050028826866	1.9799621	1.4071113
32.992328736420035	1.9798309	1.4070647
33.010608307502444	2.0244894	1.4228455
33.02888874266169	1.9931153	1.4117774
33.047170042485604	1.9645977	1.4016411
33.06545220756225	1.9725413	1.4044719
33.083735238479896	1.9716337	1.4041487
33.10201913582707	2.0084438	1.4171958
33.12030390019248	2.106715	1.4514527
33.138589532165135	2.0840225	1.4436144
33.15687603233419	1.9754009	1.4054896
33.17516340128909	1.9217256	1.3862631
33.19345163961947	1.8626177	1.3647776
33.211740747915215	1.8435292	1.3577663
33.23003072676643	1.8774322	1.3701942
33.248321576763466	1.9180218	1.3849267
33.266613298496885	1.9699343	1.4035435
33.28490589255747	1.9874668	1.4097755
33.30319935953626	1.9473416	1.3954718
33.32149370002451	1.9529284	1.3974721
33.339788914613706	1.9054569	1.3803829
33.358085003895575	1.9405963	1.3930529
33.376381968462034	2.0046506	1.4158568
33.39467980890529	1.9444952	1.3944516
33.41297852581774	1.9036767	1.379738
33.43127811979204	1.9051355	1.3802664
33.44957859142105	1.9930251	1.4117454
33.467879941297866	2.0345895	1.4263904
33.486182170015844	1.9885081	1.4101447
33.50448527816853	1.9360664	1.3914261
33.522789266349754	1.9394704	1.3926487
33.541094135153514	1.9367645	1.3916769
33.55939988517411	1.9115758	1.3825974
33.57770651700602	1.8255092	1.351114
33.59601403124398	1.8512149	1.3605936
33.61432242848296	1.9779192	1.4063852
33.632631709318154	1.9747132	1.405245
33.650941874344994	1.8335342	1.3540806
33.66925292415916	1.7892406	1.337625
33.68756485935654	1.8256522	1.351167
33.70587768053328	1.8234993	1.35037
33.724191388285746	1.9484136	1.3958559
33.74250598321054	2.0642583	1.4367527
33.760821465904506	2.0113213	1.4182106
33.77913783696474	1.9164085	1.3843441
33.79745509698852	1.8663211	1.3661336
33.815773246573414	1.8745388	1.369138
33.8340922863172	1.871963	1.368197
33.852412216817896	1.8272809	1.3517696
33.87073303867377	1.8761972	1.3697435
33.889054752483304	1.8947557	1.3765012
33.907377358845245	1.8156315	1.3474537
33.92570085835853	1.9130603	1.3831342
33.94402525162239	1.9691746	1.4032729
33.96235053923627	1.8894477	1.3745718
33.980676721799824	1.8366784	1.3552411
33.999003799912984	1.9210497	1.3860193
34.01733177417592	2.0502377	1.4318651
34.03566064518901	1.9719988	1.4042788
34.0539904135529	1.8706267	1.3677086
34.07232107986846	1.9003164	1.3785197
34.090652644736785	1.9415121	1.3933816
34.108985108759235	1.9432745	1.3940138
34.12731847253742	1.9281602	1.3885821
34.14565273667313	1.908276	1.3814036
34.16398790176847	1.909986	1.3820224
34.18232396842574	1.9371284	1.3918076
34.20066093724749	1.9180222	1.3849268
34.21899880883651	1.8637514	1.3651928
34.23733758379583	2.0232947	1.4224256
34.25567726272874	2.066606	1.4375695
34.27401784623872	1.9667352	1.4024034
34.29235933492957	1.871415	1.3679967
34.31070172940526	1.8699079	1.3674457
34.32904503027003	1.8626939	1.3648055
34.347389238128386	2.0054805	1.4161499
34.36573435358502	2.0496435	1.4316576
34.38408037724492	1.9961962	1.412868
34.402427309713296	1.9644655	1.4015939
34.42077515159559	1.9048393	1.3801591
34.43912390349752	1.9566343	1.3987974
34.45747356602499	2.0262153	1.4234519
34.47582413978423	2.1432672	1.4639901
34.49417562538163	2.204882	1.4848845
34.51252802342388	2.1294098	1.4592497
34.53088133451789	1.9471905	1.3954177
34.54923555927084	1.8313884	1.3532879
34.567590698290104	1.8466268	1.3589065
34.58594675218336	1.8687377	1.3670179
34.6043037215585	1.8877077	1.3739388
34.62266160702365	1.8727186	1.368473
34.641020409187234	1.989073	1.410345
34.65938012865785	2.068101	1.4380894
34.677740766044394	2.1533835	1.4674411
34.69610232195598	2.072002	1.439445
34.714464797002016	2.057167	1.4342828
34.73282819179208	2.0181563	1.4206183
34.751192506936064	2.1670637	1.472095
34.76955774304408	2.091722	1.4462787
34.7879239007265	1.9906174	1.4108924
34.80629098059391	1.9014318	1.3789241
34.824658983257194	1.9984951	1.4136814
34.843027909327446	2.2244775	1.4914682
34.86139775941603	2.2835064	1.5111275
34.879768534134534	2.1613412	1.4701501
34.89814023409483	2.0998647	1.449091
34.91651285990901	2.079246	1.4419591
34.93488641218944	1.9277043	1.388418
34.95326089154871	2.0608075	1.4355513
34.97163629859967	2.2085009	1.4861026
34.99001263395542	2.1159866	1.4546431
35.00838989822934	1.8957392	1.3768585
35.02676809203499	1.7824999	1.3351029
35.04514721598624	1.8963323	1.3770738
35.063527270697215	1.930853	1.3895514
35.081908256782256	1.9677811	1.4027762
35.10029017485597	2.1449873	1.4645776
35.11867302553321	2.0642192	1.4367391
35.137056809429104	1.879752	1.3710405
35.155441527159006	1.8213936	1.3495902
35.173827179338524	1.8693371	1.367237
35.19221376658354	2.016767	1.4201292
35.21060128951017	2.1382306	1.462269
35.2289897487348	2.0637445	1.4365739
35.24737914487405	1.8481746	1.3594759
35.26576947854479	1.7641944	1.3282298
35.28416075036418	1.9030052	1.3794945
35.30255296094958	2.0114892	1.4182698
35.32094611091867	2.2943623	1.5147153
35.33934020088932	2.3104937	1.5200309
35.35773523147969	2.3222036	1.5238779
35.3761312033082	2.3761914	1.54149
35.394528116993506	2.0402985	1.4283901
35.41292597315452	1.7578114	1.3258249
35.431324772410434	2.0630066	1.4363171
35.449724515380666	2.5205257	1.5876163
35.46812520268491	2.6317747	1.6222745
35.486526834943106	2.357458	1.5354016
35.504929412775454	2.170583	1.4732898
35.52333293680242	2.0254288	1.4231756
35.54173740764471	1.8691676	1.367175
35.560142825923286	1.5757893	1.2553045
35.5785491922594	1.5568367	1.2477326
35.59695650727454	1.3618265	1.1669732
35.61536477159042	1.0391313	1.019378
