0.008763373481513119	0.3822274	0.6182454
0.026290120649546365	0.3426002	0.5853206
0.043816868432600686	0.2928547	0.5411605
0.06134361724069026	0.18426876	0.42926538
0.07887036748382949	0.11389524	0.33748367
0.0963971195720331	0.16197015	0.40245515
0.11392387391531617	0.10171523	0.31892824
0.1314506309236943	0.07965432	0.28223097
0.1489773910071836	0.062215388	0.24943012
0.16650415457580078	0.13608111	0.36889175
0.18403092203956356	0.20672171	0.45466658
0.20155769380849	0.24368185	0.4936414
0.2190844702925996	0.24118328	0.49110416
0.2366112519019124	0.18448791	0.42952055
0.2541380390464497	0.14675777	0.38308975
0.27166483213623416	0.2029128	0.45045844
0.28919163158128947	0.17871161	0.42274296
0.3067184377916406	0.22581933	0.47520453
0.324245251177314	0.1983836	0.44540274
0.34177207214833777	0.19605677	0.44278297
0.3592989011147415	0.15683092	0.39601883
0.37682573848655654	0.12506254	0.35364184
0.39435258467381573	0.1041016	0.32264778
0.41187944008655414	0.15471712	0.39334098
0.42940630513480854	0.17757292	0.42139402
0.446933180228618	0.17550692	0.41893545
0.4644600657780234	0.14731693	0.3838189
0.48198696219306775	0.09667512	0.31092623
0.49951386988379676	0.0984805	0.31381604
0.5170407892602581	0.12238445	0.3498349
0.5345677207325025	0.1373165	0.3705624
0.5520946647105822	0.154205	0.39268944
0.5696216216045534	0.14154729	0.3762277
0.5871485918244737	0.13524334	0.36775446
0.6046755757804043	0.1349975	0.36742005
0.6222025738824094	0.17185526	0.4145543
0.6397295865405557	0.2073998	0.45541167
0.6572566141649129	0.18259652	0.42731315
0.6747836571655547	0.18749332	0.433005
0.6923107159525568	0.17592548	0.41943473
0.7098377909359992	0.19700356	0.44385082
0.7273648825259653	0.17474648	0.4180269
0.7448919911325411	0.16259427	0.4032298
0.762419117165817	0.15738235	0.39671445
0.7799462610358868	0.19888955	0.44597036
0.7974734231528482	0.22623608	0.4756428
0.8150006039268024	0.23616788	0.48597106
0.8325278037678551	0.18971209	0.4355595
0.8500550230861152	0.17504793	0.4183873
0.8675822622916969	0.17251146	0.41534498
0.8851095217947171	0.21784285	0.46673638
0.9026368020052984	0.26992834	0.5195463
0.9201641033335665	0.257218	0.5071666
0.9376914261896523	0.26384142	0.51365495
0.9552187709836915	0.25810638	0.50804174
0.9727461381258234	0.28958595	0.5381319
0.990273528026193	0.28553098	0.534351
1.0078009410949496	0.28855586	0.537174
1.0253283777422473	0.2985314	0.5463803
1.0428558383782454	0.33254433	0.5766666
1.0603833234131086	0.35145572	0.59283704
1.0779108332570058	0.34400678	0.5865209
1.0954383683201119	0.33410385	0.5780172
1.112965929012607	0.39715144	0.63019955
1.1304935157446763	0.5003446	0.7073504
1.1480211289265108	0.52209884	0.7225641
1.1655487689683062	1.3804549	1.1749276
1.1830764362802655	1.6465737	1.2831888
1.200604131272596	2.027667	1.4239618
1.2181318543555117	2.2545493	1.5015156
1.235659605939232	2.290353	1.5133913
1.253187386433982	3.9202561	1.9799637
1.270715196249994	6.3296347	2.5158765
1.2882430357975057	11.911278	3.451272
1.3057709054867608	16.857239	4.1057568
1.3232988057280106	22.73603	4.7682314
1.3408267369315112	27.424408	5.2368317
1.358354699507526	30.82552	5.5520735
1.3758826938663256	34.76302	5.896017
1.3934107204181858	36.553066	6.045913
1.410938779573391	36.876762	6.072624
1.4284668717422309	37.59443	6.1314297
1.4459949973350033	37.463814	6.120769
1.4635231567620117	38.031105	6.1669364
1.4810513504335687	37.54002	6.1269913
1.4985795787599925	36.8823	6.07308
1.5161078421516088	36.33244	6.0276394
1.5336361410187505	35.22749	5.935275
1.5511644757717598	35.015816	5.917416
1.5686928468209842	35.580177	5.9649124
1.58622125457678	36.411835	6.034222
1.6037496994495108	37.752224	6.144284
1.621278181849548	37.984283	6.163139
1.6388067021872719	38.591866	6.212235
1.6563352608730693	37.58875	6.130966
1.673863858317336	36.622295	6.0516357
1.6913924949304753	35.625008	5.968669
1.7089211711228998	34.472923	5.8713646
1.7264498873050296	33.580494	5.794868
1.7439786438872935	33.02356	5.746613
1.7615074412801288	32.167244	5.6716175
1.779036279893981	31.639399	5.624891
1.796565160139305	30.510447	5.5236263
1.814094082426564	30.00118	5.4773335
1.8316230471662298	29.408346	5.4229465
1.849152054768784	28.899515	5.375827
1.8666811056447168	28.441954	5.3331
1.8842102002045273	27.348696	5.229598
1.901739338858724	26.533154	5.1510344
1.9192685220178245	25.867178	5.0859785
1.9367977500923557	25.141066	5.0140867
1.9543270234928547	24.60386	4.960228
1.971856342629867	23.889244	4.8876624
1.9893857079139496	23.369482	4.8341994
2.006915119755667	22.742668	4.7689276
2.0244445785655945	21.969357	4.687148
2.0419740847543175	21.536049	4.640695
2.0595036387324317	21.286827	4.613765
2.0770332409105414	20.95986	4.578194
2.094562891699263	20.74968	4.5551815
2.1120925915092217	20.254644	4.500516
2.129622340751053	19.930157	4.46432
2.1471521398354043	188.26097	13.720822
2.1646819891729323	444.58054	21.08508
2.182211889174303	440.75165	20.994085
2.1997418402501974	453.03064	21.284517
2.2172718428113023	433.02908	20.809351
2.234801897268317	320.9721	17.915695
2.2523320040319548	17.40818	4.1723113
2.269862163512935	16.923302	4.113794
2.287392376121992	16.62138	4.0769324
2.304922642269869	16.492048	4.0610404
2.322452962367322	16.23472	4.029233
2.3399833368251164	15.964392	3.9955466
2.357513766054032	15.585534	3.947852
2.3750442504648586	15.372575	3.9207876
2.3925747904683963	15.0286255	3.876677
2.410105386475459	14.82458	3.85027
2.4276360388968707	14.604003	3.8215184
2.445166748143469	14.322528	3.7845116
2.4626975146261025	14.044932	3.7476568
2.4802283387556323	13.53783	3.679379
2.4977592209429305	13.339294	3.6523
2.5152901615988825	13.095747	3.6188047
2.5328211611343865	13.025141	3.609036
2.5503522199603523	12.799613	3.5776546
2.5678833384877024	12.345896	3.5136726
2.5854145171273712	12.145456	3.4850333
2.6029457562903064	11.960432	3.4583857
2.620477056387469	11.843718	3.4414701
2.6380084178298326	11.617298	3.4084158
2.655539841028383	11.497605	3.390812
2.673071326394119	11.6328335	3.410694
2.6906028743380523	11.417512	3.3789809
2.708134485271211	11.282284	3.358911
2.7256661596046325	11.157405	3.3402703
2.743197897749369	10.964328	3.3112426
2.760729700116486	10.754573	3.2794166
2.778261567117063	10.395275	3.2241704
2.795793499162193	10.169752	3.189005
2.8133254966629817	10.0141325	3.1645114
2.830857560030551	9.785959	3.1282518
2.8483896896760337	9.683915	3.111899
2.865921886010578	9.457741	3.075344
2.883454149445347	9.400354	3.0659997
2.9009864803915177	9.366983	3.0605528
2.91851887926028	9.303305	3.0501318
2.9360513464628384	9.273491	3.0452406
2.953583882410413	9.153701	3.0255084
2.9711164875142373	8.949367	2.9915493
2.9886491621855606	8.823422	2.9704247
3.0061819068356455	8.712688	2.9517264
3.023714721875769	8.6456995	2.940357
3.041247607717225	8.579019	2.928996
3.0587805647713213	8.422697	2.9021883
3.0763135934493806	8.070315	2.84083
3.0938466941627407	8.075113	2.8416743
3.1113798673227544	8.003779	2.8290951
3.1289131133407904	7.999199	2.8282855
3.1464464326282315	7.873655	2.8060033
3.1639798255964786	7.751369	2.784128
3.1815132926569443	7.595532	2.7559993
3.1990468342210603	7.4587107	2.731064
3.216580450700272	7.3702183	2.7148147
3.2341141425060416	7.2970076	2.7012973
3.251647910049847	7.220916	2.6871762
3.2691817537431813	7.034114	2.6521904
3.286715673997555	6.9824786	2.642438
3.3042496712244938	6.9601955	2.6382182
3.32178374583554	6.8832583	2.6235964
3.339317898242251	6.892376	2.6253335
3.3568521288562034	6.8669686	2.62049
3.3743864380889876	6.8804955	2.6230698
3.3919208263522127	6.7642307	2.6008134
3.4094552940575023	6.697414	2.5879362
3.4269898416164972	6.5803394	2.5652173
3.444524469440858	6.4828587	2.546146
3.4620591779422587	6.435553	2.5368392
3.479593967532391	6.471503	2.5439148
3.4971288386229658	6.558176	2.5608935
3.5146637916257086	6.5622497	2.561689
3.5321988269523628	6.4498234	2.5396502
3.5497339450146903	6.357245	2.5213578
3.5672691462244708	6.351432	2.5202048
3.5848044309934988	6.36381	2.5226593
3.60233979973359	6.325946	2.5151434
3.619875252856575	6.3234797	2.514653
3.6374107907743034	6.335003	2.5169432
3.6549464138986427	6.3050337	2.5109825
3.6724821226414788	6.2938766	2.50876
3.690017917414714	6.2469435	2.4993887
3.7075537986302702	6.2509503	2.50019
3.7250897667000857	6.335106	2.5169637
3.7426258220361235	6.5457125	2.558459
3.7601619650503553	6.897727	2.6263523
3.777698196154779	7.4955907	2.7378078
3.7952345157614067	8.549759	2.9239972
3.8127709242822716	9.216007	3.0357878
3.830307422129425	11.157544	3.340291
3.847844009714936	29.908434	5.46886
3.8653806874508954	97.43803	9.87107
3.882917455749409	96.78861	9.83812
3.900454315022606	96.758286	9.836579
3.917991265682631	41.45249	6.438361
3.9355283081416506	11.122265	3.335006
3.9530654428118495	8.869285	2.9781344
3.970602670105433	7.563037	2.7500975
3.9881399904346244	6.6032124	2.5696716
4.005677404211669	6.5561156	2.5604913
4.023214911848827	6.5355053	2.5564635
4.0407525137583855	6.516796	2.5528016
4.058290210352644	6.4919896	2.5479383
4.075828002043927	6.4156137	2.532906
4.0933658892445814	6.3790445	2.525677
4.110903872366966	6.326793	2.5153117
4.128441951823468	6.2187586	2.493744
4.145980128026488	6.1602597	2.481987
4.163518401388452	6.156693	2.4812684
4.181056772321807	6.154004	2.4807265
4.1985952412390155	6.1044736	2.4707234
4.216133808552567	6.157786	2.4814887
4.233672474674966	6.2375417	2.497507
4.251211240018741	6.503267	2.5501504
4.268750104996445	6.748993	2.5978825
4.286289070020643	7.6488066	2.7656476
4.303828135503928	9.276839	3.0457904
4.3213673018589125	29.599506	5.4405427
4.3389065694982305	90.76557	9.527097
4.356445938834537	166.1322	12.889228
4.3739854102805085	172.10619	13.118925
4.391524984248844	172.99956	13.152929
4.409064661152262	137.08351	11.708267
4.426604441403504	97.18369	9.858179
4.444144325415337	75.87283	8.710502
4.461684313600543	21.73005	4.66155
4.47922440637193	21.959478	4.6860943
4.496764604142329	20.353075	4.5114384
4.5143049073245916	18.584593	4.310985
4.531845316331589	16.490335	4.0608296
4.5493858315762195	13.758488	3.7092435
4.566926453471405	11.385779	3.3742821
4.584467182430081	9.395803	3.0652575
4.602008018865218	8.3007765	2.8811069
4.619548963189798	7.6350427	2.763158
4.637090015816834	7.128228	2.6698742
4.654631177159353	6.839801	2.6153014
4.672172447630417	6.5145583	2.5523634
4.689713827643102	6.386512	2.527155
4.7072553176105085	6.1639442	2.4827292
4.724796917945764	5.9892216	2.4472885
4.742338629062015	5.8229165	2.413072
4.759880451372434	5.677586	2.3827686
4.777422385290215	5.662144	2.3795261
4.794964431228581	5.6607585	2.3792348
4.812506589600768	5.701466	2.3877742
4.830048860820047	5.6174803	2.3701224
4.847591245299709	5.581286	2.3624744
4.8651337434530655	5.457976	2.3362312
4.882676355693457	5.5025063	2.3457422
4.900219082434242	5.5667033	2.3593862
4.917761924088813	5.6854057	2.384409
4.935304881070575	5.6765113	2.382543
4.952847953792969	5.6294427	2.3726447
4.970391142669449	5.561784	2.3583434
4.9879344481135055	5.4646797	2.3376656
5.005477870538642	5.456723	2.335963
5.023021410358394	5.478008	2.3405144
5.040565067986324	5.5285997	2.3512974
5.05810884383601	5.553884	2.356668
5.075652738321066	5.4512167	2.334784
5.09319675185512	5.396377	2.3230104
5.110740884851836	5.3870664	2.3210056
5.128285137724894	5.3980684	2.3233743
5.145829510888007	5.414855	2.3269842
5.163374004754908	5.4330444	2.3308892
5.1809186197393595	5.3447537	2.3118722
5.198463356255145	5.2856927	2.2990634
5.216008214716077	5.313912	2.3051925
5.233553195535998	5.2862983	2.299195
5.251098299128764	5.2615533	2.2938075
5.268643525908272	5.184205	2.276885
5.286188876288432	5.251104	2.2915287
5.3037343506831895	5.273483	2.2964065
5.32127994950651	5.2436323	2.289898
5.3388256731723915	5.2638984	2.2943187
5.356371522094851	5.286143	2.2991614
5.373917496687938	5.260734	2.293629
5.391463597365729	5.209684	2.282473
5.40900982454232	5.130295	2.2650154
5.426556178631843	5.208706	2.282259
5.444102660048449	5.2980075	2.3017402
5.4616492692063225	5.353486	2.31376
5.479196006519669	5.330372	2.30876
5.496742872402727	5.2572966	2.2928796
5.514289867269756	5.27705	2.297183
5.531836991535049	5.2402296	2.2891548
5.549384245612924	5.188826	2.2778995
5.566931629917724	5.0944147	2.257081
5.584479144863822	5.0623393	2.2499642
5.6020267908656205	5.1110406	2.260761
5.619574568337545	5.1048775	2.2593975
5.637122477694054	5.0606194	2.249582
5.654670519349629	5.077964	2.2534337
5.672218693718784	5.1206555	2.2628865
5.689767001216059	5.24939	2.2911549
5.707315442256021	5.2198243	2.2846935
5.724864017253266	5.198279	2.2799735
5.7424127266224225	5.1988707	2.2801032
5.75996157077814	5.1878057	2.2776754
5.777510550135105	5.303961	2.3030329
5.795059665108022	5.2991657	2.3019917
5.812608916111639	5.301909	2.3025875
5.830158303560715	5.3583183	2.314804
5.847707827870055	5.297186	2.3015616
5.86525748945448	5.365738	2.3164062
5.8828072887288485	5.4271784	2.3296306
5.900357226108044	5.556271	2.3571744
5.917907302006979	5.663527	2.3798165
5.9354575168406	6.2363944	2.4972775
5.9530078710238765	6.838702	2.6150913
5.970558364971812	7.35032	2.7111473
5.988108999099438	7.591905	2.7553413
6.005659773821818	8.118066	2.849222
6.023210689554039	7.8373737	2.799531
6.040761746711227	8.303366	2.881556
6.058312945708531	7.6904483	2.7731657
6.075864286961132	7.1872	2.6808953
6.093415770884244	6.4765825	2.544913
6.1109673978931065	5.9302216	2.4352045
6.128519168402993	5.44884	2.334275
6.146071082829204	5.4166307	2.3273656
6.163623141587075	5.3152757	2.305488
6.181175345091969	5.2531857	2.291983
6.198727693759281	5.21226	2.2830374
6.216280188004435	5.2346916	2.2879448
6.233832828242885	5.239255	2.2889419
6.251385614890126	5.2708006	2.2958224
6.268938548361669	5.1796856	2.2758923
6.286491629073067	5.0779014	2.2534199
6.304044857439898	5.002404	2.2366054
6.321598233877777	4.9551787	2.226023
6.339151758802344	4.9050856	2.2147427
6.356705432629277	4.8999057	2.213573
6.37425925577428	4.8939342	2.2122238
6.391813228653095	4.9284215	2.2200048
6.409367351681486	4.980191	2.2316341
6.426921625275259	5.0245285	2.241546
6.44447604985025	5.0414753	2.245323
6.46203062582232	5.0150137	2.2394226
6.47958535360737	4.941969	2.223054
6.497140233621328	4.959393	2.2269695
6.514695266280161	4.9573703	2.2265153
6.532250451999859	5.009508	2.238193
6.549805791196454	5.0153284	2.239493
6.567361284286002	5.009736	2.238244
6.584916931684597	5.016064	2.2396572
6.602472733808367	4.9897513	2.2337751
6.6200286910734665	5.017989	2.2400868
6.637584803896092	5.03094	2.2429757
6.655141072692462	5.043949	2.2458737
6.672697497878842	5.051769	2.247614
6.690254079871514	5.0183764	2.2401733
6.707810819086808	5.051429	2.2475383
6.725367715941078	4.9993734	2.2359278
6.742924770850719	4.950706	2.2250183
6.760481984232151	4.924433	2.2191064
6.778039356501836	4.963727	2.2279422
6.795596888076266	4.9879704	2.2333765
6.813154579371963	5.036384	2.244189
6.830712430805492	5.0956717	2.2573595
6.84827044279344	5.0985003	2.2579858
6.865828615752445	5.053002	2.2478883
6.883386950099159	4.981949	2.232028
6.900945446250287	4.9858694	2.232906
6.918504104622553	4.978723	2.2313051
6.936062925632727	4.995059	2.234963
6.953621909697607	5.069405	2.251534
6.971181057234028	5.1774516	2.2754014
6.988740368658859	5.237799	2.2886238
7.006299844389007	5.2823153	2.2983289
7.023859484841407	5.319832	2.306476
7.041419290433036	5.359995	2.3151662
7.058979261580902	5.458221	2.3362837
7.0765393987020495	5.7173724	2.3911028
7.094099702213559	6.145131	2.4789374
7.111660172532549	6.554601	2.5601954
7.129220810076164	6.864414	2.6200027
7.146781615261595	7.4814577	2.7352254
7.16434258850606	7.6917315	2.7733972
7.181903730226821	8.185745	2.8610742
7.1994650408411704	8.290181	2.8792675
7.217026520766437	8.430404	2.9035158
7.234588170419983	8.743718	2.9569778
7.252149990219215	8.750625	2.9581454
7.269711980581568	8.640698	2.9395065
7.2872741419245175	8.355153	2.8905282
7.304836474665574	7.8366795	2.799407
7.322398979222286	7.496155	2.7379107
7.339961656012233	7.1644554	2.67665
7.357524505453039	6.8386517	2.6150815
7.375087527962357	6.61257	2.5714917
7.392650723957886	6.3894777	2.5277417
7.410214093857353	6.085915	2.4669647
7.427777638078528	5.862941	2.421351
7.445341357039213	5.6503234	2.3770409
7.4629052511572525	5.457687	2.3361692
7.480469320850524	5.3283815	2.3083286
7.498033566536948	5.2673836	2.295078
7.5155979886344735	5.232576	2.2874825
7.5331625875610975	5.223502	2.2854981
7.550727363734844	5.190793	2.2783313
7.568292317573788	5.204248	2.2812822
7.585857449496025	5.1857185	2.2772174
7.603422759919705	5.17966	2.2758865
7.620988249263007	5.1613555	2.2718618
7.638553917944147	5.2040954	2.2812486
7.656119766381391	5.193843	2.2790005
7.673685794993023	5.25421	2.2922063
7.691252004197388	5.2565856	2.2927246
7.70881839441285	5.320121	2.3065388
7.726384966057826	5.2786126	2.2975233
7.743951719550762	5.21146	2.2828622
7.761518655310149	5.2748294	2.2966998
7.779085773754511	5.31823	2.3061287
7.796653075302419	5.304037	2.3030496
7.814220560372475	5.2666945	2.294928
7.831788229383323	5.242411	2.2896311
7.8493560827536495	5.2385244	2.2887824
7.866924120902174	5.2369375	2.2884357
7.884492344247663	5.33363	2.3094654
7.9020607532089135	5.4082336	2.325561
7.919629348204771	5.3794208	2.3193579
7.937198129654115	5.3344135	2.309635
7.954767097975865	5.3036795	2.3029718
7.972336253588986	5.374808	2.3183632
7.989905596912472	5.4588327	2.3364146
8.007475128365371	5.512134	2.3477933
8.025044848366756	5.5598927	2.3579426
8.042614757335754	5.6716485	2.3815224
8.060184855691523	5.7273984	2.3931983
8.07775514385327	5.86594	2.4219704
8.095325622240228	5.90427	2.4298704
8.112896291271687	5.9426584	2.4377568
8.130467151366968	5.9525623	2.4397874
8.148038202945436	6.0015593	2.4498081
8.165609446426497	6.018094	2.4531803
8.183180882229594	6.037324	2.4570966
8.200752510774217	6.048762	2.459423
8.218324332479893	6.018693	2.4533024
8.235896347766193	6.041941	2.458036
8.253468557052724	5.9939613	2.4482567
8.27104096075914	5.937898	2.4367802
8.288613559305137	6.021951	2.4539664
8.306186353110448	6.138427	2.4775848
8.32375934259485	6.286665	2.5073223
8.341332528178162	6.271989	2.5043938
8.358905910280246	6.2911415	2.5082147
8.376479489321003	6.234433	2.4968846
8.394053265720377	6.327256	2.5154037
8.411627239898356	6.3334866	2.5166419
8.42920141227497	6.319786	2.5139184
8.44677578327029	6.3540964	2.5207334
8.464350353304427	6.323325	2.5146222
8.48192512279754	6.2968016	2.509343
8.499500092169827	6.2267365	2.495343
8.51707526184153	6.193632	2.4887009
8.534650632232934	6.1732516	2.484603
8.552226203764365	6.118347	2.4735293
8.569801976856192	6.1383457	2.4775686
8.587377951928834	6.2381053	2.4976199
8.60495412940274	6.35871	2.5216482
8.622530509698416	6.4415026	2.5380116
8.6401070932364	6.509864	2.5514436
8.657683880437283	6.584687	2.5660646
8.675260871721695	6.750844	2.5982387
8.692838067510303	6.912455	2.629155
8.710415468223834	7.09667	2.6639576
8.727993074283043	7.223668	2.6876884
8.745570886108737	7.23863	2.6904702
8.763148904121765	7.3270936	2.7068605
8.78072712874302	7.3752155	2.7157347
8.798305560393441	7.5636597	2.7502108
8.815884199494006	7.6472125	2.7653594
8.833463046465745	7.8341565	2.7989564
8.851042101729728	7.8996916	2.810639
8.86862136570707	8.185725	2.8610706
8.886200838818924	8.353103	2.8901734
8.903780521486505	8.515971	2.9182136
8.921360414131055	8.684797	2.9469981
8.938940517173874	8.752318	2.9584317
8.956520831036297	8.836972	2.9727046
8.97410135613971	9.090107	3.0149803
8.99168209290554	9.279162	3.0461717
9.009263041755265	9.536946	3.0881946
9.026844203110405	9.769811	3.1256697
9.044425577392525	9.94475	3.1535296
9.062007165023239	10.004904	3.163053
9.079588966424197	10.225384	3.1977153
9.097170982017108	10.308468	3.2106802
9.11475321222372	11.273364	3.357583
9.132335657465825	12.178009	3.4897003
9.149918318165264	12.281673	3.5045218
9.167501194743924	12.806576	3.5786276
9.18508428762374	12.456114	3.529322
9.202667597226693	12.360188	3.5157058
9.220251123974803	11.918228	3.4522786
9.237834868290143	11.733508	3.4254208
9.255418830594836	11.498355	3.3909225
9.273003011311046	11.121108	3.3348324
9.290587410860985	10.870825	3.2970934
9.308172029666911	10.1728	3.1894827
9.32575686815113	9.955972	3.1553085
9.343341926735997	8.855819	2.9758728
9.360927205843916	8.693543	2.9484816
9.378512705897327	8.492788	2.914239
9.396098427318728	8.215364	2.8662457
9.413684370530664	8.091779	2.8446052
9.431270535955722	7.9649644	2.8222268
9.448856924016539	7.8696094	2.8052824
9.466443535135806	7.757908	2.7853022
9.484030369736251	7.7496924	2.7838268
9.501617428240658	7.769216	2.7873313
9.519204711071852	7.788349	2.7907615
9.536792218652714	7.8682446	2.8050392
9.55437995140617	7.919232	2.814113
9.571967909755191	7.9658556	2.8223848
9.589556094122802	7.953937	2.8202724
9.60714450493207	7.950555	2.8196728
9.624733142606116	7.9728537	2.8236241
9.642322007568108	8.095971	2.845342
9.659911100241267	8.112084	2.8481722
9.677500421048851	8.1416645	2.8533602
9.695089970414175	8.114008	2.8485098
9.712679748760609	8.127506	2.8508782
9.730269756511557	8.214881	2.8661613
9.747859994090492	8.242551	2.8709843
9.765450461920915	8.280407	2.8775697
9.78304116042639	8.279431	2.8774002
9.800632090030527	8.232999	2.8693204
9.81822325115699	8.274096	2.8764727
9.835814644229481	8.301111	2.8811648
9.853406269671762	8.324277	2.8851824
9.870998127907646	8.335922	2.8871996
9.888590219360985	8.342426	2.888326
9.906182544455698	8.338582	2.8876603
9.923775103615734	8.301367	2.8812094
9.941367897265108	8.310458	2.8827865
9.958960925827878	8.311527	2.882972
9.97655418972816	8.398929	2.8980906
9.994147689390106	8.474539	2.911106
10.011741425237934	8.4936495	2.9143867
10.029335397695904	8.491533	2.9140236
10.04692960718833	8.464157	2.9093225
10.06452405413958	8.411802	2.9003108
10.082118738974064	8.310057	2.882717
10.099713662116246	8.2516775	2.8725734
10.117308823990651	8.20431	2.8643167
10.134904225021844	8.240279	2.8705885
10.152499865634445	8.265116	2.8749115
10.170095746253125	8.229918	2.8687832
10.18769186730261	8.216165	2.8663852
10.205288229207675	8.225787	2.8680632
10.222884832393145	8.208348	2.8650215
10.2404816772839	8.178329	2.859778
10.258078764304868	8.144684	2.8538892
10.275676093881035	8.23024	2.8688395
10.293273666437438	8.278922	2.8773117
10.310871482399158	8.298118	2.8806453
10.32846954219134	8.256584	2.8734272
10.346067846239173	8.2298	2.8687627
10.363666394967908	8.22457	2.8678513
10.38126518880283	8.2195	2.866967
10.398864228169298	8.226185	2.8681326
10.416463513492713	8.228463	2.8685298
10.434063045198531	8.249859	2.8722568
10.451662823712262	8.278066	2.8771627
10.469262849459467	8.281671	2.8777893
10.486863122865758	8.129567	2.8512397
10.504463644356806	8.084656	2.8433528
10.522064414358338	7.9822845	2.8252938
10.539665433296118	8.01901	2.8317857
10.557266701595987	7.9234505	2.8148625
10.574868219683818	7.8652325	2.8045022
10.592469987985552	7.8148007	2.7954965
10.610072006927185	7.759036	2.7855046
10.627674276934751	7.6475363	2.7654178
10.64527679843435	7.4869766	2.736234
10.662879571852143	7.3224144	2.705996
10.680482597614331	7.126686	2.6695855
10.698085876147173	7.0570984	2.65652
10.715689407876988	6.9720874	2.640471
10.733293193230146	6.9237385	2.6312997
10.750897232633072	6.8787146	2.6227303
10.76850152651225	6.8376627	2.6148925
10.786106075294207	6.818388	2.6112044
10.803710879405534	6.709922	2.5903516
10.821315939272877	6.514017	2.5522573
10.83892125532294	6.393884	2.528613
10.856526827982472	6.2808	2.5061524
10.874132657678285	6.256747	2.501349
10.891738744837243	6.16031	2.4819973
10.909345089886271	6.169143	2.483776
10.926951693252343	6.0770555	2.4651685
10.944558555362494	6.026005	2.4547923
10.96216567664381	5.937943	2.4367895
10.979773057523436	5.888922	2.4267101
10.997380698428573	5.874359	2.4237077
11.014988599786477	5.843679	2.4173703
11.032596762024461	5.801217	2.4085715
11.050205185569892	5.74056	2.3959465
11.067813870850198	5.657508	2.3785517
11.085422818292859	5.560356	2.3580408
11.10303202832541	5.472466	2.3393302
11.120641501375454	5.4001865	2.3238301
11.138251237870636	5.316987	2.3058593
11.155861238238671	5.330252	2.308734
11.173471502907317	5.251477	2.29161
11.191082032304402	5.1573296	2.2709754
11.208692826857805	5.0880923	2.25568
11.226303886995465	5.035763	2.2440505
11.243915213145371	5.0138564	2.239164
11.261526805735578	4.9720654	2.2298129
11.279138665194196	4.9143524	2.2168338
11.296750791949393	4.8562694	2.2036946
11.314363186429393	4.854934	2.2033916
11.331975849062479	4.800148	2.190924
11.34958878027699	4.7437706	2.1780198
11.36720198050133	4.663509	2.1595159
11.384815450163948	4.6540723	2.1573298
11.402429189693366	4.6390543	2.1538465
11.420043199518153	4.5591946	2.135227
11.437657480066942	63.47785	7.967299
11.455272031768422	85.192604	9.229984
11.472886855051353	107.59739	10.372916
11.490501950344528	99.17268	9.958549
11.508117318076819	84.51797	9.193365
11.52573295867715	45.885822	6.7739077
11.543348872574514	4.2478313	2.0610268
11.560965060197946	4.1744027	2.0431354
11.57858152197655	4.0861816	2.0214305
11.59619825833949	4.043863	2.0109358
11.613815269715985	4.017551	2.0043828
11.631432556535323	38.56092	6.209744
11.649050119226837	83.114746	9.116729
11.666667958219929	93.46249	9.6676
11.68428607394406	107.697845	10.377757
11.701904466828756	82.52966	9.084584
11.719523137303586	65.377365	8.085627
11.737142085798196	4.6315556	2.1521049
11.754761312742286	3.7510827	1.9367712
11.772380818565619	3.7264724	1.9304073
11.790000603698015	3.6789217	1.9180515
11.80762066856935	3.6402085	1.907933
11.825241013609572	3.578175	1.8916065
11.842861639248683	3.5429845	1.8822818
11.860482545916748	3.5452101	1.8828728
11.878103734043883	3.547939	1.8835974
11.895725204060282	3.484373	1.8666476
11.91334695639619	3.4415557	1.8551431
11.930968991481919	3.3980432	1.8433782
11.948591309747824	3.3853097	1.8399211
11.966213911624347	3.3492858	1.8301054
11.98383679754198	3.3013263	1.8169552
12.001459967931268	3.243694	1.8010259
12.019083423222835	3.209651	1.7915499
12.036707163847352	3.2413316	1.8003699
12.05433119023556	3.2714715	1.808721
12.071955502818259	3.249978	1.8027695
12.089580102026313	3.1835568	1.7842524
12.107204988290643	3.1407118	1.7722054
12.12483016204224	3.1717844	1.7809504
12.142455623712152	3.1820605	1.783833
12.16008137373149	3.1826897	1.7840095
12.177707412531431	3.1547492	1.7761613
12.19533374054321	3.1572657	1.7768697
12.212960358198126	3.100463	1.7608131
12.230587265927545	3.0421832	1.7441856
12.248214464162889	3.0101886	1.7349895
12.265841953335649	2.9898465	1.7291173
12.283469733877375	3.001851	1.7325851
12.301097806219685	2.963849	1.7215832
12.31872617079425	2.9554975	1.719156
12.336354828032825	2.9101262	1.7059093
12.353983778367205	2.899542	1.7028042
12.371613022229262	2.909602	1.7057555
12.389242560050928	2.9181392	1.7082562
12.406872392264201	2.9020345	1.7035359
12.424502519301143	2.8479226	1.6875789
12.442132941593874	2.8276792	1.6815704
12.459763659574586	2.8543882	1.6894935
12.477394673675532	2.8756046	1.6957607
12.49502598432903	2.9175541	1.708085
12.51265759196746	2.9180527	1.7082309
12.530289497023267	2.8994124	1.7027661
12.547921699928967	2.8482685	1.6876814
12.565554201117134	2.782237	1.6680039
12.583187001020404	2.7541184	1.6595536
12.600820100071486	2.7785013	1.6668837
12.618453498703152	2.7717505	1.6648575
12.636087197348235	2.7899725	1.6703211
12.65372119643964	2.7899446	1.6703128
12.671355496410326	2.7923632	1.6710366
12.68899009769333	2.8127904	1.6771376
12.706625000721749	2.8512223	1.6885563
12.724260205928752	2.9346564	1.7130839
12.741895713747551	2.9903178	1.7292535
12.759531524611454	3.0446327	1.7448876
12.777167638953818	3.034232	1.7419047
12.794804057208072	3.0461535	1.7453233
12.812440779807702	3.0537636	1.7475021
12.830077807186271	3.1954248	1.7875751
12.847715139777405	3.1954265	1.7875756
12.865352778014795	3.4408836	1.8549619
12.882990722332197	3.572869	1.8902035
12.90062897316344	3.7086258	1.9257792
12.918267530942412	3.7599492	1.9390589
12.935906396103071	3.6113205	1.9003475
12.953545569079449	3.7521439	1.9370451
12.971185050305628	3.612949	1.9007759
12.988824840215775	3.6405168	1.9080138
13.006464939244115	3.6566432	1.9122351
13.024105347824943	3.455681	1.8589462
13.041746066392617	3.5306509	1.8790026
13.05938709538157	3.311038	1.8196257
13.077028435226296	3.343534	1.8285333
13.094670086361363	3.2655632	1.807087
13.112312049221401	3.194389	1.7872854
13.129954324241112	3.1216269	1.7668127
13.147596911855258	2.931689	1.7122176
13.165239812498685	2.8954222	1.701594
13.182883026606293	2.8172543	1.6784679
13.200526554613058	2.7815776	1.6678063
13.218170396954017	2.737609	1.6545721
13.235814554064284	2.7102363	1.6462796
13.253459026379034	2.697851	1.6425136
13.271103814333523	2.6897511	1.6400461
13.288748918363058	2.7199898	1.6492392
13.306394338903031	2.7033403	1.6441838
13.32404007638889	2.6973994	1.6423762
13.341686131256164	2.6810641	1.6373955
13.359332503940449	2.6553445	1.6295228
13.376979194877402	2.6516984	1.6284037
13.394626204502751	2.674341	1.6353413
13.412273533252307	2.7222617	1.6499277
13.429921181561937	2.7032316	1.6441507
13.447569149867581	2.693949	1.6413254
13.465217438605247	2.7120647	1.6468347
13.482866048211022	2.7268333	1.6513126
13.500514979121052	2.7735612	1.6654012
13.518164231771568	2.7289987	1.6519681
13.535813806598844	2.7120502	1.6468303
13.553463704039254	2.6938362	1.641291
13.571113924529229	2.7232075	1.6502143
13.588764468505275	2.7479694	1.6577001
13.606415336403956	2.7681155	1.6637654
13.624066528661917	2.7944753	1.6716684
13.641718045715882	2.8382728	1.6847174
13.659369888002635	2.9140043	1.7070456
13.67702205595903	2.9665911	1.7223794
13.694674550021993	2.9801228	1.7263032
13.712327370628532	2.9876187	1.728473
13.729980518215713	3.06268	1.7500514
13.747633993220681	3.1537747	1.775887
13.765287796080647	3.211475	1.7920588
13.7829419272329	3.200814	1.7890819
13.800596387114801	3.2559154	1.8044156
13.818251176163775	3.320744	1.8222909
13.835906294817324	3.4179044	1.8487575
13.853561743513023	3.4883633	1.8677161
13.871217522688525	3.511148	1.8738058
13.888873632781538	3.5266273	1.8779317
13.906530074229858	3.524364	1.877329
13.92418684747135	3.53707	1.88071
13.941843952943948	3.5261457	1.8778034
13.959501391085665	3.5110126	1.8737696
13.977159162334578	3.4736545	1.8637743
13.994817267128846	3.4230723	1.8501546
14.012475705906693	3.310579	1.8194997
14.030134479106424	3.2257829	1.7960465
14.047793587166414	3.1630073	1.7784846
14.065453030525108	3.0970018	1.75983
14.083112809621026	3.0270815	1.739851
14.100772924892766	2.9555435	1.7191694
14.118433376778997	2.9407833	1.7148712
14.136094165718458	2.8830822	1.6979641
14.153755292149969	2.8133035	1.6772906
14.171416756512416	2.712522	1.6469736
14.189078559244768	2.6776662	1.6363575
14.20674070078606	2.6341133	1.6229951
14.224403181575408	2.5781364	1.6056576
14.242066002051999	2.5241547	1.5887588
14.259729162655093	2.4878848	1.577303
14.277392663824022	2.4712906	1.5720339
14.295056505998208	2.4257827	1.5574924
14.312720689617128	2.4422538	1.5627712
14.330385215120348	2.4621773	1.5691327
14.348050082947497	2.4498458	1.5651983
14.3657152935383	2.4169786	1.5546635
14.383380847332528	2.3827012	1.5436001
14.401046744770051	2.3657224	1.5380905
14.418712986290798	2.3783422	1.5421875
14.436379572334793	2.389041	1.5456523
14.454046503342123	2.3720634	1.5401504
14.471713779752946	2.3611279	1.5365962
14.489381402007504	2.3467953	1.5319253
14.507049370546113	2.3505175	1.5331397
14.524717685809168	2.3562074	1.5349942
14.542386348237134	2.3627396	1.5371206
14.560055358270553	2.3831584	1.5437481
14.577724716350051	2.458439	1.5679411
14.595394422916325	2.4888518	1.5776095
14.61306447841015	2.4949698	1.5795474
14.63073488327237	2.4837253	1.5759839
14.648405637943917	2.5145755	1.5857413
14.6660767428658	2.5224912	1.5882353
14.683748198479094	2.570226	1.6031924
14.701420005224954	2.6148598	1.6170528
14.719092163544628	2.645316	1.6264427
14.73676467387942	2.6558683	1.6296835
14.754437536670727	2.6618946	1.6315314
14.772110752360014	2.6882482	1.6395878
14.78978432138882	2.706047	1.6450067
14.807458244198777	2.713248	1.647194
14.82513252123159	2.6941535	1.6413877
14.842807152929028	2.6764736	1.6359931
14.860482139732962	2.6367035	1.6237929
14.87815748208531	2.6128194	1.6164218
14.8958331804281	2.6186106	1.6182122
14.91350923520342	2.6363468	1.6236831
14.931185646853438	2.670987	1.6343154
14.948862415820408	2.6537573	1.6290357
14.966539542546656	2.6743805	1.6353533
14.98421702747459	2.66636	1.6328993
15.001894871046696	2.6552482	1.6294932
15.019573073705542	2.6614144	1.6313841
15.037251635893766	2.6683347	1.6335038
15.054930558054092	2.7123032	1.6469071
15.072609840629323	2.7506537	1.6585095
15.090289484062351	2.8643749	1.6924465
15.107969488796124	3.1748574	1.7818129
15.125649855273691	3.6120644	1.9005432
15.14333058393817	4.1586876	2.0392861
15.161011675232768	5.1049137	2.2594056
15.17869312960076	6.4090185	2.531604
15.196374947485506	8.269141	2.8756115
15.214057129330447	11.345	3.368234
15.231739675579114	16.047804	4.005971
15.249422586675102	21.009829	4.5836477
15.267105863062092	24.021032	4.9011254
15.284789505183847	24.28882	4.928369
15.302473513484218	22.103743	4.701462
15.320157888407127	18.4866	4.299605
15.337842630396578	14.274139	3.7781131
15.355527739896656	11.086642	3.329661
15.37321321735153	8.613223	2.9348292
15.39089906320545	6.348436	2.5196102
15.408585277902748	4.831809	2.1981375
15.42627186188783	3.76424	1.9401649
15.443958815605198	3.2328355	1.7980088
15.461646139499424	2.9330354	1.7126107
15.479333834015168	2.7666092	1.6633127
15.497021899597165	2.6835616	1.638158
15.514710336690234	2.6494238	1.6277051
15.53239914573928	2.6170812	1.6177396
15.550088327189297	2.5693274	1.6029122
15.567777881485336	2.532155	1.5912746
15.58546780907256	2.506656	1.5832422
15.6031581103962	2.4869416	1.577004
15.620848785901568	2.4735675	1.572758
15.638539836034063	2.4536247	1.566405
15.656231261239173	2.4115307	1.5529104
15.673923061962451	2.402979	1.5501544
15.691615238649552	2.3893726	1.5457596
15.709307791746202	2.4000738	1.5492171
15.727000721698221	2.3943887	1.5473813
15.744694028951498	2.4055111	1.550971
15.76238771395202	2.426267	1.5576478
15.780081777145844	2.4386628	1.5616218
15.797776218979125	2.4260955	1.5575929
15.815471039898094	2.4096503	1.5523049
15.833166240349064	2.429028	1.5585339
15.850861820778437	2.4051964	1.5508696
15.868557781632699	2.4021637	1.5498915
15.886254123358412	2.375808	1.5413656
15.903950846402232	2.3681717	1.5388865
15.921647951210897	2.381984	1.5433677
15.939345438231225	2.3817887	1.5433044
15.957043307910133	2.4016364	1.5497214
15.974741560694602	2.3945076	1.5474197
15.992440197031714	2.3737228	1.5406891
16.01013921736862	2.3475375	1.5321676
16.02783862215259	2.3086517	1.5194248
16.045538411830933	2.3255966	1.5249907
16.06323858685107	2.3500173	1.5329766
16.080939147660512	2.409536	1.552268
16.09864009470684	2.4241996	1.5569842
16.11634142843774	2.436707	1.5609956
16.134043149300954	2.402732	1.5500748
16.15174525774433	2.3901129	1.5459989
16.169447754215817	2.409119	1.5521337
16.18715063916342	2.4196467	1.5555214
16.204853913035244	2.4671628	1.5707204
16.222557576279478	2.5001364	1.581182
16.240261629344403	22.48233	4.741554
16.257966072678386	43.02078	6.559023
16.275670906729868	38.11442	6.173688
16.293376131947387	2.5281966	1.5900303
16.31108174877957	2.514039	1.5855721
16.328787757675133	2.5308077	1.5908513
16.34649415908287	2.561035	1.6003234
16.364200953451657	2.6085918	1.6151135
16.38190814123048	2.6309173	1.6220102
16.39961572286839	2.6297297	1.6216441
16.41732369881455	2.673425	1.6350611
16.43503206951817	2.6989062	1.6428348
16.45274083542859	2.716119	1.6480652
16.47044999699522	2.720446	1.6493775
16.488159554667558	2.789779	1.6702632
16.505869508895184	2.8805768	1.6972262
16.523579860127786	2.9259062	1.710528
16.541290608815117	2.938352	1.7141622
16.559001755407035	2.981963	1.7268361
16.57671330035348	3.034091	1.7418642
16.59442524410448	3.0967968	1.7597718
16.61213758711015	3.1714346	1.7808522
16.629850329820705	3.2504778	1.8029082
16.647563472686436	3.377393	1.8377684
16.665277016157724	3.4165273	1.8483851
16.682990960685053	3.4515574	1.8578367
16.70070530671898	3.4576926	1.8594872
16.718420054710155	3.4937265	1.8691512
16.736135205109335	3.5821853	1.8926662
16.753850758367335	3.6272404	1.9045316
16.771566714935087	3.7077146	1.9255427
16.789283075263597	3.7627757	1.9397875
16.80699983980398	3.8150663	1.9532195
16.82471700900741	3.8450305	1.9608749
16.84243458332518	3.9018877	1.9753196
16.860152563208665	3.9641309	1.9910126
16.87787094910932	4.0505824	2.012606
16.89558974147871	4.144279	2.0357502
16.913308940768466	4.245971	2.0605755
16.931028547430333	4.327636	2.080297
16.94874856191613	4.3701925	2.0905006
16.966468984677785	4.4092155	2.0998132
16.98418981616729	4.4254208	2.1036685
17.00191105683676	4.457966	2.1113896
17.019632707138374	4.453647	2.1103666
17.03735476752442	4.419192	2.1021874
17.05507723844728	4.4580746	2.1114154
17.072800120359403	4.5085287	2.1233296
17.090523413713353	4.598757	2.1444712
17.108247118961785	4.640592	2.1542034
17.125971236557437	4.63497	2.152898
17.143695766953133	4.624774	2.1505287
17.161420710601806	4.593692	2.14329
17.179146067956477	4.642758	2.154706
17.19687183947025	4.651427	2.1567166
17.21459802559634	4.6534667	2.1571896
17.232324626788028	4.6053767	2.1460142
17.25005164349871	4.6171746	2.1487613
17.267779076181863	4.642585	2.1546657
17.285506925291074	4.6744943	2.1620579
17.30323519127999	4.641542	2.1544237
17.320963874602384	4.6176467	2.148871
17.33869297571211	4.6083846	2.146715
17.356422495063114	4.5856524	2.1414137
17.37415243310944	4.530332	2.1284578
17.391882790305218	4.4567103	2.1110923
17.40961356710468	4.439059	2.1069074
17.42734476396215	4.4912267	2.1192515
17.445076381332044	4.570419	2.1378539
17.462808419668868	4.668699	2.1607172
17.48054087942723	4.8026967	2.1915057
17.498273761061835	5.109179	2.2603493
17.51600706502747	5.5232444	2.3501585
17.533740791779024	6.2289515	2.4957867
17.551474941771485	7.616287	2.7597623
17.56920951545993	8.749873	2.9580185
17.586944513299528	10.84564	3.293272
17.60467993574556	12.456254	3.529342
17.622415783253373	14.146967	3.7612455
17.64015205627843	15.491544	3.9359298
17.657888755276293	16.464577	4.057657
17.675625880702604	16.812881	4.1003513
17.69336343301311	16.576988	4.0714846
17.71110141266366	15.889531	3.9861674
17.728839820110178	15.052823	3.8797967
17.746578655808705	14.250903	3.7750368
17.764317920215372	12.838277	3.583054
17.7820576137864	11.45138	3.3839886
17.79979773697811	9.463006	3.0762
17.81753829024692	7.632536	2.7627044
17.835279274049356	5.956563	2.440607
17.85302068884201	4.9560423	2.226217
17.870762535081607	4.3078103	2.0755265
17.888504813224934	3.9900486	1.9975107
17.90624752372891	3.8036559	1.9502964
17.923990667050536	3.6662598	1.914748
17.941734243646895	3.5345867	1.8800496
17.959478253975185	3.4850793	1.8668367
17.9772226984927	3.4584033	1.8596783
17.994967577656833	3.4348176	1.8533261
18.01271289192506	3.4006987	1.8440983
18.030458641754965	3.358957	1.8327458
18.04820482760425	3.3174627	1.8213903
18.06595144993067	3.2929614	1.8146518
18.083698509192125	3.3345828	1.826084
18.101446005846576	3.3010044	1.8168666
18.119193940352105	3.2643592	1.8067538
18.136942313166887	3.215842	1.7932769
18.1546911247492	3.219089	1.794182
18.1724403755574	3.210711	1.7918457
18.19019006604997	3.1952956	1.787539
18.207940196685467	3.1576838	1.7769873
18.225690767922575	3.1238668	1.7674464
18.243441780220046	3.1217906	1.7668589
18.261193234036764	3.1037352	1.7617421
18.278945129831676	3.0671334	1.7513233
18.29669746806386	3.0767171	1.7540573
18.314450249192483	3.0751193	1.7536018
18.3322034736768	3.0945044	1.7591203
18.349957141976184	3.1014433	1.7610915
18.3677112545501	3.0911028	1.7581532
18.385465811858108	3.066562	1.7511601
18.403220814359884	3.0207124	1.7380197
18.420976262515172	3.0765738	1.7540165
18.43873215678387	3.1646574	1.7789484
18.456488497625923	3.2438242	1.801062
18.474245285501407	3.2796652	1.8109846
18.492002520870486	3.3103685	1.8194418
18.50976020419343	3.387283	1.8404573
18.527518335930615	3.7389867	1.933646
18.545276916542516	4.3075004	2.0754519
18.563035946489688	4.4678073	2.1137187
18.580795426232832	4.8775096	2.2085085
18.598555356232698	4.834231	2.1986885
18.616315736950185	5.150636	2.2695012
18.63407656884626	4.777666	2.1857872
18.65183785238201	4.941565	2.222963
18.669599588018617	4.7179055	2.172074
18.68736177621737	4.7489853	2.1792166
18.705124417439652	4.7341456	2.1758091
18.72288751214696	4.524768	2.12715
18.740651060800886	4.6313133	2.1520486
18.758415063863115	4.368985	2.0902119
18.77617952179546	4.6072617	2.1464534
18.793944435059814	4.3290997	2.080649
18.811709804118184	4.346088	2.0847273
18.829475629432675	4.2795625	2.0687103
18.8472419114655	4.0997357	2.0247805
18.86500865067897	4.1784487	2.0441253
18.88277584753551	3.8622236	1.9652541
18.90054350249763	3.8852673	1.9711081
18.918311616027957	3.4999242	1.8708085
18.936080188589226	3.3882031	1.8407072
18.953849220644265	3.0915787	1.7582886
18.971618712656007	2.9424577	1.7153593
18.9893886650875	2.8709836	1.6943977
19.007159078401887	8.032998	2.8342545
19.024929953062408	32.885105	5.734554
19.042701289532435	32.78174	5.725534
19.060473088275405	25.33226	5.0331163
19.07824534975489	2.656495	1.6298758
19.096018074434568	2.6671503	1.6331413
19.113791262778197	2.644517	1.6261971
19.13156491524966	2.5760558	1.6050096
19.149339032312945	2.577621	1.6054971
19.167113614432136	2.565925	1.6018505
19.184888662071433	2.5628374	1.6008865
19.202664175695123	2.5695658	1.6029866
19.220440155767623	2.547742	1.5961647
19.238216602753447	2.5174084	1.5866343
19.2559935171172	2.4939268	1.5792172
19.27377089932361	2.4916437	1.5784941
19.291548749837514	2.511194	1.5846747
19.309327069123835	2.509966	1.5842872
19.32710585764763	2.4992046	1.5808873
19.344885115874032	2.476594	1.5737197
19.362664844268313	2.4575078	1.567644
19.380445043295822	2.4642293	1.5697864
19.39822571342203	2.4257398	1.5574787
19.41600685511252	2.4452586	1.5637323
19.43378846883297	2.4701066	1.5716573
19.451570555049173	2.5355213	1.592332
19.469353114227037	2.5321789	1.5912821
19.48713614683254	2.5257475	1.5892601
19.50491965333182	2.5304668	1.5907441
19.52270363419109	2.4936202	1.57912
19.540488089876686	2.4588444	1.5680703
19.55827302085503	2.4406602	1.5622612
19.576058427592674	2.4392512	1.5618103
19.593844310556282	2.4867275	1.5769361
19.611630670212598	2.471207	1.5720073
19.629417507028506	2.472254	1.5723403
19.64720482147098	2.4528937	1.5661716
19.6649926140071	2.481176	1.5751749
19.682780885104084	2.5198736	1.5874109
19.70056963522921	2.533637	1.5917403
19.718358864849908	2.525321	1.5891259
19.7361485744337	2.5428784	1.5946405
19.753938764448215	2.5174706	1.586654
19.771729435361202	2.5107622	1.5845385
19.789520587640506	2.5050564	1.582737
19.807312221754092	2.5167212	1.5864178
19.825104338170043	2.5148056	1.5858139
19.842896937356517	2.5151772	1.5859311
19.860690019781824	2.502207	1.5818366
19.87848358591436	2.5006545	1.5813458
19.896277636222635	2.503197	1.5821495
19.914072171175278	2.504153	1.5824516
19.931867191241015	2.492457	1.5787517
19.94966269688869	2.4705126	1.5717864
19.967458688587264	2.4492307	1.5650018
19.985255166805807	2.4567645	1.5674069
20.00305213201348	2.4835591	1.5759312
20.020849584679578	2.4940674	1.5792617
20.038647525273507	2.4663541	1.5704631
20.05644595426477	2.4354224	1.560584
20.07424487212299	2.4642847	1.5698041
20.092044279317903	2.4581392	1.5678453
20.109844176319353	2.470228	1.5716959
20.127644563597304	2.4333289	1.559913
20.145445441621817	2.4018168	1.5497797
20.16324681086307	2.3727515	1.5403738
20.181048671791373	2.3773947	1.5418802
20.198851024877122	2.397426	1.5483624
20.216653870590836	2.3980417	1.5485612
20.234457209403146	2.3816736	1.5432671
20.252261041784802	2.3424048	1.5304917
20.270065368206662	2.3407924	1.5299648
20.287870189139685	2.3095913	1.5197339
20.305675505054968	2.3133993	1.5209863
20.323481316423702	2.343669	1.5309047
20.341287623717207	2.3824396	1.5435153
20.359094427406884	2.3803132	1.5428263
20.376901727964288	2.3391793	1.5294375
20.39470952586107	2.3766894	1.5416515
20.41251782156899	2.4015913	1.5497068
20.430326615559935	2.3786032	1.5422721
20.448135908305886	2.373134	1.5404979
20.465945700278965	2.3703706	1.5396008
20.483755991951384	2.3558319	1.5348719
20.50156678379548	2.3492353	1.5327215
20.519378076283708	2.3661942	1.5382439
20.537189869888635	2.3333917	1.5275444
20.55500216508294	2.3165815	1.522032
20.572814962339415	2.3409913	1.5300298
20.59062826213098	2.367401	1.5386361
20.60844206493066	2.3483188	1.5324225
20.626256371211593	2.319793	1.5230867
20.644071181447032	2.325959	1.5251095
20.66188649611036	2.3183064	1.5225986
20.67970231567506	2.314269	1.5212722
20.697518640614742	2.2810915	1.5103283
20.715335471403122	2.28218	1.5106887
20.73315280851404	2.2989044	1.5162139
20.750970652421447	2.3227525	1.5240579
20.768789003599412	2.340773	1.5299585
20.786607862522136	2.347983	1.5323129
20.8044272296639	2.3407295	1.5299443
20.82224710549913	2.2691882	1.5063825
20.84006749050237	2.2742126	1.5080492
20.857888385148268	3.8692641	1.9670445
20.8757097899116	46.020824	6.783865
20.893531705267254	64.84918	8.052899
20.911354131690224	83.8649	9.157778
20.92917706965566	69.11346	8.313451
20.94700051963877	50.167812	7.082924
20.96482448211493	29.43608	5.425503
20.982648957559622	4.1923146	2.0475142
21.00047394644843	2.3182955	1.5225949
21.01829944925707	2.2771556	1.5090247
21.036125466461375	2.2065957	1.4854615
21.053951998537297	2.1724732	1.4739312
21.071779045960906	2.167827	1.4723542
21.089606609208378	2.1867383	1.4787624
21.10743468875603	2.168943	1.4727331
21.12526328508028	2.202657	1.4841352
21.143092398657675	2.2385058	1.4961637
21.16092202996488	2.2506287	1.5002096
21.17875217947867	2.230657	1.4935385
21.19658284767596	2.1827996	1.4774301
21.21441403503377	2.1917846	1.4804677
21.232245742029225	2.2024608	1.484069
21.2500779691396	2.1702812	1.4731874
21.26791071684227	2.1367733	1.4617707
21.28574398561475	2.1400523	1.4628918
21.30357777593465	2.1457996	1.4648548
21.321412088279704	2.1221497	1.45676
21.339246923127792	2.0937796	1.4469898
21.357082280956888	2.1129706	1.453606
21.3749181622451	2.1443202	1.4643497
21.392754567470647	2.1707308	1.47334
21.41059149711187	2.1549869	1.4679873
21.42842895164726	2.1529462	1.4672922
21.446266931555378	2.1285355	1.4589502
21.464105437314945	2.134868	1.4611187
21.481944469404798	2.1569493	1.4686556
21.49978402830388	2.1669343	1.472051
21.51762411449127	2.121879	1.4566671
21.53546472844617	2.087703	1.4448886
21.553305870647876	2.1026638	1.4500564
21.571147541575865	2.150125	1.4663304
21.58898974170967	2.1398585	1.4628255
21.60683247152899	2.1258297	1.4580225
21.62467573151363	2.085959	1.4442849
21.642519522143523	2.0888531	1.4452865
21.660363843898722	2.1139867	1.4539555
21.6782086972594	2.1071718	1.4516101
21.696054082705864	2.0682223	1.4381316
21.713900000718535	2.0552313	1.4336078
21.73174645177795	2.0766985	1.4410754
21.749593436364794	2.0795076	1.4420497
21.767440954959845	2.0742314	1.4402192
21.785289008044032	2.0622833	1.4360652
21.803137596098388	2.05659	1.4340817
21.820986719604086	2.068237	1.4381367
21.838836379042412	2.0642564	1.4367521
21.85668657489478	2.0470998	1.430769
21.87453730764273	2.0007765	1.4144881
21.892388577767914	1.9923749	1.4115151
21.91024038575213	2.00785	1.4169862
21.928092732077285	1.9869304	1.4095851
21.945945617225426	1.9637277	1.4013307
21.963799041678694	1.9237554	1.3869951
21.981653005919398	31.296385	5.594317
21.999507510429943	78.11848	8.838466
22.01736255569286	73.080444	8.54871
22.035218142190818	4.1926565	2.0475976
22.05307427040661	2.0207973	1.4215475
22.07093094082315	2.0007122	1.4144653
22.088788153923474	1.9801811	1.4071891
22.106645910190746	1.9842864	1.4086471
22.12450421010827	1.9987779	1.4137814
22.142363054159464	2.0213344	1.4217364
22.16022244282787	2.0319295	1.4254576
22.178082376597164	1.9913951	1.411168
22.195942855951145	1.9955424	1.4126366
22.213803881373742	1.9803514	1.4072496
22.231665453349002	1.9709884	1.403919
22.24952757236111	1.962646	1.4009447
22.26739023889438	1.9880557	1.4099844
22.28525345343323	2.0059063	1.4163002
22.30311721646225	2.004023	1.4156352
22.320981528466113	2.0024257	1.4150709
22.33884638992964	1.9937247	1.4119931
22.356711801337788	1.9534408	1.3976555
22.37457776317561	1.9027662	1.3794079
22.392444275928337	1.9049143	1.3801863
22.410311340081282	1.9389617	1.3924661
22.428178956119904	1.9433135	1.3940278
22.446047124529805	1.9300431	1.3892599
22.46391584579669	1.9531367	1.3975466
22.481785120406414	2.000406	1.4143571
22.49965494884496	2.0157788	1.4197812
22.51752533159841	1.9945619	1.4122896
22.53539626915302	1.9763633	1.4058319
22.553267761995137	1.9733381	1.4047556
22.571139810611264	1.9908737	1.4109832
22.589012415488025	2.0213559	1.421744
22.60688557711216	2.0054047	1.4161232
22.624759295970566	1.9914787	1.4111977
22.642633572550263	1.9978426	1.4134506
22.660508407338362	1.9784774	1.4065835
22.67838380082217	1.9903079	1.4107827
22.696259753489077	1.987068	1.409634
22.714136265826614	2.0099282	1.4177194
22.73201333832246	1.9964813	1.412969
22.74989097146439	1.9628009	1.4009999
22.76776916574035	1.9258177	1.3877383
22.785647921638393	1.9384052	1.3922662
22.803527239646712	1.9422214	1.393636
22.82140712025363	1.9342889	1.3907871
22.839287563947593	1.9420879	1.3935882
22.85716857121719	1.9092889	1.3817703
22.875050142551135	1.9179469	1.3848996
22.892932278438277	1.9329394	1.390302
22.910814979367604	1.9522339	1.3972236
22.928698245828222	1.8829597	1.3722098
22.946582078309387	1.8608105	1.3641152
22.96446647730047	1.89046	1.37494
22.98235144329098	1.9082357	1.381389
23.000236976770562	1.9239724	1.3870733
23.018123078229	1.8627242	1.3648165
23.03600974815619	1.8869153	1.3736503
23.053896987042194	1.9104289	1.3821826
23.071784795377173	1.9475689	1.3955532
23.08967317365145	1.9564244	1.3987224
23.10756212235546	1.9302747	1.3893433
23.125451641979787	1.8823847	1.3720002
23.143341733015134	1.8730344	1.3685884
23.161232395952357	1.8916636	1.3753777
23.179123631282426	1.9312575	1.389697
23.197015439496468	1.948102	1.3957442
23.214907821085717	1.9459964	1.3949897
23.23280077654157	1.9744246	1.4051422
23.250694306355538	1.965492	1.40196
23.268588411019277	1.9921218	1.4114255
23.28648309102458	1.9671688	1.402558
23.304378346863356	1.9243349	1.3872039
23.322274179027676	1.8999459	1.3783852
23.340170588009723	1.9412498	1.3932874
23.358067574301852	1.9968997	1.413117
23.37596513839651	1.9806948	1.4073716
23.39386328078629	1.9213332	1.3861216
23.411762001963947	1.912586	1.3829627
23.429661302422353	1.9577274	1.3991882
23.4475611826545	1.9639399	1.4014064
23.46546164315356	1.9705122	1.4037493
23.48336268441279	1.9257404	1.3877105
23.501264306925638	1.9062294	1.3806627
23.51916651118564	1.9083159	1.3814181
23.537069297686497	1.9243903	1.387224
23.554972666922037	1.9720037	1.4042805
23.57287661938623	1.967362	1.4026269
23.59078115557318	1.9084249	1.3814576
23.608686275977128	1.8866907	1.3735687
23.62659198109246	1.8592433	1.3635408
23.6444982714137	1.8878025	1.3739733
23.66240514743549	1.9006037	1.3786238
23.68031260965263	1.9100006	1.3820277
23.698220658560068	1.8803123	1.3712448
23.716129294652845	1.8918132	1.375432
23.7340385184262	1.9367168	1.3916597
23.75194833037546	1.9261532	1.3878592
23.769858730996123	1.9315844	1.3898145
23.78776972078382	1.9205176	1.3858274
23.80568130023431	1.9228811	1.3866799
23.823593469843495	1.9093322	1.3817859
23.841506230107424	1.9360423	1.3914174
23.859419581522275	1.9428474	1.3938606
23.87733352458438	1.9300693	1.3892694
23.89524805979019	1.9123583	1.3828804
23.913163187636318	1.898296	1.3777866
23.931078908619508	1.9442594	1.394367
23.948995223236633	2.0032918	1.4153769
23.966912131984735	2.0102808	1.4178437
23.98482963536096	2.0512664	1.4322243
24.002747733862616	2.0706227	1.4389658
24.020666427987155	2.0762331	1.440914
24.038585718232156	2.08032	1.4423314
24.056505605095353	2.0497885	1.4317082
24.074426089074617	2.0753565	1.4406098
24.092347170667946	2.0189526	1.4208986
24.110268850373515	1.9802462	1.4072123
24.128191128689586	1.9961894	1.4128656
24.146114006114626	2.0112913	1.4182
24.164037483147187	2.028008	1.4240814
24.181961560286005	2.053266	1.4329222
24.199886238029926	2.0369675	1.4272237
24.21781151687797	2.0026066	1.4151348
24.235737397329274	2.0249197	1.4229968
24.253663879883135	2.067381	1.4378389
24.271590965038975	2.0572808	1.4343224
24.289518653296376	2.0374877	1.427406
24.30744694515505	1.9878457	1.4099098
24.32537584111486	2.0131738	1.4188635
24.34330534167581	2.0614026	1.4357585
24.361235447338046	2.0820293	1.4429239
24.379166158601876	2.0493064	1.4315399
24.39709747596772	2.04797	1.4310731
24.41502939993615	1.9858365	1.4091971
24.432961931007917	1.9457769	1.394911
24.450895069683856	1.9791068	1.4068073
24.468828816465	1.9720626	1.4043014
24.4867631718525	1.9723625	1.4044082
24.504698136347656	1.9559277	1.3985449
24.52263371045192	1.9348564	1.3909912
24.540569894666874	1.9269866	1.3881594
24.558506689494266	1.9452231	1.3947126
24.57644409543597	1.9792285	1.4068506
24.594382112994012	1.9738053	1.4049218
24.61232074267057	1.939015	1.3924851
24.630259984967953	1.9266211	1.3880278
24.64819984038863	1.9935946	1.4119471
24.66614030943522	2.0200741	1.4212931
24.684081392610462	1.9780785	1.4064418
24.702023090417274	1.9771887	1.4061254
24.7199654033587	2.0140424	1.4191697
24.737908331937927	1.9739722	1.4049813
24.755851876658305	1.9597499	1.3999107
24.773796038023324	1.9956118	1.4126612
24.79174081653661	2.0345829	1.426388
24.809686212701962	2.0788832	1.4418333
24.827632227023294	2.1130555	1.4536352
24.8455788600047	2.1148875	1.4542652
24.8635261121504	2.0713775	1.439228
24.88147398396475	2.098702	1.4486897
24.899422475952303	2.137571	1.4620435
24.917371588617698	2.1620607	1.4703947
24.935321322465768	2.1973076	1.4823318
24.953271678001478	2.2300496	1.493335
24.97122265572994	2.4255433	1.5574156
24.989174256156414	2.7874043	1.6695521
25.00712647978632	3.2565515	1.8045918
25.02507932712521	3.7995944	1.9492549
25.043032798678798	4.262697	2.06463
25.060986894952933	4.8741775	2.207754
25.078941616453637	5.5364757	2.3529716
25.096896963687055	6.469441	2.5435095
25.114852937159508	7.5261364	2.7433805
25.132809537377444	8.05356	2.8378794
25.150766764847468	8.159789	2.8565345
25.168724620076347	7.6424904	2.7645054
25.186683103570985	6.7123175	2.590814
25.204642215838426	5.639576	2.3747792
25.222601957385894	4.379715	2.0927768
25.24056232872074	3.3243165	1.8232708
25.25852333035048	2.6173499	1.6178225
25.276484962782778	2.2134526	1.4877677
25.294447226525435	2.0498757	1.4317387
25.312410122086423	1.9698923	1.4035285
25.330373649973843	1.9499738	1.3964146
25.348337810695988	1.9009485	1.3787489
25.366302604761245	1.8813131	1.3716097
25.384268032678207	1.8712349	1.3679309
25.40223409495558	1.8992083	1.3781177
25.420200792102257	1.8999755	1.378396
25.438168124627246	1.8898922	1.3747336
25.45613609303974	1.8705729	1.3676889
25.474104697849057	1.9102526	1.3821188
25.492073939564698	1.9261516	1.3878586
25.510043818696285	1.958274	1.3993834
25.528014335753614	1.9208401	1.3859438
25.54598549124664	1.8878455	1.3739889
25.56395728568544	1.9112049	1.3824633
25.58192971958028	1.8964595	1.37712
25.59990279344156	1.8501887	1.3602164
25.617876507779833	1.8047113	1.3433955
25.635850863105826	1.7974291	1.3406823
25.653825859930386	1.8475327	1.3592398
25.671801498764548	1.9186294	1.385146
25.68977778011949	1.8678699	1.3667004
25.707754704506524	1.8439952	1.3579378
25.725732272437153	1.8429363	1.3575479
25.743710484423012	1.8608011	1.3641118
25.761689340975888	1.8667557	1.3662927
25.77966884260774	1.8496063	1.3600023
25.797648989830662	1.7835112	1.3354816
25.815629783156922	1.7852631	1.3361374
25.83361122309895	1.8314219	1.3533003
25.85159331016929	1.883614	1.3724482
25.869576044880695	1.8915064	1.3753204
25.887559427746034	1.8458748	1.3586297
25.90554345927836	1.8124367	1.3462677
25.92352813999086	1.8125049	1.346293
25.94151347039689	1.8210676	1.3494694
25.959499451009965	1.8422234	1.3572853
25.97748608234374	1.8337733	1.3541689
25.995473364912062	1.8481281	1.3594588
26.013461299228904	1.8565774	1.3625628
26.03144988580839	1.8456143	1.3585339
26.04943912516483	1.8225757	1.350028
26.067429017812675	1.8373717	1.3554969
26.085419564266537	1.8334438	1.3540472
26.103410765041186	1.8696486	1.3673509
26.12140262065155	1.8681978	1.3668203
26.139395131612723	1.8603506	1.3639467
26.157388298439948	1.8576266	1.3629477
26.17538212164861	1.8431809	1.357638
26.193376601754295	1.8440814	1.3579696
26.211371739272714	1.8261534	1.3513525
26.229367534719746	1.8758165	1.3696045
26.247363988611433	1.8653789	1.3657887
26.26536110146397	1.8837883	1.3725117
26.283358873793727	1.8776473	1.3702728
26.301357306117204	1.8697156	1.3673754
26.319356398951104	1.8500575	1.3601682
26.33735615281224	1.8098081	1.3452911
26.35535656821762	1.7923101	1.3387718
26.373357645684404	1.8070743	1.3442746
26.39135938572991	1.826372	1.3514333
26.409361788871614	1.8330067	1.3538858
26.427364855627165	1.807297	1.3443575
26.445368586514352	1.8282944	1.3521444
26.46337298205115	1.877754	1.3703116
26.48137804275568	1.8786576	1.3706414
26.499383769146217	1.8364607	1.3551607
26.517390161741215	1.8299102	1.3527417
26.53539722105928	1.7825466	1.3351204
26.553404947619182	1.8051103	1.3435439
26.571413341939856	1.8213775	1.3495842
26.589422404540397	1.8401595	1.3565248
26.60743213594006	1.807274	1.3443489
26.62544253665827	1.7614102	1.3271813
26.64345360721459	1.7627982	1.3277041
26.66146534812879	1.792158	1.3387151
26.679477759920758	1.7852567	1.336135
26.69749084311057	1.7551857	1.3248342
26.71550459821847	1.7408067	1.3193964
26.733519025764842	1.7542083	1.3244653
26.751534126270258	1.752742	1.3239117
26.769549900255434	1.764872	1.3284849
26.787566348241267	1.7635988	1.3280056
26.80558347074881	1.8203382	1.349199
26.823601268299267	1.8286133	1.3522623
26.841619741414036	1.8324977	1.3536978
26.85963889061465	1.7930653	1.3390539
26.877658716422832	1.8203098	1.3491886
26.89567921936045	1.8521686	1.360944
26.913700399949544	1.8165821	1.3478065
26.93172225871233	1.7710727	1.3308166
26.949744796171174	1.7564808	1.3253229
26.967768012848605	1.7715235	1.3309859
26.98579190926733	1.8025049	1.342574
27.003816485950225	1.7843046	1.3357787
27.021841743420318	1.7522187	1.323714
27.039867682200814	1.8008857	1.3419708
27.057894302815072	1.8885301	1.374238
27.07592160578664	1.9128534	1.3830594
27.0939495916392	1.8895037	1.3745922
27.111978260896635	1.853462	1.3614191
27.13000761408296	1.825166	1.3509871
27.148037651722397	1.8144208	1.3470044
27.166068374339304	1.7503073	1.3229918
27.184099782458215	1.7981352	1.3409456
27.20213187660384	1.8521745	1.3609462
27.22016465730105	1.8694949	1.3672948
27.23819812507487	1.8433585	1.3577034
27.256232280450533	1.816757	1.3478713
27.274267123953383	1.799113	1.3413101
27.292302656108987	1.814662	1.3470939
27.31033887744306	1.8934083	1.3760117
27.32837578848146	1.9099169	1.3819975
27.34641338975026	1.8578808	1.363041
27.364451681775673	1.8595968	1.3636703
27.382490665084074	1.8036547	1.3430021
27.400530340202046	1.753756	1.3242946
27.41857070765629	1.7247742	1.3133066
27.436611767973726	1.788953	1.3375175
27.454653521681404	1.8371667	1.3554212
27.472695969306564	1.8631599	1.3649762
27.490739111376627	1.8775465	1.3702359
27.508782948419153	1.8704966	1.367661
27.526827480961902	1.829825	1.3527102
27.54487270953279	1.789459	1.3377066
27.562918634659898	1.7830807	1.3353205
27.580965256871508	1.7935641	1.3392401
27.599012576696026	1.8037628	1.3430424
27.617060594662068	1.8258332	1.351234
27.63510931129842	1.8311396	1.353196
27.65315872713401	1.8102883	1.3454696
27.67120884269797	1.7842737	1.3357671
27.68925965851958	1.7628573	1.3277264
27.707311175128307	1.8036363	1.3429953
27.725363393053787	1.829246	1.3524963
27.74341631282583	1.8261776	1.3513614
27.7614699349744	1.8514276	1.3606718
27.77952426002968	2.0851781	1.4440145
27.797579288521973	2.1650727	1.4714186
27.815635020981784	2.5678904	1.6024638
27.83369145793979	2.6208503	1.618904
27.85174859992682	2.435619	1.560647
27.869806447473923	2.2624867	1.5041565
27.887865001112267	1.9445467	1.3944701
27.905924261373233	1.8337524	1.3541611
27.92398422878836	1.8070726	1.344274
27.94204490388936	1.8701549	1.3675361
27.96010628720813	1.8786055	1.3706223
27.978168379276728	1.823708	1.3504473
27.9962311806274	1.8199396	1.3490514
28.014294691792568	1.8584218	1.3632394
28.0323589133048	1.8651146	1.365692
28.050423845696887	1.8042164	1.3432112
28.068489489501758	1.8205254	1.3492684
28.086555845252523	1.9032993	1.3796011
28.104622913482487	1.9013807	1.3789057
28.122690694725115	1.8729954	1.3685743
28.14075918951405	1.8140908	1.3468819
28.15882839838312	1.8177087	1.3482243
28.176898321866304	1.8941059	1.3762652
28.1949689604978	1.9553849	1.3983507
28.213040314811945	1.9852083	1.4089742
28.23111238534327	1.9865955	1.4094664
28.249185172626493	1.926343	1.3879275
28.267258677196473	1.9228678	1.3866751
28.285332899588294	1.9324659	1.3901316
28.303407840337172	1.9283905	1.388665
28.321483499978545	1.9017507	1.3790398
28.33955987904799	1.912512	1.382936
28.357636978081285	1.9341679	1.3907436
28.37571479761439	1.9603359	1.4001199
28.393793338183425	2.0098293	1.4176844
28.41187260032469	1.9958047	1.4127295
28.429952584574686	1.9540881	1.397887
28.448033291470065	1.8820331	1.3718721
28.46611472154769	1.9016426	1.3790005
28.484196875344566	1.9789106	1.4067376
28.502279753397914	2.06294	1.4362938
28.52036335624511	2.0161965	1.4199283
28.538447684423716	1.9830536	1.4082093
28.556532738471482	1.9989558	1.4138443
28.574618518926325	2.0169282	1.4201859
28.59270502632635	1.9968606	1.4131032
28.61079226120985	1.9846396	1.4087723
28.628880224115274	2.0153522	1.419631
28.646968915581287	2.044313	1.4297947
28.66505833614671	2.0521052	1.432517
28.68314848635055	2.0810504	1.4425846
28.701239366732004	2.0760136	1.4408377
28.71933097783044	2.0485077	1.4312608
28.737423320185403	2.0382216	1.427663
28.75551639433665	2.0654812	1.4371783
28.773610200824074	2.0941288	1.4471105
28.791704740187793	2.1238844	1.4573553
28.80980001296809	2.1690705	1.4727764
28.827896019705413	2.1636615	1.4709389
28.845992760940433	2.1970546	1.4822465
28.86409023721397	2.2385564	1.4961807
28.88218844906704	2.233635	1.494535
28.900287397040845	2.2554927	1.5018297
28.918387081676755	2.2724035	1.5074493
28.936487503516343	2.2766237	1.5088484
28.954588663101365	2.2471197	1.4990395
28.97269056097374	2.2429736	1.497656
28.990793197675597	2.267708	1.5058911
29.00889657374923	2.342704	1.5305895
29.027000689737125	2.387314	1.5450935
29.04510554618196	2.4222097	1.556345
29.06321114362659	2.4207876	1.555888
29.08131748261405	2.4761164	1.5735681
29.099424563687567	2.5462172	1.595687
29.11753238739057	2.611608	1.616047
29.13564095426663	2.6300242	1.621735
29.15375026485954	2.648087	1.6272944
29.171860319713275	2.720011	1.6492456
29.18997111937199	2.754612	1.6597024
29.20808266438002	2.7298903	1.652238
29.226194955281898	2.6841817	1.6383473
29.244307992622335	2.7407594	1.6555239
29.26242177694624	2.8027537	1.6741427
29.2805363087987	2.8651116	1.692664
29.29865158872498	2.9188035	1.7084506
29.316767617270557	2.9740925	1.7245557
29.334884394981064	2.9941409	1.7303586
29.353001922402367	2.9653978	1.722033
29.37112020008047	3.0273015	1.7399142
29.389239228561596	3.1678185	1.7798367
29.407359008392152	3.3617363	1.8335038
29.42547954011872	3.7545729	1.937672
29.44360082428809	4.345856	2.0846717
29.46172286144722	5.365601	2.3163767
29.479845652143283	6.9298334	2.6324577
29.497969196923606	8.954184	2.9923542
29.516093496335728	11.430827	3.3809507
29.5342185509274	14.091524	3.7538679
29.55234436124651	16.445032	4.0552473
29.570470927841175	17.590128	4.1940584
29.588598251259686	17.280043	4.156927
29.60672633205055	16.08155	4.010181
29.624855170762405	14.102727	3.7553596
29.642984767944146	11.286836	3.3595886
29.66111512414481	8.684512	2.9469497
29.67924623991366	6.579442	2.5650423
29.697378115800138	5.0860987	2.255238
29.71551075235387	4.2030516	2.0501344
29.733644150124675	3.781777	1.9446791
29.751778309662576	3.5854893	1.8935388
29.769913231517766	3.4566574	1.8592088
29.78804891624066	3.3899984	1.8411949
29.806185364381818	3.3768485	1.8376204
29.82432257649206	3.3664608	1.8347918
29.842460553122333	3.3664556	1.8347903
29.86059929482382	3.4088736	1.8463135
29.878738802147872	3.491414	1.8685327
29.896879075646048	3.4558346	1.8589876
29.915020115870114	3.306054	1.8182558
29.933161923371976	3.2535896	1.8037709
29.951304498703777	3.2715313	1.8087375
29.969447842417857	3.2376053	1.7993346
29.987591955066733	3.1703808	1.7805563
30.005736837203123	3.1385057	1.7715828
30.023882489379943	3.1191247	1.7661043
30.04202891215028	3.1052825	1.7621812
30.060176106067455	3.1528945	1.7756392
30.078324071684946	3.1428287	1.7728025
30.09647280955646	3.1865165	1.7850816
30.114622320235863	3.2505996	1.8029419
30.132772604277257	3.23253	1.7979238
30.1509236622349	3.146433	1.7738189
30.16907549466328	3.100089	1.760707
30.18722810211705	3.0706394	1.752324
30.205381485151097	3.0314445	1.7411044
30.22353564432045	2.9847057	1.72763
30.241690580180403	3.0257394	1.7394652
30.25984629328638	2.9919124	1.7297145
30.278002784194037	3.0023415	1.7327266
30.296160053459246	3.0384176	1.7431058
30.314318101638033	2.9816833	1.7267551
30.332476929286646	2.9458754	1.7163553
30.35063653696153	2.9363177	1.7135687
30.368796925219307	2.939903	1.7146145
30.386958094616844	2.9346213	1.7130736
30.40512004571115	2.900511	1.7030886
30.423282779059463	2.886063	1.6988417
30.441446295219233	2.8256607	1.6809702
30.459610594748067	2.7593706	1.6611353
30.47777567820382	2.762181	1.6619811
30.495941546144504	2.8684678	1.6936551
30.51410819912835	2.886463	1.6989594
30.532275637713795	2.8600943	1.6911813
30.55044386245946	2.8409784	1.6855202
30.56861287392416	2.8425622	1.68599
30.586782672666956	2.8302214	1.6823262
30.604953259247047	2.7825894	1.6681095
30.623124634223885	2.736657	1.6542844
30.641296798157075	2.6595206	1.6308037
30.659469751606462	2.625559	1.6203578
30.677643495132074	2.7288513	1.6519235
30.695818029294152	2.7844167	1.6686572
30.713993354653116	2.7849143	1.6688062
30.73216947176962	2.780712	1.6675466
30.75034638120448	2.798674	1.6729238
30.768524083518756	2.798154	1.6727684
30.786702579273673	2.755521	1.6599762
30.80488186903069	2.7778442	1.6666865
30.82306195335144	2.8593028	1.6909473
30.841242832797782	3.1063755	1.7624912
30.85942450793176	3.3964112	1.8429354
30.877606979315637	3.6324391	1.9058958
30.895790247511883	3.9485798	1.9871033
30.913974313083134	4.436706	2.106349
30.932159176592283	4.7590594	2.181527
30.95034483860237	4.8124385	2.193727
30.968531299676698	4.6120896	2.1475775
30.98671856037873	4.304638	2.074762
31.00490662127215	3.886878	1.9715167
31.023095482920848	3.4766295	1.8645722
31.04128514588892	3.0881364	1.7573094
31.059475610740662	2.7794716	1.6671747
31.07766687804056	2.5629268	1.6009144
31.09585894835335	2.4708183	1.5718837
31.11405182224393	2.4370792	1.5611147
31.132245500277417	2.42831	1.5583036
31.15043998301914	2.377728	1.5419884
31.168635271034628	2.37772	1.5419858
31.18683136488964	2.424114	1.5569566
31.20502826515008	2.4346023	1.5603212
31.223225972382135	2.4428413	1.5629592
31.241424487152155	2.4272532	1.5579644
31.259623810026692	2.404815	1.5507466
31.27782394157253	2.397188	1.5482855
31.296024882356644	2.4428685	1.5629679
31.314226632946237	2.4218926	1.5562431
31.332429193908684	2.3499634	1.532959
31.350632565811598	2.356488	1.5350857
31.368836749222787	2.411893	1.553027
31.387041744710295	2.6086442	1.6151298
31.40524755284232	2.71425	1.6474981
31.423454174187317	2.7278202	1.6516113
31.441661609313922	2.634857	1.6232243
31.459869858791002	2.5385907	1.5932956
31.478078923187628	2.475075	1.5732371
31.496288803073064	2.3985393	1.5487218
31.514499499016807	2.3099883	1.5198646
31.532711011588546	2.340384	1.5298314
31.550923341358178	2.303383	1.5176901
31.56913648889584	2.2313874	1.4937829
31.587350454771844	2.2676675	1.5058776
31.605565239556732	2.3081686	1.5192658
31.62378084382127	2.3010676	1.516927
31.641997268136382	2.3095767	1.5197291
31.660214513073274	2.3432086	1.5307542
31.67843257920331	2.3571558	1.5353031
31.6966514670981	2.3363204	1.5285027
31.71487117732944	2.288451	1.5127627
31.733091710469346	2.3264291	1.5252637
31.751313067090052	2.4169123	1.5546422
31.769535247764008	2.384239	1.5440981
31.787758253063878	2.3036046	1.517763
31.805982083562526	2.2061658	1.4853168
31.824206739833024	2.1756108	1.4749951
31.84243222244869	2.1498141	1.4662244
31.860658531983013	2.2184265	1.4894383
31.878885669009737	2.2695355	1.5064977
31.897113634102784	2.2598233	1.5032709
31.91534242783632	2.2235982	1.4911734
31.933572050784694	2.3330102	1.5274194
31.951802503522508	2.2767007	1.5088739
31.970033786624548	2.1847053	1.4780748
31.988265900665834	2.1514497	1.4667821
32.006498846221575	2.2236943	1.4912057
32.02473262386724	2.2430196	1.4976714
32.04296723417845	2.2434516	1.4978156
32.0612026777311	2.123728	1.4573016
32.07943895510129	2.0721688	1.439503
32.097676066865304	2.1089923	1.452237
32.115914013599685	2.07567	1.4407185
32.13415279588115	2.0468829	1.4306931
32.152392414286666	2.0572584	1.4343146
32.1706328693934	2.0696466	1.4386266
32.18887416177875	2.0692403	1.4384854
32.20711629202032	2.0748613	1.4404379
32.225359260695924	2.105807	1.4511399
32.243603068383614	2.1240861	1.4574245
32.26184771566166	2.0797935	1.4421489
32.28009320310852	2.0356967	1.4267784
32.2983395313029	2.0130208	1.4188097
32.31658670082372	2.098469	1.4486094
32.33483471225012	2.1140134	1.4539647
32.35308356616143	2.106158	1.4512608
32.371333263137245	2.0792754	1.4419693
32.38958380375734	2.0659223	1.4373317
32.407835188601744	2.0952349	1.4474926
32.42608741825067	2.1533782	1.4674393
32.444340493284585	2.2037125	1.4844906
32.46259441428416	2.1362307	1.461585
32.48084918183028	2.0789945	1.4418719
32.49910479650405	2.045613	1.4302493
32.51736125888683	2.0133593	1.418929
32.53561856956014	2.0012062	1.41464
32.5538767291058	1.9702045	1.4036397
32.572135738105764	2.002487	1.4150926
32.59039559714228	2.039243	1.4280206
32.608656306797776	2.036986	1.4272302
32.62691786765491	2.0692663	1.4384944
32.645180280296586	2.132032	1.4601479
32.663443545305896	2.0454845	1.4302044
32.68170766326619	1.9938322	1.4120313
32.69997263476099	1.9718673	1.4042319
32.7182384603741	1.9847062	1.408796
32.7365051406895	1.9283193	1.3886393
32.75477267629144	1.9354428	1.391202
32.77304106776434	1.9876823	1.4098519
32.79131031569289	2.044672	1.4299203
32.809580420661966	2.0008183	1.4145029
32.827851383256714	1.9697412	1.4034747
32.84612320406245	1.9660443	1.4021571
32.86439588366476	1.9560691	1.3985955
32.88266942264945	1.9558989	1.3985345
32.9009438216025	2.0378184	1.4275218
32.9192190811102	2.010953	1.4180807
32.937495201758985	1.9460397	1.3950052
32.95577218413556	1.9292836	1.3889866
32.974050028826866	2.0013046	1.4146748
32.992328736420035	1.9415766	1.3934047
33.010608307502444	1.8872753	1.3737814
33.02888874266169	1.9372967	1.3918681
33.047170042485604	1.965149	1.4018377
33.06545220756225	1.9935305	1.4119244
33.083735238479896	2.0132911	1.4189049
33.10201913582707	2.0457115	1.4302837
33.12030390019248	2.0906641	1.445913
33.138589532165135	2.0300705	1.4248054
33.15687603233419	1.9519249	1.3971131
33.17516340128909	2.0469394	1.4307129
33.19345163961947	2.1605592	1.469884
33.211740747915215	2.0666327	1.4375788
33.23003072676643	1.8859214	1.3732885
33.248321576763466	1.9240642	1.3871064
33.266613298496885	1.9674767	1.4026678
33.28490589255747	1.9607738	1.4002763
33.30319935953626	1.9462805	1.3950915
33.32149370002451	1.9314932	1.3897817
33.339788914613706	1.9435614	1.3941168
33.358085003895575	2.0809832	1.4425613
33.376381968462034	2.1078777	1.4518532
33.39467980890529	1.9634142	1.4012188
33.41297852581774	1.8619083	1.3645176
33.43127811979204	1.8413578	1.3569664
33.44957859142105	1.8345281	1.3544475
33.467879941297866	1.800351	1.3417716
33.486182170015844	1.8219004	1.3497779
33.50448527816853	1.8374938	1.3555418
33.522789266349754	1.8884808	1.37422
33.541094135153514	1.9516973	1.3970317
33.55939988517411	1.9944103	1.4122359
33.57770651700602	2.0207584	1.4215338
33.59601403124398	1.9649018	1.4017496
33.61432242848296	1.9929781	1.4117287
33.632631709318154	2.0065594	1.4165307
33.650941874344994	1.9939816	1.4120841
33.66925292415916	1.9081124	1.3813444
33.68756485935654	1.8971422	1.3773679
33.70587768053328	1.9064354	1.3807373
33.724191388285746	1.9291463	1.3889371
33.74250598321054	1.9920086	1.4113853
33.760821465904506	1.9598991	1.399964
33.77913783696474	1.8398484	1.3564101
33.79745509698852	1.8878784	1.3740009
33.815773246573414	2.0097017	1.4176395
33.8340922863172	1.9587013	1.3995361
33.852412216817896	1.7809191	1.3345108
33.87073303867377	1.8100938	1.3453972
33.889054752483304	1.9300346	1.3892568
33.907377358845245	1.9635819	1.4012786
33.92570085835853	1.8786646	1.3706439
33.94402525162239	1.8534044	1.361398
33.96235053923627	1.8425986	1.3574235
33.980676721799824	1.8188472	1.3486464
33.999003799912984	1.8308104	1.3530744
34.01733177417592	1.8723047	1.3683219
34.03566064518901	2.0252624	1.4231172
34.0539904135529	2.078987	1.4418693
34.07232107986846	2.0187361	1.4208224
34.090652644736785	1.9774818	1.4062296
34.108985108759235	2.0525916	1.4326868
34.12731847253742	2.0140467	1.4191711
34.14565273667313	2.125929	1.4580566
34.16398790176847	2.1830788	1.4775245
34.18232396842574	2.130777	1.4597181
34.20066093724749	2.0361738	1.4269456
34.21899880883651	2.065465	1.4371725
34.23733758379583	2.0303307	1.4248967
34.25567726272874	1.9670142	1.4025028
34.27401784623872	1.8706421	1.3677142
34.29235933492957	1.8717835	1.3681314
34.31070172940526	1.9820985	1.4078702
34.32904503027003	1.9216794	1.3862466
34.347389238128386	1.7812685	1.3346417
34.36573435358502	1.7570131	1.3255237
34.38408037724492	1.8600389	1.3638325
34.402427309713296	1.8381735	1.3557925
34.42077515159559	1.888265	1.3741416
34.43912390349752	1.9277189	1.3884232
34.45747356602499	1.9340737	1.3907098
34.47582413978423	1.8870199	1.3736885
34.49417562538163	1.9618652	1.400666
34.51252802342388	2.132562	1.4603294
34.53088133451789	2.079649	1.4420989
34.54923555927084	1.8785958	1.3706188
34.567590698290104	1.898097	1.3777144
34.58594675218336	1.8740404	1.368956
34.6043037215585	1.8419293	1.357177
34.62266160702365	1.8325603	1.3537209
34.641020409187234	1.7898825	1.3378649
34.65938012865785	1.8246759	1.3508056
34.677740766044394	1.7194281	1.3112696
34.69610232195598	1.7115738	1.3082713
34.714464797002016	2.0071242	1.41673
34.73282819179208	2.092705	1.4466184
34.751192506936064	1.927396	1.3883069
34.76955774304408	1.9836941	1.4084368
34.7879239007265	2.0489285	1.4314079
34.80629098059391	2.0756848	1.4407237
34.824658983257194	2.022275	1.4220672
34.843027909327446	2.0407865	1.428561
34.86139775941603	2.1940296	1.4812257
34.879768534134534	2.186581	1.4787092
34.89814023409483	1.9833887	1.4083283
34.91651285990901	1.8561292	1.3623983
34.93488641218944	1.6794081	1.2959198
34.95326089154871	1.5657464	1.251298
34.97163629859967	1.6190069	1.272402
34.99001263395542	1.6996468	1.3037051
35.00838989822934	1.8359911	1.3549875
35.02676809203499	2.1008675	1.449437
35.04514721598624	2.1165838	1.4548484
35.063527270697215	2.0755944	1.4406923
35.081908256782256	1.9220874	1.3863937
35.10029017485597	1.8225359	1.3500133
35.11867302553321	1.8911653	1.3751965
35.137056809429104	1.8634216	1.365072
35.155441527159006	2.0556931	1.4337689
35.173827179338524	2.1114426	1.4530804
35.19221376658354	1.8612436	1.364274
35.21060128951017	1.9216156	1.3862236
35.2289897487348	1.9400686	1.3928635
35.24737914487405	1.8944194	1.3763791
35.26576947854479	2.0771663	1.4412378
35.28416075036418	2.2080166	1.4859396
35.30255296094958	2.1949127	1.4815238
35.32094611091867	1.9483635	1.3958379
35.33934020088932	2.102183	1.4498907
35.35773523147969	2.2697704	1.5065757
35.3761312033082	2.0740592	1.4401594
35.394528116993506	2.1595733	1.4695487
35.41292597315452	2.1303957	1.4595875
35.431324772410434	1.822403	1.349964
35.449724515380666	1.5557421	1.247294
35.46812520268491	1.8179239	1.348304
35.486526834943106	2.0975852	1.4483043
35.504929412775454	2.1709447	1.4734126
35.52333293680242	1.8717077	1.3681036
35.54173740764471	1.7659616	1.3288949
35.560142825923286	2.0921116	1.4464134
35.5785491922594	2.1549969	1.4679908
35.59695650727454	1.8035443	1.342961
35.61536477159042	2.20624	1.4853417
