0.008763373481513119	0.0	0.0
0.026290120649546365	0.0	0.0
0.043816868432600686	0.03550094	0.18841693
0.06134361724069026	0.13480023	0.3671515
0.07887036748382949	0.18381633	0.42873806
0.0963971195720331	0.22234789	0.4715378
0.11392387391531617	0.20473452	0.452476
0.1314506309236943	0.24108636	0.49100545
0.1489773910071836	0.16255675	0.40318328
0.16650415457580078	0.15203781	0.38992026
0.18403092203956356	0.17998207	0.42424294
0.20155769380849	0.21133225	0.45970887
0.2190844702925996	0.24315763	0.49311015
0.2366112519019124	0.23460184	0.48435715
0.2541380390464497	0.14216264	0.37704462
0.27166483213623416	0.08286326	0.2878598
0.28919163158128947	0.06225283	0.24950518
0.3067184377916406	0.1088866	0.3299797
0.324245251177314	0.14607587	0.38219875
0.34177207214833777	0.15261807	0.39066362
0.3592989011147415	0.20350188	0.45111182
0.37682573848655654	0.27990913	0.5290644
0.39435258467381573	0.2923963	0.5407368
0.41187944008655414	0.23973732	0.48962978
0.42940630513480854	0.15211087	0.39001393
0.446933180228618	0.18956527	0.43539095
0.4644600657780234	0.22683842	0.47627556
0.48198696219306775	0.2172968	0.46615103
0.49951386988379676	0.19089657	0.43691713
0.5170407892602581	0.16138336	0.40172547
0.5345677207325025	0.16269396	0.4033534
0.5520946647105822	0.15982768	0.39978454
0.5696216216045534	0.14869371	0.38560823
0.5871485918244737	0.19112878	0.43718278
0.6046755757804043	0.22680378	0.4762392
0.6222025738824094	0.2232549	0.47249857
0.6397295865405557	0.19774869	0.44468942
0.6572566141649129	0.18969595	0.435541
0.6747836571655547	0.17589639	0.41940004
0.6923107159525568	0.19589846	0.44260418
0.7098377909359992	0.23314592	0.48285186
0.7273648825259653	0.24026302	0.4901663
0.7448919911325411	0.22868131	0.47820634
0.762419117165817	0.21702082	0.46585494
0.7799462610358868	0.18862222	0.4343066
0.7974734231528482	0.17916521	0.4232791
0.8150006039268024	0.14323805	0.37846804
0.8325278037678551	0.13720384	0.37041038
0.8500550230861152	0.1416307	0.37633854
0.8675822622916969	0.18135136	0.4258537
0.8851095217947171	0.22077239	0.46986422
0.9026368020052984	0.257818	0.50775784
0.9201641033335665	0.23982348	0.48971775
0.9376914261896523	0.24191624	0.4918498
0.9552187709836915	0.23197518	0.481638
0.9727461381258234	0.26630983	0.5160521
0.990273528026193	0.27076837	0.5203541
1.0078009410949496	0.29039717	0.5388851
1.0253283777422473	0.25029317	0.5002931
1.0428558383782454	0.26312742	0.5129595
1.0603833234131086	0.29791692	0.5458177
1.0779108332570058	0.34711424	0.589164
1.0954383683201119	0.31867427	0.56451243
1.112965929012607	0.3417923	0.58463
1.1304935157446763	0.47621527	0.6900835
1.1480211289265108	0.52994204	0.7279712
1.1655487689683062	1.4448267	1.2020094
1.1830764362802655	1.7591596	1.3263332
1.200604131272596	2.2345357	1.4948363
1.2181318543555117	2.5715907	1.603618
1.235659605939232	2.5856493	1.6079954
1.253187386433982	4.0715184	2.0178003
1.270715196249994	6.434161	2.5365648
1.2882430357975057	12.066195	3.4736428
1.3057709054867608	17.070267	4.131618
1.3232988057280106	23.11655	4.807967
1.3408267369315112	28.048283	5.296063
1.358354699507526	31.494509	5.6119967
1.3758826938663256	35.343105	5.945007
1.3934107204181858	37.14968	6.0950537
1.410938779573391	37.662308	6.1369624
1.4284668717422309	38.162483	6.177579
1.4459949973350033	37.805397	6.148609
1.4635231567620117	38.209442	6.181379
1.4810513504335687	38.066948	6.169842
1.4985795787599925	37.635067	6.1347427
1.5161078421516088	37.005585	6.0832214
1.5336361410187505	35.51327	5.9593015
1.5511644757717598	35.183533	5.931571
1.5686928468209842	35.684734	5.97367
1.58622125457678	36.47666	6.0395913
1.6037496994495108	37.79441	6.147716
1.621278181849548	37.51743	6.1251473
1.6388067021872719	38.56887	6.210384
1.6563352608730693	38.279865	6.1870723
1.673863858317336	37.803493	6.1484547
1.6913924949304753	36.646267	6.053616
1.7089211711228998	35.386837	5.9486837
1.7264498873050296	34.3227	5.8585577
1.7439786438872935	33.438175	5.782575
1.7615074412801288	32.086052	5.664455
1.779036279893981	31.367363	5.6006575
1.796565160139305	30.17412	5.4930973
1.814094082426564	29.665545	5.4466085
1.8316230471662298	28.99439	5.384644
1.849152054768784	28.189116	5.3093424
1.8666811056447168	27.566381	5.2503695
1.8842102002045273	26.857672	5.182439
1.901739338858724	26.498432	5.1476626
1.9192685220178245	26.062357	5.1051307
1.9367977500923557	25.267641	5.026693
1.9543270234928547	24.411924	4.9408426
1.971856342629867	23.730713	4.871418
1.9893857079139496	23.377193	4.8349967
2.006915119755667	23.086239	4.8048143
2.0244445785655945	22.603743	4.754339
2.0419740847543175	22.271435	4.719262
2.0595036387324317	22.028957	4.6935015
2.0770332409105414	21.483133	4.63499
2.094562891699263	20.99898	4.582464
2.1120925915092217	20.589964	4.5376167
2.129622340751053	20.434309	4.5204325
2.1471521398354043	188.31538	13.722805
2.1646819891729323	444.58185	21.08511
2.182211889174303	440.72824	20.993528
2.1997418402501974	453.22888	21.289173
2.2172718428113023	433.20917	20.813677
2.234801897268317	320.89835	17.913635
2.2523320040319548	17.397343	4.1710124
2.269862163512935	17.081844	4.133019
2.287392376121992	16.741877	4.091684
2.304922642269869	16.494389	4.0613284
2.322452962367322	16.27248	4.033916
2.3399833368251164	15.93792	3.9922323
2.357513766054032	15.615099	3.9515946
2.3750442504648586	15.192094	3.8977036
2.3925747904683963	14.829063	3.8508523
2.410105386475459	14.509218	3.8090968
2.4276360388968707	14.144836	3.7609622
2.445166748143469	14.104383	3.7555804
2.4626975146261025	13.832859	3.7192552
2.4802283387556323	13.624693	3.6911643
2.4977592209429305	13.348573	3.65357
2.5152901615988825	13.218914	3.6357825
2.5328211611343865	13.06274	3.6142414
2.5503522199603523	12.883212	3.5893192
2.5678833384877024	12.692246	3.562618
2.5854145171273712	12.597291	3.5492663
2.6029457562903064	12.338646	3.512641
2.620477056387469	12.157527	3.4867644
2.6380084178298326	11.856648	3.4433484
2.655539841028383	11.670702	3.416241
2.673071326394119	11.602627	3.4062629
2.6906028743380523	11.494913	3.390415
2.708134485271211	11.400823	3.3765104
2.7256661596046325	11.234033	3.3517208
2.743197897749369	10.975535	3.3129346
2.760729700116486	10.755299	3.2795272
2.778261567117063	10.37716	3.22136
2.795793499162193	10.190241	3.1922157
2.8133254966629817	10.074612	3.174053
2.830857560030551	9.9150715	3.1488206
2.8483896896760337	9.901531	3.1466699
2.865921886010578	9.545797	3.0896273
2.883454149445347	9.437344	3.072026
2.9009864803915177	9.374134	3.0617208
2.91851887926028	9.240312	3.039788
2.9360513464628384	9.272333	3.0450506
2.953583882410413	9.059118	3.009837
2.9711164875142373	8.794766	2.9655972
2.9886491621855606	8.523197	2.9194515
3.0061819068356455	8.38799	2.8962028
3.023714721875769	8.385863	2.8958354
3.041247607717225	8.334533	2.886959
3.0587805647713213	8.333336	2.886752
3.0763135934493806	8.308315	2.8824148
3.0938466941627407	8.252803	2.872769
3.1113798673227544	8.185379	2.86101
3.1289131133407904	8.194047	2.8625245
3.1464464326282315	8.105617	2.8470364
3.1639798255964786	7.9284544	2.815751
3.1815132926569443	7.7512136	2.7841
3.1990468342210603	7.665002	2.768574
3.216580450700272	7.5377603	2.7454982
3.2341141425060416	7.41764	2.7235346
3.251647910049847	7.3291273	2.707236
3.2691817537431813	7.294973	2.7009208
3.286715673997555	7.347871	2.7106957
3.3042496712244938	7.2800007	2.6981475
3.32178374583554	7.1496344	2.67388
3.339317898242251	7.066311	2.6582534
3.3568521288562034	6.9312205	2.6327212
3.3743864380889876	6.942545	2.634871
3.3919208263522127	6.8784213	2.6226745
3.4094552940575023	6.8565288	2.6184974
3.4269898416164972	6.7520676	2.598474
3.444524469440858	6.580005	2.5651522
3.4620591779422587	6.483426	2.5462573
3.479593967532391	6.441885	2.538087
3.4971288386229658	6.4655857	2.5427516
3.5146637916257086	6.550235	2.5593426
3.5321988269523628	6.590693	2.5672345
3.5497339450146903	6.478254	2.5452414
3.5672691462244708	6.362839	2.522467
3.5848044309934988	6.2236047	2.4947155
3.60233979973359	6.341845	2.518302
3.619875252856575	6.3980904	2.5294447
3.6374107907743034	6.380725	2.5260098
3.6549464138986427	6.2509074	2.5001814
3.6724821226414788	6.2497964	2.4999592
3.690017917414714	6.247656	2.499531
3.7075537986302702	6.396489	2.529128
3.7250897667000857	6.468787	2.543381
3.7426258220361235	6.5627112	2.561779
3.7601619650503553	6.838283	2.6150112
3.777698196154779	7.284605	2.6990008
3.7952345157614067	8.32851	2.8859158
3.8127709242822716	9.188612	3.0312724
3.830307422129425	11.422528	3.379723
3.847844009714936	30.332651	5.5075088
3.8653806874508954	97.8317	9.890991
3.882917455749409	97.03561	9.850665
3.900454315022606	96.81572	9.839498
3.917991265682631	41.317738	6.4278874
3.9355283081416506	10.865147	3.2962322
3.9530654428118495	8.706189	2.9506252
3.970602670105433	7.4074225	2.721658
3.9881399904346244	6.543101	2.5579486
4.005677404211669	6.4185185	2.5334795
4.023214911848827	6.3476734	2.519459
4.0407525137583855	6.344543	2.5188377
4.058290210352644	6.3560386	2.5211184
4.075828002043927	6.346455	2.5192173
4.0933658892445814	6.329216	2.5157933
4.110903872366966	6.3475223	2.519429
4.128441951823468	6.2969747	2.5093772
4.145980128026488	6.2776737	2.5055287
4.163518401388452	6.254678	2.5009353
4.181056772321807	6.1930666	2.4885874
4.1985952412390155	6.1501923	2.479958
4.216133808552567	6.097696	2.4693513
4.233672474674966	6.1550083	2.480929
4.251211240018741	6.40602	2.5310116
4.268750104996445	6.7612243	2.6002355
4.286289070020643	7.7368236	2.7815146
4.303828135503928	9.432721	3.0712736
4.3213673018589125	29.705257	5.450253
4.3389065694982305	90.874084	9.53279
4.356445938834537	166.22769	12.892932
4.3739854102805085	171.63669	13.101019
4.391524984248844	172.43233	13.131349
4.409064661152262	136.46239	11.681711
4.426604441403504	96.823265	9.839881
4.444144325415337	75.93262	8.713932
4.461684313600543	21.85075	4.6744785
4.47922440637193	22.105318	4.701629
4.496764604142329	20.272778	4.50253
4.5143049073245916	18.52149	4.30366
4.531845316331589	16.473055	4.058701
4.5493858315762195	13.753676	3.708595
4.566926453471405	11.473934	3.3873196
4.584467182430081	9.4439745	3.073105
4.602008018865218	8.2103	2.8653622
4.619548963189798	7.5518045	2.7480547
4.637090015816834	7.109398	2.6663454
4.654631177159353	6.8503118	2.61731
4.672172447630417	6.4717264	2.543959
4.689713827643102	6.307956	2.5115645
4.7072553176105085	6.0851045	2.4668005
4.724796917945764	6.0124793	2.4520357
4.742338629062015	5.961452	2.4416084
4.759880451372434	5.890084	2.4269495
4.777422385290215	5.7713146	2.4023561
4.794964431228581	5.730124	2.3937678
4.812506589600768	5.66232	2.379563
4.830048860820047	5.7115774	2.3898907
4.847591245299709	5.680416	2.3833623
4.8651337434530655	5.6506658	2.3771129
4.882676355693457	5.707602	2.3890588
4.900219082434242	5.732666	2.3942986
4.917761924088813	5.6797314	2.3832188
4.935304881070575	5.6570935	2.3784645
4.952847953792969	5.609217	2.3683786
4.970391142669449	5.53019	2.3516357
4.9879344481135055	5.4847884	2.3419626
5.005477870538642	5.528613	2.3513002
5.023021410358394	5.5924234	2.3648305
5.040565067986324	5.532439	2.3521137
5.05810884383601	5.4510775	2.3347542
5.075652738321066	5.3478904	2.3125505
5.09319675185512	5.3845673	2.320467
5.110740884851836	5.4563417	2.3358815
5.128285137724894	5.517792	2.348998
5.145829510888007	5.585112	2.363284
5.163374004754908	5.5867887	2.3636389
5.1809186197393595	5.5578513	2.3575096
5.198463356255145	5.4537516	2.335327
5.216008214716077	5.3238416	2.3073452
5.233553195535998	5.251425	2.2915988
5.251098299128764	5.312795	2.3049502
5.268643525908272	5.3201385	2.3065426
5.286188876288432	5.398964	2.3235672
5.3037343506831895	5.4270225	2.329597
5.32127994950651	5.4133024	2.3266504
5.3388256731723915	5.337285	2.3102565
5.356371522094851	5.3027506	2.3027701
5.373917496687938	5.3011785	2.3024287
5.391463597365729	5.319052	2.306307
5.40900982454232	5.2927346	2.3005943
5.426556178631843	5.259567	2.2933745
5.444102660048449	5.2244163	2.2856982
5.4616492692063225	5.228674	2.2866294
5.479196006519669	5.2148967	2.2836149
5.496742872402727	5.2677083	2.2951488
5.514289867269756	5.3052325	2.303309
5.531836991535049	5.2844815	2.2988
5.549384245612924	5.2706876	2.2957978
5.566931629917724	5.280719	2.2979815
5.584479144863822	5.2173862	2.28416
5.6020267908656205	5.2532945	2.2920067
5.619574568337545	5.2306924	2.2870708
5.637122477694054	5.283703	2.2986307
5.654670519349629	5.2505455	2.2914069
5.672218693718784	5.274892	2.2967134
5.689767001216059	5.2429895	2.2897575
5.707315442256021	5.227991	2.28648
5.724864017253266	5.174618	2.2747786
5.7424127266224225	5.132999	2.2656124
5.75996157077814	5.1812153	2.2762282
5.777510550135105	5.166483	2.2729897
5.795059665108022	5.1687055	2.2734787
5.812608916111639	5.217413	2.2841656
5.830158303560715	5.3574605	2.3146188
5.847707827870055	5.4294744	2.3301232
5.86525748945448	5.44498	2.3334482
5.8828072887288485	5.5274253	2.3510478
5.900357226108044	5.585134	2.3632889
5.917907302006979	5.6417966	2.3752465
5.9354575168406	6.2434955	2.4986987
5.9530078710238765	6.761612	2.60031
5.970558364971812	7.306876	2.7031233
5.988108999099438	7.606475	2.757984
6.005659773821818	8.257565	2.8735979
6.023210689554039	8.058668	2.8387794
6.040761746711227	8.435563	2.9044042
6.058312945708531	7.798475	2.792575
6.075864286961132	7.3062067	2.7029996
6.093415770884244	6.7236986	2.5930095
6.1109673978931065	6.213056	2.4926002
6.128519168402993	5.602968	2.367059
6.146071082829204	5.414482	2.326904
6.163623141587075	5.2739277	2.2965033
6.181175345091969	5.252073	2.2917402
6.198727693759281	5.2035956	2.2811391
6.216280188004435	5.174586	2.2747717
6.233832828242885	5.134815	2.2660131
6.251385614890126	5.196241	2.2795265
6.268938548361669	5.1859617	2.2772706
6.286491629073067	5.1426687	2.2677453
6.304044857439898	5.06105	2.2496777
6.321598233877777	5.0579014	2.248978
6.339151758802344	5.0497246	2.2471592
6.356705432629277	5.076415	2.2530901
6.37425925577428	5.03062	2.2429044
6.391813228653095	5.0251193	2.2416778
6.409367351681486	5.0019903	2.236513
6.426921625275259	5.0127296	2.2389126
6.44447604985025	5.019283	2.2403755
6.46203062582232	5.020752	2.2407033
6.47958535360737	5.052484	2.2477732
6.497140233621328	5.119344	2.2625968
6.514695266280161	5.076058	2.2530107
6.532250451999859	5.048463	2.2468784
6.549805791196454	5.0036693	2.2368884
6.567361284286002	5.022989	2.2412026
6.584916931684597	5.0605884	2.2495751
6.602472733808367	5.0623775	2.2499728
6.6200286910734665	5.0410004	2.2452173
6.637584803896092	5.048472	2.2468805
6.655141072692462	5.088412	2.255751
6.672697497878842	5.0606623	2.2495916
6.690254079871514	5.0388007	2.2447274
6.707810819086808	5.019746	2.240479
6.725367715941078	5.0220532	2.2409937
6.742924770850719	5.025123	2.2416787
6.760481984232151	5.0257463	2.2418177
6.778039356501836	4.9933953	2.2345905
6.795596888076266	4.989058	2.23362
6.813154579371963	4.9844975	2.2325988
6.830712430805492	5.0692196	2.2514927
6.84827044279344	5.102433	2.2588565
6.865828615752445	5.0594196	2.2493153
6.883386950099159	5.0709686	2.2518811
6.900945446250287	5.035325	2.243953
6.918504104622553	5.0431466	2.245695
6.936062925632727	5.070005	2.2516673
6.953621909697607	5.053824	2.2480712
6.971181057234028	5.097131	2.2576826
6.988740368658859	5.1329026	2.265591
7.006299844389007	5.216188	2.2838976
7.023859484841407	5.32202	2.3069503
7.041419290433036	5.4107704	2.3261063
7.058979261580902	5.5461025	2.3550165
7.0765393987020495	5.7188807	2.3914182
7.094099702213559	6.057808	2.4612615
7.111660172532549	6.381475	2.526158
7.129220810076164	6.7811666	2.6040673
7.146781615261595	7.410644	2.7222497
7.16434258850606	7.7547626	2.7847373
7.181903730226821	8.162128	2.8569438
7.1994650408411704	8.231042	2.8689792
7.217026520766437	8.28804	2.8788958
7.234588170419983	8.518103	2.9185789
7.252149990219215	8.534188	2.9213333
7.269711980581568	8.494875	2.9145968
7.2872741419245175	8.301668	2.8812616
7.304836474665574	7.920156	2.8142772
7.322398979222286	7.5736756	2.752031
7.339961656012233	7.2883883	2.6997015
7.357524505453039	6.9109626	2.628871
7.375087527962357	6.651825	2.5791132
7.392650723957886	6.3769574	2.5252638
7.410214093857353	6.156783	2.4812865
7.427777638078528	5.925508	2.4342365
7.445341357039213	5.650117	2.3769975
7.4629052511572525	5.4591074	2.3364732
7.480469320850524	5.386666	2.3209193
7.498033566536948	5.3737116	2.3181267
7.5155979886344735	5.329684	2.3086107
7.5331625875610975	5.271128	2.2958937
7.550727363734844	5.2759466	2.296943
7.568292317573788	5.2630277	2.294129
7.585857449496025	5.3060193	2.30348
7.603422759919705	5.2608953	2.2936642
7.620988249263007	5.2709255	2.2958496
7.638553917944147	5.309093	2.304147
7.656119766381391	5.3115745	2.3046854
7.673685794993023	5.2656584	2.2947023
7.691252004197388	5.2146974	2.2835712
7.70881839441285	5.2538457	2.292127
7.726384966057826	5.298795	2.301911
7.743951719550762	5.3330684	2.3093438
7.761518655310149	5.2687335	2.2953722
7.779085773754511	5.275633	2.2968745
7.796653075302419	5.289998	2.2999995
7.814220560372475	5.3281546	2.3082795
7.831788229383323	5.3786545	2.3191926
7.8493560827536495	5.387182	2.3210304
7.866924120902174	5.3895307	2.3215363
7.884492344247663	5.4072075	2.3253403
7.9020607532089135	5.489772	2.3430262
7.919629348204771	5.5384502	2.3533912
7.937198129654115	5.5955276	2.3654869
7.954767097975865	5.510655	2.3474784
7.972336253588986	5.3862414	2.3208277
7.989905596912472	5.3553348	2.3141596
8.007475128365371	5.3502707	2.3130653
8.025044848366756	5.4166007	2.3273592
8.042614757335754	5.515919	2.3485994
8.060184855691523	5.614305	2.3694525
8.07775514385327	5.7873464	2.4056904
8.095325622240228	5.8683767	2.4224732
8.112896291271687	5.8880396	2.4265282
8.130467151366968	5.90243	2.4294918
8.148038202945436	5.9413614	2.4374907
8.165609446426497	5.9027867	2.4295652
8.183180882229594	5.9545093	2.4401863
8.200752510774217	6.017398	2.4530385
8.218324332479893	6.0515523	2.4599903
8.235896347766193	6.0932646	2.468454
8.253468557052724	6.044521	2.4585607
8.27104096075914	6.0388427	2.4574056
8.288613559305137	6.0640287	2.462525
8.306186353110448	6.20019	2.4900181
8.32375934259485	6.331073	2.5161624
8.341332528178162	6.3173666	2.5134373
8.358905910280246	6.2540345	2.5008068
8.376479489321003	6.1855664	2.4870799
8.394053265720377	6.2487164	2.4997432
8.411627239898356	6.4123435	2.5322607
8.42920141227497	6.451588	2.5399976
8.44677578327029	6.391457	2.5281332
8.464350353304427	6.278756	2.5057447
8.48192512279754	6.162945	2.482528
8.499500092169827	6.162798	2.4824984
8.51707526184153	6.112454	2.4723377
8.534650632232934	6.19904	2.489787
8.552226203764365	6.192558	2.488485
8.569801976856192	6.1952767	2.4890313
8.587377951928834	6.2418594	2.4983714
8.60495412940274	6.2592363	2.5018466
8.622530509698416	6.406754	2.5311565
8.6401070932364	6.5422873	2.5577896
8.657683880437283	6.632037	2.5752742
8.675260871721695	6.7283707	2.5939102
8.692838067510303	6.86858	2.6207976
8.710415468223834	7.027096	2.650867
8.727993074283043	7.2067943	2.6845474
8.745570886108737	7.1967196	2.6826704
8.763148904121765	7.2468896	2.6920047
8.78072712874302	7.211521	2.6854277
8.798305560393441	7.502908	2.7391436
8.815884199494006	7.726136	2.7795928
8.833463046465745	7.9043565	2.8114688
8.851042101729728	7.9742785	2.8238764
8.86862136570707	8.198104	2.863233
8.886200838818924	8.336342	2.8872724
8.903780521486505	8.453319	2.907459
8.921360414131055	8.630781	2.937819
8.938940517173874	8.777655	2.9627106
8.956520831036297	8.966722	2.9944484
8.97410135613971	9.188333	3.0312262
8.99168209290554	9.25583	3.0423396
9.009263041755265	9.474509	3.078069
9.026844203110405	9.703553	3.1150527
9.044425577392525	9.912769	3.1484551
9.062007165023239	10.030355	3.1670737
9.079588966424197	10.298379	3.2091088
9.097170982017108	10.473715	3.236312
9.11475321222372	11.51506	3.3933847
9.132335657465825	12.390683	3.5200403
9.149918318165264	12.461465	3.53008
9.167501194743924	12.96584	3.600811
9.18508428762374	12.647526	3.556336
9.202667597226693	12.673621	3.560003
9.220251123974803	12.365565	3.5164707
9.237834868290143	11.997929	3.4638026
9.255418830594836	11.7621565	3.4296
9.273003011311046	11.232286	3.3514605
9.290587410860985	11.0274515	3.3207607
9.308172029666911	10.474582	3.236446
9.32575686815113	10.175837	3.1899588
9.343341926735997	8.866443	2.9776573
9.360927205843916	8.571591	2.927728
9.378512705897327	8.389989	2.8965478
9.396098427318728	8.174917	2.8591812
9.413684370530664	8.066078	2.840084
9.431270535955722	8.039729	2.8354416
9.448856924016539	8.027429	2.8332717
9.466443535135806	7.8453503	2.8009553
9.484030369736251	7.8037167	2.7935133
9.501617428240658	7.7923894	2.791485
9.519204711071852	7.834655	2.7990453
9.536792218652714	7.8531375	2.802345
9.55437995140617	7.8828974	2.8076499
9.571967909755191	7.953511	2.820197
9.589556094122802	7.985614	2.825883
9.60714450493207	8.020025	2.831965
9.624733142606116	8.040337	2.8355486
9.642322007568108	8.042114	2.8358622
9.659911100241267	8.077549	2.842103
9.677500421048851	8.123651	2.8502018
9.695089970414175	8.165663	2.8575623
9.712679748760609	8.17634	2.85943
9.730269756511557	8.172085	2.858686
9.747859994090492	8.199033	2.8633952
9.765450461920915	8.274948	2.876621
9.78304116042639	8.373662	2.893728
9.800632090030527	8.422054	2.9020777
9.81822325115699	8.393095	2.897084
9.835814644229481	8.302946	2.8814833
9.853406269671762	8.251013	2.8724577
9.870998127907646	8.281312	2.8777268
9.888590219360985	8.319629	2.8843768
9.906182544455698	8.349733	2.8895905
9.923775103615734	8.413179	2.9005482
9.941367897265108	8.414516	2.9007785
9.958960925827878	8.368128	2.8927717
9.97655418972816	8.295263	2.8801498
9.994147689390106	8.314212	2.8834374
10.011741425237934	8.319071	2.88428
10.029335397695904	8.311991	2.8830523
10.04692960718833	8.287413	2.8787866
10.06452405413958	8.25891	2.873832
10.082118738974064	8.257349	2.8735604
10.099713662116246	8.225081	2.8679402
10.117308823990651	8.194548	2.862612
10.134904225021844	8.260552	2.8741176
10.152499865634445	8.289673	2.8791792
10.170095746253125	8.3559885	2.8906727
10.18769186730261	8.297685	2.8805702
10.205288229207675	8.269751	2.8757174
10.222884832393145	8.265848	2.8750389
10.2404816772839	8.213855	2.8659823
10.258078764304868	8.145235	2.8539858
10.275676093881035	8.103436	2.8466535
10.293273666437438	8.134341	2.8520768
10.310871482399158	8.155224	2.8557353
10.32846954219134	8.1490965	2.8546622
10.346067846239173	8.19006	2.861828
10.363666394967908	8.211188	2.8655171
10.38126518880283	8.222517	2.8674932
10.398864228169298	8.267755	2.8753703
10.416463513492713	8.324196	2.8851683
10.434063045198531	8.3185835	2.8841956
10.451662823712262	8.374048	2.8937948
10.469262849459467	8.344495	2.888684
10.486863122865758	8.253891	2.8729587
10.504463644356806	8.182809	2.860561
10.522064414358338	8.141396	2.853313
10.539665433296118	8.124343	2.8503232
10.557266701595987	8.086243	2.843632
10.574868219683818	7.957399	2.8208861
10.592469987985552	7.8061037	2.7939405
10.610072006927185	7.6844893	2.7720912
10.627674276934751	7.6487494	2.7656372
10.64527679843435	7.5292816	2.7439537
10.662879571852143	7.332317	2.7078252
10.680482597614331	7.1959887	2.682534
10.698085876147173	7.139337	2.6719537
10.715689407876988	7.094533	2.6635563
10.733293193230146	7.0355096	2.6524534
10.750897232633072	6.974322	2.6408942
10.76850152651225	6.871849	2.621421
10.786106075294207	6.779796	2.603804
10.803710879405534	6.63127	2.5751252
10.821315939272877	6.461152	2.5418797
10.83892125532294	6.365875	2.5230684
10.856526827982472	6.290922	2.508171
10.874132657678285	6.280048	2.5060024
10.891738744837243	6.271365	2.5042694
10.909345089886271	6.266432	2.5032842
10.926951693252343	6.206836	2.4913523
10.944558555362494	6.123413	2.474553
10.96216567664381	6.029713	2.4555473
10.979773057523436	5.94588	2.4384174
10.997380698428573	5.9543486	2.4401534
11.014988599786477	5.893092	2.4275692
11.032596762024461	5.867971	2.4223895
11.050205185569892	5.759032	2.3997984
11.067813870850198	5.6704235	2.3812652
11.085422818292859	5.6198397	2.37062
11.10303202832541	5.5785604	2.3618977
11.120641501375454	5.5165453	2.3487327
11.138251237870636	5.3997297	2.323732
11.155861238238671	5.359493	2.3150578
11.173471502907317	5.3015127	2.3025014
11.191082032304402	5.276749	2.2971175
11.208692826857805	5.2310705	2.2871535
11.226303886995465	5.145798	2.2684352
11.243915213145371	5.0393147	2.2448418
11.261526805735578	4.941336	2.2229116
11.279138665194196	4.8503213	2.2023444
11.296750791949393	4.846767	2.2015374
11.314363186429393	4.87738	2.2084792
11.331975849062479	4.9054456	2.214824
11.34958878027699	4.8619246	2.2049773
11.36720198050133	4.740509	2.177271
11.384815450163948	4.651018	2.156622
11.402429189693366	4.614881	2.1482275
11.420043199518153	4.5597596	2.1353593
11.437657480066942	63.52128	7.9700236
11.455272031768422	85.21971	9.231452
11.472886855051353	107.54034	10.370166
11.490501950344528	99.1291	9.95636
11.508117318076819	84.49477	9.192103
11.52573295867715	45.91522	6.776077
11.543348872574514	4.2264924	2.0558436
11.560965060197946	4.2174063	2.0536325
11.57858152197655	4.2056303	2.0507634
11.59619825833949	4.198275	2.0489693
11.613815269715985	4.122216	2.0303242
11.631432556535323	38.617245	6.2142773
11.649050119226837	83.15148	9.118744
11.666667958219929	93.50728	9.669916
11.68428607394406	107.719315	10.378792
11.701904466828756	82.53466	9.084859
11.719523137303586	65.408806	8.087571
11.737142085798196	4.6775336	2.1627607
11.754761312742286	3.7564435	1.9381547
11.772380818565619	3.7511597	1.9367911
11.790000603698015	3.7338328	1.9323128
11.80762066856935	3.7028885	1.9242891
11.825241013609572	3.6591074	1.9128793
11.842861639248683	3.610565	1.9001486
11.860482545916748	3.5561159	1.8857666
11.878103734043883	3.5209637	1.8764231
11.895725204060282	3.4476104	1.8567742
11.91334695639619	3.4371107	1.8539447
11.930968991481919	3.3967526	1.8430281
11.948591309747824	3.397788	1.843309
11.966213911624347	3.3777015	1.8378525
11.98383679754198	3.373798	1.8367901
12.001459967931268	3.3787107	1.838127
12.019083423222835	3.3315916	1.8252648
12.036707163847352	3.3187804	1.8217521
12.05433119023556	3.2548525	1.804121
12.071955502818259	3.1947467	1.7873855
12.089580102026313	3.16185	1.7781591
12.107204988290643	3.1432912	1.772933
12.12483016204224	3.1848342	1.7846104
12.142455623712152	3.1961927	1.78779
12.16008137373149	3.1869414	1.7852007
12.177707412531431	3.1698315	1.7804021
12.19533374054321	3.149914	1.7747997
12.212960358198126	3.1071882	1.7627218
12.230587265927545	3.0928771	1.7586578
12.248214464162889	3.0906208	1.7580161
12.265841953335649	3.1131942	1.7644246
12.283469733877375	3.083429	1.7559695
12.301097806219685	3.0475187	1.7457144
12.31872617079425	3.063478	1.7502794
12.336354828032825	3.0479453	1.7458365
12.353983778367205	3.0168657	1.7369127
12.371613022229262	2.9869125	1.7282686
12.389242560050928	3.0027502	1.7328445
12.406872392264201	3.0160208	1.7366694
12.424502519301143	2.9811075	1.7265884
12.442132941593874	2.9291646	1.7114803
12.459763659574586	2.9116428	1.7063537
12.477394673675532	2.887559	1.6992819
12.49502598432903	2.8452084	1.6867746
12.51265759196746	2.819175	1.67904
12.530289497023267	2.8091905	1.676064
12.547921699928967	2.815455	1.6779318
12.565554201117134	2.8106227	1.6764911
12.583187001020404	2.8162107	1.678157
12.600820100071486	2.8144033	1.6776184
12.618453498703152	2.8301282	1.6822985
12.636087197348235	2.792201	1.6709881
12.65372119643964	2.7948241	1.6717727
12.671355496410326	2.8220708	1.6799021
12.68899009769333	2.8573487	1.6903694
12.706625000721749	2.8834999	1.6980871
12.724260205928752	2.9226446	1.7095743
12.741895713747551	2.9593618	1.7202796
12.759531524611454	2.996144	1.7309374
12.777167638953818	2.991383	1.7295616
12.794804057208072	2.9890168	1.7288773
12.812440779807702	3.0187135	1.7374445
12.830077807186271	3.20315	1.7897346
12.847715139777405	3.281438	1.811474
12.865352778014795	3.5111492	1.8738061
12.882990722332197	3.6170313	1.9018495
12.90062897316344	3.720482	1.9288552
12.918267530942412	3.7904012	1.9468952
12.935906396103071	3.6598105	1.9130632
12.953545569079449	3.8235924	1.9554008
12.971185050305628	3.6570675	1.9123461
12.988824840215775	3.6907876	1.9211422
13.006464939244115	3.7014358	1.9239116
13.024105347824943	3.4943776	1.8693254
13.041746066392617	3.5533314	1.8850282
13.05938709538157	3.3217528	1.8225676
13.077028435226296	3.3271022	1.8240346
13.094670086361363	3.251514	1.8031955
13.112312049221401	3.1916327	1.7865142
13.129954324241112	3.108688	1.7631472
13.147596911855258	2.9114954	1.7063105
13.165239812498685	2.8452349	1.6867824
13.182883026606293	2.7840805	1.6685565
13.200526554613058	2.758953	1.6610097
13.218170396954017	2.7223654	1.6499592
13.235814554064284	2.7444074	1.6566253
13.253459026379034	2.764432	1.6626581
13.271103814333523	2.7711403	1.6646743
13.288748918363058	2.7642508	1.6626036
13.306394338903031	2.7735436	1.665396
13.32404007638889	2.7020483	1.6437908
13.341686131256164	2.6915393	1.6405911
13.359332503940449	2.6605616	1.6311228
13.376979194877402	2.6967132	1.6421672
13.394626204502751	2.7310975	1.6526033
13.412273533252307	2.7513773	1.6587276
13.429921181561937	2.7033854	1.6441975
13.447569149867581	2.7534254	1.6593449
13.465217438605247	2.771018	1.6646376
13.482866048211022	2.761607	1.6618084
13.500514979121052	2.716775	1.6482642
13.518164231771568	2.702787	1.6440154
13.535813806598844	2.746577	1.65728
13.553463704039254	2.7285933	1.6518455
13.571113924529229	2.713274	1.6472019
13.588764468505275	2.7292728	1.6520511
13.606415336403956	2.7606854	1.6615311
13.624066528661917	2.7633011	1.662318
13.641718045715882	2.8238494	1.6804314
13.659369888002635	2.9067686	1.7049248
13.67702205595903	2.9915817	1.7296189
13.694674550021993	3.0461197	1.7453136
13.712327370628532	3.1096117	1.7634091
13.729980518215713	3.19084	1.7862922
13.747633993220681	3.275213	1.809755
13.765287796080647	3.27224	1.8089334
13.7829419272329	3.3325386	1.8255242
13.800596387114801	3.338543	1.827168
13.818251176163775	3.3894298	1.8410404
13.835906294817324	3.4157603	1.8481776
13.853561743513023	3.4309683	1.8522873
13.871217522688525	3.457903	1.8595437
13.888873632781538	3.5051055	1.8721927
13.906530074229858	3.5862138	1.8937302
13.92418684747135	3.6208866	1.9028628
13.941843952943948	3.6049385	1.8986676
13.959501391085665	3.5449867	1.8828135
13.977159162334578	3.4517694	1.8578938
13.994817267128846	3.4225116	1.8500031
14.012475705906693	3.3231542	1.822952
14.030134479106424	3.254455	1.8040109
14.047793587166414	3.1955726	1.7876165
14.065453030525108	3.1406684	1.7721931
14.083112809621026	3.1053855	1.7622104
14.100772924892766	3.0050461	1.7335069
14.118433376778997	2.9246423	1.7101586
14.136094165718458	2.8262722	1.6811521
14.153755292149969	2.804529	1.6746728
14.171416756512416	2.7944613	1.6716642
14.189078559244768	2.7837253	1.66845
14.20674070078606	2.6798596	1.6370277
14.224403181575408	2.5367892	1.59273
14.242066002051999	2.4850965	1.5764189
14.259729162655093	2.4703345	1.5717298
14.277392663824022	2.466547	1.5705245
14.295056505998208	2.4614058	1.5688868
14.312720689617128	2.4497766	1.5651762
14.330385215120348	2.444855	1.5636032
14.348050082947497	2.4315996	1.5593587
14.3657152935383	2.414528	1.5538751
14.383380847332528	2.4037702	1.5504097
14.401046744770051	2.3985884	1.5487376
14.418712986290798	2.3857267	1.5445797
14.436379572334793	2.3934033	1.5470628
14.454046503342123	2.384611	1.5442185
14.471713779752946	2.378907	1.5423706
14.489381402007504	2.3499873	1.5329669
14.507049370546113	2.334268	1.5278312
14.524717685809168	2.387745	1.545233
14.542386348237134	2.4399657	1.562039
14.560055358270553	2.4677203	1.5708979
14.577724716350051	2.5013163	1.581555
14.595394422916325	2.481385	1.5752412
14.61306447841015	2.4916441	1.5784943
14.63073488327237	2.46552	1.5701975
14.648405637943917	2.46427	1.5697994
14.6660767428658	2.4460578	1.5639877
14.683748198479094	2.4570222	1.5674891
14.701420005224954	2.5548344	1.598385
14.719092163544628	2.6515324	1.6283526
14.73676467387942	2.7190878	1.6489657
14.754437536670727	2.6928334	1.6409855
14.772110752360014	2.6822605	1.6377609
14.78978432138882	2.6810832	1.6374013
14.807458244198777	2.743386	1.656317
14.82513252123159	2.729314	1.6520636
14.842807152929028	2.772079	1.6649562
14.860482139732962	2.7462354	1.657177
14.87815748208531	2.746725	1.6573247
14.8958331804281	2.6973712	1.6423676
14.91350923520342	2.6546998	1.6293249
14.931185646853438	2.7037716	1.6443149
14.948862415820408	2.721719	1.6497633
14.966539542546656	2.7572176	1.6604872
14.98421702747459	2.7362795	1.6541703
15.001894871046696	2.736941	1.6543703
15.019573073705542	2.7158253	1.6479762
15.037251635893766	2.6908991	1.640396
15.054930558054092	2.6913915	1.6405461
15.072609840629323	2.7501721	1.6583643
15.090289484062351	2.9000401	1.7029505
15.107969488796124	3.218115	1.7939105
15.125649855273691	3.6334722	1.9061669
15.14333058393817	4.1372066	2.0340123
15.161011675232768	5.1237297	2.2635658
15.17869312960076	6.532467	2.555869
15.196374947485506	8.341781	2.888214
15.214057129330447	11.403757	3.376945
15.231739675579114	16.044968	4.005617
15.249422586675102	21.096846	4.59313
15.267105863062092	24.211077	4.9204755
15.284789505183847	24.426914	4.942359
15.302473513484218	22.455181	4.73869
15.320157888407127	18.946224	4.352726
15.337842630396578	14.8087845	3.8482184
15.355527739896656	11.513917	3.3932164
15.37321321735153	8.929291	2.9881918
15.39089906320545	6.5431614	2.5579605
15.408585277902748	4.8957105	2.2126253
15.42627186188783	3.7858536	1.945727
15.443958815605198	3.235893	1.7988588
15.461646139499424	2.96676	1.7224284
15.479333834015168	2.810965	1.6765933
15.497021899597165	2.7306874	1.6524792
15.514710336690234	2.682075	1.6377041
15.53239914573928	2.6117508	1.6160913
15.550088327189297	2.577859	1.6055713
15.567777881485336	2.539749	1.5936589
15.58546780907256	2.533965	1.5918432
15.6031581103962	2.5262873	1.5894299
15.620848785901568	2.4826713	1.5756495
15.638539836034063	2.451995	1.5658847
15.656231261239173	2.4274986	1.5580432
15.673923061962451	2.451013	1.5655712
15.691615238649552	2.4691477	1.5713521
15.709307791746202	2.4668484	1.5706204
15.727000721698221	2.4620252	1.5690842
15.744694028951498	2.4638371	1.5696615
15.76238771395202	2.437649	1.5612972
15.780081777145844	2.416986	1.5546659
15.797776218979125	2.4036345	1.5503659
15.815471039898094	2.397116	1.5482622
15.833166240349064	2.3885534	1.5454946
15.850861820778437	2.389344	1.5457503
15.868557781632699	2.378876	1.5423605
15.886254123358412	2.375055	1.5411214
15.903950846402232	2.4126706	1.5532774
15.921647951210897	2.4155934	1.5542179
15.939345438231225	2.4193668	1.5554314
15.957043307910133	2.381965	1.5433615
15.974741560694602	2.4012578	1.5495992
15.992440197031714	2.3737588	1.5407008
16.01013921736862	2.3356318	1.5282774
16.02783862215259	2.3295956	1.5263013
16.045538411830933	2.3824947	1.5435332
16.06323858685107	2.4274495	1.5580274
16.080939147660512	2.410684	1.5526378
16.09864009470684	2.3858812	1.5446298
16.11634142843774	2.3750641	1.5411243
16.134043149300954	2.3977134	1.5484551
16.15174525774433	2.4516668	1.5657799
16.169447754215817	2.483575	1.5759363
16.18715063916342	2.4650338	1.5700426
16.204853913035244	2.4336512	1.5600164
16.222557576279478	2.4441366	1.5633734
16.240261629344403	22.471401	4.740401
16.257966072678386	43.02481	6.55933
16.275670906729868	38.167816	6.1780105
16.293376131947387	2.6031656	1.6134329
16.31108174877957	2.6465054	1.6268083
16.328787757675133	2.6464612	1.6267948
16.34649415908287	2.6465735	1.6268293
16.364200953451657	2.6398277	1.6247547
16.38190814123048	2.6415577	1.6252869
16.39961572286839	2.684324	1.6383907
16.41732369881455	2.7056339	1.6448811
16.43503206951817	2.7391582	1.6550403
16.45274083542859	2.8013206	1.6737146
16.47044999699522	2.8654842	1.6927742
16.488159554667558	2.8892796	1.6997881
16.505869508895184	2.8943043	1.7012655
16.523579860127786	2.936065	1.7134949
16.541290608815117	3.0252528	1.7393254
16.559001755407035	3.0508	1.7466539
16.57671330035348	3.1221426	1.7669586
16.59442524410448	3.1531205	1.7757028
16.61213758711015	3.2136528	1.7926664
16.629850329820705	3.2579591	1.8049817
16.647563472686436	3.3435657	1.828542
16.665277016157724	3.4063396	1.8456272
16.682990960685053	3.4754062	1.8642441
16.70070530671898	3.5158722	1.8750659
16.718420054710155	3.51181	1.8739824
16.736135205109335	3.5157952	1.8750454
16.753850758367335	3.5865073	1.8938076
16.771566714935087	3.6460958	1.9094752
16.789283075263597	3.7566788	1.9382154
16.80699983980398	3.8525367	1.962788
16.82471700900741	3.9243772	1.9810041
16.84243458332518	3.9599748	1.9899685
16.860152563208665	3.989604	1.9973993
16.87787094910932	4.0066	2.0016494
16.89558974147871	4.074191	2.0184627
16.913308940768466	4.1695857	2.0419564
16.931028547430333	4.2696247	2.066307
16.94874856191613	4.318441	2.078086
16.966468984677785	4.351258	2.0859668
16.98418981616729	4.4168625	2.1016333
17.00191105683676	4.439728	2.1070662
17.019632707138374	4.481145	2.1168716
17.03735476752442	4.541313	2.1310358
17.05507723844728	4.6159706	2.148481
17.072800120359403	4.709674	2.1701784
17.090523413713353	4.746124	2.17856
17.108247118961785	4.693517	2.1664526
17.125971236557437	4.6586742	2.1583962
17.143695766953133	4.679215	2.1631494
17.161420710601806	4.7114544	2.1705885
17.179146067956477	4.7138224	2.171134
17.19687183947025	4.732769	2.1754928
17.21459802559634	4.7277493	2.1743388
17.232324626788028	4.6663113	2.1601646
17.25005164349871	4.6389236	2.153816
17.267779076181863	4.666915	2.1603043
17.285506925291074	4.666441	2.1601946
17.30323519127999	4.687181	2.16499
17.320963874602384	4.6650796	2.1598794
17.33869297571211	4.6123104	2.147629
17.356422495063114	4.5647984	2.136539
17.37415243310944	4.5012937	2.1216252
17.391882790305218	4.4464426	2.108659
17.40961356710468	4.4557304	2.11086
17.42734476396215	4.5375614	2.1301553
17.445076381332044	4.5666423	2.1369703
17.462808419668868	4.5850196	2.1412659
17.48054087942723	4.710691	2.1704125
17.498273761061835	5.0366316	2.244244
17.51600706502747	5.5142493	2.348244
17.533740791779024	6.1886983	2.4877095
17.551474941771485	7.5977335	2.7563987
17.56920951545993	8.748882	2.957851
17.586944513299528	11.022614	3.3200321
17.60467993574556	12.684824	3.5615761
17.622415783253373	14.320881	3.784294
17.64015205627843	15.72039	3.9648948
17.657888755276293	16.77258	4.0954337
17.675625880702604	17.237112	4.15176
17.69336343301311	16.997005	4.1227427
17.71110141266366	16.355728	4.0442214
17.728839820110178	15.416627	3.9264014
17.746578655808705	14.550409	3.8144999
17.764317920215372	13.097417	3.6190352
17.7820576137864	11.557396	3.399617
17.79979773697811	9.497775	3.081846
17.81753829024692	7.558842	2.7493348
17.835279274049356	5.9361897	2.4364297
17.85302068884201	4.87992	2.209054
17.870762535081607	4.2382555	2.0587025
17.888504813224934	3.9129047	1.9781064
17.90624752372891	3.764006	1.9401046
17.923990667050536	3.6866877	1.9200749
17.941734243646895	3.6031275	1.8981906
17.959478253975185	3.5577087	1.886189
17.9772226984927	3.4817717	1.8659506
17.994967577656833	3.4411004	1.8550203
18.01271289192506	3.4415784	1.8551491
18.030458641754965	3.4349444	1.8533603
18.04820482760425	3.4313612	1.8523934
18.06595144993067	3.3388758	1.8272591
18.083698509192125	3.283459	1.8120317
18.101446005846576	3.2456684	1.8015739
18.119193940352105	3.2696974	1.8082305
18.136942313166887	3.2641306	1.8066905
18.1546911247492	3.2215168	1.7948585
18.1724403755574	3.2017775	1.7893511
18.19019006604997	3.1564548	1.7766415
18.207940196685467	3.1366296	1.7710532
18.225690767922575	3.0956948	1.7594587
18.243441780220046	3.129151	1.7689407
18.261193234036764	3.1595485	1.7775118
18.278945129831676	3.1705294	1.780598
18.29669746806386	3.1297	1.7690958
18.314450249192483	3.0950704	1.7592812
18.3322034736768	3.0416107	1.7440214
18.349957141976184	3.0284486	1.7402438
18.3677112545501	3.0380201	1.7429917
18.385465811858108	3.09958	1.7605624
18.403220814359884	3.1131773	1.7644198
18.420976262515172	3.1689272	1.780148
18.43873215678387	3.1638138	1.7787113
18.456488497625923	3.1495082	1.7746854
18.474245285501407	3.203233	1.7897578
18.492002520870486	3.2552512	1.8042314
18.50976020419343	3.3458066	1.8291546
18.527518335930615	3.6448874	1.9091588
18.545276916542516	4.285736	2.0702019
18.563035946489688	4.478859	2.1163316
18.580795426232832	4.9123206	2.2163756
18.598555356232698	4.765171	2.1829271
18.616315736950185	5.133796	2.2657883
18.63407656884626	4.8083615	2.1927977
18.65183785238201	5.0732856	2.2523956
18.669599588018617	4.844016	2.2009125
18.68736177621737	4.8690867	2.2066007
18.705124417439652	4.810667	2.1933234
18.72288751214696	4.5754995	2.1390417
18.740651060800886	4.664632	2.159776
18.758415063863115	4.364187	2.0890636
18.77617952179546	4.509233	2.1234956
18.793944435059814	4.246523	2.0607092
18.811709804118184	4.2089443	2.0515711
18.829475629432675	4.1771426	2.0438058
18.8472419114655	4.0009212	2.0002303
18.86500865067897	4.1262836	2.0313256
18.88277584753551	3.7900457	1.9468039
18.90054350249763	3.8538785	1.9631298
18.918311616027957	3.5890846	1.894488
18.936080188589226	3.478588	1.8650974
18.953849220644265	3.1184552	1.7659148
18.971618712656007	2.9133668	1.7068588
18.9893886650875	2.8500881	1.6882204
19.007159078401887	8.011394	2.8304405
19.024929953062408	32.94189	5.7395024
19.042701289532435	32.895985	5.7355022
19.060473088275405	25.439327	5.043741
19.07824534975489	2.6533718	1.6289173
19.096018074434568	2.6618626	1.6315216
19.113791262778197	2.6541784	1.6291649
19.13156491524966	2.6466148	1.626842
19.149339032312945	2.6189337	1.618312
19.167113614432136	2.6055794	1.6141807
19.184888662071433	2.617647	1.6179143
19.202664175695123	2.602862	1.6133387
19.220440155767623	2.6033924	1.6135031
19.238216602753447	2.572786	1.6039907
19.2559935171172	2.5792568	1.6060065
19.27377089932361	2.5413256	1.5941535
19.291548749837514	2.54387	1.5949514
19.309327069123835	2.5313017	1.5910065
19.32710585764763	2.5464575	1.5957624
19.344885115874032	2.5307078	1.5908198
19.362664844268313	2.522536	1.5882493
19.380445043295822	2.5050585	1.5827377
19.39822571342203	2.5315928	1.591098
19.41600685511252	2.4980304	1.5805159
19.43378846883297	2.47746	1.5739949
19.451570555049173	2.4784825	1.5743197
19.469353114227037	2.540382	1.5938575
19.48713614683254	2.5707626	1.6033598
19.50491965333182	2.5316586	1.5911187
19.52270363419109	2.4892967	1.5777506
19.540488089876686	2.4617538	1.5689977
19.55827302085503	2.45324	1.5662822
19.576058427592674	2.4472136	1.5643573
19.593844310556282	2.4497383	1.565164
19.611630670212598	2.47518	1.5732704
19.629417507028506	2.5196803	1.5873501
19.64720482147098	2.5384998	1.5932671
19.6649926140071	2.5542881	1.598214
19.682780885104084	2.5369914	1.5927936
19.70056963522921	2.5362036	1.5925462
19.718358864849908	2.549337	1.5966643
19.7361485744337	2.5632377	1.6010114
19.753938764448215	2.5747159	1.6045921
19.771729435361202	2.5444932	1.5951468
19.789520587640506	2.532742	1.591459
19.807312221754092	2.537213	1.5928632
19.825104338170043	2.5409422	1.5940334
19.842896937356517	2.5176003	1.5866947
19.860690019781824	2.5132499	1.5853232
19.87848358591436	2.5198853	1.5874146
19.896277636222635	2.5284417	1.5901074
19.914072171175278	2.5305684	1.590776
19.931867191241015	2.5135047	1.5854037
19.94966269688869	2.512794	1.5851794
19.967458688587264	2.5020928	1.5818005
19.985255166805807	2.5037718	1.5823312
20.00305213201348	2.4946907	1.579459
20.020849584679578	2.425998	1.5575615
20.038647525273507	2.4177952	1.5549262
20.05644595426477	2.4187174	1.5552226
20.07424487212299	2.461908	1.5690469
20.092044279317903	2.469368	1.5714223
20.109844176319353	2.4786744	1.5743806
20.127644563597304	2.501269	1.5815401
20.145445441621817	2.487056	1.5770403
20.16324681086307	2.4217613	1.5562009
20.181048671791373	2.404215	1.5505532
20.198851024877122	2.410774	1.5526668
20.216653870590836	2.412073	1.553085
20.234457209403146	2.411253	1.5528209
20.252261041784802	2.4199843	1.5556298
20.270065368206662	2.4024603	1.5499872
20.287870189139685	2.3715792	1.5399933
20.305675505054968	2.3759968	1.5414269
20.323481316423702	2.361132	1.5365975
20.341287623717207	2.3760588	1.541447
20.359094427406884	2.3733468	1.540567
20.376901727964288	2.3854125	1.544478
20.39470952586107	2.3596337	1.5361099
20.41251782156899	2.3599453	1.5362114
20.430326615559935	2.3833988	1.543826
20.448135908305886	2.3886893	1.5455385
20.465945700278965	2.368431	1.5389708
20.483755991951384	2.3387477	1.5292965
20.50156678379548	2.3424842	1.5305176
20.519378076283708	2.3486865	1.5325425
20.537189869888635	2.3642454	1.5376103
20.55500216508294	2.3443458	1.5311257
20.572814962339415	2.3327827	1.527345
20.59062826213098	2.3356392	1.5282798
20.60844206493066	2.3665893	1.5383723
20.626256371211593	2.3942168	1.5473257
20.644071181447032	2.3927503	1.5468518
20.66188649611036	2.3897142	1.5458701
20.67970231567506	2.3689072	1.5391254
20.697518640614742	2.3680406	1.5388439
20.715335471403122	2.374506	1.5409433
20.73315280851404	2.3904464	1.5461068
20.750970652421447	2.3757625	1.5413508
20.768789003599412	2.3501902	1.533033
20.786607862522136	2.3380384	1.5290645
20.8044272296639	2.3421416	1.5304058
20.82224710549913	2.3580263	1.5355866
20.84006749050237	2.3269198	1.5254245
20.857888385148268	3.8499937	1.9621401
20.8757097899116	45.91989	6.7764215
20.893531705267254	64.76759	8.047832
20.911354131690224	83.79474	9.153947
20.92917706965566	69.066414	8.31062
20.94700051963877	50.141808	7.081088
20.96482448211493	29.426264	5.424598
20.982648957559622	4.1670184	2.0413277
21.00047394644843	2.289507	1.5131117
21.01829944925707	2.274435	1.508123
21.036125466461375	2.2733123	1.5077507
21.053951998537297	2.2661743	1.5053818
21.071779045960906	2.2377503	1.4959112
21.089606609208378	2.2266352	1.4921914
21.10743468875603	2.225606	1.4918464
21.12526328508028	2.237257	1.4957463
21.143092398657675	2.242566	1.49752
21.16092202996488	2.2416244	1.4972055
21.17875217947867	2.2335505	1.4945068
21.19658284767596	2.2204628	1.4901217
21.21441403503377	2.2024167	1.4840541
21.232245742029225	2.1840754	1.4778618
21.2500779691396	2.1733224	1.4742193
21.26791071684227	2.1505916	1.4664896
21.28574398561475	2.1837082	1.4777375
21.30357777593465	2.213384	1.4877446
21.321412088279704	2.225499	1.4918106
21.339246923127792	2.1966698	1.4821167
21.357082280956888	2.1728985	1.4740754
21.3749181622451	2.1583219	1.4691228
21.392754567470647	2.1524158	1.4671113
21.41059149711187	2.144593	1.4644428
21.42842895164726	2.1618645	1.470328
21.446266931555378	2.1470757	1.4652903
21.464105437314945	2.156911	1.4686426
21.481944469404798	2.146258	1.4650114
21.49978402830388	2.1225436	1.4568952
21.51762411449127	2.103754	1.4504324
21.53546472844617	2.0998266	1.4490778
21.553305870647876	2.1381063	1.4622265
21.571147541575865	2.1599195	1.4696665
21.58898974170967	2.144356	1.464362
21.60683247152899	2.133347	1.4605982
21.62467573151363	2.1059096	1.4511752
21.642519522143523	2.0939744	1.4470571
21.660363843898722	2.062403	1.4361069
21.6782086972594	2.0611129	1.4356576
21.696054082705864	2.0623336	1.4360827
21.713900000718535	2.064189	1.4367286
21.73174645177795	2.0705686	1.4389471
21.749593436364794	2.0726361	1.4396653
21.767440954959845	2.0824983	1.4430864
21.785289008044032	2.0943866	1.4471996
21.803137596098388	2.1148882	1.4542655
21.820986719604086	2.1068456	1.4514977
21.838836379042412	2.0877428	1.4449023
21.85668657489478	2.0457542	1.4302987
21.87453730764273	2.038176	1.427647
21.892388577767914	2.004917	1.4159509
21.91024038575213	1.9949778	1.4124368
21.928092732077285	1.9853182	1.4090132
21.945945617225426	2.001572	1.4147692
21.963799041678694	1.9931272	1.4117815
21.981653005919398	31.33745	5.597986
21.999507510429943	78.14275	8.839839
22.01736255569286	73.10427	8.550103
22.035218142190818	4.1902204	2.0470028
22.05307427040661	1.9980377	1.4135196
22.07093094082315	1.9749789	1.4053395
22.088788153923474	1.9673326	1.4026164
22.106645910190746	2.0097022	1.4176396
22.12450421010827	2.0263686	1.4235058
22.142363054159464	2.0174806	1.4203805
22.16022244282787	1.9882803	1.410064
22.178082376597164	1.97379	1.4049164
22.195942855951145	1.992374	1.4115148
22.213803881373742	1.9876418	1.4098375
22.231665453349002	1.9797298	1.4070287
22.24952757236111	1.9737757	1.4049113
22.26739023889438	1.9951762	1.412507
22.28525345343323	2.0189676	1.4209038
22.30311721646225	2.0212164	1.4216949
22.320981528466113	2.0266883	1.4236181
22.33884638992964	2.0186224	1.4207823
22.356711801337788	1.9947679	1.4123626
22.37457776317561	1.9768023	1.405988
22.392444275928337	1.9928306	1.4116765
22.410311340081282	1.976569	1.405905
22.428178956119904	1.9729162	1.4046054
22.446047124529805	1.9470252	1.3953584
22.46391584579669	1.9713558	1.4040498
22.481785120406414	1.9645046	1.4016079
22.49965494884496	1.9688926	1.4031724
22.51752533159841	1.9537337	1.3977603
22.53539626915302	1.9330423	1.3903389
22.553267761995137	1.9233292	1.3868414
22.571139810611264	1.9444429	1.3944328
22.589012415488025	1.9339441	1.3906631
22.60688557711216	1.9188895	1.3852398
22.624759295970566	1.9568189	1.3988634
22.642633572550263	1.9862436	1.4093416
22.660508407338362	2.0327437	1.4257432
22.67838380082217	1.9857152	1.409154
22.696259753489077	1.947861	1.3956579
22.714136265826614	1.908122	1.3813479
22.73201333832246	1.9392211	1.3925592
22.74989097146439	1.9640832	1.4014575
22.76776916574035	1.987009	1.4096131
22.785647921638393	1.9592448	1.3997303
22.803527239646712	1.9470191	1.3953563
22.82140712025363	1.9564639	1.3987366
22.839287563947593	1.9927896	1.411662
22.85716857121719	1.9767727	1.4059775
22.875050142551135	1.9739554	1.4049752
22.892932278438277	1.9841518	1.4085993
22.910814979367604	1.9513611	1.3969113
22.928698245828222	1.9491526	1.3961205
22.946582078309387	1.9334588	1.3904887
22.96446647730047	1.9489754	1.3960571
22.98235144329098	1.9064573	1.3807452
23.000236976770562	1.9058449	1.3805234
23.018123078229	1.8994302	1.3781981
23.03600974815619	1.9070312	1.380953
23.053896987042194	1.91942	1.3854313
23.071784795377173	1.9561944	1.3986402
23.08967317365145	1.9551082	1.3982518
23.10756212235546	1.9133009	1.3832211
23.125451641979787	1.9118384	1.3826925
23.143341733015134	1.9371779	1.3918254
23.161232395952357	1.9734504	1.4047955
23.179123631282426	1.9313964	1.3897469
23.197015439496468	1.9025615	1.3793337
23.214907821085717	1.8977251	1.3775795
23.23280077654157	1.9019287	1.3791043
23.250694306355538	1.9116338	1.3826184
23.268588411019277	1.9530324	1.3975093
23.28648309102458	1.9936626	1.4119712
23.304378346863356	2.0070708	1.4167112
23.322274179027676	1.983526	1.408377
23.340170588009723	1.9619496	1.4006962
23.358067574301852	1.9329008	1.390288
23.37596513839651	1.9313246	1.389721
23.39386328078629	1.9332535	1.3904148
23.411762001963947	1.9182825	1.3850207
23.429661302422353	1.947679	1.3955927
23.4475611826545	1.9913356	1.4111469
23.46546164315356	1.964254	1.4015185
23.48336268441279	1.9006817	1.3786521
23.501264306925638	1.8718684	1.3681624
23.51916651118564	1.906128	1.380626
23.537069297686497	1.9545552	1.398054
23.554972666922037	1.9517757	1.3970597
23.57287661938623	1.923575	1.3869301
23.59078115557318	1.9165075	1.3843799
23.608686275977128	1.9040084	1.3798581
23.62659198109246	1.9053701	1.3803514
23.6444982714137	1.9235713	1.3869288
23.66240514743549	1.9163142	1.38431
23.68031260965263	1.8628591	1.364866
23.698220658560068	1.8626078	1.3647739
23.716129294652845	1.9020851	1.379161
23.7340385184262	1.9121912	1.38282
23.75194833037546	1.8971605	1.3773745
23.769858730996123	1.9034106	1.3796414
23.78776972078382	1.9257863	1.387727
23.80568130023431	1.9295616	1.3890866
23.823593469843495	1.9410176	1.3932041
23.841506230107424	1.9159766	1.384188
23.859419581522275	1.9046459	1.380089
23.87733352458438	1.8969946	1.3773142
23.89524805979019	1.8707147	1.3677408
23.913163187636318	1.8978605	1.3776286
23.931078908619508	1.9451306	1.3946794
23.948995223236633	1.970672	1.4038062
23.966912131984735	2.01778	1.4204859
23.98482963536096	2.061994	1.4359645
24.002747733862616	2.0186882	1.4208055
24.020666427987155	2.0127597	1.4187176
24.038585718232156	2.035918	1.426856
24.056505605095353	2.0703576	1.4388738
24.074426089074617	2.09682	1.4480401
24.092347170667946	2.1219976	1.4567078
24.110268850373515	2.1172292	1.4550701
24.128191128689586	2.139886	1.4628348
24.146114006114626	2.0904932	1.4458538
24.164037483147187	2.1117196	1.4531757
24.181961560286005	2.0874603	1.4448045
24.199886238029926	2.074311	1.4402468
24.21781151687797	2.0431545	1.4293896
24.235737397329274	2.0325491	1.425675
24.253663879883135	2.0911715	1.4460883
24.271590965038975	2.128955	1.4590938
24.289518653296376	2.1015208	1.4496623
24.30744694515505	2.0486827	1.431322
24.32537584111486	2.009447	1.4175497
24.34330534167581	1.9505782	1.396631
24.361235447338046	1.9598333	1.3999405
24.379166158601876	1.9581797	1.3993497
24.39709747596772	1.975135	1.4053949
24.41502939993615	2.0226152	1.4221867
24.432961931007917	2.0191433	1.4209657
24.450895069683856	1.9845414	1.4087375
24.468828816465	1.9337041	1.390577
24.4867631718525	1.9353288	1.391161
24.504698136347656	2.005879	1.4162905
24.52263371045192	2.0270302	1.4237381
24.540569894666874	2.0382514	1.4276735
24.558506689494266	1.9862471	1.4093428
24.57644409543597	1.9626095	1.4009317
24.594382112994012	1.9760982	1.4057376
24.61232074267057	2.0143588	1.4192811
24.630259984967953	2.0039797	1.4156199
24.64819984038863	1.9865631	1.409455
24.66614030943522	1.959656	1.3998772
24.684081392610462	2.0265818	1.4235806
24.702023090417274	2.021485	1.4217894
24.7199654033587	2.0315654	1.4253299
24.737908331937927	2.0596893	1.4351617
24.755851876658305	2.0998566	1.4490882
24.773796038023324	2.095101	1.4474465
24.79174081653661	2.115109	1.4543414
24.809686212701962	2.101901	1.4497935
24.827632227023294	2.1157997	1.4545789
24.8455788600047	2.1054857	1.4510292
24.8635261121504	2.104017	1.450523
24.88147398396475	2.1148498	1.4542524
24.899422475952303	2.1378026	1.4621227
24.917371588617698	2.1738315	1.4743919
24.935321322465768	2.2240589	1.4913279
24.953271678001478	2.3620074	1.5368824
24.97122265572994	2.540158	1.5937873
24.989174256156414	2.7756279	1.6660216
25.00712647978632	3.1768875	1.7823825
25.02507932712521	3.7517858	1.9369527
25.043032798678798	4.291253	2.071534
25.060986894952933	4.8611665	2.2048054
25.078941616453637	5.567587	2.3595734
25.096896963687055	6.5450664	2.5583327
25.114852937159508	7.6997995	2.7748513
25.132809537377444	8.211791	2.8656223
25.150766764847468	8.2883215	2.8789444
25.168724620076347	7.828044	2.7978642
25.186683103570985	6.8044868	2.608541
25.204642215838426	5.5705547	2.3602023
25.222601957385894	4.201723	2.0498104
25.24056232872074	3.2056546	1.7904342
25.25852333035048	2.6194272	1.6184645
25.276484962782778	2.2538388	1.501279
25.294447226525435	2.0923042	1.4464799
25.312410122086423	1.9843129	1.4086564
25.330373649973843	1.9428325	1.3938552
25.348337810695988	1.9292766	1.388984
25.366302604761245	1.9326092	1.3901832
25.384268032678207	1.9223124	1.3864748
25.40223409495558	1.9465373	1.3951836
25.420200792102257	1.9939227	1.4120632
25.438168124627246	1.9832921	1.4082941
25.45613609303974	1.9463614	1.3951206
25.474104697849057	1.905257	1.3803104
25.492073939564698	1.8820899	1.3718928
25.510043818696285	1.8707292	1.367746
25.528014335753614	1.8645236	1.3654757
25.54598549124664	1.8671647	1.3664423
25.56395728568544	1.887169	1.3737427
25.58192971958028	1.9061137	1.3806208
25.59990279344156	1.8958198	1.3768877
25.617876507779833	1.9254062	1.38759
25.635850863105826	1.9451791	1.3946968
25.653825859930386	1.9368995	1.3917254
25.671801498764548	1.945265	1.3947276
25.68977778011949	1.941112	1.393238
25.707754704506524	1.9218066	1.3862923
25.725732272437153	1.8773428	1.3701617
25.743710484423012	1.8662704	1.3661151
25.761689340975888	1.9017123	1.3790258
25.77966884260774	1.9441308	1.3943208
25.797648989830662	1.9580584	1.3993064
25.815629783156922	1.8976885	1.3775661
25.83361122309895	1.8818966	1.3718224
25.85159331016929	1.8448004	1.3582343
25.869576044880695	1.8237208	1.3504521
25.887559427746034	1.8542861	1.3617218
25.90554345927836	1.8662012	1.3660897
25.92352813999086	1.8576163	1.362944
25.94151347039689	1.8821181	1.3719031
25.959499451009965	1.9216034	1.3862191
25.97748608234374	1.9575642	1.3991299
25.995473364912062	1.9220283	1.3863723
26.013461299228904	1.8742328	1.3690262
26.03144988580839	1.8559451	1.3623308
26.04943912516483	1.8417577	1.3571137
26.067429017812675	1.8191905	1.3487737
26.085419564266537	1.8017683	1.3422996
26.103410765041186	1.8031366	1.3428092
26.12140262065155	1.8459328	1.3586512
26.139395131612723	1.8837193	1.3724866
26.157388298439948	1.852797	1.3611748
26.17538212164861	1.8014312	1.342174
26.193376601754295	1.8240384	1.3505696
26.211371739272714	1.8877358	1.373949
26.229367534719746	1.8508971	1.3604767
26.247363988611433	1.8246459	1.3507946
26.26536110146397	1.853866	1.3615675
26.283358873793727	1.8645772	1.3654952
26.301357306117204	1.8440764	1.3579677
26.319356398951104	1.7434798	1.3204089
26.33735615281224	1.7537112	1.3242776
26.35535656821762	1.8414187	1.3569889
26.373357645684404	1.8711973	1.3679172
26.39135938572991	1.8450761	1.3583357
26.409361788871614	1.8382349	1.3558152
26.427364855627165	1.8359405	1.3549688
26.445368586514352	1.7926683	1.3389057
26.46337298205115	1.8233033	1.3502975
26.48137804275568	1.8706709	1.3677248
26.499383769146217	1.8680314	1.3667594
26.517390161741215	1.7966092	1.3403765
26.53539722105928	1.8039775	1.3431222
26.553404947619182	1.8179142	1.3483005
26.571413341939856	1.814718	1.3471147
26.589422404540397	1.8035744	1.3429723
26.60743213594006	1.8323281	1.3536352
26.62544253665827	1.8451185	1.3583513
26.64345360721459	1.8565336	1.3625468
26.66146534812879	1.8554895	1.3621635
26.679477759920758	1.8029767	1.3427497
26.69749084311057	1.807589	1.3444661
26.71550459821847	1.8438686	1.3578912
26.733519025764842	1.8259226	1.351267
26.751534126270258	1.7920341	1.3386688
26.769549900255434	1.7888805	1.3374903
26.787566348241267	1.8118583	1.3460529
26.80558347074881	1.8236108	1.3504113
26.823601268299267	1.8038973	1.3430924
26.841619741414036	1.798056	1.3409162
26.85963889061465	1.8611345	1.3642341
26.877658716422832	1.8850472	1.3729702
26.89567921936045	1.8937507	1.3761362
26.913700399949544	1.8641402	1.3653352
26.93172225871233	1.88909	1.3744417
26.949744796171174	1.8665577	1.3662202
26.967768012848605	1.8233482	1.3503141
26.98579190926733	1.7653089	1.3286493
27.003816485950225	1.7656866	1.3287914
27.021841743420318	1.8276774	1.3519162
27.039867682200814	1.8300087	1.3527782
27.057894302815072	1.841012	1.356839
27.07592160578664	1.8299696	1.3527637
27.0939495916392	1.8083682	1.3447558
27.111978260896635	1.8174278	1.3481201
27.13000761408296	1.8103125	1.3454785
27.148037651722397	1.799378	1.341409
27.166068374339304	1.8317908	1.3534367
27.184099782458215	1.8343122	1.3543679
27.20213187660384	1.8536713	1.361496
27.22016465730105	1.8538437	1.3615593
27.23819812507487	1.8474226	1.3591993
27.256232280450533	1.8402288	1.3565503
27.274267123953383	1.8060261	1.3438847
27.292302656108987	1.7488401	1.3224372
27.31033887744306	1.7570525	1.3255386
27.32837578848146	1.8035557	1.3429652
27.34641338975026	1.8317065	1.3534055
27.364451681775673	1.8501648	1.3602077
27.382490665084074	1.81385	1.3467925
27.400530340202046	1.8152028	1.3472947
27.41857070765629	1.815056	1.3472401
27.436611767973726	1.800439	1.3418044
27.454653521681404	1.7658358	1.3288475
27.472695969306564	1.7421645	1.3199108
27.490739111376627	1.8119084	1.3460715
27.508782948419153	1.8205274	1.3492693
27.526827480961902	1.8133739	1.3466157
27.54487270953279	1.7912642	1.3383812
27.562918634659898	1.7841275	1.3357123
27.580965256871508	1.7633728	1.3279204
27.599012576696026	1.8167027	1.3478512
27.617060594662068	1.8701593	1.3675376
27.63510931129842	1.8735807	1.368788
27.65315872713401	1.894664	1.376468
27.67120884269797	1.8816797	1.3717433
27.68925965851958	1.8439316	1.3579144
27.707311175128307	1.8457696	1.3585911
27.725363393053787	1.8642008	1.3653574
27.74341631282583	1.8728402	1.3685175
27.7614699349744	1.8620971	1.3645868
27.77952426002968	2.0291545	1.424484
27.797579288521973	2.1184056	1.4554744
27.815635020981784	2.5541236	1.5981625
27.83369145793979	2.6422107	1.6254878
27.85174859992682	2.494146	1.5792866
27.869806447473923	2.3445787	1.5312017
27.887865001112267	2.0240567	1.4226935
27.905924261373233	1.8969713	1.3773059
27.92398422878836	1.8918552	1.3754473
27.94204490388936	1.8869866	1.3736763
27.96010628720813	1.8805884	1.3713455
27.978168379276728	1.8747482	1.3692144
27.9962311806274	1.8571442	1.3627708
28.014294691792568	1.8711064	1.3678839
28.0323589133048	1.8393974	1.3562438
28.050423845696887	1.8614868	1.3643632
28.068489489501758	1.9509526	1.3967651
28.086555845252523	1.9488846	1.3960246
28.104622913482487	1.8811129	1.3715367
28.122690694725115	1.8623995	1.3646976
28.14075918951405	1.9061252	1.3806249
28.15882839838312	1.9272248	1.3882452
28.176898321866304	1.8956276	1.376818
28.1949689604978	1.9099529	1.3820105
28.213040314811945	1.943377	1.3940506
28.23111238534327	1.9628727	1.4010257
28.249185172626493	1.9603887	1.4001389
28.267258677196473	1.9474987	1.3955281
28.285332899588294	1.9681808	1.4029187
28.303407840337172	1.9720154	1.4042846
28.321483499978545	1.9059348	1.380556
28.33955987904799	1.896878	1.3772719
28.357636978081285	1.9400228	1.3928471
28.37571479761439	1.9576751	1.3991694
28.393793338183425	1.9274087	1.3883115
28.41187260032469	1.9295976	1.3890996
28.429952584574686	1.9827371	1.4080969
28.448033291470065	1.9839891	1.4085414
28.46611472154769	1.961062	1.4003792
28.484196875344566	1.9194034	1.3854253
28.502279753397914	1.94103	1.3932085
28.52036335624511	1.9814268	1.4076316
28.538447684423716	1.9823034	1.407943
28.556532738471482	1.9317572	1.3898767
28.574618518926325	1.94332	1.3940301
28.59270502632635	1.966863	1.4024489
28.61079226120985	1.9647833	1.4017073
28.628880224115274	2.0354216	1.426682
28.646968915581287	2.1099613	1.4525706
28.66505833614671	2.0673337	1.4378226
28.68314848635055	2.0609536	1.4356022
28.701239366732004	2.0963213	1.4478679
28.71933097783044	2.0412145	1.4287108
28.737423320185403	2.0264237	1.4235251
28.75551639433665	2.0817342	1.4428216
28.773610200824074	2.0756552	1.4407134
28.791704740187793	2.0737154	1.4400401
28.80980001296809	2.1495445	1.4661325
28.827896019705413	2.212605	1.4874828
28.845992760940433	2.2343495	1.4947741
28.86409023721397	2.251151	1.5003836
28.88218844906704	2.2291136	1.4930216
28.900287397040845	2.2204123	1.4901048
28.918387081676755	2.1906836	1.4800959
28.936487503516343	2.1754835	1.474952
28.954588663101365	2.2317362	1.4938997
28.97269056097374	2.3246999	1.5246967
28.990793197675597	2.3764038	1.5415589
29.00889657374923	2.3974473	1.5483693
29.027000689737125	2.4234786	1.5567526
29.04510554618196	2.413786	1.5536363
29.06321114362659	2.4187734	1.5552406
29.08131748261405	2.494939	1.5795376
29.099424563687567	2.5390337	1.5934346
29.11753238739057	2.5408669	1.5940096
29.13564095426663	2.5882025	1.6087891
29.15375026485954	2.6083891	1.6150508
29.171860319713275	2.554953	1.598422
29.18997111937199	2.5765266	1.6051563
29.20808266438002	2.6899118	1.6400951
29.226194955281898	2.791248	1.6707028
29.244307992622335	2.8325331	1.6830131
29.26242177694624	2.8634572	1.6921753
29.2805363087987	2.8284786	1.6818081
29.29865158872498	2.8223543	1.6799864
29.316767617270557	2.8686566	1.6937109
29.334884394981064	2.9289072	1.711405
29.353001922402367	2.9590802	1.7201977
29.37112020008047	3.0086768	1.7345538
29.389239228561596	3.1772802	1.7824926
29.407359008392152	3.383193	1.8393458
29.42547954011872	3.7186997	1.928393
29.44360082428809	4.287492	2.070626
29.46172286144722	5.271069	2.2958808
29.479845652143283	6.8761272	2.622237
29.497969196923606	8.98711	2.997851
29.516093496335728	11.612235	3.407673
29.5342185509274	14.360515	3.789527
29.55234436124651	16.556864	4.0690126
29.570470927841175	17.90555	4.231495
29.588598251259686	17.894135	4.230146
29.60672633205055	16.736847	4.091069
29.624855170762405	14.639557	3.8261673
29.642984767944146	11.973944	3.4603386
29.66111512414481	9.047936	3.0079787
29.67924623991366	6.707461	2.5898767
29.697378115800138	5.086818	2.2553976
29.71551075235387	4.1511307	2.0374324
29.733644150124675	3.8271177	1.956302
29.751778309662576	3.60071	1.8975537
29.769913231517766	3.4813352	1.8658336
29.78804891624066	3.3924575	1.8418626
29.806185364381818	3.391856	1.8416992
29.82432257649206	3.372089	1.8363248
29.842460553122333	3.2850947	1.8124831
29.86059929482382	3.2419772	1.8005491
29.878738802147872	3.255525	1.8043073
29.896879075646048	3.293948	1.8149236
29.915020115870114	3.267668	1.8076692
29.933161923371976	3.208197	1.7911441
29.951304498703777	3.1918385	1.7865717
29.969447842417857	3.2878435	1.8132411
29.987591955066733	3.281273	1.8114284
30.005736837203123	3.2644506	1.806779
30.023882489379943	3.210437	1.7917693
30.04202891215028	3.2285464	1.7968156
30.060176106067455	3.156043	1.7765255
30.078324071684946	3.1566017	1.7766827
30.09647280955646	3.1918159	1.7865654
30.114622320235863	3.2105615	1.791804
30.132772604277257	3.1543977	1.7760624
30.1509236622349	3.1475012	1.7741199
30.16907549466328	3.1453161	1.7735039
30.18722810211705	3.0576952	1.7486266
30.205381485151097	3.106987	1.7626648
30.22353564432045	3.153948	1.7759359
30.241690580180403	3.118605	1.7659572
30.25984629328638	2.99683	1.7311355
30.278002784194037	2.9458818	1.7163571
30.296160053459246	2.9769948	1.725397
30.314318101638033	2.980167	1.726316
30.332476929286646	2.9371636	1.7138155
30.35063653696153	2.9445627	1.7159728
30.368796925219307	2.9162245	1.7076957
30.386958094616844	2.8873608	1.6992236
30.40512004571115	2.825204	1.6808343
30.423282779059463	2.8287675	1.6818941
30.441446295219233	2.8280976	1.6816949
30.459610594748067	2.8416662	1.6857243
30.47777567820382	2.894182	1.7012296
30.495941546144504	2.8828876	1.6979069
30.51410819912835	2.8895638	1.6998717
30.532275637713795	2.8817592	1.6975745
30.55044386245946	2.838991	1.6849306
30.56861287392416	2.8053725	1.6749246
30.586782672666956	2.812077	1.6769248
30.604953259247047	2.780904	1.6676043
30.623124634223885	2.7397153	1.6552086
30.641296798157075	2.6629975	1.6318693
30.659469751606462	2.678711	1.6366768
30.677643495132074	2.7696187	1.6642171
30.695818029294152	2.8106904	1.6765114
30.713993354653116	2.7806447	1.6675265
30.73216947176962	2.7126281	1.6470058
30.75034638120448	2.6311321	1.6220765
30.768524083518756	2.5693622	1.602923
30.786702579273673	2.689758	1.6400481
30.80488186903069	2.8473022	1.6873951
30.82306195335144	3.0352502	1.7421969
30.841242832797782	3.2158988	1.7932928
30.85942450793176	3.442287	1.8553401
30.877606979315637	3.7872503	1.9460859
30.895790247511883	4.083173	2.0206861
30.913974313083134	4.4508667	2.1097078
30.932159176592283	4.8324757	2.1982892
30.95034483860237	4.918648	2.2178025
30.968531299676698	4.7351084	2.1760304
30.98671856037873	4.4183664	2.1019912
31.00490662127215	3.980164	1.9950348
31.023095482920848	3.4985278	1.8704352
31.04128514588892	3.1624434	1.778326
31.059475610740662	2.8341224	1.6834852
31.07766687804056	2.5340202	1.5918607
31.09585894835335	2.4551184	1.5668818
31.11405182224393	2.4712033	1.5720061
31.132245500277417	2.5075185	1.5835146
31.15043998301914	2.505374	1.5828373
31.168635271034628	2.4820054	1.5754381
31.18683136488964	2.4394295	1.5618674
31.20502826515008	2.445571	1.5638322
31.223225972382135	2.4290278	1.5585339
31.241424487152155	2.4623563	1.5691897
31.259623810026692	2.4193983	1.5554415
31.27782394157253	2.3796391	1.5426079
31.296024882356644	2.4524667	1.5660354
31.314226632946237	2.4828818	1.5757163
31.332429193908684	2.4716957	1.5721627
31.350632565811598	2.443806	1.5632677
31.368836749222787	2.4308457	1.559117
31.387041744710295	2.4068756	1.5514108
31.40524755284232	2.475311	1.5733122
31.423454174187317	2.5949676	1.6108903
31.441661609313922	2.643562	1.6259035
31.459869858791002	2.5512078	1.5972501
31.478078923187628	2.4644387	1.5698531
31.496288803073064	2.3881648	1.5453688
31.514499499016807	2.3518033	1.5335591
31.532711011588546	2.3503604	1.5330886
31.550923341358178	2.4106429	1.5526245
31.56913648889584	2.3816104	1.5432467
31.587350454771844	2.353595	1.5341431
31.605565239556732	2.3898232	1.5459054
31.62378084382127	2.341385	1.5301584
31.641997268136382	2.320673	1.5233755
31.660214513073274	2.3721137	1.5401667
31.67843257920331	2.4068801	1.5514123
31.6966514670981	2.337316	1.5288283
31.71487117732944	2.249139	1.499713
31.733091710469346	2.2121248	1.4873214
31.751313067090052	2.2620518	1.5040119
31.769535247764008	2.3445	1.5311761
31.787758253063878	2.33568	1.5282931
31.805982083562526	2.3476834	1.5322152
31.824206739833024	2.325703	1.5250255
31.84243222244869	2.3167508	1.5220877
31.860658531983013	2.3948724	1.5475376
31.878885669009737	2.3658512	1.5381323
31.897113634102784	2.2857666	1.5118752
31.91534242783632	2.2182076	1.4893649
31.933572050784694	2.1974137	1.4823676
31.951802503522508	2.1247237	1.4576432
31.970033786624548	2.1842277	1.4779133
31.988265900665834	2.2174177	1.4890996
32.006498846221575	2.1813054	1.4769243
32.02473262386724	2.1641374	1.4711007
32.04296723417845	2.1540086	1.4676541
32.0612026777311	2.2032611	1.4843386
32.07943895510129	2.2983992	1.5160472
32.097676066865304	2.2723606	1.5074351
32.115914013599685	2.2016451	1.4837942
32.13415279588115	2.1865838	1.4787102
32.152392414286666	2.178672	1.4760325
32.1706328693934	2.1391187	1.4625726
32.18887416177875	2.1065135	1.4513834
32.20711629202032	2.0802715	1.4423146
32.225359260695924	2.1011417	1.4495316
32.243603068383614	2.1067257	1.4514564
32.26184771566166	2.0809405	1.4425465
32.28009320310852	2.1248581	1.4576893
32.2983395313029	2.1713588	1.4735532
32.31658670082372	2.1979995	1.4825652
32.33483471225012	2.1919723	1.4805311
32.35308356616143	2.269622	1.5065265
32.371333263137245	2.2575917	1.5025284
32.38958380375734	2.1347523	1.4610791
32.407835188601744	2.0339022	1.4261494
32.42608741825067	1.9953616	1.4125726
32.444340493284585	1.9687291	1.4031141
32.46259441428416	1.9812658	1.4075744
32.48084918183028	2.051334	1.4322479
32.49910479650405	2.0241716	1.4227339
32.51736125888683	2.0774095	1.4413221
32.53561856956014	2.0605876	1.4354748
32.5538767291058	2.0306637	1.4250135
32.572135738105764	1.969158	1.4032669
32.59039559714228	1.9992255	1.4139397
32.608656306797776	1.9917231	1.4112842
32.62691786765491	1.9854798	1.4090706
32.645180280296586	1.941007	1.3932003
32.663443545305896	2.001379	1.414701
32.68170766326619	2.0764616	1.4409933
32.69997263476099	2.0962856	1.4478555
32.7182384603741	2.0638418	1.4366077
32.7365051406895	2.0727715	1.4397123
32.75477267629144	2.030421	1.4249284
32.77304106776434	2.009917	1.4177154
32.79131031569289	1.9643809	1.4015638
32.809580420661966	2.014759	1.419422
32.827851383256714	2.0552201	1.4336039
32.84612320406245	2.118367	1.455461
32.86439588366476	2.0709364	1.4390749
32.88266942264945	2.0628746	1.4362711
32.9009438216025	2.0795038	1.4420484
32.9192190811102	1.9735452	1.4048293
32.937495201758985	1.9328109	1.3902557
32.95577218413556	1.9445889	1.3944851
32.974050028826866	1.9312338	1.3896884
32.992328736420035	1.9266568	1.3880407
33.010608307502444	1.9151928	1.3839049
33.02888874266169	1.9862937	1.4093593
33.047170042485604	2.0689387	1.4383806
33.06545220756225	1.9960183	1.4128051
33.083735238479896	1.935488	1.3912182
33.10201913582707	2.0306225	1.4249991
33.12030390019248	2.0831435	1.4433099
33.138589532165135	2.047681	1.4309721
33.15687603233419	1.9947813	1.4123672
33.17516340128909	1.9777117	1.4063114
33.19345163961947	1.9156218	1.3840599
33.211740747915215	1.9138902	1.3834342
33.23003072676643	1.938212	1.3921969
33.248321576763466	1.9731542	1.40469
33.266613298496885	2.0073473	1.4168088
33.28490589255747	2.0251641	1.4230826
33.30319935953626	1.986093	1.4092882
33.32149370002451	1.9506136	1.3966436
33.339788914613706	1.9366947	1.3916517
33.358085003895575	2.014548	1.4193478
33.376381968462034	1.9778343	1.406355
33.39467980890529	1.9457743	1.3949101
33.41297852581774	1.8970364	1.3773295
33.43127811979204	1.9355289	1.3912328
33.44957859142105	1.910268	1.3821244
33.467879941297866	1.9001002	1.3784412
33.486182170015844	1.9078505	1.3812497
33.50448527816853	1.9293586	1.3890135
33.522789266349754	1.9298147	1.3891777
33.541094135153514	1.9198235	1.385577
33.55939988517411	1.9583548	1.3994123
33.57770651700602	2.0232115	1.4223964
33.59601403124398	1.8963863	1.3770934
33.61432242848296	1.8730896	1.3686086
33.632631709318154	2.0401554	1.4283401
33.650941874344994	2.0789886	1.4418699
33.66925292415916	1.9590552	1.3996625
33.68756485935654	1.8492894	1.3598858
33.70587768053328	1.804024	1.3431396
33.724191388285746	1.7983311	1.3410187
33.74250598321054	1.90452	1.3800435
33.760821465904506	1.9742814	1.4050913
33.77913783696474	2.0179613	1.4205496
33.79745509698852	2.0435445	1.429526
33.815773246573414	2.0046566	1.415859
33.8340922863172	1.9791365	1.4068178
33.852412216817896	2.0119765	1.4184415
33.87073303867377	2.0505776	1.4319838
33.889054752483304	2.062336	1.4360836
33.907377358845245	2.0247076	1.4229221
33.92570085835853	1.9837787	1.4084668
33.94402525162239	1.9973435	1.413274
33.96235053923627	2.1075592	1.4517435
33.980676721799824	2.1609693	1.4700235
33.999003799912984	2.130344	1.4595698
34.01733177417592	2.057308	1.4343319
34.03566064518901	1.9710505	1.403941
34.0539904135529	2.0368264	1.4271742
34.07232107986846	2.047246	1.43082
34.090652644736785	2.037219	1.4273118
34.108985108759235	1.9854542	1.4090614
34.12731847253742	1.9165151	1.3843826
34.14565273667313	1.9587306	1.3995465
34.16398790176847	1.9560672	1.3985947
34.18232396842574	1.839179	1.3561634
34.20066093724749	1.7597982	1.3265738
34.21899880883651	1.7277201	1.3144277
34.23733758379583	1.8981769	1.3777434
34.25567726272874	2.0266955	1.4236206
34.27401784623872	2.0212982	1.4217236
34.29235933492957	1.9681791	1.4029181
34.31070172940526	1.9466543	1.3952255
34.32904503027003	2.0435138	1.4295152
34.347389238128386	2.1422124	1.4636298
34.36573435358502	1.989185	1.4103847
34.38408037724492	1.9366047	1.3916194
34.402427309713296	2.014731	1.4194121
34.42077515159559	1.9495344	1.3962573
34.43912390349752	1.8607626	1.3640977
34.45747356602499	1.8234782	1.3503623
34.47582413978423	1.8002735	1.3417428
34.49417562538163	1.8356171	1.3548495
34.51252802342388	1.9851536	1.4089547
34.53088133451789	2.1137948	1.4538895
34.54923555927084	1.9972004	1.4132234
34.567590698290104	1.7309114	1.315641
34.58594675218336	1.6888272	1.2995489
34.6043037215585	1.8620912	1.3645846
34.62266160702365	1.9140007	1.3834741
34.641020409187234	1.951686	1.3970276
34.65938012865785	1.9932991	1.4118425
34.677740766044394	2.1156306	1.4545207
34.69610232195598	2.133382	1.4606102
34.714464797002016	1.9544992	1.3980341
34.73282819179208	2.0039341	1.4156038
34.751192506936064	1.9771911	1.4061263
34.76955774304408	1.8416404	1.3570704
34.7879239007265	1.9033935	1.3796353
34.80629098059391	2.0421557	1.4290402
34.824658983257194	2.1226096	1.4569179
34.843027909327446	2.0444005	1.4298253
34.86139775941603	2.1231725	1.457111
34.879768534134534	2.1432664	1.4639899
34.89814023409483	2.1147175	1.4542068
34.91651285990901	1.9452924	1.3947374
34.93488641218944	1.8351191	1.3546656
34.95326089154871	1.9196507	1.3855146
34.97163629859967	1.9275926	1.3883777
34.99001263395542	2.0139024	1.4191203
35.00838989822934	2.2260466	1.4919941
35.02676809203499	2.1770294	1.475476
35.04514721598624	2.0729437	1.4397721
35.063527270697215	1.953294	1.3976029
35.081908256782256	1.8815783	1.3717064
35.10029017485597	1.9131552	1.3831686
35.11867302553321	1.9725437	1.4044727
35.137056809429104	2.1824572	1.4773142
35.155441527159006	2.0569563	1.4342093
35.173827179338524	1.7514199	1.3234122
35.19221376658354	1.5455468	1.2432002
35.21060128951017	1.5844045	1.2587312
35.2289897487348	1.7570895	1.3255526
35.24737914487405	1.8726095	1.3684332
35.26576947854479	2.0332842	1.4259328
35.28416075036418	1.968897	1.4031739
35.30255296094958	1.8669277	1.3663557
35.32094611091867	2.0489209	1.4314052
35.33934020088932	2.1366334	1.4617227
35.35773523147969	2.1356628	1.4613907
35.3761312033082	1.9874392	1.4097656
35.394528116993506	2.0233274	1.4224371
35.41292597315452	2.0217714	1.4218901
35.431324772410434	2.201455	1.4837301
35.449724515380666	2.2352233	1.4950663
35.46812520268491	1.9998971	1.4141772
35.486526834943106	1.8333174	1.3540006
35.504929412775454	1.8254327	1.3510858
35.52333293680242	2.1171055	1.4550277
35.54173740764471	2.27244	1.5074614
35.560142825923286	2.0273197	1.4238398
35.5785491922594	1.7027243	1.3048848
35.59695650727454	1.8366917	1.355246
35.61536477159042	1.8569168	1.3626873
