0.008763373481513119	0.0	0.0
0.026290120649546365	0.0	0.0
0.043816868432600686	0.060138714	0.24523196
0.06134361724069026	0.08291717	0.2879534
0.07887036748382949	0.06477313	0.25450566
0.0963971195720331	0.105487674	0.32478866
0.11392387391531617	0.08895532	0.29825377
0.1314506309236943	0.1474621	0.38400793
0.1489773910071836	0.13560644	0.3682478
0.16650415457580078	0.18534848	0.43052116
0.18403092203956356	0.17702591	0.42074448
0.20155769380849	0.16128397	0.40160176
0.2190844702925996	0.15866365	0.39832604
0.2366112519019124	0.16230091	0.4028659
0.2541380390464497	0.14948234	0.38662946
0.27166483213623416	0.16153543	0.40191472
0.28919163158128947	0.20529631	0.45309636
0.3067184377916406	0.18474989	0.42982543
0.324245251177314	0.14912874	0.3861719
0.34177207214833777	0.0750742	0.2739967
0.3592989011147415	0.07450611	0.27295807
0.37682573848655654	0.092255354	0.30373567
0.39435258467381573	0.09171759	0.3028491
0.41187944008655414	0.089535125	0.2992242
0.42940630513480854	0.09080604	0.3013404
0.446933180228618	0.09850181	0.31385
0.4644600657780234	0.114982754	0.33909106
0.48198696219306775	0.15185915	0.38969108
0.49951386988379676	0.16040525	0.40050623
0.5170407892602581	0.18071881	0.42511034
0.5345677207325025	0.15460922	0.3932038
0.5520946647105822	0.14423852	0.37978747
0.5696216216045534	0.18997009	0.4358556
0.5871485918244737	0.1983641	0.44538084
0.6046755757804043	0.1972438	0.44412136
0.6222025738824094	0.1575418	0.39691535
0.6397295865405557	0.13997631	0.37413406
0.6572566141649129	0.13194849	0.36324716
0.6747836571655547	0.14977315	0.38700536
0.6923107159525568	0.14114395	0.3756913
0.7098377909359992	0.17820007	0.4221375
0.7273648825259653	0.16962756	0.41185868
0.7448919911325411	0.17194934	0.41466776
0.762419117165817	0.17931932	0.4234611
0.7799462610358868	0.20593779	0.4538037
0.7974734231528482	0.23690924	0.48673323
0.8150006039268024	0.21351694	0.46207893
0.8325278037678551	0.17700545	0.42072016
0.8500550230861152	0.17202209	0.41475546
0.8675822622916969	0.19490829	0.44148418
0.8851095217947171	0.22649494	0.47591484
0.9026368020052984	0.22896554	0.47850344
0.9201641033335665	0.20740847	0.4554212
0.9376914261896523	0.21899517	0.4679692
0.9552187709836915	0.21191429	0.46034148
0.9727461381258234	0.24400622	0.49396986
0.990273528026193	0.2502069	0.5002068
1.0078009410949496	0.22301087	0.47224027
1.0253283777422473	0.2628835	0.51272166
1.0428558383782454	0.30049694	0.548176
1.0603833234131086	0.3320879	0.5762707
1.0779108332570058	0.33816427	0.58151895
1.0954383683201119	0.31997022	0.5656591
1.112965929012607	0.3436496	0.58621633
1.1304935157446763	0.4814475	0.69386417
1.1480211289265108	0.56240547	0.749937
1.1655487689683062	1.4120507	1.1882974
1.1830764362802655	1.7338933	1.3167738
1.200604131272596	2.1875699	1.4790436
1.2181318543555117	2.5736644	1.6042645
1.235659605939232	2.5515897	1.5973697
1.253187386433982	4.1079245	2.0268016
1.270715196249994	6.3262196	2.5151978
1.2882430357975057	11.827465	3.4391081
1.3057709054867608	16.282991	4.0352187
1.3232988057280106	21.706453	4.6590185
1.3408267369315112	26.636307	5.1610374
1.358354699507526	30.351692	5.509237
1.3758826938663256	34.679855	5.8889604
1.3934107204181858	36.953274	6.0789204
1.410938779573391	37.422413	6.1173863
1.4284668717422309	37.792446	6.1475563
1.4459949973350033	37.636967	6.134897
1.4635231567620117	37.89926	6.1562376
1.4810513504335687	37.229954	6.1016355
1.4985795787599925	36.15651	6.013028
1.5161078421516088	35.336067	5.9444146
1.5336361410187505	34.42622	5.8673863
1.5511644757717598	34.76891	5.896517
1.5686928468209842	35.31142	5.9423413
1.58622125457678	35.951004	5.9959154
1.6037496994495108	37.28834	6.106418
1.621278181849548	37.154583	6.095456
1.6388067021872719	38.03826	6.1675167
1.6563352608730693	37.290276	6.1065764
1.673863858317336	36.697876	6.057877
1.6913924949304753	35.813316	5.9844227
1.7089211711228998	34.4248	5.867265
1.7264498873050296	33.490566	5.7871037
1.7439786438872935	32.693253	5.7178016
1.7615074412801288	31.718885	5.6319523
1.779036279893981	31.17459	5.5834208
1.796565160139305	30.008062	5.4779615
1.814094082426564	29.334446	5.416128
1.8316230471662298	28.473843	5.3360887
1.849152054768784	27.660475	5.2593226
1.8666811056447168	27.448927	5.2391725
1.8842102002045273	26.972607	5.193516
1.901739338858724	26.637497	5.161153
1.9192685220178245	25.649824	5.0645657
1.9367977500923557	24.925144	4.992509
1.9543270234928547	24.348743	4.9344444
1.971856342629867	23.761698	4.874597
1.9893857079139496	23.091587	4.805371
2.006915119755667	22.237968	4.715715
2.0244445785655945	21.626486	4.650429
2.0419740847543175	21.355833	4.6212373
2.0595036387324317	21.112743	4.5948606
2.0770332409105414	20.86019	4.5672956
2.094562891699263	20.51269	4.5290937
2.1120925915092217	19.990585	4.471083
2.129622340751053	19.732939	4.4421773
2.1471521398354043	187.87076	13.706595
2.1646819891729323	444.17657	21.075497
2.182211889174303	440.38287	20.985302
2.1997418402501974	452.62473	21.274979
2.2172718428113023	432.63333	20.799839
2.234801897268317	320.66498	17.907122
2.2523320040319548	17.032259	4.1270156
2.269862163512935	16.618694	4.0766034
2.287392376121992	16.25949	4.0323057
2.304922642269869	15.921384	3.990161
2.322452962367322	15.661289	3.9574347
2.3399833368251164	15.271949	3.9079342
2.357513766054032	14.950794	3.8666258
2.3750442504648586	14.621887	3.8238575
2.3925747904683963	14.425892	3.7981431
2.410105386475459	14.448203	3.8010793
2.4276360388968707	14.315206	3.783544
2.445166748143469	14.205388	3.7690036
2.4626975146261025	13.838221	3.719976
2.4802283387556323	13.494303	3.6734593
2.4977592209429305	13.218139	3.635676
2.5152901615988825	12.758923	3.5719633
2.5328211611343865	12.628419	3.5536487
2.5503522199603523	12.459145	3.5297513
2.5678833384877024	12.276683	3.5038097
2.5854145171273712	12.2099	3.4942667
2.6029457562903064	12.048118	3.4710398
2.620477056387469	11.905518	3.4504373
2.6380084178298326	11.570667	3.4015684
2.655539841028383	11.393624	3.3754444
2.673071326394119	11.101242	3.3318527
2.6906028743380523	10.962191	3.31092
2.708134485271211	10.866833	3.296488
2.7256661596046325	10.806824	3.2873733
2.743197897749369	10.655682	3.2643042
2.760729700116486	10.645323	3.262717
2.778261567117063	10.430633	3.229649
2.795793499162193	10.237438	3.1995997
2.8133254966629817	10.159446	3.1873887
2.830857560030551	9.914538	3.148736
2.8483896896760337	9.768446	3.1254513
2.865921886010578	9.56271	3.092363
2.883454149445347	9.420555	3.0692923
2.9009864803915177	9.418227	3.068913
2.91851887926028	9.24371	3.0403469
2.9360513464628384	9.184397	3.030577
2.953583882410413	8.938314	2.9897015
2.9711164875142373	8.802513	2.966903
2.9886491621855606	8.757617	2.9593272
3.0061819068356455	8.599586	2.932505
3.023714721875769	8.426605	2.9028616
3.041247607717225	8.290783	2.879372
3.0587805647713213	8.236797	2.869982
3.0763135934493806	8.150528	2.854913
3.0938466941627407	8.039052	2.8353221
3.1113798673227544	7.94552	2.81878
3.1289131133407904	7.899655	2.8106325
3.1464464326282315	7.9351	2.816931
3.1639798255964786	7.8938885	2.8096066
3.1815132926569443	7.770869	2.7876277
3.1990468342210603	7.631938	2.7625961
3.216580450700272	7.641358	2.7643006
3.2341141425060416	7.699345	2.7747693
3.251647910049847	7.534959	2.744988
3.2691817537431813	7.390917	2.718624
3.286715673997555	7.1142535	2.6672559
3.3042496712244938	7.07987	2.6608026
3.32178374583554	6.899767	2.6267407
3.339317898242251	6.7919283	2.6061327
3.3568521288562034	6.734329	2.5950587
3.3743864380889876	6.7237678	2.5930228
3.3919208263522127	6.6695356	2.5825443
3.4094552940575023	6.6576247	2.5802374
3.4269898416164972	6.574952	2.564167
3.444524469440858	6.5898724	2.5670748
3.4620591779422587	6.4915915	2.5478601
3.479593967532391	6.477845	2.5451612
3.4971288386229658	6.454358	2.5405428
3.5146637916257086	6.4096317	2.5317252
3.5321988269523628	6.435568	2.536842
3.5497339450146903	6.4620633	2.542059
3.5672691462244708	6.486381	2.5468376
3.5848044309934988	6.3597884	2.521862
3.60233979973359	6.282907	2.5065727
3.619875252856575	6.237633	2.4975255
3.6374107907743034	6.253719	2.5007436
3.6549464138986427	6.155642	2.4810567
3.6724821226414788	6.1839547	2.4867558
3.690017917414714	6.1725054	2.4844527
3.7075537986302702	6.203569	2.4906964
3.7250897667000857	6.3161035	2.513186
3.7426258220361235	6.482719	2.5461185
3.7601619650503553	6.8196573	2.6114473
3.777698196154779	7.289033	2.699821
3.7952345157614067	8.304931	2.8818276
3.8127709242822716	9.135056	3.0224254
3.830307422129425	11.528609	3.3953805
3.847844009714936	30.379425	5.5117536
3.8653806874508954	97.895775	9.894229
3.882917455749409	97.171616	9.857567
3.900454315022606	96.85954	9.841724
3.917991265682631	41.490723	6.4413295
3.9355283081416506	11.080908	3.3287997
3.9530654428118495	8.778374	2.962832
3.970602670105433	7.5321875	2.744483
3.9881399904346244	6.6273136	2.574357
4.005677404211669	6.5899115	2.5670822
4.023214911848827	6.4918895	2.5479186
4.0407525137583855	6.483427	2.5462575
4.058290210352644	6.4217296	2.5341132
4.075828002043927	6.354435	2.5208004
4.0933658892445814	6.211306	2.4922493
4.110903872366966	6.1278596	2.4754515
4.128441951823468	6.040501	2.4577432
4.145980128026488	6.109717	2.471784
4.163518401388452	6.1023126	2.470286
4.181056772321807	6.1253033	2.474935
4.1985952412390155	6.087976	2.4673824
4.216133808552567	6.1016665	2.4701552
4.233672474674966	6.202827	2.4905474
4.251211240018741	6.448761	2.539441
4.268750104996445	6.601445	2.5693278
4.286289070020643	7.444745	2.728506
4.303828135503928	8.997162	2.999527
4.3213673018589125	29.364656	5.4189167
4.3389065694982305	90.638824	9.520442
4.356445938834537	166.03346	12.885397
4.3739854102805085	171.40732	13.092261
4.391524984248844	172.23763	13.123933
4.409064661152262	136.31248	11.675294
4.426604441403504	96.49905	9.823393
4.444144325415337	75.5765	8.693475
4.461684313600543	21.644897	4.6524076
4.47922440637193	22.37905	4.73065
4.496764604142329	20.833374	4.564359
4.5143049073245916	18.911587	4.3487453
4.531845316331589	16.58807	4.0728455
4.5493858315762195	13.434698	3.6653373
4.566926453471405	11.0531435	3.324627
4.584467182430081	9.037162	3.0061872
4.602008018865218	7.91076	2.8126073
4.619548963189798	7.323075	2.706118
4.637090015816834	6.9016533	2.6270998
4.654631177159353	6.717083	2.5917337
4.672172447630417	6.4567876	2.5410209
4.689713827643102	6.3507023	2.52006
4.7072553176105085	6.0600457	2.461716
4.724796917945764	5.8955755	2.4280806
4.742338629062015	5.788069	2.4058406
4.759880451372434	5.724402	2.3925722
4.777422385290215	5.656066	2.3782485
4.794964431228581	5.5664024	2.3593225
4.812506589600768	5.5674486	2.359544
4.830048860820047	5.5851707	2.3632965
4.847591245299709	5.54082	2.3538947
4.8651337434530655	5.558083	2.3575587
4.882676355693457	5.511808	2.347724
4.900219082434242	5.57802	2.3617833
4.917761924088813	5.562557	2.3585074
4.935304881070575	5.5787086	2.361929
4.952847953792969	5.4858713	2.3421936
4.970391142669449	5.4691095	2.3386128
4.9879344481135055	5.376309	2.318687
5.005477870538642	5.350174	2.3130443
5.023021410358394	5.35697	2.314513
5.040565067986324	5.3157086	2.305582
5.05810884383601	5.284435	2.2987897
5.075652738321066	5.3096023	2.3042574
5.09319675185512	5.293059	2.300665
5.110740884851836	5.3507276	2.313164
5.128285137724894	5.4175863	2.327571
5.145829510888007	5.419796	2.3280456
5.163374004754908	5.4315667	2.3305721
5.1809186197393595	5.3530827	2.313673
5.198463356255145	5.321146	2.306761
5.216008214716077	5.326805	2.3079872
5.233553195535998	5.3173904	2.3059468
5.251098299128764	5.2588015	2.2932076
5.268643525908272	5.2552924	2.2924426
5.286188876288432	5.242925	2.2897434
5.3037343506831895	5.2023683	2.28087
5.32127994950651	5.262506	2.2940152
5.3388256731723915	5.2634664	2.2942245
5.356371522094851	5.3224263	2.3070385
5.373917496687938	5.2712774	2.2959263
5.391463597365729	5.2118692	2.2829518
5.40900982454232	5.141447	2.2674758
5.426556178631843	5.147428	2.2687943
5.444102660048449	5.140821	2.2673378
5.4616492692063225	5.120487	2.2628493
5.479196006519669	5.1378837	2.26669
5.496742872402727	5.1512156	2.269629
5.514289867269756	5.177218	2.27535
5.531836991535049	5.2282248	2.2865312
5.549384245612924	5.2410603	2.2893362
5.566931629917724	5.262552	2.2940252
5.584479144863822	5.2251887	2.2858672
5.6020267908656205	5.2186966	2.2844467
5.619574568337545	5.1655803	2.2727914
5.637122477694054	5.165422	2.2727566
5.654670519349629	5.1633387	2.272298
5.672218693718784	5.182294	2.2764652
5.689767001216059	5.1831365	2.2766502
5.707315442256021	5.152781	2.2699738
5.724864017253266	5.137516	2.266609
5.7424127266224225	5.1447415	2.2682023
5.75996157077814	5.1765404	2.275201
5.777510550135105	5.1481395	2.2689512
5.795059665108022	5.185373	2.2771413
5.812608916111639	5.1535826	2.2701504
5.830158303560715	5.203536	2.281126
5.847707827870055	5.256373	2.292678
5.86525748945448	5.2861757	2.2991686
5.8828072887288485	5.435864	2.3314939
5.900357226108044	5.5547295	2.3568473
5.917907302006979	5.6253076	2.371773
5.9354575168406	6.301329	2.5102448
5.9530078710238765	6.847727	2.616816
5.970558364971812	7.395515	2.7194695
5.988108999099438	7.710239	2.7767317
6.005659773821818	8.240474	2.8706226
6.023210689554039	8.021934	2.8323019
6.040761746711227	8.406263	2.8993556
6.058312945708531	7.764511	2.7864873
6.075864286961132	7.290221	2.700041
6.093415770884244	6.645516	2.57789
6.1109673978931065	6.1785855	2.485676
6.128519168402993	5.6033716	2.367144
6.146071082829204	5.441671	2.3327389
6.163623141587075	5.229483	2.2868063
6.181175345091969	5.166987	2.2731006
6.198727693759281	5.175951	2.2750716
6.216280188004435	5.1644893	2.2725513
6.233832828242885	5.1167116	2.2620149
6.251385614890126	5.0990443	2.2581065
6.268938548361669	5.078837	2.2536275
6.286491629073067	5.0215054	2.2408717
6.304044857439898	5.071648	2.252032
6.321598233877777	5.0365105	2.2442172
6.339151758802344	5.0025578	2.2366397
6.356705432629277	4.9143534	2.216834
6.37425925577428	4.9173837	2.2175174
6.391813228653095	4.9862747	2.2329967
6.409367351681486	5.066417	2.2508702
6.426921625275259	5.0601296	2.249473
6.44447604985025	5.0273976	2.2421858
6.46203062582232	4.9992075	2.2358909
6.47958535360737	5.012045	2.2387598
6.497140233621328	4.9558215	2.2261674
6.514695266280161	4.9082804	2.2154639
6.532250451999859	4.87716	2.2084293
6.549805791196454	4.878129	2.2086487
6.567361284286002	4.937258	2.2219942
6.584916931684597	4.9669447	2.2286644
6.602472733808367	4.94821	2.2244573
6.6200286910734665	4.9162683	2.2172658
6.637584803896092	4.979893	2.2315674
6.655141072692462	4.9954143	2.2350423
6.672697497878842	5.018197	2.2401333
6.690254079871514	5.0029426	2.2367258
6.707810819086808	4.9879985	2.2333827
6.725367715941078	5.0768905	2.2531955
6.742924770850719	5.100069	2.2583332
6.760481984232151	5.1267385	2.2642303
6.778039356501836	5.052148	2.2476983
6.795596888076266	4.953273	2.225595
6.813154579371963	4.8896303	2.2112508
6.830712430805492	4.9244113	2.2191014
6.84827044279344	4.9393835	2.2224724
6.865828615752445	4.951233	2.2251365
6.883386950099159	4.878664	2.2087698
6.900945446250287	4.939298	2.222453
6.918504104622553	4.993213	2.23455
6.936062925632727	5.077269	2.2532797
6.953621909697607	5.084783	2.2549465
6.971181057234028	5.0673137	2.2510695
6.988740368658859	5.140701	2.2673113
7.006299844389007	5.182143	2.276432
7.023859484841407	5.229194	2.2867432
7.041419290433036	5.298431	2.301832
7.058979261580902	5.376216	2.318667
7.0765393987020495	5.5711684	2.3603323
7.094099702213559	5.8925505	2.4274576
7.111660172532549	6.323712	2.5146992
7.129220810076164	6.7681055	2.6015582
7.146781615261595	7.4364624	2.7269878
7.16434258850606	7.673253	2.7700636
7.181903730226821	8.015801	2.831219
7.1994650408411704	8.069642	2.8407116
7.217026520766437	8.181846	2.8603926
7.234588170419983	8.48673	2.9131992
7.252149990219215	8.518327	2.9186172
7.269711980581568	8.414745	2.900818
7.2872741419245175	8.113477	2.8484166
7.304836474665574	7.6315203	2.7625206
7.322398979222286	7.316013	2.704813
7.339961656012233	7.1172376	2.6678152
7.357524505453039	6.911742	2.6290193
7.375087527962357	6.645125	2.5778139
7.392650723957886	6.3421087	2.5183544
7.410214093857353	5.95027	2.4393175
7.427777638078528	5.751192	2.3981643
7.445341357039213	5.610608	2.3686721
7.4629052511572525	5.4679594	2.3383667
7.480469320850524	5.318187	2.3061194
7.498033566536948	5.2123	2.2830462
7.5155979886344735	5.155197	2.270506
7.5331625875610975	5.0830364	2.254559
7.550727363734844	5.066644	2.2509208
7.568292317573788	5.077142	2.2532513
7.585857449496025	5.140363	2.267237
7.603422759919705	5.169443	2.2736409
7.620988249263007	5.1865807	2.2774065
7.638553917944147	5.2112675	2.28282
7.656119766381391	5.218543	2.284413
7.673685794993023	5.211126	2.282789
7.691252004197388	5.133371	2.2656944
7.70881839441285	5.129702	2.2648845
7.726384966057826	5.14956	2.2692642
7.743951719550762	5.1685996	2.2734554
7.761518655310149	5.217341	2.28415
7.779085773754511	5.2650743	2.294575
7.796653075302419	5.230228	2.2869692
7.814220560372475	5.200055	2.2803628
7.831788229383323	5.139663	2.2670825
7.8493560827536495	5.1614037	2.2718723
7.866924120902174	5.2045283	2.2813435
7.884492344247663	5.2554574	2.2924783
7.9020607532089135	5.2703013	2.2957137
7.919629348204771	5.250462	2.2913888
7.937198129654115	5.2532063	2.2919874
7.954767097975865	5.301132	2.3024187
7.972336253588986	5.34735	2.3124337
7.989905596912472	5.375403	2.3184915
8.007475128365371	5.3070083	2.3036945
8.025044848366756	5.3544216	2.3139622
8.042614757335754	5.42335	2.3288088
8.060184855691523	5.5425377	2.3542595
8.07775514385327	5.706225	2.3887706
8.095325622240228	5.7418394	2.3962135
8.112896291271687	5.774415	2.4030013
8.130467151366968	5.8533554	2.419371
8.148038202945436	5.885986	2.426105
8.165609446426497	5.8663955	2.4220643
8.183180882229594	5.857607	2.4202495
8.200752510774217	5.788713	2.4059744
8.218324332479893	5.806843	2.4097393
8.235896347766193	5.8203864	2.4125476
8.253468557052724	5.86162	2.4210782
8.27104096075914	5.9054317	2.4301095
8.288613559305137	5.9469795	2.438643
8.306186353110448	6.075947	2.4649436
8.32375934259485	6.145802	2.4790728
8.341332528178162	6.174156	2.4847848
8.358905910280246	6.140781	2.47806
8.376479489321003	6.066708	2.4630687
8.394053265720377	6.117908	2.4734404
8.411627239898356	6.1716413	2.484279
8.42920141227497	6.302022	2.510383
8.44677578327029	6.2960286	2.509189
8.464350353304427	6.230604	2.4961178
8.48192512279754	6.1854453	2.4870555
8.499500092169827	6.051852	2.4600513
8.51707526184153	6.061227	2.4619558
8.534650632232934	6.0007463	2.4496422
8.552226203764365	6.133112	2.476512
8.569801976856192	6.1640487	2.4827502
8.587377951928834	6.243232	2.498646
8.60495412940274	6.2356963	2.4971375
8.622530509698416	6.274588	2.5049129
8.6401070932364	6.3720365	2.5242894
8.657683880437283	6.440245	2.5377638
8.675260871721695	6.5822597	2.5655916
8.692838067510303	6.739643	2.5960822
8.710415468223834	6.9250026	2.63154
8.727993074283043	7.106134	2.6657333
8.745570886108737	7.0970106	2.6640215
8.763148904121765	7.1645346	2.6766648
8.78072712874302	7.1316113	2.6705077
8.798305560393441	7.299619	2.7017808
8.815884199494006	7.3667088	2.714168
8.833463046465745	7.5690565	2.7511919
8.851042101729728	7.757902	2.785301
8.86862136570707	8.097391	2.8455915
8.886200838818924	8.24294	2.871052
8.903780521486505	8.201707	2.8638623
8.921360414131055	8.274713	2.87658
8.938940517173874	8.401834	2.8985918
8.956520831036297	8.627544	2.9372683
8.97410135613971	8.896361	2.982677
8.99168209290554	9.008083	3.0013468
9.009263041755265	9.28008	3.0463223
9.026844203110405	9.506105	3.0831974
9.044425577392525	9.789969	3.1288927
9.062007165023239	9.997266	3.1618452
9.079588966424197	10.313665	3.2114897
9.097170982017108	10.340962	3.2157366
9.11475321222372	11.363494	3.370978
9.132335657465825	12.249839	3.4999769
9.149918318165264	12.390488	3.5200124
9.167501194743924	12.850926	3.5848188
9.18508428762374	12.505714	3.536342
9.202667597226693	12.572833	3.545819
9.220251123974803	12.293537	3.5062141
9.237834868290143	11.926402	3.4534624
9.255418830594836	11.648601	3.4130046
9.273003011311046	11.161409	3.3408697
9.290587410860985	10.985604	3.3144538
9.308172029666911	10.315438	3.2117655
9.32575686815113	10.0394	3.1685011
9.343341926735997	8.76421	2.9604409
9.360927205843916	8.620963	2.9361477
9.378512705897327	8.408826	2.8997974
9.396098427318728	8.151244	2.8550384
9.413684370530664	7.9876857	2.8262494
9.431270535955722	7.8217683	2.7967424
9.448856924016539	7.7715898	2.7877572
9.466443535135806	7.7037206	2.7755578
9.484030369736251	7.6918764	2.7734232
9.501617428240658	7.664523	2.7684875
9.519204711071852	7.624618	2.761271
9.536792218652714	7.653225	2.7664464
9.55437995140617	7.7542934	2.7846532
9.571967909755191	7.828202	2.7978923
9.589556094122802	7.8425546	2.800456
9.60714450493207	7.8633432	2.8041654
9.624733142606116	7.8681655	2.805025
9.642322007568108	7.8400326	2.800006
9.659911100241267	7.9424305	2.8182318
9.677500421048851	7.9504776	2.8196592
9.695089970414175	8.019659	2.8319004
9.712679748760609	8.040324	2.8355465
9.730269756511557	8.040583	2.835592
9.747859994090492	8.057936	2.8386502
9.765450461920915	8.08994	2.844282
9.78304116042639	8.148895	2.854627
9.800632090030527	8.26958	2.8756878
9.81822325115699	8.339614	2.887839
9.835814644229481	8.345398	2.8888402
9.853406269671762	8.300329	2.8810291
9.870998127907646	8.228589	2.8685517
9.888590219360985	8.237268	2.8700643
9.906182544455698	8.232791	2.8692842
9.923775103615734	8.27906	2.8773355
9.941367897265108	8.280746	2.8776286
9.958960925827878	8.369377	2.8929875
9.97655418972816	8.339652	2.8878455
9.994147689390106	8.318165	2.8841228
10.011741425237934	8.257679	2.8736176
10.029335397695904	8.231507	2.8690603
10.04692960718833	8.283951	2.8781853
10.06452405413958	8.283704	2.8781424
10.082118738974064	8.2209425	2.8672185
10.099713662116246	8.180306	2.8601234
10.117308823990651	8.184702	2.8608918
10.134904225021844	8.226893	2.868256
10.152499865634445	8.236961	2.8700106
10.170095746253125	8.13337	2.8519065
10.18769186730261	8.069265	2.8406453
10.205288229207675	8.066932	2.8402345
10.222884832393145	8.127889	2.8509452
10.2404816772839	8.120717	2.849687
10.258078764304868	8.119861	2.849537
10.275676093881035	8.050228	2.8372924
10.293273666437438	7.9790196	2.8247159
10.310871482399158	8.015359	2.831141
10.32846954219134	8.019807	2.8319263
10.346067846239173	8.006201	2.829523
10.363666394967908	7.992692	2.8271348
10.38126518880283	7.9116983	2.8127742
10.398864228169298	8.008628	2.829952
10.416463513492713	8.066971	2.8402414
10.434063045198531	8.090254	2.8443372
10.451662823712262	8.166367	2.8576856
10.469262849459467	8.076806	2.841972
10.486863122865758	7.9998097	2.8283935
10.504463644356806	7.9501147	2.8195949
10.522064414358338	7.913357	2.8130689
10.539665433296118	7.8864536	2.808283
10.557266701595987	7.851173	2.8019946
10.574868219683818	7.7713227	2.7877092
10.592469987985552	7.7886434	2.7908142
10.610072006927185	7.6517086	2.7661722
10.627674276934751	7.5854645	2.754172
10.64527679843435	7.422399	2.724408
10.662879571852143	7.3154488	2.7047086
10.680482597614331	7.194507	2.682258
10.698085876147173	7.117098	2.667789
10.715689407876988	6.9953084	2.6448646
10.733293193230146	6.8758364	2.6221817
10.750897232633072	6.800147	2.6077092
10.76850152651225	6.7517037	2.5984042
10.786106075294207	6.6736345	2.5833378
10.803710879405534	6.589016	2.566908
10.821315939272877	6.4982324	2.549163
10.83892125532294	6.410235	2.5318441
10.856526827982472	6.321773	2.5143137
10.874132657678285	6.2599545	2.50199
10.891738744837243	6.264148	2.5028281
10.909345089886271	6.2116594	2.49232
10.926951693252343	6.222394	2.4944727
10.944558555362494	6.180274	2.4860158
10.96216567664381	6.09984	2.4697855
10.979773057523436	5.976784	2.4447463
10.997380698428573	5.8665137	2.4220886
11.014988599786477	5.8122416	2.410859
11.032596762024461	5.770022	2.402087
11.050205185569892	5.6863136	2.3845992
11.067813870850198	5.6181917	2.3702724
11.085422818292859	5.5012007	2.3454638
11.10303202832541	5.3971148	2.3231692
11.120641501375454	5.324574	2.307504
11.138251237870636	5.2426467	2.2896826
11.155861238238671	5.204475	2.2813318
11.173471502907317	5.146126	2.2685075
11.191082032304402	5.1003942	2.2584052
11.208692826857805	5.0660195	2.250782
11.226303886995465	4.988613	2.2335203
11.243915213145371	4.922983	2.2187796
11.261526805735578	4.820426	2.1955469
11.279138665194196	4.8029456	2.1915624
11.296750791949393	4.79169	2.188993
11.314363186429393	4.7337275	2.175713
11.331975849062479	4.6610465	2.1589458
11.34958878027699	4.6143203	2.1480968
11.36720198050133	4.5668163	2.137011
11.384815450163948	4.5279026	2.1278868
11.402429189693366	4.490593	2.119102
11.420043199518153	4.4610004	2.112108
11.437657480066942	63.3906	7.961821
11.455272031768422	85.09843	9.224881
11.472886855051353	107.54105	10.3702
11.490501950344528	99.17708	9.958769
11.508117318076819	84.49706	9.192228
11.52573295867715	45.885803	6.773906
11.543348872574514	4.165204	2.040883
11.560965060197946	4.108605	2.0269694
11.57858152197655	4.0558867	2.0139232
11.59619825833949	4.045448	2.01133
11.613815269715985	4.0670915	2.0167031
11.631432556535323	38.55665	6.2094
11.649050119226837	83.04575	9.112945
11.666667958219929	93.368576	9.662742
11.68428607394406	107.643105	10.375119
11.701904466828756	82.472275	9.081425
11.719523137303586	65.34824	8.083826
11.737142085798196	4.5824633	2.1406689
11.754761312742286	3.6973178	1.9228411
11.772380818565619	3.6574256	1.9124397
11.790000603698015	3.6274886	1.9045967
11.80762066856935	3.572282	1.8900481
11.825241013609572	3.546891	1.8833191
11.842861639248683	3.5317771	1.8793023
11.860482545916748	3.5367937	1.8806366
11.878103734043883	3.5058575	1.8723935
11.895725204060282	3.4197865	1.8492664
11.91334695639619	3.3575196	1.8323536
11.930968991481919	3.345119	1.8289666
11.948591309747824	3.3225708	1.822792
11.966213911624347	3.3067608	1.8184501
11.98383679754198	3.255411	1.8042758
12.001459967931268	3.2361019	1.7989168
12.019083423222835	3.2269406	1.7963687
12.036707163847352	3.1931095	1.7869273
12.05433119023556	3.1630454	1.7784953
12.071955502818259	3.1362953	1.7709589
12.089580102026313	3.1212926	1.766718
12.107204988290643	3.1196656	1.7662575
12.12483016204224	3.1312618	1.7695372
12.142455623712152	3.131876	1.7697107
12.16008137373149	3.114374	1.764759
12.177707412531431	3.0700362	1.7521518
12.19533374054321	3.0810037	1.7552788
12.212960358198126	3.0939758	1.7589701
12.230587265927545	3.0765145	1.7539996
12.248214464162889	3.0661917	1.7510544
12.265841953335649	3.054647	1.7477548
12.283469733877375	3.0610037	1.7495724
12.301097806219685	3.0537908	1.7475098
12.31872617079425	2.9669757	1.7224911
12.336354828032825	2.9299695	1.7117153
12.353983778367205	2.926022	1.7105619
12.371613022229262	2.9359107	1.71345
12.389242560050928	2.9464753	1.71653
12.406872392264201	2.9327471	1.7125266
12.424502519301143	2.9199288	1.7087799
12.442132941593874	2.889914	1.6999748
12.459763659574586	2.8478742	1.6875646
12.477394673675532	2.8399642	1.6852193
12.49502598432903	2.7734106	1.665356
12.51265759196746	2.716596	1.6482099
12.530289497023267	2.7108724	1.6464727
12.547921699928967	2.7592266	1.6610919
12.565554201117134	2.791219	1.6706941
12.583187001020404	2.7956445	1.672018
12.600820100071486	2.7960625	1.6721431
12.618453498703152	2.7913256	1.6707261
12.636087197348235	2.7899675	1.6703196
12.65372119643964	2.786709	1.669344
12.671355496410326	2.8138497	1.6774533
12.68899009769333	2.843463	1.6862571
12.706625000721749	2.8479085	1.6875747
12.724260205928752	2.8649735	1.6926233
12.741895713747551	2.8936052	1.70106
12.759531524611454	2.9608243	1.7207046
12.777167638953818	2.9682024	1.7228472
12.794804057208072	3.0030406	1.7329283
12.812440779807702	3.0151136	1.7364082
12.830077807186271	3.1866298	1.7851133
12.847715139777405	3.2120886	1.79223
12.865352778014795	3.445783	1.856282
12.882990722332197	3.553081	1.8849618
12.90062897316344	3.666812	1.9148922
12.918267530942412	3.7356086	1.9327723
12.935906396103071	3.6247756	1.9038844
12.953545569079449	3.7283802	1.9309014
12.971185050305628	3.5141578	1.8746088
12.988824840215775	3.4869483	1.8673372
13.006464939244115	3.5344486	1.880013
13.024105347824943	3.4266818	1.8511299
13.041746066392617	3.5288427	1.8785214
13.05938709538157	3.3273482	1.824102
13.077028435226296	3.2948556	1.8151737
13.094670086361363	3.232567	1.797934
13.112312049221401	3.164096	1.7787906
13.129954324241112	3.0811143	1.7553103
13.147596911855258	2.8770542	1.6961881
13.165239812498685	2.8364112	1.6841649
13.182883026606293	2.778247	1.6668074
13.200526554613058	2.7144382	1.6475552
13.218170396954017	2.6800652	1.6370904
13.235814554064284	2.6622405	1.6316373
13.253459026379034	2.70039	1.6432863
13.271103814333523	2.7125401	1.6469791
13.288748918363058	2.6812093	1.6374398
13.306394338903031	2.6460202	1.6266592
13.32404007638889	2.600686	1.6126642
13.341686131256164	2.6228948	1.6195353
13.359332503940449	2.6370673	1.623905
13.376979194877402	2.6656778	1.6326903
13.394626204502751	2.7001154	1.6432028
13.412273533252307	2.747579	1.6575823
13.429921181561937	2.736475	1.6542294
13.447569149867581	2.7284122	1.6517906
13.465217438605247	2.7258391	1.6510116
13.482866048211022	2.7100105	1.6462109
13.500514979121052	2.7185442	1.6488008
13.518164231771568	2.6859043	1.6388729
13.535813806598844	2.6841466	1.6383365
13.553463704039254	2.677992	1.6364572
13.571113924529229	2.666261	1.6328689
13.588764468505275	2.657948	1.6303215
13.606415336403956	2.6971846	1.6423107
13.624066528661917	2.7162097	1.6480927
13.641718045715882	2.7797627	1.6672621
13.659369888002635	2.8056383	1.675004
13.67702205595903	2.8368034	1.6842812
13.694674550021993	2.9118488	1.706414
13.712327370628532	2.9559164	1.7192779
13.729980518215713	3.048892	1.7461077
13.747633993220681	3.1364963	1.7710156
13.765287796080647	3.1980906	1.7883205
13.7829419272329	3.2262676	1.7961814
13.800596387114801	3.2178795	1.7938449
13.818251176163775	3.2132554	1.7925556
13.835906294817324	3.2882347	1.813349
13.853561743513023	3.3565238	1.8320818
13.871217522688525	3.4092484	1.846415
13.888873632781538	3.4208772	1.8495613
13.906530074229858	3.434485	1.8532363
13.92418684747135	3.431622	1.8524637
13.941843952943948	3.4289343	1.8517382
13.959501391085665	3.3921278	1.841773
13.977159162334578	3.3615928	1.8334647
13.994817267128846	3.321916	1.8226124
14.012475705906693	3.2274382	1.7965072
14.030134479106424	3.1748254	1.781804
14.047793587166414	3.126014	1.7680538
14.065453030525108	3.1026359	1.76143
14.083112809621026	3.0503533	1.7465261
14.100772924892766	3.0084395	1.7344854
14.118433376778997	2.9332876	1.7126843
14.136094165718458	2.851204	1.6885508
14.153755292149969	2.797652	1.6726183
14.171416756512416	2.730703	1.6524839
14.189078559244768	2.6554193	1.6295458
14.20674070078606	2.6026235	1.6132648
14.224403181575408	2.5371072	1.59283
14.242066002051999	2.510268	1.5843825
14.259729162655093	2.458259	1.5678836
14.277392663824022	2.456752	1.567403
14.295056505998208	2.4485812	1.5647943
14.312720689617128	2.4377499	1.5613295
14.330385215120348	2.3976018	1.5484191
14.348050082947497	2.4021914	1.5499004
14.3657152935383	2.3752065	1.5411705
14.383380847332528	2.372574	1.5403162
14.401046744770051	2.3617284	1.5367916
14.418712986290798	2.3435524	1.5308665
14.436379572334793	2.3323023	1.5271877
14.454046503342123	2.3541293	1.5343173
14.471713779752946	2.3708832	1.5397673
14.489381402007504	2.3802547	1.5428075
14.507049370546113	2.3591506	1.5359527
14.524717685809168	2.3510861	1.5333252
14.542386348237134	2.3453946	1.5314682
14.560055358270553	2.3424053	1.5304918
14.577724716350051	2.364413	1.5376648
14.595394422916325	2.3584704	1.5357312
14.61306447841015	2.3568609	1.5352072
14.63073488327237	2.3561194	1.5349656
14.648405637943917	2.4270053	1.5578849
14.6660767428658	2.446982	1.5642833
14.683748198479094	2.4971704	1.5802438
14.701420005224954	2.5148158	1.5858171
14.719092163544628	2.577626	1.6054987
14.73676467387942	2.6217966	1.6191963
14.754437536670727	2.6184103	1.6181502
14.772110752360014	2.608432	1.6150641
14.78978432138882	2.5834513	1.6073118
14.807458244198777	2.5977237	1.6117456
14.82513252123159	2.5957603	1.6111363
14.842807152929028	2.6575444	1.6301976
14.860482139732962	2.6542065	1.6291735
14.87815748208531	2.6758282	1.635796
14.8958331804281	2.6743124	1.6353325
14.91350923520342	2.63281	1.6225936
14.931185646853438	2.6672509	1.633172
14.948862415820408	2.6845813	1.6384692
14.966539542546656	2.739074	1.6550148
14.98421702747459	2.6844904	1.6384414
15.001894871046696	2.656698	1.629938
15.019573073705542	2.6363978	1.6236988
15.037251635893766	2.606678	1.614521
15.054930558054092	2.621172	1.6190034
15.072609840629323	2.6924706	1.640875
15.090289484062351	2.8277624	1.6815952
15.107969488796124	3.1288586	1.768858
15.125649855273691	3.5515456	1.8845545
15.14333058393817	4.047623	2.0118706
15.161011675232768	4.957693	2.2265878
15.17869312960076	6.247253	2.4994504
15.196374947485506	8.086713	2.8437147
15.214057129330447	11.111271	3.3333573
15.231739675579114	15.738751	3.9672096
15.249422586675102	20.826357	4.5635905
15.267105863062092	24.06739	4.905853
15.284789505183847	24.502422	4.949992
15.302473513484218	22.479084	4.7412114
15.320157888407127	18.928406	4.350679
15.337842630396578	14.747352	3.840228
15.355527739896656	11.474613	3.38742
15.37321321735153	8.973927	2.9956512
15.39089906320545	6.521805	2.5537825
15.408585277902748	4.899792	2.2135475
15.42627186188783	3.7193844	1.9285705
15.443958815605198	3.1559024	1.7764859
15.461646139499424	2.8666494	1.6931182
15.479333834015168	2.7577007	1.6606326
15.497021899597165	2.7042217	1.6444519
15.514710336690234	2.642261	1.6255033
15.53239914573928	2.59185	1.6099224
15.550088327189297	2.5431406	1.5947227
15.567777881485336	2.4920201	1.5786134
15.58546780907256	2.4554546	1.5669891
15.6031581103962	2.4465208	1.5641358
15.620848785901568	2.4637673	1.5696392
15.638539836034063	2.460307	1.5685365
15.656231261239173	2.4178915	1.554957
15.673923061962451	2.399039	1.5488832
15.691615238649552	2.404004	1.5504851
15.709307791746202	2.4185565	1.5551709
15.727000721698221	2.4093428	1.5522058
15.744694028951498	2.404992	1.5508037
15.76238771395202	2.3915424	1.5464612
15.780081777145844	2.3730397	1.5404674
15.797776218979125	2.3773105	1.541853
15.815471039898094	2.401624	1.5497174
15.833166240349064	2.411466	1.5528896
15.850861820778437	2.399315	1.5489722
15.868557781632699	2.3529413	1.5339301
15.886254123358412	2.3881853	1.5453755
15.903950846402232	2.3982303	1.548622
15.921647951210897	2.3876543	1.5452037
15.939345438231225	2.3399997	1.5297058
15.957043307910133	2.3205428	1.5233328
15.974741560694602	2.3531375	1.533994
15.992440197031714	2.384887	1.544308
16.01013921736862	2.3830988	1.5437288
16.02783862215259	2.370267	1.5395671
16.045538411830933	2.3375502	1.5289049
16.06323858685107	2.3741698	1.5408342
16.080939147660512	2.3629048	1.5371743
16.09864009470684	2.3892143	1.5457083
16.11634142843774	2.3714416	1.5399486
16.134043149300954	2.408453	1.5519191
16.15174525774433	2.4206996	1.5558598
16.169447754215817	2.4400172	1.5620555
16.18715063916342	2.412931	1.5533612
16.204853913035244	2.3999736	1.5491848
16.222557576279478	2.4003122	1.5492941
16.240261629344403	22.384817	4.7312593
16.257966072678386	42.92356	6.5516076
16.275670906729868	38.020813	6.166102
16.293376131947387	2.426274	1.5576502
16.31108174877957	2.4696555	1.5715138
16.328787757675133	2.4932404	1.5789998
16.34649415908287	2.5168936	1.586472
16.364200953451657	2.5803068	1.6063334
16.38190814123048	2.6291938	1.6214789
16.39961572286839	2.6491296	1.6276147
16.41732369881455	2.6601942	1.6310102
16.43503206951817	2.6803925	1.6371905
16.45274083542859	2.6955273	1.6418061
16.47044999699522	2.7428577	1.6561575
16.488159554667558	2.8010435	1.6736318
16.505869508895184	2.878676	1.6966661
16.523579860127786	2.9461172	1.7164257
16.541290608815117	2.9731073	1.7242701
16.559001755407035	2.9661689	1.7222569
16.57671330035348	2.9678907	1.7227567
16.59442524410448	3.030283	1.7407708
16.61213758711015	3.1071634	1.7627147
16.629850329820705	3.181613	1.7837076
16.647563472686436	3.2800903	1.8111019
16.665277016157724	3.3616693	1.8334856
16.682990960685053	3.4026914	1.8446386
16.70070530671898	3.3727286	1.836499
16.718420054710155	3.3849387	1.8398203
16.736135205109335	3.4461246	1.856374
16.753850758367335	3.5449967	1.8828162
16.771566714935087	3.6201477	1.9026686
16.789283075263597	3.6712866	1.9160602
16.80699983980398	3.7234428	1.9296224
16.82471700900741	3.794248	1.947883
16.84243458332518	3.8679833	1.9667189
16.860152563208665	3.9331043	1.9832056
16.87787094910932	3.9638414	1.9909399
16.89558974147871	4.02742	2.0068433
16.913308940768466	4.0874047	2.021733
16.931028547430333	4.204891	2.0505831
16.94874856191613	4.2873454	2.0705905
16.966468984677785	4.3915505	2.0956028
16.98418981616729	4.4421477	2.1076403
17.00191105683676	4.476154	2.1156924
17.019632707138374	4.492823	2.119628
17.03735476752442	4.497953	2.1208377
17.05507723844728	4.5182104	2.1256082
17.072800120359403	4.5270963	2.1276975
17.090523413713353	4.548742	2.132778
17.108247118961785	4.575543	2.139052
17.125971236557437	4.594867	2.1435642
17.143695766953133	4.5795407	2.139986
17.161420710601806	4.5961328	2.1438594
17.179146067956477	4.647238	2.1557453
17.19687183947025	4.7328725	2.1755166
17.21459802559634	4.735018	2.1760097
17.232324626788028	4.6768513	2.162603
17.25005164349871	4.639888	2.1540399
17.267779076181863	4.6142607	2.148083
17.285506925291074	4.603143	2.1454937
17.30323519127999	4.5326595	2.1290042
17.320963874602384	4.4954553	2.1202488
17.33869297571211	4.4787536	2.1163065
17.356422495063114	4.450484	2.109617
17.37415243310944	4.4500484	2.1095138
17.391882790305218	4.4303575	2.1048415
17.40961356710468	4.4161716	2.1014688
17.42734476396215	4.443007	2.107844
17.445076381332044	4.4576354	2.1113112
17.462808419668868	4.584076	2.1410456
17.48054087942723	4.6651945	2.1599061
17.498273761061835	4.920438	2.218206
17.51600706502747	5.3570666	2.3145337
17.533740791779024	6.1093893	2.4717178
17.551474941771485	7.57214	2.7517521
17.56920951545993	8.735611	2.9556067
17.586944513299528	11.05085	3.324282
17.60467993574556	12.755517	3.5714867
17.622415783253373	14.513468	3.8096545
17.64015205627843	15.945707	3.9932077
17.657888755276293	17.146387	4.1408195
17.675625880702604	17.612167	4.1966853
17.69336343301311	17.411583	4.172719
17.71110141266366	16.444534	4.0551863
17.728839820110178	15.499059	3.9368844
17.746578655808705	14.473074	3.8043494
17.764317920215372	12.934744	3.5964904
17.7820576137864	11.436313	3.3817618
17.79979773697811	9.451591	3.074344
17.81753829024692	7.5618663	2.7498848
17.835279274049356	5.856145	2.4199474
17.85302068884201	4.815927	2.1945221
17.870762535081607	4.133351	2.0330644
17.888504813224934	3.784183	1.9452977
17.90624752372891	3.6264884	1.9043341
17.923990667050536	3.5819395	1.8926013
17.941734243646895	3.5052238	1.8722243
17.959478253975185	3.433797	1.8530507
17.9772226984927	3.397489	1.8432279
17.994967577656833	3.3861067	1.8401377
18.01271289192506	3.3692865	1.8355616
18.030458641754965	3.3403902	1.8276734
18.04820482760425	3.2969048	1.8157381
18.06595144993067	3.2741413	1.8094589
18.083698509192125	3.2518857	1.8032986
18.101446005846576	3.2290587	1.7969582
18.119193940352105	3.2193422	1.7942525
18.136942313166887	3.2356796	1.7987995
18.1546911247492	3.237726	1.7993683
18.1724403755574	3.157383	1.7769027
18.19019006604997	3.0915358	1.7582763
18.207940196685467	3.0921884	1.758462
18.225690767922575	3.11712	1.7655368
18.243441780220046	3.1238859	1.7674518
18.261193234036764	3.1144238	1.764773
18.278945129831676	3.0556035	1.7480285
18.29669746806386	3.005222	1.7335576
18.314450249192483	3.033887	1.7418057
18.3322034736768	3.0837326	1.756056
18.349957141976184	3.0720842	1.7527362
18.3677112545501	3.047818	1.7458001
18.385465811858108	3.0198734	1.7377783
18.403220814359884	3.0064924	1.733924
18.420976262515172	3.0377936	1.7429267
18.43873215678387	3.0846517	1.7563176
18.456488497625923	3.147313	1.7740668
18.474245285501407	3.2030869	1.789717
18.492002520870486	3.2545378	1.8040338
18.50976020419343	3.2956057	1.8153803
18.527518335930615	3.5855918	1.8935659
18.545276916542516	4.16751	2.041448
18.563035946489688	4.314494	2.077136
18.580795426232832	4.7010107	2.1681814
18.598555356232698	4.6699905	2.161016
18.616315736950185	5.0191927	2.2403555
18.63407656884626	4.7307944	2.175039
18.65183785238201	4.851936	2.202711
18.669599588018617	4.632497	2.1523235
18.68736177621737	4.5357475	2.1297295
18.705124417439652	4.5433335	2.1315098
18.72288751214696	4.378776	2.0925524
18.740651060800886	4.552509	2.1336608
18.758415063863115	4.2588186	2.0636904
18.77617952179546	4.4025393	2.098223
18.793944435059814	4.146625	2.0363264
18.811709804118184	4.17828	2.044084
18.829475629432675	4.120523	2.0299072
18.8472419114655	3.925315	1.9812407
18.86500865067897	3.998726	1.9996815
18.88277584753551	3.68056	1.9184786
18.90054350249763	3.6768668	1.9175158
18.918311616027957	3.3546457	1.8315692
18.936080188589226	3.3048007	1.8179111
18.953849220644265	2.982975	1.7271291
18.971618712656007	2.8200138	1.6792897
18.9893886650875	2.7506344	1.6585037
19.007159078401887	7.979451	2.8247921
19.024929953062408	32.87043	5.733274
19.042701289532435	32.8221	5.729058
19.060473088275405	25.364164	5.036285
19.07824534975489	2.626157	1.6205422
19.096018074434568	2.6236522	1.6197692
19.113791262778197	2.6301262	1.6217664
19.13156491524966	2.5929646	1.6102685
19.149339032312945	2.5849714	1.6077846
19.167113614432136	2.5771358	1.605346
19.184888662071433	2.536533	1.5926497
19.202664175695123	2.498918	1.5807966
19.220440155767623	2.513781	1.5854908
19.238216602753447	2.5713863	1.6035542
19.2559935171172	2.5864997	1.6082598
19.27377089932361	2.5492136	1.5966257
19.291548749837514	2.493144	1.5789692
19.309327069123835	2.461296	1.5688518
19.32710585764763	2.4719071	1.57223
19.344885115874032	2.467964	1.5709754
19.362664844268313	2.4770827	1.5738751
19.380445043295822	2.4673555	1.5707818
19.39822571342203	2.5039585	1.5823901
19.41600685511252	2.4833305	1.5758586
19.43378846883297	2.4603047	1.5685358
19.451570555049173	2.4111335	1.5527825
19.469353114227037	2.3985653	1.5487303
19.48713614683254	2.4288287	1.55847
19.50491965333182	2.4652004	1.5700957
19.52270363419109	2.4657502	1.5702708
19.540488089876686	2.4323478	1.5595986
19.55827302085503	2.4188957	1.55528
19.576058427592674	2.4252653	1.5573263
19.593844310556282	2.4713538	1.572054
19.611630670212598	2.4962568	1.5799547
19.629417507028506	2.4987411	1.5807407
19.64720482147098	2.4874077	1.5771518
19.6649926140071	2.4636216	1.5695928
19.682780885104084	2.4647837	1.569963
19.70056963522921	2.4870121	1.5770264
19.718358864849908	2.5273075	1.5897508
19.7361485744337	2.5243635	1.5888246
19.753938764448215	2.4967506	1.5801109
19.771729435361202	2.47189	1.5722245
19.789520587640506	2.4888961	1.5776236
19.807312221754092	2.4949942	1.579555
19.825104338170043	2.5113862	1.5847354
19.842896937356517	2.5021803	1.5818281
19.860690019781824	2.5012815	1.581544
19.87848358591436	2.5375764	1.5929772
19.896277636222635	2.514038	1.5855719
19.914072171175278	2.4921584	1.5786572
19.931867191241015	2.468249	1.5710663
19.94966269688869	2.457992	1.5677985
19.967458688587264	2.4384837	1.5615646
19.985255166805807	2.4419963	1.5626888
20.00305213201348	2.4647667	1.5699576
20.020849584679578	2.4300315	1.5588559
20.038647525273507	2.4354331	1.5605874
20.05644595426477	2.3977406	1.548464
20.07424487212299	2.4036126	1.5503589
20.092044279317903	2.4458897	1.5639341
20.109844176319353	2.4574287	1.5676188
20.127644563597304	2.4551544	1.5668932
20.145445441621817	2.4498706	1.5652063
20.16324681086307	2.4601326	1.568481
20.181048671791373	2.4381077	1.5614442
20.198851024877122	2.4227424	1.556516
20.216653870590836	2.4024289	1.5499771
20.234457209403146	2.3666081	1.5383784
20.252261041784802	2.3464663	1.531818
20.270065368206662	2.331239	1.5268395
20.287870189139685	2.3449585	1.5313257
20.305675505054968	2.355141	1.5346469
20.323481316423702	2.3920772	1.5466342
20.341287623717207	2.4200833	1.5556617
20.359094427406884	2.4108992	1.5527071
20.376901727964288	2.3627627	1.5371281
20.39470952586107	2.3484604	1.5324688
20.41251782156899	2.3329122	1.5273874
20.430326615559935	2.3035965	1.5177604
20.448135908305886	2.3026686	1.5174546
20.465945700278965	2.3173509	1.5222847
20.483755991951384	2.3253386	1.524906
20.50156678379548	2.3119628	1.520514
20.519378076283708	2.3080564	1.5192288
20.537189869888635	2.3057404	1.5184665
20.55500216508294	2.2788687	1.5095922
20.572814962339415	2.2843935	1.5114211
20.59062826213098	2.288883	1.5129055
20.60844206493066	2.3292294	1.5261813
20.626256371211593	2.3320875	1.5271174
20.644071181447032	2.3160253	1.5218493
20.66188649611036	2.3013904	1.5170335
20.67970231567506	2.3103526	1.5199844
20.697518640614742	2.3163218	1.5219468
20.715335471403122	2.3027697	1.517488
20.73315280851404	2.296505	1.5154223
20.750970652421447	2.3344302	1.5278842
20.768789003599412	2.333492	1.5275772
20.786607862522136	2.2914379	1.5137496
20.8044272296639	2.2412179	1.4970697
20.82224710549913	2.2237322	1.4912183
20.84006749050237	2.2372167	1.4957328
20.857888385148268	3.8316932	1.9574711
20.8757097899116	45.978325	6.7807317
20.893531705267254	64.824	8.051335
20.911354131690224	83.7953	9.153977
20.92917706965566	69.02889	8.308363
20.94700051963877	50.094215	7.077727
20.96482448211493	29.428179	5.4247746
20.982648957559622	4.1695485	2.0419471
21.00047394644843	2.2565913	1.5021955
21.01829944925707	2.2173676	1.4890828
21.036125466461375	2.2181652	1.4893506
21.053951998537297	2.2086322	1.4861468
21.071779045960906	2.2048833	1.484885
21.089606609208378	2.1867256	1.4787581
21.10743468875603	2.2102501	1.486691
21.12526328508028	2.2045238	1.4847639
21.143092398657675	2.2395763	1.4965214
21.16092202996488	2.22984	1.4932649
21.17875217947867	2.2254655	1.4917995
21.19658284767596	2.2144709	1.4881098
21.21441403503377	2.2102578	1.4866936
21.232245742029225	2.1909118	1.4801729
21.2500779691396	2.171892	1.473734
21.26791071684227	2.1787565	1.4760611
21.28574398561475	2.1778524	1.4757549
21.30357777593465	2.1693778	1.4728808
21.321412088279704	2.142372	1.4636843
21.339246923127792	2.118026	1.455344
21.357082280956888	2.097023	1.4481101
21.3749181622451	2.0990353	1.4488047
21.392754567470647	2.1405423	1.4630592
21.41059149711187	2.1562374	1.4684132
21.42842895164726	2.1665695	1.4719272
21.446266931555378	2.1116192	1.4531412
21.464105437314945	2.0827417	1.4431707
21.481944469404798	2.0582669	1.4346662
21.49978402830388	2.101966	1.4498159
21.51762411449127	2.122694	1.4569468
21.53546472844617	2.1299834	1.4594463
21.553305870647876	2.1392527	1.4626185
21.571147541575865	2.1149192	1.4542762
21.58898974170967	2.0890493	1.4453543
21.60683247152899	2.0570648	1.4342471
21.62467573151363	2.0769284	1.4411552
21.642519522143523	2.0947218	1.4473153
21.660363843898722	2.0762763	1.4409289
21.6782086972594	2.0439446	1.4296659
21.696054082705864	2.0481505	1.4311361
21.713900000718535	2.0764916	1.4410037
21.73174645177795	2.0607283	1.4355237
21.749593436364794	2.048759	1.4313487
21.767440954959845	2.0436575	1.4295655
21.785289008044032	2.0407114	1.4285347
21.803137596098388	2.014288	1.4192561
21.820986719604086	1.994468	1.4122564
21.838836379042412	2.0001726	1.4142746
21.85668657489478	2.0767508	1.4410936
21.87453730764273	2.0511692	1.4321903
21.892388577767914	1.9980904	1.4135382
21.91024038575213	1.9211808	1.3860667
21.928092732077285	1.934232	1.3907667
21.945945617225426	1.9740343	1.4050033
21.963799041678694	1.9950204	1.4124519
21.981653005919398	31.322393	5.596641
21.999507510429943	78.14759	8.840113
22.01736255569286	73.10911	8.550386
22.035218142190818	4.1984572	2.0490136
22.05307427040661	2.0303943	1.424919
22.07093094082315	2.016909	1.4201791
22.088788153923474	1.9848093	1.4088326
22.106645910190746	2.0120943	1.4184831
22.12450421010827	1.9971272	1.4131975
22.142363054159464	1.9570677	1.3989524
22.16022244282787	1.9500213	1.3964316
22.178082376597164	1.9690748	1.4032372
22.195942855951145	1.9594339	1.3997978
22.213803881373742	1.9320639	1.389987
22.231665453349002	1.8893727	1.3745445
22.24952757236111	1.8930701	1.3758888
22.26739023889438	1.9587198	1.3995427
22.28525345343323	1.9917612	1.4112977
22.30311721646225	1.9728565	1.4045842
22.320981528466113	1.9622872	1.4008166
22.33884638992964	1.9792862	1.4068711
22.356711801337788	1.9831494	1.4082434
22.37457776317561	1.9489307	1.3960412
22.392444275928337	1.9425569	1.3937564
22.410311340081282	1.9337916	1.3906083
22.428178956119904	1.947452	1.3955114
22.446047124529805	1.903223	1.3795735
22.46391584579669	1.9131961	1.3831834
22.481785120406414	1.9235665	1.386927
22.49965494884496	1.9518788	1.3970965
22.51752533159841	1.9537643	1.3977712
22.53539626915302	1.9572487	1.3990171
22.553267761995137	1.9302546	1.389336
22.571139810611264	1.891959	1.375485
22.589012415488025	1.9200336	1.3856528
22.60688557711216	1.9282281	1.3886065
22.624759295970566	1.9422455	1.3936447
22.642633572550263	1.951556	1.396981
22.660508407338362	1.9654714	1.4019527
22.67838380082217	1.9638456	1.4013728
22.696259753489077	1.9593539	1.3997692
22.714136265826614	1.9435313	1.3941059
22.73201333832246	1.9063596	1.3807098
22.74989097146439	1.9010719	1.3787936
22.76776916574035	1.9301134	1.3892852
22.785647921638393	1.9337275	1.3905853
22.803527239646712	1.96124	1.4004428
22.82140712025363	1.958523	1.3994724
22.839287563947593	1.982193	1.4079038
22.85716857121719	1.9891917	1.410387
22.875050142551135	1.9681543	1.4029093
22.892932278438277	1.953665	1.3977357
22.910814979367604	1.936966	1.3917493
22.928698245828222	1.8985393	1.377875
22.946582078309387	1.8868709	1.3736342
22.96446647730047	1.8552786	1.3620862
22.98235144329098	1.8830868	1.372256
23.000236976770562	1.8953227	1.3767072
23.018123078229	1.892218	1.3755791
23.03600974815619	1.8543952	1.3617618
23.053896987042194	1.8492438	1.359869
23.071784795377173	1.8774558	1.3702029
23.08967317365145	1.9008436	1.3787109
23.10756212235546	1.9110894	1.3824216
23.125451641979787	1.8707305	1.3677465
23.143341733015134	1.8948094	1.3765208
23.161232395952357	1.9086885	1.3815529
23.179123631282426	1.9357946	1.3913283
23.197015439496468	1.9058796	1.380536
23.214907821085717	1.9037468	1.3797634
23.23280077654157	1.8939213	1.3761982
23.250694306355538	1.9191362	1.3853289
23.268588411019277	1.921229	1.3860841
23.28648309102458	1.9275582	1.3883653
23.304378346863356	1.9386727	1.3923622
23.322274179027676	1.9574469	1.3990879
23.340170588009723	1.951169	1.3968425
23.358067574301852	1.9109583	1.3823742
23.37596513839651	1.9048357	1.3801578
23.39386328078629	1.9161154	1.3842382
23.411762001963947	1.9198177	1.3855748
23.429661302422353	1.9054141	1.3803674
23.4475611826545	1.9045141	1.3800414
23.46546164315356	1.9169357	1.3845345
23.48336268441279	1.9527829	1.39742
23.501264306925638	1.9697084	1.403463
23.51916651118564	1.9414921	1.3933743
23.537069297686497	1.9113309	1.3825089
23.554972666922037	1.8820615	1.3718824
23.57287661938623	1.9071864	1.3810092
23.59078115557318	1.903571	1.3796996
23.608686275977128	1.9032193	1.3795722
23.62659198109246	1.8928143	1.3757958
23.6444982714137	1.900494	1.378584
23.66240514743549	1.8880308	1.3740563
23.68031260965263	1.8573815	1.3628578
23.698220658560068	1.8350878	1.3546541
23.716129294652845	1.8747928	1.3692307
23.7340385184262	1.9157833	1.3841182
23.75194833037546	1.9341925	1.3907526
23.769858730996123	1.9423412	1.393679
23.78776972078382	1.9508935	1.3967439
23.80568130023431	1.9370403	1.391776
23.823593469843495	1.8985493	1.3778785
23.841506230107424	1.9157685	1.3841128
23.859419581522275	1.9044694	1.3800251
23.87733352458438	1.9246827	1.3873293
23.89524805979019	1.8948491	1.3765352
23.913163187636318	1.8757733	1.3695887
23.931078908619508	1.8896347	1.3746399
23.948995223236633	1.9371799	1.3918262
23.966912131984735	1.929165	1.3889438
23.98482963536096	1.9653888	1.4019233
24.002747733862616	1.9940405	1.412105
24.020666427987155	1.9956485	1.4126742
24.038585718232156	1.9728966	1.4045984
24.056505605095353	1.9932233	1.4118156
24.074426089074617	2.0521734	1.4325409
24.092347170667946	2.0839648	1.4435945
24.110268850373515	2.1395943	1.4627352
24.128191128689586	2.16976	1.4730105
24.146114006114626	2.1392362	1.4626127
24.164037483147187	2.0540917	1.4332103
24.181961560286005	2.0254476	1.4231822
24.199886238029926	2.033933	1.4261602
24.21781151687797	2.0637002	1.4365585
24.235737397329274	2.0664237	1.4375061
24.253663879883135	2.0418177	1.4289218
24.271590965038975	2.0396059	1.4281477
24.289518653296376	2.023305	1.4224292
24.30744694515505	2.0852354	1.4440345
24.32537584111486	2.1150339	1.4543155
24.34330534167581	2.0738559	1.4400889
24.361235447338046	1.9970593	1.4131736
24.379166158601876	1.9804671	1.4072907
24.39709747596772	2.0169728	1.4202017
24.41502939993615	2.0094447	1.4175489
24.432961931007917	1.9735923	1.404846
24.450895069683856	1.9633119	1.4011823
24.468828816465	1.9609048	1.4003232
24.4867631718525	1.9493874	1.3962047
24.504698136347656	1.9678416	1.4027978
24.52263371045192	1.9448426	1.3945761
24.540569894666874	1.910223	1.3821082
24.558506689494266	1.8809756	1.3714867
24.57644409543597	1.8632362	1.3650041
24.594382112994012	1.8809811	1.3714887
24.61232074267057	1.9365644	1.391605
24.630259984967953	1.9997257	1.4141166
24.64819984038863	2.0402443	1.4283712
24.66614030943522	2.035883	1.4268436
24.684081392610462	1.9801285	1.4071704
24.702023090417274	1.9471669	1.3954092
24.7199654033587	1.9654762	1.4019544
24.737908331937927	1.9760939	1.4057361
24.755851876658305	1.9713602	1.4040513
24.773796038023324	2.0014462	1.4147248
24.79174081653661	2.029549	1.4246224
24.809686212701962	2.0388737	1.4278914
24.827632227023294	2.0436983	1.4295797
24.8455788600047	2.0467255	1.4306382
24.8635261121504	2.0512514	1.432219
24.88147398396475	2.0611765	1.4356798
24.899422475952303	2.1004844	1.4493048
24.917371588617698	2.1296089	1.4593179
24.935321322465768	2.1520257	1.4669784
24.953271678001478	2.2787375	1.5095488
24.97122265572994	2.561714	1.6005355
24.989174256156414	2.9163496	1.7077323
25.00712647978632	3.3316126	1.8252705
25.02507932712521	3.8015783	1.9497637
25.043032798678798	4.3963523	2.096748
25.060986894952933	5.0641174	2.2503593
25.078941616453637	5.7998114	2.4082797
25.096896963687055	6.7055607	2.5895097
25.114852937159508	7.976396	2.8242514
25.132809537377444	8.538668	2.9220998
25.150766764847468	8.588043	2.9305363
25.168724620076347	7.866165	2.8046684
25.186683103570985	6.801696	2.608006
25.204642215838426	5.5898423	2.3642848
25.222601957385894	4.2056184	2.0507605
25.24056232872074	3.1745877	1.7817373
25.25852333035048	2.6479337	1.6272473
25.276484962782778	2.3558543	1.5348792
25.294447226525435	2.136193	1.4615722
25.312410122086423	2.0200326	1.4212785
25.330373649973843	1.9200126	1.3856452
25.348337810695988	1.8911277	1.3751827
25.366302604761245	1.8929108	1.375831
25.384268032678207	1.9240351	1.3870959
25.40223409495558	1.9470114	1.3953534
25.420200792102257	1.9319444	1.3899441
25.438168124627246	1.9282614	1.3886185
25.45613609303974	1.9179204	1.38489
25.474104697849057	1.8991283	1.3780886
25.492073939564698	1.8701372	1.3675296
25.510043818696285	1.8817538	1.3717703
25.528014335753614	1.8606782	1.3640668
25.54598549124664	1.7975938	1.3407438
25.56395728568544	1.8226067	1.3500395
25.58192971958028	1.8580824	1.363115
25.59990279344156	1.8843325	1.3727099
25.617876507779833	1.8557477	1.3622583
25.635850863105826	1.8272471	1.351757
25.653825859930386	1.8186191	1.3485619
25.671801498764548	1.8146473	1.3470885
25.68977778011949	1.8416067	1.3570582
25.707754704506524	1.8761078	1.3697108
25.725732272437153	1.8517227	1.3607802
25.743710484423012	1.8962156	1.3770314
25.761689340975888	1.9172529	1.384649
25.77966884260774	1.9039626	1.3798416
25.797648989830662	1.8753892	1.3694485
25.815629783156922	1.9025961	1.3793463
25.83361122309895	1.898425	1.3778335
25.85159331016929	1.8851801	1.3730186
25.869576044880695	1.9049844	1.3802117
25.887559427746034	1.8715153	1.3680334
25.90554345927836	1.829311	1.3525202
25.92352813999086	1.8161749	1.3476553
25.94151347039689	1.8000716	1.3416674
25.959499451009965	1.7979295	1.340869
25.97748608234374	1.8315607	1.3533517
25.995473364912062	1.8676095	1.366605
26.013461299228904	1.8443397	1.3580647
26.03144988580839	1.8418634	1.3571527
26.04943912516483	1.8327848	1.3538039
26.067429017812675	1.8247681	1.3508397
26.085419564266537	1.8011999	1.3420879
26.103410765041186	1.8284612	1.352206
26.12140262065155	1.8292445	1.3524957
26.139395131612723	1.81656	1.3477982
26.157388298439948	1.8469849	1.3590382
26.17538212164861	1.873883	1.3688985
26.193376601754295	1.8759749	1.3696623
26.211371739272714	1.85264	1.3611172
26.229367534719746	1.8232787	1.3502884
26.247363988611433	1.7992189	1.3413496
26.26536110146397	1.7795519	1.3339984
26.283358873793727	1.7794966	1.3339777
26.301357306117204	1.7836087	1.3355181
26.319356398951104	1.7962116	1.3402282
26.33735615281224	1.8139287	1.3468217
26.35535656821762	1.8032168	1.3428391
26.373357645684404	1.7715207	1.3309848
26.39135938572991	1.788227	1.3372461
26.409361788871614	1.7992878	1.3413754
26.427364855627165	1.8015226	1.3422081
26.445368586514352	1.8318818	1.3534703
26.46337298205115	1.839784	1.3563864
26.48137804275568	1.8161108	1.3476316
26.499383769146217	1.7718837	1.3311212
26.517390161741215	1.7810744	1.334569
26.53539722105928	1.7804934	1.3343513
26.553404947619182	1.7791829	1.3338602
26.571413341939856	1.8044281	1.34329
26.589422404540397	1.8021687	1.3424488
26.60743213594006	1.803496	1.3429431
26.62544253665827	1.7890422	1.3375509
26.64345360721459	1.8154427	1.3473836
26.66146534812879	1.7855564	1.3362472
26.679477759920758	1.7856234	1.3362722
26.69749084311057	1.7960485	1.3401674
26.71550459821847	1.7741151	1.3319591
26.733519025764842	1.7605054	1.3268404
26.751534126270258	1.776265	1.3327659
26.769549900255434	1.8046784	1.3433832
26.787566348241267	1.7950398	1.3397909
26.80558347074881	1.7965913	1.3403698
26.823601268299267	1.7935399	1.3392311
26.841619741414036	1.801929	1.3423595
26.85963889061465	1.8420795	1.3572323
26.877658716422832	1.8584256	1.3632408
26.89567921936045	1.8221155	1.3498576
26.913700399949544	1.7576817	1.3257759
26.93172225871233	1.760686	1.3269085
26.949744796171174	1.752343	1.323761
26.967768012848605	1.7927828	1.3389484
26.98579190926733	1.7816021	1.3347667
27.003816485950225	1.82663	1.3515288
27.021841743420318	1.8269421	1.3516442
27.039867682200814	1.8144572	1.3470179
27.057894302815072	1.832425	1.353671
27.07592160578664	1.8120906	1.3461392
27.0939495916392	1.8100142	1.3453677
27.111978260896635	1.7700788	1.330443
27.13000761408296	1.7916375	1.3385206
27.148037651722397	1.8178252	1.3482674
27.166068374339304	1.8209844	1.3494385
27.184099782458215	1.7957139	1.3400425
27.20213187660384	1.7940608	1.3394256
27.22016465730105	1.8010101	1.3420172
27.23819812507487	1.7787347	1.3336921
27.256232280450533	1.8175218	1.348155
27.274267123953383	1.8401408	1.3565179
27.292302656108987	1.8315222	1.3533374
27.31033887744306	1.8213065	1.3495579
27.32837578848146	1.8491323	1.359828
27.34641338975026	1.8314317	1.353304
27.364451681775673	1.8159254	1.3475628
27.382490665084074	1.7974273	1.3406817
27.400530340202046	1.7696474	1.3302809
27.41857070765629	1.768998	1.3300369
27.436611767973726	1.7519009	1.323594
27.454653521681404	1.7323511	1.3161881
27.472695969306564	1.7977846	1.340815
27.490739111376627	1.7900611	1.3379316
27.508782948419153	1.7651681	1.3285962
27.526827480961902	1.7979889	1.3408911
27.54487270953279	1.8328115	1.3538136
27.562918634659898	1.780701	1.3344291
27.580965256871508	1.728387	1.3146813
27.599012576696026	1.7114003	1.308205
27.617060594662068	1.714482	1.3093823
27.63510931129842	1.7180339	1.310738
27.65315872713401	1.7540165	1.3243929
27.67120884269797	1.8063174	1.3439931
27.68925965851958	1.8206555	1.3493167
27.707311175128307	1.8435593	1.3577774
27.725363393053787	1.8631021	1.364955
27.74341631282583	1.8822426	1.3719485
27.7614699349744	1.8624479	1.3647153
27.77952426002968	1.9870473	1.4096266
27.797579288521973	2.0615141	1.4357973
27.815635020981784	2.4644444	1.5698549
27.83369145793979	2.5381167	1.5931468
27.85174859992682	2.3546267	1.5344793
27.869806447473923	2.2188282	1.4895731
27.887865001112267	1.9664412	1.4022986
27.905924261373233	1.8892908	1.3745147
27.92398422878836	1.886024	1.373326
27.94204490388936	1.9004482	1.3785675
27.96010628720813	1.8419861	1.3571979
27.978168379276728	1.7824835	1.3350968
27.9962311806274	1.8195627	1.3489116
28.014294691792568	1.8290946	1.3524402
28.0323589133048	1.7807032	1.3344299
28.050423845696887	1.7675252	1.329483
28.068489489501758	1.8416237	1.3570644
28.086555845252523	1.8951471	1.3766434
28.104622913482487	1.8837155	1.3724852
28.122690694725115	1.8388288	1.3560342
28.14075918951405	1.8519794	1.3608745
28.15882839838312	1.9015495	1.3789668
28.176898321866304	1.924623	1.3873079
28.1949689604978	1.8916125	1.375359
28.213040314811945	1.8676076	1.3666044
28.23111238534327	1.8740575	1.3689622
28.249185172626493	1.9008421	1.3787103
28.267258677196473	1.9156641	1.3840752
28.285332899588294	1.9220369	1.3863754
28.303407840337172	1.9032124	1.3795696
28.321483499978545	1.9166352	1.3844259
28.33955987904799	1.9036843	1.3797406
28.357636978081285	1.9119788	1.3827432
28.37571479761439	1.9398154	1.3927726
28.393793338183425	1.9414698	1.3933663
28.41187260032469	1.9820455	1.4078513
28.429952584574686	2.017748	1.4204746
28.448033291470065	1.9618361	1.4006556
28.46611472154769	1.898107	1.3777181
28.484196875344566	1.9505756	1.39663
28.502279753397914	1.9392563	1.3925718
28.52036335624511	1.8930749	1.3758906
28.538447684423716	1.8886656	1.3742872
28.556532738471482	1.9928782	1.4116933
28.574618518926325	2.0093215	1.4175054
28.59270502632635	2.0111513	1.4181507
28.61079226120985	2.0327065	1.4257301
28.628880224115274	2.0586216	1.4347898
28.646968915581287	2.0604556	1.4354287
28.66505833614671	2.0038373	1.4155697
28.68314848635055	1.9720161	1.404285
28.701239366732004	1.986076	1.4092821
28.71933097783044	2.0612507	1.4357057
28.737423320185403	2.1301384	1.4594994
28.75551639433665	2.1661336	1.4717791
28.773610200824074	2.1671114	1.4721112
28.791704740187793	2.144931	1.4645584
28.80980001296809	2.116969	1.4549809
28.827896019705413	2.107552	1.4517411
28.845992760940433	2.1990032	1.4829036
28.86409023721397	2.2328377	1.4942683
28.88218844906704	2.2487972	1.499599
28.900287397040845	2.272529	1.5074909
28.918387081676755	2.2282765	1.4927412
28.936487503516343	2.2466593	1.498886
28.954588663101365	2.261844	1.5039428
28.97269056097374	2.2350385	1.4950045
28.990793197675597	2.3115113	1.5203655
29.00889657374923	2.3934598	1.5470811
29.027000689737125	2.4583228	1.567904
29.04510554618196	2.4795876	1.5746707
29.06321114362659	2.4325895	1.559676
29.08131748261405	2.4045632	1.5506654
29.099424563687567	2.4550047	1.5668454
29.11753238739057	2.5556638	1.5986444
29.13564095426663	2.606258	1.6143909
29.15375026485954	2.6215212	1.6191113
29.171860319713275	2.6453118	1.6264415
29.18997111937199	2.66274	1.6317904
29.20808266438002	2.6648567	1.6324389
29.226194955281898	2.6899176	1.6400968
29.244307992622335	2.7510355	1.6586245
29.26242177694624	2.7959275	1.6721027
29.2805363087987	2.8323178	1.6829492
29.29865158872498	2.865296	1.6927185
29.316767617270557	2.9403706	1.7147509
29.334884394981064	2.9735253	1.7243912
29.353001922402367	2.988744	1.7287984
29.37112020008047	3.0300424	1.7407017
29.389239228561596	3.1161897	1.7652732
29.407359008392152	3.3142736	1.8205147
29.42547954011872	3.6832078	1.9191685
29.44360082428809	4.3155994	2.077402
29.46172286144722	5.3959904	2.322927
29.479845652143283	7.0514927	2.6554646
29.497969196923606	9.312316	3.0516088
29.516093496335728	11.928291	3.4537358
29.5342185509274	14.653985	3.8280523
29.55234436124651	16.980406	4.120729
29.570470927841175	18.46053	4.2965717
29.588598251259686	18.228968	4.2695394
29.60672633205055	16.887596	4.1094522
29.624855170762405	14.689665	3.8327098
29.642984767944146	11.982472	3.4615707
29.66111512414481	9.106128	3.017636
29.67924623991366	6.728298	2.5938964
29.697378115800138	5.1266775	2.2642167
29.71551075235387	4.2047677	2.050553
29.733644150124675	3.707197	1.9254082
29.751778309662576	3.5125668	1.8741843
29.769913231517766	3.4002247	1.8439698
29.78804891624066	3.3880334	1.8406612
29.806185364381818	3.3625321	1.8337208
29.82432257649206	3.3431036	1.8284156
29.842460553122333	3.2846177	1.8123515
29.86059929482382	3.308704	1.8189843
29.878738802147872	3.2984955	1.816176
29.896879075646048	3.2358515	1.7988473
29.915020115870114	3.2131233	1.7925187
29.933161923371976	3.2257168	1.796028
29.951304498703777	3.2615032	1.8059633
29.969447842417857	3.2234032	1.7953838
29.987591955066733	3.1797302	1.7831798
30.005736837203123	3.1837392	1.7843035
30.023882489379943	3.1043735	1.7619232
30.04202891215028	3.1519687	1.7753785
30.060176106067455	3.1243246	1.7675759
30.078324071684946	3.1573842	1.7769029
30.09647280955646	3.166618	1.7794994
30.114622320235863	3.2286067	1.7968324
30.132772604277257	3.2036176	1.7898653
30.1509236622349	3.1649122	1.7790201
30.16907549466328	3.0663192	1.7510909
30.18722810211705	2.9802015	1.726326
30.205381485151097	2.9924214	1.7298616
30.22353564432045	3.00823	1.734425
30.241690580180403	3.03289	1.7415195
30.25984629328638	3.0132785	1.7358798
30.278002784194037	2.9815412	1.726714
30.296160053459246	2.9980388	1.7314845
30.314318101638033	3.018621	1.7374179
30.332476929286646	2.944224	1.7158742
30.35063653696153	2.9099574	1.7058598
30.368796925219307	2.980392	1.7263812
30.386958094616844	3.0013115	1.7324294
30.40512004571115	2.9318569	1.7122666
30.423282779059463	2.8998861	1.7029052
30.441446295219233	2.8386579	1.6848317
30.459610594748067	2.7904782	1.6704725
30.47777567820382	2.7780302	1.6667423
30.495941546144504	2.78063	1.6675222
30.51410819912835	2.7695231	1.6641884
30.532275637713795	2.7889678	1.6700203
30.55044386245946	2.831558	1.6827234
30.56861287392416	2.8104625	1.6764435
30.586782672666956	2.7902167	1.6703942
30.604953259247047	2.7678063	1.6636726
30.623124634223885	2.7799582	1.6673207
30.641296798157075	2.7693248	1.6641288
30.659469751606462	2.7801898	1.6673901
30.677643495132074	2.7666285	1.6633185
30.695818029294152	2.6839955	1.6382904
30.713993354653116	2.6564543	1.6298633
30.73216947176962	2.6916502	1.6406249
30.75034638120448	2.6837528	1.6382164
30.768524083518756	2.7121568	1.6468627
30.786702579273673	2.7802737	1.6674153
30.80488186903069	2.7720635	1.6649514
30.82306195335144	2.7558553	1.6600769
30.841242832797782	2.939455	1.7144839
30.85942450793176	3.3621445	1.8336152
30.877606979315637	3.7316418	1.9317458
30.895790247511883	4.0676937	2.0168524
30.913974313083134	4.5356374	2.1297035
30.932159176592283	4.96205	2.227566
30.95034483860237	5.0090017	2.23808
30.968531299676698	4.6399226	2.154048
30.98671856037873	4.2027426	2.050059
31.00490662127215	3.8253639	1.9558537
31.023095482920848	3.4589493	1.8598251
31.04128514588892	3.1403716	1.7721094
31.059475610740662	2.7553327	1.6599195
31.07766687804056	2.5192988	1.58723
31.09585894835335	2.4810774	1.5751436
31.11405182224393	2.4900746	1.5779971
31.132245500277417	2.4821987	1.5754995
31.15043998301914	2.4984078	1.5806353
31.168635271034628	2.5173976	1.586631
31.18683136488964	2.469108	1.5713396
31.20502826515008	2.4238083	1.5568585
31.223225972382135	2.385396	1.5444727
31.241424487152155	2.3715177	1.5399733
31.259623810026692	2.3504868	1.5331297
31.27782394157253	2.3655481	1.5380338
31.296024882356644	2.4096048	1.5522902
31.314226632946237	2.450127	1.5652881
31.332429193908684	2.4116855	1.5529603
31.350632565811598	2.3908594	1.5462404
31.368836749222787	2.439088	1.561758
31.387041744710295	2.5020561	1.5817889
31.40524755284232	2.5040414	1.5824163
31.423454174187317	2.471572	1.5721234
31.441661609313922	2.5162683	1.586275
31.459869858791002	2.5515006	1.5973418
31.478078923187628	2.5103984	1.5844237
31.496288803073064	2.4724016	1.5723872
31.514499499016807	2.4305422	1.5590197
31.532711011588546	2.3345928	1.5279374
31.550923341358178	2.3092282	1.5196145
31.56913648889584	2.2842605	1.511377
31.587350454771844	2.272296	1.5074136
31.605565239556732	2.2694888	1.5064822
31.62378084382127	2.2348197	1.4949313
31.641997268136382	2.2089596	1.486257
31.660214513073274	2.2406511	1.4968804
31.67843257920331	2.2934759	1.5144227
31.6966514670981	2.2798831	1.5099282
31.71487117732944	2.3275657	1.5256362
31.733091710469346	2.4075844	1.5516393
31.751313067090052	2.4198773	1.5555955
31.769535247764008	2.3784614	1.5422261
31.787758253063878	2.3921123	1.5466455
31.805982083562526	2.3341053	1.5277779
31.824206739833024	2.2853508	1.5117377
31.84243222244869	2.2431703	1.4977217
31.860658531983013	2.2389731	1.4963199
31.878885669009737	2.2359111	1.4952964
31.897113634102784	2.2420745	1.4973558
31.91534242783632	2.1468878	1.4652262
31.933572050784694	2.13775	1.4621046
31.951802503522508	2.1852071	1.4782447
31.970033786624548	2.1688223	1.4726921
31.988265900665834	2.1367881	1.4617757
32.006498846221575	2.1534119	1.4674509
32.02473262386724	2.1583102	1.4691188
32.04296723417845	2.158633	1.4692287
32.0612026777311	2.1513445	1.4667462
32.07943895510129	2.1452363	1.4646626
32.097676066865304	2.1093214	1.4523503
32.115914013599685	2.1099079	1.4525522
32.13415279588115	2.118655	1.45556
32.152392414286666	2.0598414	1.4352148
32.1706328693934	2.049317	1.4315436
32.18887416177875	2.0761528	1.4408861
32.20711629202032	2.1610093	1.4700372
32.225359260695924	2.182742	1.4774106
32.243603068383614	2.104173	1.4505768
32.26184771566166	1.9753559	1.4054736
32.28009320310852	2.0397553	1.4282
32.2983395313029	2.1286795	1.4589995
32.31658670082372	2.1725864	1.4739696
32.33483471225012	2.1454937	1.4647504
32.35308356616143	2.1358335	1.4614491
32.371333263137245	2.1311014	1.4598292
32.38958380375734	2.1778777	1.4757634
32.407835188601744	2.2124896	1.487444
32.42608741825067	2.2071981	1.4856642
32.444340493284585	2.0532072	1.4329016
32.46259441428416	2.0088341	1.4173335
32.48084918183028	2.0429626	1.4293224
32.49910479650405	2.0391116	1.4279747
32.51736125888683	2.0540845	1.4332078
32.53561856956014	2.02825	1.4241664
32.5538767291058	1.9410504	1.3932159
32.572135738105764	1.9419981	1.3935559
32.59039559714228	2.0038948	1.4155899
32.608656306797776	2.078877	1.4418311
32.62691786765491	2.0366426	1.4271098
32.645180280296586	2.0398219	1.4282234
32.663443545305896	2.1234927	1.4572209
32.68170766326619	2.1140888	1.4539906
32.69997263476099	2.0061646	1.4163914
32.7182384603741	2.0222766	1.4220678
32.7365051406895	1.9954957	1.4126202
32.75477267629144	1.9188583	1.3852286
32.77304106776434	1.8993938	1.3781849
32.79131031569289	1.9624155	1.4008625
32.809580420661966	1.9812938	1.4075844
32.827851383256714	1.9228636	1.3866736
32.84612320406245	1.8825649	1.3720659
32.86439588366476	1.9539181	1.3978262
32.88266942264945	2.045001	1.4300354
32.9009438216025	2.0477657	1.4310017
32.9192190811102	2.057842	1.4345181
32.937495201758985	2.0878272	1.4449315
32.95577218413556	1.967994	1.402852
32.974050028826866	1.8814263	1.3716509
32.992328736420035	1.9006406	1.3786372
33.010608307502444	1.9344463	1.3908437
33.02888874266169	1.9459856	1.3949859
33.047170042485604	1.99492	1.4124163
33.06545220756225	2.0771883	1.4412454
33.083735238479896	2.04409	1.4297168
33.10201913582707	1.9939835	1.4120848
33.12030390019248	1.9581952	1.3993553
33.138589532165135	2.0097563	1.4176588
33.15687603233419	1.9934729	1.411904
33.17516340128909	1.9273736	1.3882989
33.19345163961947	1.8791132	1.3708075
33.211740747915215	1.9418968	1.3935195
33.23003072676643	1.973364	1.4047648
33.248321576763466	1.9740157	1.4049968
33.266613298496885	1.9049853	1.3802121
33.28490589255747	1.8755323	1.3695008
33.30319935953626	1.9942267	1.4121709
33.32149370002451	2.0952158	1.447486
33.339788914613706	2.1118152	1.4532086
33.358085003895575	2.0442405	1.4297694
33.376381968462034	1.9757959	1.4056301
33.39467980890529	1.9535007	1.397677
33.41297852581774	1.9544541	1.3980179
33.43127811979204	1.8562878	1.3624566
33.44957859142105	1.8089631	1.344977
33.467879941297866	1.9717708	1.4041976
33.486182170015844	2.0067322	1.4165918
33.50448527816853	1.8841215	1.3726331
33.522789266349754	1.8667591	1.3662939
33.541094135153514	1.945202	1.3947049
33.55939988517411	1.929846	1.389189
33.57770651700602	1.7993332	1.3413923
33.59601403124398	1.9158856	1.3841552
33.61432242848296	1.9339597	1.3906687
33.632631709318154	1.892981	1.3758565
33.650941874344994	1.9789768	1.4067612
33.66925292415916	2.0579505	1.4345559
33.68756485935654	2.0143523	1.4192789
33.70587768053328	1.8788261	1.3707027
33.724191388285746	1.8597927	1.3637421
33.74250598321054	1.8298044	1.3527026
33.760821465904506	1.820969	1.3494328
33.77913783696474	1.833756	1.3541625
33.79745509698852	1.7907153	1.3381761
33.815773246573414	1.8400716	1.3564924
33.8340922863172	1.932179	1.3900284
33.852412216817896	1.9637854	1.4013513
33.87073303867377	1.9620559	1.4007341
33.889054752483304	1.9626585	1.4009491
33.907377358845245	1.9848433	1.4088447
33.92570085835853	2.005743	1.4162426
33.94402525162239	1.9800311	1.4071358
33.96235053923627	1.9480424	1.3957229
33.980676721799824	2.0152833	1.4196068
33.999003799912984	1.9853983	1.4090416
34.01733177417592	1.9550368	1.3982263
34.03566064518901	1.8156775	1.3474708
34.0539904135529	1.7594825	1.3264549
34.07232107986846	1.7747785	1.3322082
34.090652644736785	1.9068145	1.3808745
34.108985108759235	1.9631535	1.4011258
34.12731847253742	1.9501095	1.3964632
34.14565273667313	2.0205703	1.4214677
34.16398790176847	2.0522573	1.4325702
34.18232396842574	2.0037215	1.4155287
34.20066093724749	1.894451	1.3763906
34.21899880883651	1.8069882	1.3442426
34.23733758379583	1.8652494	1.3657414
34.25567726272874	2.0706878	1.4389884
34.27401784623872	2.0705905	1.4389547
34.29235933492957	1.8323988	1.3536613
34.31070172940526	1.867647	1.3666189
34.32904503027003	1.9994982	1.4140362
34.347389238128386	2.0775993	1.441388
34.36573435358502	2.0770636	1.4412022
34.38408037724492	1.9575099	1.3991104
34.402427309713296	1.8429552	1.3575549
34.42077515159559	1.8880166	1.3740512
34.43912390349752	2.0183082	1.4206717
34.45747356602499	2.0922775	1.4464707
34.47582413978423	2.1010756	1.4495088
34.49417562538163	2.0688598	1.4383532
34.51252802342388	2.0906346	1.4459027
34.53088133451789	2.0688558	1.4383518
34.54923555927084	2.0099995	1.4177445
34.567590698290104	1.9202793	1.3857415
34.58594675218336	1.9535686	1.3977011
34.6043037215585	2.0845017	1.4437804
34.62266160702365	2.148858	1.4658984
34.641020409187234	2.0621905	1.4360329
34.65938012865785	2.0095963	1.4176023
34.677740766044394	2.060744	1.4355292
34.69610232195598	2.0247252	1.4229283
34.714464797002016	2.0172675	1.4203054
34.73282819179208	2.0199435	1.4212471
34.751192506936064	2.0322042	1.425554
34.76955774304408	1.971729	1.4041827
34.7879239007265	1.9813334	1.4075985
34.80629098059391	1.966267	1.4022365
34.824658983257194	1.945461	1.3947978
34.843027909327446	1.9136062	1.3833315
34.86139775941603	1.8766948	1.3699251
34.879768534134534	1.7882353	1.3372492
34.89814023409483	1.8394033	1.356246
34.91651285990901	1.8530979	1.3612854
34.93488641218944	1.9205679	1.3858455
34.95326089154871	2.0604844	1.4354388
34.97163629859967	2.1046922	1.4507557
34.99001263395542	1.9200054	1.3856426
35.00838989822934	1.935881	1.3913594
35.02676809203499	1.9866941	1.4095013
35.04514721598624	1.7913543	1.3384148
35.063527270697215	1.8062109	1.3439535
35.081908256782256	1.8457396	1.35858
35.10029017485597	1.8733935	1.3687197
35.11867302553321	1.7815986	1.3347653
35.137056809429104	1.6412499	1.2811128
35.155441527159006	1.6253068	1.2748753
35.173827179338524	1.9065901	1.3807933
35.19221376658354	1.9832622	1.4082835
35.21060128951017	2.0077212	1.4169408
35.2289897487348	2.1047802	1.4507861
35.24737914487405	2.1477902	1.4655341
35.26576947854479	2.2764242	1.5087824
35.28416075036418	2.4168808	1.5546321
35.30255296094958	2.220502	1.4901348
35.32094611091867	1.7531931	1.324082
35.33934020088932	1.6577476	1.2875354
35.35773523147969	2.0102308	1.417826
35.3761312033082	2.2860842	1.5119802
35.394528116993506	2.4407923	1.5623035
35.41292597315452	2.3965306	1.5480732
35.431324772410434	2.2899606	1.5132616
35.449724515380666	2.2592373	1.503076
35.46812520268491	2.5096185	1.5841775
35.486526834943106	2.3025122	1.5174031
35.504929412775454	2.0379121	1.4275546
35.52333293680242	1.7951385	1.3398278
35.54173740764471	1.8997438	1.378312
35.560142825923286	1.8487557	1.3596896
35.5785491922594	1.9206879	1.3858888
35.59695650727454	1.9774636	1.4062232
35.61536477159042	1.635571	1.2788944
