0.008763373481513119	0.0	0.0
0.026290120649546365	0.0	0.0
0.043816868432600686	0.054749444	0.23398599
0.06134361724069026	0.18331526	0.4281533
0.07887036748382949	0.21382691	0.4624142
0.0963971195720331	0.19997407	0.44718462
0.11392387391531617	0.20314914	0.4507207
0.1314506309236943	0.28344506	0.5323956
0.1489773910071836	0.29450038	0.5426789
0.16650415457580078	0.2511986	0.50119716
0.18403092203956356	0.17676717	0.4204369
0.20155769380849	0.1302984	0.3609687
0.2190844702925996	0.103674605	0.32198542
0.2366112519019124	0.05684108	0.23841368
0.2541380390464497	0.03638244	0.19074182
0.27166483213623416	0.04668852	0.21607526
0.28919163158128947	0.06454916	0.25406528
0.3067184377916406	0.06198827	0.24897444
0.324245251177314	0.08445819	0.2906169
0.34177207214833777	0.11530099	0.33956
0.3592989011147415	0.16456679	0.40566832
0.37682573848655654	0.17905217	0.42314556
0.39435258467381573	0.18891509	0.43464363
0.41187944008655414	0.124179535	0.35239115
0.42940630513480854	0.07811596	0.27949232
0.446933180228618	0.06998628	0.2645492
0.4644600657780234	0.063706554	0.25240156
0.48198696219306775	0.06516507	0.2552745
0.49951386988379676	0.10099491	0.31779695
0.5170407892602581	0.15222944	0.39016593
0.5345677207325025	0.21393116	0.46252692
0.5520946647105822	0.20105988	0.448397
0.5696216216045534	0.22581196	0.47519675
0.5871485918244737	0.2037138	0.45134667
0.6046755757804043	0.17449544	0.41772652
0.6222025738824094	0.15647855	0.3955737
0.6397295865405557	0.1520407	0.38992396
0.6572566141649129	0.17627668	0.41985318
0.6747836571655547	0.19879161	0.44586053
0.6923107159525568	0.19433416	0.44083348
0.7098377909359992	0.17222925	0.41500512
0.7273648825259653	0.15964098	0.39955097
0.7448919911325411	0.15522265	0.39398307
0.762419117165817	0.17471036	0.41798368
0.7799462610358868	0.15813461	0.39766142
0.7974734231528482	0.15421739	0.39270523
0.8150006039268024	0.18173519	0.4263041
0.8325278037678551	0.20944971	0.45765677
0.8500550230861152	0.22982407	0.47939968
0.8675822622916969	0.19867432	0.445729
0.8851095217947171	0.20952033	0.4577339
0.9026368020052984	0.20840964	0.45651904
0.9201641033335665	0.20897925	0.45714247
0.9376914261896523	0.1780977	0.42201623
0.9552187709836915	0.1467205	0.3830411
0.9727461381258234	0.19446678	0.4409839
0.990273528026193	0.21274804	0.46124616
1.0078009410949496	0.22475758	0.47408605
1.0253283777422473	0.20982143	0.4580627
1.0428558383782454	0.22554763	0.47491854
1.0603833234131086	0.25654727	0.50650495
1.0779108332570058	0.30127627	0.54888636
1.0954383683201119	0.3506081	0.5921217
1.112965929012607	0.3848526	0.6203649
1.1304935157446763	0.56746364	0.7533018
1.1480211289265108	0.6346411	0.7966437
1.1655487689683062	1.4381094	1.199212
1.1830764362802655	1.7399062	1.3190551
1.200604131272596	2.1274881	1.4585911
1.2181318543555117	2.5367494	1.5927176
1.235659605939232	2.5480003	1.5962456
1.253187386433982	4.0217285	2.0054247
1.270715196249994	6.282549	2.5065014
1.2882430357975057	11.399513	3.3763165
1.3057709054867608	15.887382	3.9858978
1.3232988057280106	21.444931	4.630867
1.3408267369315112	26.100273	5.108843
1.358354699507526	29.822199	5.4609704
1.3758826938663256	33.634224	5.799502
1.3934107204181858	35.609646	5.967382
1.410938779573391	36.166653	6.0138717
1.4284668717422309	36.369926	6.0307484
1.4459949973350033	35.763588	5.9802666
1.4635231567620117	35.60098	5.9666557
1.4810513504335687	35.477024	5.9562593
1.4985795787599925	34.985695	5.9148707
1.5161078421516088	34.416664	5.866572
1.5336361410187505	33.64799	5.8006887
1.5511644757717598	33.691235	5.804415
1.5686928468209842	34.17333	5.8457956
1.58622125457678	34.53782	5.8768888
1.6037496994495108	35.526844	5.9604397
1.621278181849548	35.10923	5.9253044
1.6388067021872719	36.03901	6.0032496
1.6563352608730693	35.56373	5.9635334
1.673863858317336	35.353497	5.9458804
1.6913924949304753	34.872646	5.905307
1.7089211711228998	34.098434	5.8393865
1.7264498873050296	33.175114	5.759784
1.7439786438872935	32.04221	5.660584
1.7615074412801288	30.875427	5.556566
1.779036279893981	30.046585	5.4814763
1.796565160139305	29.153828	5.3994284
1.814094082426564	28.208115	5.311131
1.8316230471662298	27.582336	5.2518888
1.849152054768784	27.01395	5.1974945
1.8666811056447168	26.808975	5.177738
1.8842102002045273	26.298351	5.128192
1.901739338858724	25.812822	5.080632
1.9192685220178245	25.033123	5.003311
1.9367977500923557	24.17613	4.916923
1.9543270234928547	23.535236	4.8513126
1.971856342629867	22.705511	4.76503
1.9893857079139496	22.434826	4.7365417
2.006915119755667	21.998594	4.690266
2.0244445785655945	21.27983	4.6130066
2.0419740847543175	20.711449	4.5509834
2.0595036387324317	20.176659	4.4918437
2.0770332409105414	19.954527	4.467049
2.094562891699263	19.81488	4.4513907
2.1120925915092217	19.361286	4.400146
2.129622340751053	18.949755	4.353132
2.1471521398354043	187.14313	13.680027
2.1646819891729323	443.51794	21.059866
2.182211889174303	439.8376	20.972305
2.1997418402501974	452.1191	21.263092
2.2172718428113023	432.15714	20.78839
2.234801897268317	319.93152	17.88663
2.2523320040319548	16.401787	4.049912
2.269862163512935	16.007433	4.000929
2.287392376121992	15.5355835	3.9415205
2.304922642269869	15.380038	3.921739
2.322452962367322	15.330736	3.9154484
2.3399833368251164	15.166569	3.894428
2.357513766054032	15.158529	3.8933957
2.3750442504648586	14.790574	3.8458517
2.3925747904683963	14.570487	3.8171308
2.410105386475459	14.347172	3.787766
2.4276360388968707	14.080235	3.752364
2.445166748143469	13.871096	3.724392
2.4626975146261025	13.448648	3.66724
2.4802283387556323	13.151866	3.6265502
2.4977592209429305	12.895786	3.5910704
2.5152901615988825	12.529614	3.5397196
2.5328211611343865	12.249356	3.499908
2.5503522199603523	12.124154	3.4819756
2.5678833384877024	12.006033	3.4649723
2.5854145171273712	11.857713	3.443503
2.6029457562903064	11.634582	3.4109502
2.620477056387469	11.220166	3.3496516
2.6380084178298326	11.095987	3.331064
2.655539841028383	10.966374	3.3115516
2.673071326394119	11.152184	3.3394885
2.6906028743380523	10.921164	3.3047185
2.708134485271211	10.665562	3.2658172
2.7256661596046325	10.317231	3.2120447
2.743197897749369	10.104216	3.1787128
2.760729700116486	10.022731	3.1658697
2.778261567117063	9.871905	3.141959
2.795793499162193	9.710397	3.1161509
2.8133254966629817	9.677255	3.1108286
2.830857560030551	9.508722	3.0836217
2.8483896896760337	9.503415	3.082761
2.865921886010578	9.31037	3.05129
2.883454149445347	9.148363	3.024626
2.9009864803915177	8.988436	2.998072
2.91851887926028	8.899216	2.9831553
2.9360513464628384	8.88554	2.9808624
2.953583882410413	8.754392	2.9587822
2.9711164875142373	8.646267	2.9404535
2.9886491621855606	8.424868	2.9025621
3.0061819068356455	8.327366	2.8857176
3.023714721875769	8.357445	2.8909245
3.041247607717225	8.339173	2.8877628
3.0587805647713213	8.2421875	2.8709211
3.0763135934493806	8.125359	2.8505015
3.0938466941627407	7.9507184	2.819702
3.1113798673227544	7.8320465	2.7985795
3.1289131133407904	7.7636833	2.7863388
3.1464464326282315	7.6842647	2.7720506
3.1639798255964786	7.6097093	2.7585702
3.1815132926569443	7.310051	2.7037106
3.1990468342210603	7.1228814	2.6688726
3.216580450700272	7.0381093	2.6529436
3.2341141425060416	7.074508	2.6597948
3.251647910049847	7.1045766	2.6654413
3.2691817537431813	6.977927	2.6415768
3.286715673997555	7.0766377	2.660195
3.3042496712244938	7.139105	2.6719103
3.32178374583554	6.919235	2.6304438
3.339317898242251	6.7860994	2.6050143
3.3568521288562034	6.5300694	2.5554001
3.3743864380889876	6.526756	2.5547516
3.3919208263522127	6.610789	2.5711455
3.4094552940575023	6.598183	2.568693
3.4269898416164972	6.558794	2.5610142
3.444524469440858	6.3558235	2.521076
3.4620591779422587	6.1991224	2.4898038
3.479593967532391	6.2288175	2.49576
3.4971288386229658	6.2461977	2.4992394
3.5146637916257086	6.2811995	2.506232
3.5321988269523628	6.2077074	2.491527
3.5497339450146903	6.0632324	2.4623632
3.5672691462244708	6.0265064	2.4548943
3.5848044309934988	5.9529886	2.4398746
3.60233979973359	5.994992	2.4484673
3.619875252856575	6.0221763	2.4540124
3.6374107907743034	5.999941	2.4494777
3.6549464138986427	6.1133094	2.4725108
3.6724821226414788	6.152468	2.480417
3.690017917414714	6.1609297	2.482122
3.7075537986302702	6.1556377	2.4810557
3.7250897667000857	6.084997	2.4667788
3.7426258220361235	6.1462283	2.4791589
3.7601619650503553	6.4360495	2.536937
3.777698196154779	7.03716	2.6527646
3.7952345157614067	8.253958	2.87297
3.8127709242822716	9.11445	3.0190148
3.830307422129425	11.268788	3.3569016
3.847844009714936	29.923746	5.47026
3.8653806874508954	97.370026	9.867625
3.882917455749409	96.614685	9.829277
3.900454315022606	96.24826	9.810619
3.917991265682631	40.84827	6.3912654
3.9355283081416506	10.408734	3.226257
3.9530654428118495	8.346625	2.8890526
3.970602670105433	7.166562	2.6770434
3.9881399904346244	6.298202	2.5096219
4.005677404211669	6.211281	2.4922442
4.023214911848827	6.124982	2.47487
4.0407525137583855	6.0941505	2.4686334
4.058290210352644	6.022265	2.4540303
4.075828002043927	5.9495106	2.4391618
4.0933658892445814	5.956229	2.4405386
4.110903872366966	5.9057813	2.4301813
4.128441951823468	5.852455	2.419185
4.145980128026488	5.808194	2.4100196
4.163518401388452	5.782611	2.404706
4.181056772321807	5.882591	2.4254053
4.1985952412390155	5.988577	2.447157
4.216133808552567	6.042741	2.4581988
4.233672474674966	6.0589666	2.4614968
4.251211240018741	6.129241	2.4757304
4.268750104996445	6.1757097	2.4850976
4.286289070020643	7.1062617	2.6657572
4.303828135503928	8.813076	2.9686825
4.3213673018589125	29.269678	5.4101458
4.3389065694982305	90.44166	9.510082
4.356445938834537	165.50143	12.864736
4.3739854102805085	170.53287	13.058824
4.391524984248844	171.41615	13.092599
4.409064661152262	135.55081	11.642629
4.426604441403504	95.95165	9.795491
4.444144325415337	75.48376	8.688139
4.461684313600543	21.439562	4.6302876
4.47922440637193	21.749601	4.6636467
4.496764604142329	19.904844	4.4614844
4.5143049073245916	17.933933	4.2348475
4.531845316331589	15.96109	3.9951334
4.5493858315762195	12.958893	3.5998461
4.566926453471405	10.889128	3.2998679
4.584467182430081	8.849445	2.9748018
4.602008018865218	7.820034	2.7964323
4.619548963189798	7.1811943	2.679775
4.637090015816834	6.758889	2.5997863
4.654631177159353	6.521305	2.5536847
4.672172447630417	6.2595706	2.5019133
4.689713827643102	6.149008	2.4797194
4.7072553176105085	5.9825716	2.4459295
4.724796917945764	5.816094	2.4116578
4.742338629062015	5.73254	2.3942723
4.759880451372434	5.6534176	2.3776917
4.777422385290215	5.5813036	2.3624783
4.794964431228581	5.5077825	2.3468666
4.812506589600768	5.4602804	2.3367243
4.830048860820047	5.4356527	2.3314486
4.847591245299709	5.342029	2.311283
4.8651337434530655	5.311331	2.3046324
4.882676355693457	5.2502527	2.291343
4.900219082434242	5.2376614	2.2885938
4.917761924088813	5.2517376	2.291667
4.935304881070575	5.299333	2.302028
4.952847953792969	5.320595	2.3066413
4.970391142669449	5.3143697	2.3052917
4.9879344481135055	5.278945	2.2975955
5.005477870538642	5.2916765	2.3003645
5.023021410358394	5.268116	2.2952378
5.040565067986324	5.2217035	2.2851048
5.05810884383601	5.197903	2.279891
5.075652738321066	5.1945343	2.2791522
5.09319675185512	5.2045074	2.281339
5.110740884851836	5.144308	2.2681067
5.128285137724894	5.0963707	2.2575142
5.145829510888007	5.1126466	2.2611163
5.163374004754908	5.1035957	2.259114
5.1809186197393595	5.0990987	2.2581184
5.198463356255145	5.108838	2.260274
5.216008214716077	5.161072	2.2717993
5.233553195535998	5.112894	2.2611709
5.251098299128764	5.054742	2.2482753
5.268643525908272	5.025596	2.241784
5.286188876288432	5.1016397	2.258681
5.3037343506831895	5.1253104	2.2639148
5.32127994950651	5.07355	2.2524543
5.3388256731723915	5.0930986	2.2567894
5.356371522094851	5.063886	2.250308
5.373917496687938	5.126014	2.2640703
5.391463597365729	5.093261	2.2568254
5.40900982454232	5.0757556	2.2529438
5.426556178631843	5.041441	2.2453153
5.444102660048449	4.986184	2.2329764
5.4616492692063225	4.9928994	2.2344797
5.479196006519669	5.032147	2.2432446
5.496742872402727	5.0290265	2.2425492
5.514289867269756	5.07332	2.2524033
5.531836991535049	5.0046067	2.2370977
5.549384245612924	5.0138397	2.2391605
5.566931629917724	4.9705763	2.2294788
5.584479144863822	5.0360985	2.2441254
5.6020267908656205	5.05666	2.2487018
5.619574568337545	5.046076	2.2463472
5.637122477694054	5.0198617	2.2405047
5.654670519349629	4.949525	2.2247527
5.672218693718784	4.8729258	2.2074704
5.689767001216059	4.922128	2.218587
5.707315442256021	4.921358	2.2184134
5.724864017253266	4.929407	2.2202268
5.7424127266224225	4.852096	2.2027473
5.75996157077814	4.8982067	2.2131894
5.777510550135105	4.9755607	2.2305965
5.795059665108022	5.0226226	2.2411208
5.812608916111639	5.0598645	2.2494142
5.830158303560715	5.1254854	2.2639534
5.847707827870055	5.0680737	2.2512383
5.86525748945448	5.157861	2.2710924
5.8828072887288485	5.2757053	2.2968903
5.900357226108044	5.3675394	2.316795
5.917907302006979	5.423334	2.3288052
5.9354575168406	6.0630045	2.462317
5.9530078710238765	6.6753745	2.5836747
5.970558364971812	7.1751842	2.6786535
5.988108999099438	7.4688807	2.7329252
6.005659773821818	8.015291	2.831129
6.023210689554039	7.850785	2.8019252
6.040761746711227	8.253309	2.8728573
6.058312945708531	7.5880737	2.7546458
6.075864286961132	7.11241	2.6669102
6.093415770884244	6.4541955	2.540511
6.1109673978931065	5.890793	2.4270957
6.128519168402993	5.3320107	2.3091147
6.146071082829204	5.148259	2.2689776
6.163623141587075	5.0152974	2.239486
6.181175345091969	5.01887	2.2402835
6.198727693759281	4.979774	2.2315407
6.216280188004435	4.984936	2.232697
6.233832828242885	4.9968967	2.235374
6.251385614890126	5.0814004	2.2541962
6.268938548361669	5.070156	2.2517006
6.286491629073067	4.9936266	2.2346423
6.304044857439898	4.899354	2.2134485
6.321598233877777	4.8336163	2.1985486
6.339151758802344	4.778854	2.186059
6.356705432629277	4.8462825	2.2014275
6.37425925577428	4.7978606	2.190402
6.391813228653095	4.7806973	2.1864805
6.409367351681486	4.799248	2.1907187
6.426921625275259	4.877138	2.2084243
6.44447604985025	4.9427724	2.2232347
6.46203062582232	4.8994055	2.21346
6.47958535360737	4.872835	2.20745
6.497140233621328	4.827485	2.1971538
6.514695266280161	4.7212586	2.1728458
6.532250451999859	4.7570214	2.1810596
6.549805791196454	4.7255316	2.1738288
6.567361284286002	4.7695136	2.1839216
6.584916931684597	4.819359	2.195304
6.602472733808367	4.821346	2.1957564
6.6200286910734665	4.851681	2.2026532
6.637584803896092	4.8210382	2.1956863
6.655141072692462	4.82487	2.1965587
6.672697497878842	4.8653364	2.2057507
6.690254079871514	4.867702	2.206287
6.707810819086808	4.790883	2.1888087
6.725367715941078	4.7737007	2.18488
6.742924770850719	4.727115	2.174193
6.760481984232151	4.85879	2.2042663
6.778039356501836	4.911876	2.2162752
6.795596888076266	4.983416	2.2323565
6.813154579371963	4.9626365	2.2276976
6.830712430805492	4.927846	2.219875
6.84827044279344	4.8879647	2.210874
6.865828615752445	4.884199	2.2100224
6.883386950099159	4.894031	2.2122457
6.900945446250287	4.865486	2.2057848
6.918504104622553	4.8377595	2.1994908
6.936062925632727	4.8933735	2.2120972
6.953621909697607	4.9216633	2.2184823
6.971181057234028	4.925796	2.2194135
6.988740368658859	4.906577	2.2150795
7.006299844389007	4.972872	2.2299936
7.023859484841407	5.0729785	2.2523274
7.041419290433036	5.1789846	2.2757382
7.058979261580902	5.342912	2.311474
7.0765393987020495	5.5725527	2.3606255
7.094099702213559	5.9085646	2.430754
7.111660172532549	6.1991243	2.489804
7.129220810076164	6.518709	2.5531764
7.146781615261595	7.0548697	2.6561005
7.16434258850606	7.320623	2.7056649
7.181903730226821	7.6626964	2.7681575
7.1994650408411704	7.8262463	2.7975428
7.217026520766437	7.9331784	2.8165898
7.234588170419983	8.051687	2.8375494
7.252149990219215	8.034181	2.8344631
7.269711980581568	7.940236	2.8178425
7.2872741419245175	7.8692594	2.8052201
7.304836474665574	7.5443377	2.7466958
7.322398979222286	7.27963	2.6980789
7.339961656012233	6.9729614	2.6406364
7.357524505453039	6.6210246	2.5731351
7.375087527962357	6.3069596	2.5113661
7.392650723957886	6.007601	2.4510407
7.410214093857353	5.6653595	2.3802016
7.427777638078528	5.4495897	2.3344357
7.445341357039213	5.252979	2.2919378
7.4629052511572525	5.138447	2.2668142
7.480469320850524	5.0823417	2.254405
7.498033566536948	5.0744486	2.2526536
7.5155979886344735	5.0153217	2.2394915
7.5331625875610975	4.9359317	2.2216957
7.550727363734844	4.960797	2.2272847
7.568292317573788	4.8866034	2.2105663
7.585857449496025	4.95102	2.2250886
7.603422759919705	4.9131794	2.2165692
7.620988249263007	4.9404116	2.2227037
7.638553917944147	4.9707804	2.2295246
7.656119766381391	4.9828143	2.2322218
7.673685794993023	5.022075	2.2409987
7.691252004197388	4.988355	2.2334626
7.70881839441285	5.0170507	2.2398775
7.726384966057826	5.0358596	2.2440722
7.743951719550762	5.0630074	2.2501128
7.761518655310149	5.088245	2.255714
7.779085773754511	5.0898046	2.2560596
7.796653075302419	5.0900054	2.256104
7.814220560372475	5.111679	2.2609022
7.831788229383323	5.1377373	2.2666578
7.8493560827536495	5.1398773	2.2671297
7.866924120902174	5.0494576	2.2470999
7.884492344247663	5.0827284	2.2544906
7.9020607532089135	5.0948377	2.2571747
7.919629348204771	5.115885	2.2618322
7.937198129654115	5.1283727	2.264591
7.954767097975865	5.12292	2.263387
7.972336253588986	5.1868534	2.2774665
7.989905596912472	5.2040257	2.2812333
8.007475128365371	5.253099	2.291964
8.025044848366756	5.3241997	2.3074226
8.042614757335754	5.4089203	2.3257086
8.060184855691523	5.4929843	2.3437116
8.07775514385327	5.584756	2.3632088
8.095325622240228	5.6154857	2.3697016
8.112896291271687	5.645021	2.3759253
8.130467151366968	5.6449037	2.3759005
8.148038202945436	5.6596675	2.3790057
8.165609446426497	5.6330576	2.3734064
8.183180882229594	5.7411194	2.3960633
8.200752510774217	5.790455	2.4063363
8.218324332479893	5.7510667	2.3981383
8.235896347766193	5.6930118	2.3860033
8.253468557052724	5.7230163	2.3922827
8.27104096075914	5.766476	2.4013488
8.288613559305137	5.8522077	2.4191337
8.306186353110448	5.8394914	2.416504
8.32375934259485	5.9402146	2.4372556
8.341332528178162	6.0135884	2.452262
8.358905910280246	6.07266	2.4642768
8.376479489321003	6.063841	2.4624867
8.394053265720377	6.1002326	2.4698648
8.411627239898356	6.111928	2.4722314
8.42920141227497	6.153819	2.4806893
8.44677578327029	6.1574855	2.4814281
8.464350353304427	6.041805	2.4580083
8.48192512279754	5.991987	2.4478536
8.499500092169827	5.9487963	2.4390154
8.51707526184153	5.9588084	2.441067
8.534650632232934	6.0128655	2.4521146
8.552226203764365	6.097208	2.4692526
8.569801976856192	6.1700497	2.4839585
8.587377951928834	6.132907	2.4764707
8.60495412940274	6.128128	2.4755056
8.622530509698416	6.165694	2.4830816
8.6401070932364	6.2712307	2.5042427
8.657683880437283	6.281027	2.5061977
8.675260871721695	6.4204545	2.5338616
8.692838067510303	6.531072	2.5555964
8.710415468223834	6.6965265	2.5877647
8.727993074283043	6.8254294	2.6125522
8.745570886108737	6.890058	2.624892
8.763148904121765	6.9439626	2.63514
8.78072712874302	6.970664	2.6402016
8.798305560393441	7.1657395	2.67689
8.815884199494006	7.277458	2.6976764
8.833463046465745	7.40328	2.720897
8.851042101729728	7.48264	2.7354414
8.86862136570707	7.7523894	2.7843113
8.886200838818924	7.9549007	2.8204434
8.903780521486505	8.075729	2.8417828
8.921360414131055	8.127502	2.8508775
8.938940517173874	8.216464	2.8664374
8.956520831036297	8.39051	2.8966377
8.97410135613971	8.678703	2.9459639
8.99168209290554	8.9040365	2.9839633
9.009263041755265	9.170853	3.0283415
9.026844203110405	9.357969	3.05908
9.044425577392525	9.492768	3.0810337
9.062007165023239	9.576082	3.0945246
9.079588966424197	9.945636	3.1536703
9.097170982017108	10.092311	3.1768398
9.11475321222372	11.102764	3.332081
9.132335657465825	11.894016	3.4487703
9.149918318165264	11.974199	3.4603755
9.167501194743924	12.6596575	3.5580413
9.18508428762374	12.405505	3.522145
9.202667597226693	12.381314	3.5187092
9.220251123974803	11.996678	3.463622
9.237834868290143	11.679497	3.417528
9.255418830594836	11.623964	3.4093935
9.273003011311046	11.162758	3.3410714
9.290587410860985	10.89591	3.3008955
9.308172029666911	10.148955	3.1857426
9.32575686815113	9.807599	3.1317086
9.343341926735997	8.503494	2.9160752
9.360927205843916	8.305069	2.8818517
9.378512705897327	8.047162	2.836752
9.396098427318728	7.8421626	2.8003862
9.413684370530664	7.6883707	2.7727911
9.431270535955722	7.5811677	2.753392
9.448856924016539	7.5151114	2.7413704
9.466443535135806	7.408338	2.7218263
9.484030369736251	7.412601	2.7226093
9.501617428240658	7.422165	2.724365
9.519204711071852	7.4302664	2.7258515
9.536792218652714	7.530324	2.7441435
9.55437995140617	7.614198	2.7593837
9.571967909755191	7.5504217	2.747803
9.589556094122802	7.540136	2.7459307
9.60714450493207	7.516887	2.7416942
9.624733142606116	7.6321073	2.762627
9.642322007568108	7.692024	2.77345
9.659911100241267	7.735847	2.7813392
9.677500421048851	7.808183	2.7943127
9.695089970414175	7.894879	2.8097827
9.712679748760609	7.9640718	2.8220687
9.730269756511557	8.002248	2.8288245
9.747859994090492	7.9346976	2.8168595
9.765450461920915	7.9480824	2.8192344
9.78304116042639	7.887354	2.8084433
9.800632090030527	7.9352307	2.8169541
9.81822325115699	8.056647	2.8384235
9.835814644229481	8.061755	2.839323
9.853406269671762	8.064005	2.839719
9.870998127907646	8.066192	2.840104
9.888590219360985	8.092557	2.844742
9.906182544455698	8.139369	2.852958
9.923775103615734	8.144389	2.8538377
9.941367897265108	8.045221	2.83641
9.958960925827878	7.9987607	2.828208
9.97655418972816	7.908061	2.8121276
9.994147689390106	7.9923697	2.8270779
10.011741425237934	7.9468007	2.8190072
10.029335397695904	7.970296	2.8231711
10.04692960718833	7.9630594	2.8218894
10.06452405413958	8.002983	2.8289545
10.082118738974064	7.986303	2.8260047
10.099713662116246	7.8973045	2.8102143
10.117308823990651	7.852647	2.8022575
10.134904225021844	7.851903	2.8021247
10.152499865634445	7.8793774	2.8070228
10.170095746253125	7.971925	2.8234596
10.18769186730261	7.958236	2.8210347
10.205288229207675	8.019668	2.8319018
10.222884832393145	7.895285	2.809855
10.2404816772839	7.818679	2.79619
10.258078764304868	7.762153	2.7860641
10.275676093881035	7.7583494	2.7853813
10.293273666437438	7.799121	2.7926905
10.310871482399158	7.87886	2.8069308
10.32846954219134	7.894756	2.8097608
10.346067846239173	7.7831645	2.7898324
10.363666394967908	7.7323017	2.7807016
10.38126518880283	7.7889805	2.7908745
10.398864228169298	7.9135766	2.813108
10.416463513492713	7.9177938	2.8138576
10.434063045198531	7.9215837	2.8145308
10.451662823712262	7.9187064	2.8140197
10.469262849459467	7.939029	2.8176284
10.486863122865758	7.8727317	2.8058388
10.504463644356806	7.8768654	2.8065753
10.522064414358338	7.8142314	2.7953947
10.539665433296118	7.761287	2.7859087
10.557266701595987	7.665907	2.7687373
10.574868219683818	7.566253	2.7506824
10.592469987985552	7.4269943	2.7252512
10.610072006927185	7.333391	2.7080235
10.627674276934751	7.257089	2.6938984
10.64527679843435	7.2238736	2.6877265
10.662879571852143	7.132418	2.6706588
10.680482597614331	6.9781885	2.6416261
10.698085876147173	6.8799505	2.622966
10.715689407876988	6.851039	2.617449
10.733293193230146	6.7654114	2.6010404
10.750897232633072	6.6180778	2.5725625
10.76850152651225	6.468836	2.5433905
10.786106075294207	6.366953	2.523282
10.803710879405534	6.308218	2.5116167
10.821315939272877	6.1715765	2.4842658
10.83892125532294	6.0928206	2.468364
10.856526827982472	6.0502987	2.4597354
10.874132657678285	6.049012	2.4594738
10.891738744837243	6.0584126	2.4613843
10.909345089886271	5.98503	2.446432
10.926951693252343	5.9603887	2.4413908
10.944558555362494	5.9484205	2.4389384
10.96216567664381	5.8670187	2.422193
10.979773057523436	5.798512	2.40801
10.997380698428573	5.692209	2.385835
11.014988599786477	5.5906687	2.3644595
11.032596762024461	5.531747	2.3519666
11.050205185569892	5.408536	2.325626
11.067813870850198	5.353699	2.3138063
11.085422818292859	5.3838153	2.320305
11.10303202832541	5.368493	2.3170009
11.120641501375454	5.330093	2.3086994
11.138251237870636	5.2679987	2.295212
11.155861238238671	5.2035785	2.2811353
11.173471502907317	5.1416516	2.2675211
11.191082032304402	5.0850353	2.2550023
11.208692826857805	5.0038223	2.2369225
11.226303886995465	4.9408336	2.2227986
11.243915213145371	4.7978435	2.190398
11.261526805735578	4.6775475	2.1627638
11.279138665194196	4.614555	2.1481514
11.296750791949393	4.635363	2.1529894
11.314363186429393	4.654269	2.1573756
11.331975849062479	4.637432	2.1534698
11.34958878027699	4.6127253	2.1477256
11.36720198050133	4.576277	2.1392233
11.384815450163948	4.529932	2.1283636
11.402429189693366	4.456469	2.111035
11.420043199518153	4.3662233	2.089551
11.437657480066942	63.32018	7.957398
11.455272031768422	85.0679	9.223227
11.472886855051353	107.48681	10.367584
11.490501950344528	99.08639	9.954214
11.508117318076819	84.396385	9.18675
11.52573295867715	45.741867	6.7632732
11.543348872574514	4.0114675	2.0028648
11.560965060197946	3.9632778	1.9907982
11.57858152197655	3.9627411	1.9906635
11.59619825833949	3.9123738	1.9779721
11.613815269715985	3.8638246	1.9656614
11.631432556535323	38.33622	6.191625
11.649050119226837	82.82635	9.100898
11.666667958219929	93.26806	9.657539
11.68428607394406	107.57422	10.371799
11.701904466828756	82.43134	9.079171
11.719523137303586	65.31477	8.081756
11.737142085798196	4.5699854	2.1377525
11.754761312742286	3.6591377	1.9128872
11.772380818565619	3.5980585	1.8968549
11.790000603698015	3.5139186	1.8745449
11.80762066856935	3.4513874	1.857791
11.825241013609572	3.3699424	1.8357403
11.842861639248683	3.363696	1.8340381
11.860482545916748	3.359648	1.8329343
11.878103734043883	3.3642857	1.834199
11.895725204060282	3.3241773	1.8232327
11.91334695639619	3.2672877	1.807564
11.930968991481919	3.2403493	1.800097
11.948591309747824	3.227134	1.7964226
11.966213911624347	3.2466168	1.8018371
11.98383679754198	3.227507	1.7965264
12.001459967931268	3.1990013	1.7885752
12.019083423222835	3.1563776	1.7766197
12.036707163847352	3.119581	1.7662336
12.05433119023556	3.0773168	1.7542282
12.071955502818259	3.0772834	1.7542187
12.089580102026313	3.0593314	1.7490945
12.107204988290643	3.0221195	1.7384244
12.12483016204224	3.017833	1.7371911
12.142455623712152	3.081313	1.7553669
12.16008137373149	3.0497317	1.7463481
12.177707412531431	3.005847	1.7337378
12.19533374054321	2.9009736	1.7032244
12.212960358198126	2.910873	1.706128
12.230587265927545	2.927114	1.7108811
12.248214464162889	2.9496472	1.7174537
12.265841953335649	2.9138112	1.7069889
12.283469733877375	2.872063	1.6947162
12.301097806219685	2.84188	1.6857877
12.31872617079425	2.8252957	1.6808616
12.336354828032825	2.8224835	1.6800249
12.353983778367205	2.7874064	1.6695528
12.371613022229262	2.7860355	1.6691421
12.389242560050928	2.780513	1.667487
12.406872392264201	2.8260126	1.6810749
12.424502519301143	2.8416734	1.6857264
12.442132941593874	2.848143	1.6876442
12.459763659574586	2.7884507	1.6698655
12.477394673675532	2.76824	1.6638029
12.49502598432903	2.735495	1.6539332
12.51265759196746	2.7442434	1.6565758
12.530289497023267	2.6952584	1.6417242
12.547921699928967	2.7000105	1.6431708
12.565554201117134	2.6917999	1.6406705
12.583187001020404	2.718667	1.648838
12.600820100071486	2.685533	1.6387596
12.618453498703152	2.6854188	1.6387248
12.636087197348235	2.6833344	1.6380886
12.65372119643964	2.7128055	1.6470597
12.671355496410326	2.7433627	1.65631
12.68899009769333	2.749348	1.6581157
12.706625000721749	2.765001	1.6628293
12.724260205928752	2.8091385	1.6760485
12.741895713747551	2.8100235	1.6763124
12.759531524611454	2.8463984	1.6871272
12.777167638953818	2.852333	1.6888852
12.794804057208072	2.8430843	1.6861448
12.812440779807702	2.9008594	1.7031909
12.830077807186271	3.0776894	1.7543344
12.847715139777405	3.1762764	1.7822111
12.865352778014795	3.3884943	1.8407863
12.882990722332197	3.488984	1.8678823
12.90062897316344	3.5687265	1.8891073
12.918267530942412	3.65999	1.91311
12.935906396103071	3.5631938	1.8876424
12.953545569079449	3.7414298	1.9342775
12.971185050305628	3.539024	1.8812294
12.988824840215775	3.517866	1.8755975
13.006464939244115	3.5315564	1.8792436
13.024105347824943	3.3588781	1.8327242
13.041746066392617	3.456955	1.8592888
13.05938709538157	3.2497509	1.8027065
13.077028435226296	3.2753787	1.8098007
13.094670086361363	3.2020829	1.7894365
13.112312049221401	3.1150198	1.7649418
13.129954324241112	2.9809186	1.7265337
13.147596911855258	2.8030236	1.6742233
13.165239812498685	2.7690456	1.664045
13.182883026606293	2.7241602	1.650503
13.200526554613058	2.6398382	1.6247579
13.218170396954017	2.586299	1.6081975
13.235814554064284	2.5676875	1.6024005
13.253459026379034	2.6024213	1.6132022
13.271103814333523	2.6130514	1.6164936
13.288748918363058	2.6515036	1.6283438
13.306394338903031	2.6305776	1.6219056
13.32404007638889	2.556569	1.5989275
13.341686131256164	2.556295	1.5988418
13.359332503940449	2.5627882	1.6008711
13.376979194877402	2.5974495	1.6116605
13.394626204502751	2.611836	1.6161176
13.412273533252307	2.6049092	1.6139731
13.429921181561937	2.6070044	1.6146221
13.447569149867581	2.646244	1.626728
13.465217438605247	2.6549907	1.6294142
13.482866048211022	2.622898	1.6195364
13.500514979121052	2.5749638	1.6046693
13.518164231771568	2.54361	1.59487
13.535813806598844	2.5723398	1.6038516
13.553463704039254	2.5656242	1.6017566
13.571113924529229	2.5632668	1.6010206
13.588764468505275	2.5720048	1.6037471
13.606415336403956	2.5858588	1.6080606
13.624066528661917	2.6046715	1.6138995
13.641718045715882	2.6361303	1.6236165
13.659369888002635	2.713475	1.6472629
13.67702205595903	2.774569	1.6657038
13.694674550021993	2.8598218	1.6911007
13.712327370628532	2.9448793	1.716065
13.729980518215713	3.0482988	1.7459378
13.747633993220681	3.1111739	1.763852
13.765287796080647	3.1303124	1.7692689
13.7829419272329	3.1673884	1.7797158
13.800596387114801	3.1645226	1.7789105
13.818251176163775	3.1980178	1.7883003
13.835906294817324	3.2712543	1.8086609
13.853561743513023	3.3370335	1.8267549
13.871217522688525	3.4285057	1.8516225
13.888873632781538	3.4286997	1.8516748
13.906530074229858	3.4142427	1.847767
13.92418684747135	3.3586688	1.8326671
13.941843952943948	3.3263404	1.8238257
13.959501391085665	3.3179772	1.8215315
13.977159162334578	3.2905338	1.8139828
13.994817267128846	3.3070946	1.8185419
14.012475705906693	3.2679	1.8077334
14.030134479106424	3.1297681	1.7691151
14.047793587166414	3.0486565	1.7460402
14.065453030525108	3.0011728	1.7323893
14.083112809621026	2.953341	1.7185287
14.100772924892766	2.90855	1.7054472
14.118433376778997	2.8658535	1.6928833
14.136094165718458	2.80448	1.6746582
14.153755292149969	2.6762445	1.6359231
14.171416756512416	2.5873733	1.6085314
14.189078559244768	2.5167203	1.5864174
14.20674070078606	2.4692214	1.5713756
14.224403181575408	2.4185874	1.5551808
14.242066002051999	2.3972507	1.5483057
14.259729162655093	2.38213	1.5434151
14.277392663824022	2.367059	1.538525
14.295056505998208	2.3466115	1.5318654
14.312720689617128	2.3327308	1.527328
14.330385215120348	2.3150544	1.5215303
14.348050082947497	2.3001292	1.5166177
14.3657152935383	2.2921133	1.5139726
14.383380847332528	2.293418	1.5144035
14.401046744770051	2.3018577	1.5171875
14.418712986290798	2.2986932	1.5161442
14.436379572334793	2.3072152	1.518952
14.454046503342123	2.2998185	1.5165153
14.471713779752946	2.2889788	1.5129372
14.489381402007504	2.3310738	1.5267855
14.507049370546113	2.3574433	1.5353968
14.524717685809168	2.3893232	1.5457436
14.542386348237134	2.3959498	1.5478857
14.560055358270553	2.411506	1.5529025
14.577724716350051	2.414362	1.5538217
14.595394422916325	2.3830643	1.5437176
14.61306447841015	2.3940244	1.5472635
14.63073488327237	2.410308	1.5525166
14.648405637943917	2.4496484	1.5651352
14.6660767428658	2.465851	1.5703028
14.683748198479094	2.4913	1.5783852
14.701420005224954	2.475848	1.5734828
14.719092163544628	2.534521	1.5920179
14.73676467387942	2.606798	1.6145581
14.754437536670727	2.6209667	1.61894
14.772110752360014	2.586151	1.6081514
14.78978432138882	2.5810316	1.6065589
14.807458244198777	2.6141906	1.6168458
14.82513252123159	2.5715277	1.6035984
14.842807152929028	2.561025	1.6003202
14.860482139732962	2.5513425	1.5972922
14.87815748208531	2.5452788	1.595393
14.8958331804281	2.5651288	1.601602
14.91350923520342	2.533614	1.591733
14.931185646853438	2.586394	1.608227
14.948862415820408	2.5787575	1.605851
14.966539542546656	2.6051717	1.6140544
14.98421702747459	2.5867527	1.6083385
15.001894871046696	2.609887	1.6155144
15.019573073705542	2.60433	1.6137937
15.037251635893766	2.570784	1.6033665
15.054930558054092	2.5943198	1.6106893
15.072609840629323	2.5998993	1.6124203
15.090289484062351	2.686983	1.639202
15.107969488796124	2.7989273	1.6729995
15.125649855273691	3.0002377	1.7321194
15.14333058393817	3.3363278	1.8265617
15.161011675232768	3.8277552	1.956465
15.17869312960076	4.417788	2.1018534
15.196374947485506	5.1389213	2.266919
15.214057129330447	6.450611	2.5398054
15.231739675579114	8.5948	2.931689
15.249422586675102	13.265948	3.642245
15.267105863062092	18.036606	4.2469525
15.284789505183847	25.701595	5.069674
15.302473513484218	31.146742	5.5809264
15.320157888407127	35.51275	5.9592576
15.337842630396578	34.0209	5.8327436
15.355527739896656	31.02569	5.5700707
15.37321321735153	24.015272	4.900538
15.39089906320545	16.202723	4.0252604
15.408585277902748	10.23553	3.1993015
15.42627186188783	6.254081	2.500816
15.443958815605198	4.418941	2.1021278
15.461646139499424	3.6099575	1.8999888
15.479333834015168	3.221981	1.7949878
15.497021899597165	2.956256	1.7193766
15.514710336690234	2.6976013	1.6424376
15.53239914573928	2.5710614	1.6034529
15.550088327189297	2.5306783	1.5908105
15.567777881485336	2.4978235	1.5804504
15.58546780907256	2.5189106	1.5871077
15.6031581103962	2.4826832	1.5756533
15.620848785901568	2.4722033	1.5723242
15.638539836034063	2.416528	1.5545186
15.656231261239173	2.4277022	1.5581086
15.673923061962451	2.4061792	1.5511863
15.691615238649552	2.408361	1.5518895
15.709307791746202	2.381036	1.5430607
15.727000721698221	2.3635435	1.537382
15.744694028951498	2.351854	1.5335755
15.76238771395202	2.3493567	1.5327611
15.780081777145844	2.3707273	1.5397166
15.797776218979125	2.3746102	1.540977
15.815471039898094	2.3807347	1.5429629
15.833166240349064	2.3752327	1.541179
15.850861820778437	2.3635242	1.5373758
15.868557781632699	2.3309796	1.5267546
15.886254123358412	2.3567007	1.5351549
15.903950846402232	2.4353204	1.5605513
15.921647951210897	2.4789705	1.5744747
15.939345438231225	2.4889584	1.5776433
15.957043307910133	2.4873948	1.5771477
15.974741560694602	2.5012658	1.581539
15.992440197031714	2.4714906	1.5720975
16.01013921736862	2.430572	1.5590292
16.02783862215259	2.4505246	1.5654151
16.045538411830933	2.4811752	1.5751747
16.06323858685107	2.4765425	1.5737034
16.080939147660512	2.4214997	1.5561168
16.09864009470684	2.3668666	1.5384624
16.11634142843774	2.3496795	1.5328665
16.134043149300954	2.3562367	1.5350038
16.15174525774433	2.3630035	1.5372064
16.169447754215817	2.4098094	1.5523561
16.18715063916342	2.3932738	1.5470209
16.204853913035244	2.3909838	1.5462806
16.222557576279478	2.401732	1.5497522
16.240261629344403	22.38842	4.7316403
16.257966072678386	42.93128	6.5521965
16.275670906729868	38.021786	6.1661806
16.293376131947387	2.4112768	1.5528287
16.31108174877957	2.4336455	1.5600146
16.328787757675133	2.4910293	1.5782995
16.34649415908287	2.5568335	1.5990101
16.364200953451657	2.5723886	1.6038668
16.38190814123048	2.5759175	1.6049665
16.39961572286839	2.5910947	1.6096878
16.41732369881455	2.6399157	1.6247817
16.43503206951817	2.6976857	1.6424633
16.45274083542859	2.7537646	1.6594471
16.47044999699522	2.7686684	1.6639316
16.488159554667558	2.7538006	1.6594579
16.505869508895184	2.8169727	1.678384
16.523579860127786	2.901681	1.7034321
16.541290608815117	2.9811528	1.7266015
16.559001755407035	3.0119596	1.7354997
16.57671330035348	3.0584452	1.748841
16.59442524410448	3.1372662	1.771233
16.61213758711015	3.3478742	1.8297197
16.629850329820705	3.4313977	1.8524032
16.647563472686436	3.4721305	1.8633654
16.665277016157724	3.395823	1.842776
16.682990960685053	3.424523	1.8505467
16.70070530671898	3.4070804	1.8458278
16.718420054710155	3.4500544	1.8574322
16.736135205109335	3.5039742	1.8718905
16.753850758367335	3.548655	1.8837874
16.771566714935087	3.6001458	1.897405
16.789283075263597	3.652172	1.9110657
16.80699983980398	3.7084997	1.9257466
16.82471700900741	3.737725	1.9333197
16.84243458332518	3.7782369	1.9437687
16.860152563208665	3.8352342	1.9583753
16.87787094910932	3.898889	1.9745605
16.89558974147871	3.9593244	1.9898051
16.913308940768466	4.0178633	2.0044608
16.931028547430333	4.047892	2.0119374
16.94874856191613	4.1227803	2.030463
16.966468984677785	4.19242	2.04754
16.98418981616729	4.265158	2.0652258
17.00191105683676	4.3269143	2.0801237
17.019632707138374	4.3821635	2.0933619
17.03735476752442	4.448756	2.1092074
17.05507723844728	4.469028	2.1140075
17.072800120359403	4.492458	2.119542
17.090523413713353	4.533332	2.1291623
17.108247118961785	4.5650806	2.136605
17.125971236557437	4.556906	2.1346912
17.143695766953133	4.575897	2.1391346
17.161420710601806	4.5775943	2.1395314
17.179146067956477	4.5646315	2.1365
17.19687183947025	4.5392036	2.1305406
17.21459802559634	4.592187	2.1429389
17.232324626788028	4.598951	2.1445165
17.25005164349871	4.5727363	2.1383958
17.267779076181863	4.535542	2.129681
17.285506925291074	4.4983873	2.1209402
17.30323519127999	4.5008016	2.1215093
17.320963874602384	4.471976	2.1147046
17.33869297571211	4.4889083	2.1187043
17.356422495063114	4.4338317	2.1056666
17.37415243310944	4.4633656	2.1126678
17.391882790305218	4.4563336	2.111003
17.40961356710468	4.4786205	2.116275
17.42734476396215	4.4765596	2.1157882
17.445076381332044	4.5042715	2.1223269
17.462808419668868	4.4959393	2.120363
17.48054087942723	4.5231795	2.1267767
17.498273761061835	4.613606	2.1479306
17.51600706502747	4.966934	2.228662
17.533740791779024	5.6215496	2.3709807
17.551474941771485	6.4472466	2.5391428
17.56920951545993	8.218121	2.8667264
17.586944513299528	9.456521	3.0751457
17.60467993574556	12.38599	3.5193737
17.622415783253373	15.189859	3.897417
17.64015205627843	18.354244	4.2841854
17.657888755276293	21.099577	4.5934277
17.675625880702604	22.794998	4.7744107
17.69336343301311	21.248041	4.6095595
17.71110141266366	19.090885	4.369312
17.728839820110178	16.175318	4.021855
17.746578655808705	12.897522	3.591312
17.764317920215372	10.605412	3.2565951
17.7820576137864	8.841344	2.9734397
17.79979773697811	7.4827595	2.7354634
17.81753829024692	6.1455827	2.4790285
17.835279274049356	5.313488	2.3051004
17.85302068884201	4.4532743	2.1102781
17.870762535081607	3.9878929	1.9969709
17.888504813224934	3.7295718	1.9312099
17.90624752372891	3.588529	1.8943413
17.923990667050536	3.5123498	1.8741264
17.941734243646895	3.489197	1.8679392
17.959478253975185	3.4077888	1.8460197
17.9772226984927	3.3410125	1.8278437
17.994967577656833	3.2918057	1.8143334
18.01271289192506	3.288403	1.8133955
18.030458641754965	3.31269	1.8200797
18.04820482760425	3.3217564	1.8225687
18.06595144993067	3.2842507	1.8122501
18.083698509192125	3.2463841	1.8017725
18.101446005846576	3.2329233	1.7980331
18.119193940352105	3.2166858	1.7935121
18.136942313166887	3.1588974	1.7773287
18.1546911247492	3.091466	1.7582566
18.1724403755574	3.0356932	1.7423241
18.19019006604997	3.0837953	1.7560738
18.207940196685467	3.0938883	1.7589452
18.225690767922575	3.0889275	1.7575345
18.243441780220046	3.0816717	1.7554691
18.261193234036764	3.0882862	1.757352
18.278945129831676	3.0279543	1.7401018
18.29669746806386	2.968455	1.7229205
18.314450249192483	2.9651885	1.7219722
18.3322034736768	2.9932065	1.7300886
18.349957141976184	2.9448357	1.7160523
18.3677112545501	2.8915339	1.700451
18.385465811858108	2.9141238	1.7070805
18.403220814359884	2.9565544	1.7194635
18.420976262515172	2.984539	1.7275819
18.43873215678387	3.0086856	1.7345563
18.456488497625923	3.0769742	1.7541306
18.474245285501407	3.1662676	1.779401
18.492002520870486	3.2216902	1.7949067
18.50976020419343	3.2685387	1.8079101
18.527518335930615	3.524277	1.8773057
18.545276916542516	4.0950804	2.0236304
18.563035946489688	4.262745	2.0646415
18.580795426232832	4.68117	2.1636012
18.598555356232698	4.59252	2.1430166
18.616315736950185	4.8587394	2.2042549
18.63407656884626	4.5161543	2.1251245
18.65183785238201	4.6279445	2.1512659
18.669599588018617	4.401995	2.0980933
18.68736177621737	4.4428463	2.107806
18.705124417439652	4.488907	2.118704
18.72288751214696	4.296884	2.0728927
18.740651060800886	4.395221	2.0964782
18.758415063863115	4.113034	2.0280616
18.77617952179546	4.2402186	2.059179
18.793944435059814	3.988472	1.997116
18.811709804118184	4.026615	2.0066428
18.829475629432675	4.0496707	2.0123794
18.8472419114655	3.8871455	1.9715846
18.86500865067897	3.9628243	1.9906844
18.88277584753551	3.6234994	1.9035492
18.90054350249763	3.5976512	1.8967476
18.918311616027957	3.2749064	1.8096702
18.936080188589226	3.170999	1.7807299
18.953849220644265	2.8740888	1.6953138
18.971618712656007	2.7485313	1.6578696
18.9893886650875	2.707096	1.6453255
19.007159078401887	7.9131126	2.8130255
19.024929953062408	32.817455	5.728652
19.042701289532435	32.80159	5.7272673
19.060473088275405	25.335415	5.0334296
19.07824534975489	2.5718417	1.6036962
19.096018074434568	2.535208	1.5922337
19.113791262778197	2.5455458	1.5954766
19.13156491524966	2.5341034	1.5918868
19.149339032312945	2.5480118	1.5962493
19.167113614432136	2.525823	1.5892838
19.184888662071433	2.4974415	1.5803295
19.202664175695123	2.48844	1.577479
19.220440155767623	2.4834116	1.5758843
19.238216602753447	2.4884331	1.5774769
19.2559935171172	2.4466195	1.5641674
19.27377089932361	2.4173803	1.5547926
19.291548749837514	2.3683782	1.5389535
19.309327069123835	2.381449	1.5431944
19.32710585764763	2.4106429	1.5526245
19.344885115874032	2.4355142	1.5606134
19.362664844268313	2.4537432	1.5664428
19.380445043295822	2.4720373	1.5722713
19.39822571342203	2.5166025	1.5863804
19.41600685511252	2.5177357	1.5867374
19.43378846883297	2.4917514	1.5785283
19.451570555049173	2.4278111	1.5581435
19.469353114227037	2.390532	1.5461346
19.48713614683254	2.3904657	1.5461131
19.50491965333182	2.424103	1.5569531
19.52270363419109	2.4446678	1.5635433
19.540488089876686	2.4514415	1.565708
19.55827302085503	2.4466763	1.5641855
19.576058427592674	2.4491258	1.5649683
19.593844310556282	2.4519715	1.5658772
19.611630670212598	2.4442184	1.5633997
19.629417507028506	2.423116	1.5566361
19.64720482147098	2.4455733	1.5638329
19.6649926140071	2.4309409	1.5591475
19.682780885104084	2.4429262	1.5629863
19.70056963522921	2.4014416	1.5496585
19.718358864849908	2.3817248	1.5432838
19.7361485744337	2.3893566	1.5457544
19.753938764448215	2.4369628	1.5610775
19.771729435361202	2.4584124	1.5679325
19.789520587640506	2.4338965	1.5600951
19.807312221754092	2.4276104	1.5580791
19.825104338170043	2.4163275	1.5544541
19.842896937356517	2.470043	1.571637
19.860690019781824	2.4985335	1.580675
19.87848358591436	2.4667368	1.5705849
19.896277636222635	2.4475625	1.5644687
19.914072171175278	2.4029553	1.5501468
19.931867191241015	2.3417044	1.5302628
19.94966269688869	2.3541481	1.5343233
19.967458688587264	2.4055538	1.5509847
19.985255166805807	2.4470093	1.564292
20.00305213201348	2.4273736	1.5580031
20.020849584679578	2.3989258	1.5488466
20.038647525273507	2.4048743	1.5507658
20.05644595426477	2.4025095	1.550003
20.07424487212299	2.375413	1.5412375
20.092044279317903	2.3736727	1.5406728
20.109844176319353	2.395582	1.5477668
20.127644563597304	2.4102225	1.5524892
20.145445441621817	2.4115605	1.55292
20.16324681086307	2.3729968	1.5404534
20.181048671791373	2.3523798	1.533747
20.198851024877122	2.3311267	1.5268028
20.216653870590836	2.3284218	1.5259167
20.234457209403146	2.3292878	1.5262004
20.252261041784802	2.317754	1.5224172
20.270065368206662	2.3222368	1.5238887
20.287870189139685	2.308571	1.5193982
20.305675505054968	2.304831	1.518167
20.323481316423702	2.2753036	1.5084109
20.341287623717207	2.2836037	1.5111597
20.359094427406884	2.2780397	1.5093176
20.376901727964288	2.3132484	1.5209367
20.39470952586107	2.287531	1.5124586
20.41251782156899	2.2971604	1.5156386
20.430326615559935	2.2725003	1.5074815
20.448135908305886	2.2902985	1.5133733
20.465945700278965	2.2822037	1.5106964
20.483755991951384	2.3073153	1.518985
20.50156678379548	2.3292785	1.5261974
20.519378076283708	2.351478	1.533453
20.537189869888635	2.2976313	1.5157939
20.55500216508294	2.2633836	1.5044546
20.572814962339415	2.2472122	1.4990704
20.59062826213098	2.251573	1.5005243
20.60844206493066	2.2936182	1.5144696
20.626256371211593	2.3073003	1.51898
20.644071181447032	2.3006916	1.5168031
20.66188649611036	2.2968209	1.5155267
20.67970231567506	2.299529	1.5164198
20.697518640614742	2.277635	1.5091836
20.715335471403122	2.2493076	1.4997692
20.73315280851404	2.2372708	1.4957509
20.750970652421447	2.225926	1.4919537
20.768789003599412	2.2788374	1.5095819
20.786607862522136	2.2944577	1.5147468
20.8044272296639	2.319929	1.5231313
20.82224710549913	2.2783017	1.5094044
20.84006749050237	2.2446423	1.498213
20.857888385148268	3.789776	1.9467347
20.8757097899116	45.900185	6.7749677
20.893531705267254	64.74077	8.0461645
20.911354131690224	83.77518	9.152878
20.92917706965566	69.04681	8.309441
20.94700051963877	50.12436	7.079856
20.96482448211493	29.371517	5.4195495
20.982648957559622	4.092684	2.0230381
21.00047394644843	2.1842694	1.4779274
21.01829944925707	2.1894584	1.4796818
21.036125466461375	2.180894	1.476785
21.053951998537297	2.1739905	1.4744458
21.071779045960906	2.1734831	1.4742738
21.089606609208378	2.1631083	1.4707509
21.10743468875603	2.1511214	1.4666702
21.12526328508028	2.144916	1.4645532
21.143092398657675	2.1437624	1.4641593
21.16092202996488	2.1278799	1.4587255
21.17875217947867	2.100621	1.4493519
21.19658284767596	2.095626	1.4476278
21.21441403503377	2.1107895	1.4528557
21.232245742029225	2.1553319	1.4681048
21.2500779691396	2.1476054	1.465471
21.26791071684227	2.1385944	1.4623934
21.28574398561475	2.0950913	1.447443
21.30357777593465	2.0729222	1.4397646
21.321412088279704	2.0905886	1.4458867
21.339246923127792	2.1131802	1.4536781
21.357082280956888	2.0975184	1.4482812
21.3749181622451	2.0690866	1.438432
21.392754567470647	2.0527315	1.4327357
21.41059149711187	2.0412571	1.4287257
21.42842895164726	2.0234783	1.4224901
21.446266931555378	2.046382	1.430518
21.464105437314945	2.0544827	1.4333466
21.481944469404798	2.0465112	1.4305632
21.49978402830388	2.0356407	1.4267588
21.51762411449127	2.0242755	1.4227704
21.53546472844617	2.0501807	1.4318452
21.553305870647876	2.0645738	1.4368625
21.571147541575865	2.0783296	1.4416413
21.58898974170967	2.069731	1.438656
21.60683247152899	2.046411	1.4305283
21.62467573151363	2.0297256	1.4246844
21.642519522143523	1.99757	1.4133542
21.660363843898722	1.9994849	1.4140314
21.6782086972594	2.0059085	1.416301
21.696054082705864	2.0367546	1.4271492
21.713900000718535	2.0339084	1.4261516
21.73174645177795	2.0316882	1.425373
21.749593436364794	2.0084224	1.4171882
21.767440954959845	1.9850278	1.4089102
21.785289008044032	1.9723071	1.4043885
21.803137596098388	1.9572616	1.3990216
21.820986719604086	1.9359237	1.3913747
21.838836379042412	1.9254683	1.3876125
21.85668657489478	1.950916	1.396752
21.87453730764273	1.9471209	1.3953928
21.892388577767914	1.932629	1.3901902
21.91024038575213	1.9056569	1.3804554
21.928092732077285	1.9322702	1.3900613
21.945945617225426	1.9598161	1.3999343
21.963799041678694	1.9499886	1.3964199
21.981653005919398	31.224573	5.5878954
21.999507510429943	78.0502	8.834602
22.01736255569286	73.04015	8.546353
22.035218142190818	4.133606	2.033127
22.05307427040661	1.9654664	1.401951
22.07093094082315	2.0234451	1.4224786
22.088788153923474	2.0248222	1.4229624
22.106645910190746	1.9677348	1.4027597
22.12450421010827	1.9324237	1.3901165
22.142363054159464	1.9180129	1.3849235
22.16022244282787	1.9287028	1.3887775
22.178082376597164	1.9227467	1.3866314
22.195942855951145	1.9361329	1.3914499
22.213803881373742	1.9281676	1.3885847
22.231665453349002	1.9223899	1.3865027
22.24952757236111	1.9201579	1.3856976
22.26739023889438	1.9371297	1.391808
22.28525345343323	1.9634576	1.4012343
22.30311721646225	1.9214956	1.3861802
22.320981528466113	1.9048123	1.3801494
22.33884638992964	1.8898606	1.374722
22.356711801337788	1.926638	1.3880339
22.37457776317561	1.9014213	1.3789203
22.392444275928337	1.8883989	1.3741902
22.410311340081282	1.8764565	1.3698381
22.428178956119904	1.9088559	1.3816135
22.446047124529805	1.9033031	1.3796026
22.46391584579669	1.8832978	1.3723329
22.481785120406414	1.873873	1.3688948
22.49965494884496	1.9085262	1.3814942
22.51752533159841	1.9503609	1.3965533
22.53539626915302	1.940708	1.393093
22.553267761995137	1.9011483	1.3788214
22.571139810611264	1.8875349	1.3738759
22.589012415488025	1.9151708	1.383897
22.60688557711216	1.9423141	1.3936694
22.624759295970566	1.931916	1.3899338
22.642633572550263	1.933045	1.3903399
22.660508407338362	1.9404535	1.3930017
22.67838380082217	1.9662087	1.4022156
22.696259753489077	1.977214	1.4061344
22.714136265826614	1.932882	1.3902812
22.73201333832246	1.8752384	1.3693935
22.74989097146439	1.8223437	1.3499421
22.76776916574035	1.8412042	1.3569098
22.785647921638393	1.8827387	1.3721292
22.803527239646712	1.8862172	1.3733963
22.82140712025363	1.8690659	1.3671378
22.839287563947593	1.8705039	1.3676636
22.85716857121719	1.83586	1.3549391
22.875050142551135	1.8241849	1.3506238
22.892932278438277	1.8241796	1.3506219
22.910814979367604	1.8569849	1.3627123
22.928698245828222	1.8715775	1.368056
22.946582078309387	1.856081	1.3623806
22.96446647730047	1.8473353	1.3591671
22.98235144329098	1.8763455	1.3697976
23.000236976770562	1.9246085	1.3873026
23.018123078229	1.916171	1.3842583
23.03600974815619	1.8718239	1.3681462
23.053896987042194	1.8259606	1.3512812
23.071784795377173	1.8417969	1.3571281
23.08967317365145	1.8557259	1.3622503
23.10756212235546	1.8878207	1.3739799
23.125451641979787	1.9004159	1.3785558
23.143341733015134	1.9328864	1.3902829
23.161232395952357	1.9295663	1.3890883
23.179123631282426	1.9283817	1.3886619
23.197015439496468	1.892152	1.3755552
23.214907821085717	1.9126956	1.3830024
23.23280077654157	1.8999299	1.3783795
23.250694306355538	1.9385973	1.3923352
23.268588411019277	1.9533285	1.3976153
23.28648309102458	1.9305831	1.3894542
23.304378346863356	1.8905413	1.3749696
23.322274179027676	1.9120196	1.382758
23.340170588009723	1.9281591	1.3885816
23.358067574301852	1.8880124	1.3740497
23.37596513839651	1.8881136	1.3740865
23.39386328078629	1.9057143	1.3804761
23.411762001963947	1.9289315	1.3888597
23.429661302422353	1.9102886	1.3821319
23.4475611826545	1.8759431	1.3696507
23.46546164315356	1.8252724	1.3510264
23.48336268441279	1.8535236	1.3614417
23.501264306925638	1.8996693	1.3782849
23.51916651118564	1.8940398	1.3762412
23.537069297686497	1.8594961	1.3636334
23.554972666922037	1.8412673	1.3569331
23.57287661938623	1.8506057	1.3603697
23.59078115557318	1.8865039	1.3735006
23.608686275977128	1.9211266	1.3860471
23.62659198109246	1.9029133	1.3794613
23.6444982714137	1.8521717	1.3609451
23.66240514743549	1.8391153	1.3561398
23.68031260965263	1.8675036	1.3665664
23.698220658560068	1.8989655	1.3780296
23.716129294652845	1.9182923	1.3850243
23.7340385184262	1.9184184	1.3850698
23.75194833037546	1.909991	1.3820243
23.769858730996123	1.8701066	1.3675184
23.78776972078382	1.8474098	1.3591945
23.80568130023431	1.8548666	1.3619349
23.823593469843495	1.8960762	1.3769808
23.841506230107424	1.9106694	1.3822696
23.859419581522275	1.856442	1.3625131
23.87733352458438	1.8581259	1.3631309
23.89524805979019	1.8619921	1.3645483
23.913163187636318	1.8512542	1.360608
23.931078908619508	1.8606975	1.3640739
23.948995223236633	1.9183767	1.3850547
23.966912131984735	1.9867283	1.4095135
23.98482963536096	2.0668364	1.4376496
24.002747733862616	2.0503893	1.431918
24.020666427987155	2.0505145	1.4319618
24.038585718232156	2.043289	1.4294366
24.056505605095353	2.0361538	1.4269387
24.074426089074617	1.9976534	1.4133836
24.092347170667946	1.9907781	1.4109493
24.110268850373515	2.043515	1.4295156
24.128191128689586	2.0533755	1.4329604
24.146114006114626	2.047125	1.4307778
24.164037483147187	2.072301	1.4395489
24.181961560286005	2.083114	1.4432997
24.199886238029926	2.0668104	1.4376405
24.21781151687797	2.0443738	1.429816
24.235737397329274	1.9894087	1.410464
24.253663879883135	1.9500108	1.3964279
24.271590965038975	1.9458395	1.3949335
24.289518653296376	2.0115466	1.41829
24.30744694515505	2.0562582	1.4339659
24.32537584111486	2.0675716	1.4379053
24.34330534167581	2.0440748	1.4297115
24.361235447338046	2.0605395	1.435458
24.379166158601876	2.011202	1.4181685
24.39709747596772	1.9357408	1.391309
24.41502939993615	1.8732413	1.368664
24.432961931007917	1.8893125	1.3745227
24.450895069683856	1.919626	1.3855057
24.468828816465	1.960433	1.4001546
24.4867631718525	1.962157	1.4007702
24.504698136347656	2.0006409	1.4144402
24.52263371045192	1.9915464	1.4112216
24.540569894666874	2.0021167	1.4149617
24.558506689494266	1.9377486	1.3920304
24.57644409543597	1.9092757	1.3817654
24.594382112994012	1.9140058	1.383476
24.61232074267057	1.9816136	1.407698
24.630259984967953	1.9567127	1.3988255
24.64819984038863	1.9084978	1.3814839
24.66614030943522	1.8844795	1.3727635
24.684081392610462	1.9103414	1.382151
24.702023090417274	1.9204662	1.3858088
24.7199654033587	1.9488312	1.3960054
24.737908331937927	2.0246575	1.4229046
24.755851876658305	2.08116	1.4426227
24.773796038023324	2.0152578	1.4195977
24.79174081653661	1.9702145	1.4036433
24.809686212701962	1.9961177	1.4128402
24.827632227023294	2.0530622	1.4328511
24.8455788600047	2.0831118	1.4432989
24.8635261121504	2.12353	1.4572337
24.88147398396475	2.1259792	1.4580737
24.899422475952303	2.1018708	1.449783
24.917371588617698	2.0639586	1.4366484
24.935321322465768	2.1002753	1.4492327
24.953271678001478	2.213773	1.4878753
24.97122265572994	2.3918264	1.546553
24.989174256156414	2.709196	1.6459635
25.00712647978632	3.2266514	1.7962883
25.02507932712521	4.2322187	2.0572357
25.043032798678798	5.794799	2.407239
25.060986894952933	7.4283414	2.7254984
25.078941616453637	8.925816	2.9876103
25.096896963687055	9.782591	3.1277134
25.114852937159508	10.569817	3.2511253
25.132809537377444	10.369602	3.2201867
25.150766764847468	9.642615	3.105256
25.168724620076347	8.17288	2.858825
25.186683103570985	6.961851	2.638532
25.204642215838426	5.4810038	2.3411543
25.222601957385894	4.436363	2.1062677
25.24056232872074	3.498038	1.8703042
25.25852333035048	2.8418548	1.6857802
25.276484962782778	2.3593652	1.5360225
25.294447226525435	2.1405191	1.4630513
25.312410122086423	2.0516307	1.4323515
25.330373649973843	1.9601032	1.4000368
25.348337810695988	1.9297627	1.389159
25.366302604761245	1.9031749	1.3795561
25.384268032678207	1.8592182	1.3635316
25.40223409495558	1.8430408	1.3575864
25.420200792102257	1.8805068	1.3713157
25.438168124627246	1.8553302	1.3621051
25.45613609303974	1.8412448	1.3569248
25.474104697849057	1.8423094	1.357317
25.492073939564698	1.8667059	1.3662745
25.510043818696285	1.8912551	1.3752291
25.528014335753614	1.8618727	1.3645046
25.54598549124664	1.7998976	1.3416026
25.56395728568544	1.773368	1.3316786
25.58192971958028	1.7791685	1.3338548
25.59990279344156	1.7868975	1.3367488
25.617876507779833	1.7937948	1.3393263
25.635850863105826	1.7897266	1.3378067
25.653825859930386	1.8046134	1.343359
25.671801498764548	1.8520267	1.3608918
25.68977778011949	1.8667874	1.3663043
25.707754704506524	1.830513	1.3529645
25.725732272437153	1.78199	1.334912
25.743710484423012	1.7878426	1.3371023
25.761689340975888	1.8011365	1.3420643
25.77966884260774	1.8057067	1.3437659
25.797648989830662	1.7881769	1.3372273
25.815629783156922	1.7744982	1.3321029
25.83361122309895	1.8231697	1.350248
25.85159331016929	1.801446	1.3421795
25.869576044880695	1.7378571	1.3182781
25.887559427746034	1.718791	1.3110267
25.90554345927836	1.7744807	1.3320963
25.92352813999086	1.7811054	1.3345807
25.94151347039689	1.8019804	1.3423786
25.959499451009965	1.8283249	1.3521557
25.97748608234374	1.8827341	1.3721275
25.995473364912062	1.897623	1.3775424
26.013461299228904	1.8592403	1.3635396
26.03144988580839	1.8233403	1.3503112
26.04943912516483	1.8252538	1.3510195
26.067429017812675	1.8136458	1.3467166
26.085419564266537	1.7946571	1.3396481
26.103410765041186	1.8448948	1.358269
26.12140262065155	1.8655714	1.3658592
26.139395131612723	1.8067645	1.3441594
26.157388298439948	1.7950118	1.3397804
26.17538212164861	1.8210229	1.3494529
26.193376601754295	1.7688992	1.3299997
26.211371739272714	1.7401776	1.319158
26.229367534719746	1.7454046	1.3211377
26.247363988611433	1.7891325	1.3375846
26.26536110146397	1.7735673	1.3317535
26.283358873793727	1.8104255	1.3455205
26.301357306117204	1.846004	1.3586773
26.319356398951104	1.8694602	1.367282
26.33735615281224	1.8279277	1.3520088
26.35535656821762	1.8105938	1.3455831
26.373357645684404	1.7924798	1.3388352
26.39135938572991	1.8011811	1.3420808
26.409361788871614	1.7850326	1.3360511
26.427364855627165	1.7866426	1.3366535
26.445368586514352	1.7766347	1.3329046
26.46337298205115	1.776469	1.3328425
26.48137804275568	1.7610998	1.3270644
26.499383769146217	1.7677882	1.329582
26.517390161741215	1.79521	1.3398545
26.53539722105928	1.8280753	1.3520633
26.553404947619182	1.8358154	1.3549227
26.571413341939856	1.7964631	1.340322
26.589422404540397	1.7628974	1.3277415
26.60743213594006	1.7903559	1.3380418
26.62544253665827	1.7941701	1.3394663
26.64345360721459	1.7606595	1.3268985
26.66146534812879	1.7726718	1.3314172
26.679477759920758	1.8173709	1.348099
26.69749084311057	1.8207488	1.3493513
26.71550459821847	1.8244293	1.3507143
26.733519025764842	1.8177776	1.3482498
26.751534126270258	1.8717616	1.3681234
26.769549900255434	1.875915	1.3696405
26.787566348241267	1.8654753	1.365824
26.80558347074881	1.8459569	1.35866
26.823601268299267	1.8462775	1.3587779
26.841619741414036	1.8108048	1.3456615
26.85963889061465	1.7877885	1.3370821
26.877658716422832	1.8269674	1.3516536
26.89567921936045	1.8351153	1.3546643
26.913700399949544	1.8427556	1.3574814
26.93172225871233	1.8616168	1.3644108
26.949744796171174	1.8710247	1.3678541
26.967768012848605	1.8593735	1.3635885
26.98579190926733	1.8635782	1.3651294
27.003816485950225	1.8669196	1.3663527
27.021841743420318	1.9003872	1.3785453
27.039867682200814	1.8742688	1.3690394
27.057894302815072	1.8335906	1.3541014
27.07592160578664	1.8460468	1.358693
27.0939495916392	1.8548217	1.3619183
27.111978260896635	1.8700742	1.3675065
27.13000761408296	1.8459427	1.3586547
27.148037651722397	1.8448632	1.3582574
27.166068374339304	1.805137	1.3435539
27.184099782458215	1.7679937	1.3296592
27.20213187660384	1.7692431	1.330129
27.22016465730105	1.8047892	1.3434244
27.23819812507487	1.7942973	1.3395139
27.256232280450533	1.7822915	1.335025
27.274267123953383	1.7418915	1.3198074
27.292302656108987	1.7579448	1.3258752
27.31033887744306	1.8229417	1.3501636
27.32837578848146	1.8146232	1.3470795
27.34641338975026	1.7467605	1.3216506
27.364451681775673	1.7468876	1.3216988
27.382490665084074	1.8027626	1.34267
27.400530340202046	1.8136439	1.3467159
27.41857070765629	1.8184118	1.348485
27.436611767973726	1.8227806	1.350104
27.454653521681404	1.7916472	1.3385242
27.472695969306564	1.7812245	1.3346252
27.490739111376627	1.7855468	1.3362435
27.508782948419153	1.7836977	1.3355515
27.526827480961902	1.7392485	1.3188057
27.54487270953279	1.714623	1.3094361
27.562918634659898	1.7353752	1.3173364
27.580965256871508	1.7627642	1.3276913
27.599012576696026	1.7736796	1.3317957
27.617060594662068	1.7468393	1.3216804
27.63510931129842	1.743605	1.3204564
27.65315872713401	1.7467371	1.3216418
27.67120884269797	1.7948843	1.3397329
27.68925965851958	1.818082	1.3483627
27.707311175128307	1.8060137	1.34388
27.725363393053787	1.7788254	1.3337262
27.74341631282583	1.8148222	1.3471534
27.7614699349744	1.8555176	1.3621739
27.77952426002968	1.987187	1.4096762
27.797579288521973	2.073739	1.4400483
27.815635020981784	2.4094975	1.5522556
27.83369145793979	2.4733362	1.5726844
27.85174859992682	2.360197	1.5362933
27.869806447473923	2.2442179	1.4980714
27.887865001112267	1.9914844	1.4111997
27.905924261373233	1.8920834	1.3755302
27.92398422878836	1.8655674	1.3658577
27.94204490388936	1.8887073	1.3743025
27.96010628720813	1.8826863	1.3721101
27.978168379276728	1.8803225	1.3712485
27.9962311806274	1.909458	1.3818314
28.014294691792568	1.9139154	1.3834434
28.0323589133048	1.8835567	1.3724273
28.050423845696887	1.829236	1.3524926
28.068489489501758	1.8334154	1.3540367
28.086555845252523	1.8434364	1.357732
28.104622913482487	1.8580765	1.3631128
28.122690694725115	1.8573083	1.362831
28.14075918951405	1.8453096	1.3584217
28.15882839838312	1.8803697	1.3712658
28.176898321866304	1.9355223	1.3912305
28.1949689604978	1.944493	1.3944508
28.213040314811945	1.910367	1.3821603
28.23111238534327	1.8593621	1.3635843
28.249185172626493	1.8583134	1.3631997
28.267258677196473	1.8641726	1.365347
28.285332899588294	1.8204712	1.3492484
28.303407840337172	1.7791042	1.3338307
28.321483499978545	1.8067167	1.3441416
28.33955987904799	1.8730438	1.3685919
28.357636978081285	1.9898881	1.4106339
28.37571479761439	2.0303707	1.4249108
28.393793338183425	2.0170238	1.4202197
28.41187260032469	1.9873021	1.409717
28.429952584574686	1.9996414	1.4140868
28.448033291470065	2.0069277	1.4166608
28.46611472154769	2.0052927	1.4160836
28.484196875344566	1.982206	1.4079083
28.502279753397914	1.9768893	1.406019
28.52036335624511	1.9578583	1.3992349
28.538447684423716	1.9526858	1.3973854
28.556532738471482	1.9429458	1.3938959
28.574618518926325	1.9590744	1.3996694
28.59270502632635	2.0192664	1.421009
28.61079226120985	2.0345564	1.4263787
28.628880224115274	1.9885104	1.4101455
28.646968915581287	1.9670118	1.402502
28.66505833614671	1.981648	1.4077102
28.68314848635055	2.0123575	1.4185759
28.701239366732004	2.007294	1.41679
28.71933097783044	2.0340073	1.4261863
28.737423320185403	2.006557	1.4165299
28.75551639433665	1.9758284	1.4056417
28.773610200824074	2.0208852	1.4215784
28.791704740187793	2.0786514	1.4417529
28.80980001296809	2.1226454	1.4569302
28.827896019705413	2.0649772	1.4370029
28.845992760940433	2.107328	1.4516639
28.86409023721397	2.1655889	1.471594
28.88218844906704	2.1611636	1.4700897
28.900287397040845	2.1159098	1.4546167
28.918387081676755	2.1360466	1.461522
28.936487503516343	2.213867	1.4879069
28.954588663101365	2.2562146	1.5020701
28.97269056097374	2.2998588	1.5165285
28.990793197675597	2.3357384	1.5283123
29.00889657374923	2.3772705	1.54184
29.027000689737125	2.3694112	1.5392892
29.04510554618196	2.3609917	1.5365518
29.06321114362659	2.3720295	1.5401394
29.08131748261405	2.4242163	1.5569894
29.099424563687567	2.4660714	1.570373
29.11753238739057	2.5462034	1.5956827
29.13564095426663	2.5919735	1.6099607
29.15375026485954	2.6037257	1.6136065
29.171860319713275	2.5690792	1.6028347
29.18997111937199	2.5877097	1.608636
29.20808266438002	2.7006767	1.6433736
29.226194955281898	2.8049097	1.6747864
29.244307992622335	2.7822177	1.6679981
29.26242177694624	2.7175376	1.6484956
29.2805363087987	2.7059338	1.6449723
29.29865158872498	2.813654	1.677395
29.316767617270557	2.9346094	1.7130702
29.334884394981064	2.9517646	1.71807
29.353001922402367	2.9268928	1.7108164
29.37112020008047	3.016341	1.7367617
29.389239228561596	3.1744401	1.7816958
29.407359008392152	3.3108706	1.8195798
29.42547954011872	3.535546	1.8803048
29.44360082428809	4.02663	2.0066464
29.46172286144722	4.8771725	2.2084322
29.479845652143283	6.445045	2.5387094
29.497969196923606	9.190626	3.0316045
29.516093496335728	13.037435	3.6107388
29.5342185509274	16.62276	4.077102
29.55234436124651	19.723501	4.441115
29.570470927841175	21.19887	4.6042233
29.588598251259686	21.28049	4.613078
29.60672633205055	19.7766	4.4470887
29.624855170762405	16.615032	4.076154
29.642984767944146	13.193017	3.6322193
29.66111512414481	9.83286	3.135739
29.67924623991366	7.296971	2.7012906
29.697378115800138	5.341677	2.3112068
29.71551075235387	4.350799	2.085857
29.733644150124675	3.7667933	1.9408228
29.751778309662576	3.4918048	1.8686372
29.769913231517766	3.3822002	1.8390759
29.78804891624066	3.371127	1.8360629
29.806185364381818	3.3430986	1.8284142
29.82432257649206	3.257627	1.8048898
29.842460553122333	3.2542787	1.803962
29.86059929482382	3.3415618	1.8279939
29.878738802147872	3.3851416	1.8398755
29.896879075646048	3.289671	1.813745
29.915020115870114	3.1859658	1.7849274
29.933161923371976	3.112948	1.7643548
29.951304498703777	3.1294572	1.7690272
29.969447842417857	3.1870558	1.7852327
29.987591955066733	3.2429721	1.8008254
30.005736837203123	3.2479622	1.8022103
30.023882489379943	3.158088	1.777101
30.04202891215028	3.1234694	1.767334
30.060176106067455	3.113393	1.764481
30.078324071684946	3.150961	1.7750946
30.09647280955646	3.1766117	1.7823051
30.114622320235863	3.1436236	1.7730267
30.132772604277257	3.073845	1.7532384
30.1509236622349	3.0852926	1.7565001
30.16907549466328	3.0855966	1.7565867
30.18722810211705	3.1078668	1.7629143
30.205381485151097	3.1074219	1.762788
30.22353564432045	3.0965676	1.7597067
30.241690580180403	3.0386176	1.7431631
30.25984629328638	2.9291506	1.7114761
30.278002784194037	2.879695	1.6969664
30.296160053459246	2.895326	1.7015657
30.314318101638033	2.9753566	1.7249222
30.332476929286646	2.9940395	1.7303293
30.35063653696153	2.9322476	1.7123806
30.368796925219307	2.939423	1.7144746
30.386958094616844	2.939314	1.7144427
30.40512004571115	2.889086	1.6997311
30.423282779059463	2.8682635	1.6935948
30.441446295219233	2.853282	1.6891661
30.459610594748067	2.8363922	1.6841592
30.47777567820382	2.8294322	1.6820916
30.495941546144504	2.832828	1.6831007
30.51410819912835	2.8202412	1.6793574
30.532275637713795	2.8027823	1.6741512
30.55044386245946	2.833636	1.6833408
30.56861287392416	2.821378	1.6796958
30.586782672666956	2.7850654	1.6688515
30.604953259247047	2.7791603	1.6670814
30.623124634223885	2.7373314	1.6544882
30.641296798157075	2.7122462	1.6468898
30.659469751606462	2.6445763	1.6262153
30.677643495132074	2.663252	1.6319473
30.695818029294152	2.653562	1.6289757
30.713993354653116	2.6900275	1.6401303
30.73216947176962	2.6916957	1.6406388
30.75034638120448	2.6964407	1.6420842
30.768524083518756	2.699914	1.6431415
30.786702579273673	2.6909947	1.6404252
30.80488186903069	2.7667282	1.6633484
30.82306195335144	2.9762247	1.7251738
30.841242832797782	3.2548375	1.8041168
30.85942450793176	3.4777768	1.8648798
30.877606979315637	3.84024	1.959653
30.895790247511883	4.343402	2.084083
30.913974313083134	4.7244105	2.1735709
30.932159176592283	5.025263	2.2417097
30.95034483860237	5.3312144	2.3089423
30.968531299676698	5.3176165	2.3059957
30.98671856037873	4.964015	2.2280068
31.00490662127215	4.6152506	2.1483135
31.023095482920848	4.1533885	2.0379863
31.04128514588892	3.724894	1.9299985
31.059475610740662	3.233354	1.7981529
31.07766687804056	2.8572128	1.6903292
31.09585894835335	2.6151981	1.6171575
31.11405182224393	2.4681356	1.5710301
31.132245500277417	2.4373765	1.5612099
31.15043998301914	2.4238746	1.5568798
31.168635271034628	2.4123132	1.5531623
31.18683136488964	2.4011343	1.5495594
31.20502826515008	2.405169	1.5508608
31.223225972382135	2.4059312	1.5511065
31.241424487152155	2.4214096	1.556088
31.259623810026692	2.4269648	1.5578718
31.27782394157253	2.4267488	1.5578026
31.296024882356644	2.3997664	1.5491179
31.314226632946237	2.4121444	1.553108
31.332429193908684	2.4344594	1.5602754
31.350632565811598	2.4529486	1.5661892
31.368836749222787	2.4840024	1.5760719
31.387041744710295	2.4906743	1.578187
31.40524755284232	2.5315135	1.591073
31.423454174187317	2.5663424	1.6019808
31.441661609313922	2.5532646	1.5978938
31.459869858791002	2.4608853	1.5687209
31.478078923187628	2.352418	1.5337595
31.496288803073064	2.2706153	1.5068561
31.514499499016807	2.2308412	1.4936
31.532711011588546	2.191559	1.4803915
31.550923341358178	2.2673366	1.5057678
31.56913648889584	2.3204222	1.5232933
31.587350454771844	2.2783248	1.509412
31.605565239556732	2.2099357	1.4865853
31.62378084382127	2.1698382	1.473037
31.641997268136382	2.1978366	1.4825102
31.660214513073274	2.245767	1.4985883
31.67843257920331	2.2860255	1.5119609
31.6966514670981	2.262975	1.5043188
31.71487117732944	2.3278785	1.5257387
31.733091710469346	2.3077052	1.5191133
31.751313067090052	2.2189832	1.4896252
31.769535247764008	2.1795838	1.4763414
31.787758253063878	2.187311	1.478956
31.805982083562526	2.1814222	1.4769639
31.824206739833024	2.2438319	1.4979426
31.84243222244869	2.3214738	1.5236384
31.860658531983013	2.3529925	1.5339468
31.878885669009737	2.3771014	1.5417851
31.897113634102784	2.3108919	1.5201617
31.91534242783632	2.2372375	1.4957398
31.933572050784694	2.2161438	1.4886719
31.951802503522508	2.2464724	1.4988236
31.970033786624548	2.1435156	1.464075
31.988265900665834	2.0464694	1.4305487
32.006498846221575	2.1070282	1.4515606
32.02473262386724	2.2045703	1.4847796
32.04296723417845	2.231321	1.4937607
32.0612026777311	2.1799634	1.4764699
32.07943895510129	2.214218	1.4880248
32.097676066865304	2.255676	1.5018908
32.115914013599685	2.2550583	1.5016851
32.13415279588115	2.2507756	1.5002584
32.152392414286666	2.1827238	1.4774044
32.1706328693934	2.1118882	1.4532337
32.18887416177875	2.1207156	1.4562677
32.20711629202032	2.1084595	1.4520535
32.225359260695924	2.0707521	1.4390109
32.243603068383614	2.066553	1.4375511
32.26184771566166	2.0981596	1.4485025
32.28009320310852	2.1123426	1.45339
32.2983395313029	2.1369357	1.4618262
32.31658670082372	2.1523116	1.4670758
32.33483471225012	2.145841	1.4648689
32.35308356616143	2.122535	1.4568923
32.371333263137245	2.0652933	1.4371128
32.38958380375734	2.0764344	1.4409838
32.407835188601744	2.1185732	1.455532
32.42608741825067	2.0460415	1.4303991
32.444340493284585	2.0292087	1.424503
32.46259441428416	2.0169585	1.4201967
32.48084918183028	2.0812197	1.4426433
32.49910479650405	2.0787697	1.4417939
32.51736125888683	2.073463	1.4399524
32.53561856956014	1.9878696	1.4099183
32.5538767291058	2.0021358	1.4149685
32.572135738105764	2.0600054	1.4352719
32.59039559714228	2.1028824	1.4501319
32.608656306797776	2.045206	1.430107
32.62691786765491	2.0086927	1.4172835
32.645180280296586	1.9776006	1.4062718
32.663443545305896	1.9535139	1.3976816
32.68170766326619	1.9541684	1.3979157
32.69997263476099	1.9547429	1.3981212
32.7182384603741	1.923022	1.3867307
32.7365051406895	1.9009156	1.378737
32.75477267629144	1.9914019	1.4111704
32.77304106776434	2.0280523	1.4240971
32.79131031569289	1.9579781	1.3992777
32.809580420661966	1.881362	1.3716274
32.827851383256714	1.996013	1.4128033
32.84612320406245	2.0973625	1.4482274
32.86439588366476	2.076501	1.4410069
32.88266942264945	2.060718	1.4355202
32.9009438216025	2.108364	1.4520206
32.9192190811102	1.9735961	1.4048474
32.937495201758985	1.8845965	1.3728061
32.95577218413556	2.000128	1.4142588
32.974050028826866	2.0673888	1.4378417
32.992328736420035	1.9773672	1.4061888
33.010608307502444	1.9101956	1.3820982
33.02888874266169	1.9432107	1.3939909
33.047170042485604	1.976086	1.4057332
33.06545220756225	1.9875702	1.4098121
33.083735238479896	1.9346249	1.390908
33.10201913582707	1.8949674	1.3765782
33.12030390019248	1.8996534	1.3782792
33.138589532165135	1.8969134	1.3772848
33.15687603233419	1.8688052	1.3670425
33.17516340128909	1.9252485	1.3875332
33.19345163961947	1.9169089	1.3845248
33.211740747915215	1.9223431	1.3864859
33.23003072676643	1.9672034	1.4025702
33.248321576763466	2.072304	1.4395499
33.266613298496885	2.0594187	1.4350675
33.28490589255747	1.9809927	1.4074774
33.30319935953626	1.8549016	1.3619477
33.32149370002451	1.8914484	1.3752993
33.339788914613706	2.0703256	1.4388626
33.358085003895575	2.0678456	1.4380006
33.376381968462034	1.9441371	1.3943231
33.39467980890529	2.010371	1.4178755
33.41297852581774	2.0110502	1.418115
33.43127811979204	2.0083132	1.4171497
33.44957859142105	1.9218345	1.3863025
33.467879941297866	1.8608469	1.3641286
33.486182170015844	1.8264636	1.3514673
33.50448527816853	1.8903853	1.3749129
33.522789266349754	1.9628959	1.4010339
33.541094135153514	2.0080063	1.4170414
33.55939988517411	1.9760865	1.4057335
33.57770651700602	1.9257138	1.3877009
33.59601403124398	1.9431225	1.3939593
33.61432242848296	2.0132012	1.4188732
33.632631709318154	1.962074	1.4007405
33.650941874344994	1.8696985	1.3673692
33.66925292415916	1.8520045	1.3608837
33.68756485935654	1.9582512	1.3993753
33.70587768053328	1.9598548	1.3999481
33.724191388285746	1.9583352	1.3994052
33.74250598321054	1.9791702	1.4068298
33.760821465904506	1.9170218	1.3845656
33.77913783696474	1.7753174	1.3324103
33.79745509698852	1.827166	1.351727
33.815773246573414	1.9226483	1.386596
33.8340922863172	1.9218266	1.3862996
33.852412216817896	1.8397552	1.3563757
33.87073303867377	1.8635848	1.3651317
33.889054752483304	1.8952159	1.3766685
33.907377358845245	1.8503915	1.360291
33.92570085835853	1.7590487	1.3262913
33.94402525162239	1.8016077	1.3422399
33.96235053923627	1.7808143	1.3344716
33.980676721799824	1.8250177	1.3509321
33.999003799912984	1.9320506	1.3899822
34.01733177417592	1.9473683	1.3954813
34.03566064518901	1.9173137	1.384671
34.0539904135529	1.9035686	1.3796988
34.07232107986846	1.8338271	1.3541887
34.090652644736785	1.7404369	1.3192562
34.108985108759235	1.8250037	1.350927
34.12731847253742	1.9845711	1.408748
34.14565273667313	1.9605592	1.4001998
34.16398790176847	1.9626473	1.4009452
34.18232396842574	2.0026736	1.4151585
34.20066093724749	1.9895117	1.4105005
34.21899880883651	1.8081717	1.3446828
34.23733758379583	1.8650692	1.3656753
34.25567726272874	1.9651973	1.401855
34.27401784623872	1.926655	1.38804
34.29235933492957	1.8600411	1.3638333
34.31070172940526	1.802873	1.3427111
34.32904503027003	1.8329333	1.3538587
34.347389238128386	1.9948155	1.4123794
34.36573435358502	2.1642091	1.4711251
34.38408037724492	2.0835464	1.4434495
34.402427309713296	1.8076378	1.3444842
34.42077515159559	1.7316792	1.3159329
34.43912390349752	1.9069499	1.3809235
34.45747356602499	2.0932448	1.446805
34.47582413978423	2.2611558	1.503714
34.49417562538163	2.2940292	1.5146053
34.51252802342388	2.1196566	1.455904
34.53088133451789	1.987876	1.4099206
34.54923555927084	2.0549994	1.4335269
34.567590698290104	2.0929482	1.4467025
34.58594675218336	2.0240972	1.4227077
34.6043037215585	2.0165756	1.4200618
34.62266160702365	2.0247018	1.4229202
34.641020409187234	1.9009496	1.3787493
34.65938012865785	1.8510686	1.3605398
34.677740766044394	1.8514872	1.3606936
34.69610232195598	1.856933	1.3626933
34.714464797002016	1.849133	1.3598284
34.73282819179208	1.9875451	1.4098033
34.751192506936064	1.9486088	1.3959258
34.76955774304408	1.8226993	1.3500738
34.7879239007265	1.8722767	1.3683116
34.80629098059391	1.9994023	1.4140022
34.824658983257194	1.9943503	1.4122146
34.843027909327446	2.1798143	1.4764194
34.86139775941603	2.3955212	1.5477471
34.879768534134534	2.221098	1.4903349
34.89814023409483	2.0783877	1.4416615
34.91651285990901	2.0212314	1.4217002
34.93488641218944	1.9302093	1.3893198
34.95326089154871	1.9078972	1.3812665
34.97163629859967	2.0330963	1.4258668
34.99001263395542	2.1679082	1.4723818
35.00838989822934	2.0107174	1.4179977
35.02676809203499	1.9500098	1.3964275
35.04514721598624	1.8847331	1.3728558
35.063527270697215	1.8719445	1.3681903
35.081908256782256	1.7393818	1.3188562
35.10029017485597	1.890025	1.3747818
35.11867302553321	2.2335486	1.4945061
35.137056809429104	2.3365679	1.5285836
35.155441527159006	2.2296972	1.4932171
35.173827179338524	1.9708045	1.4038534
35.19221376658354	2.0089374	1.4173698
35.21060128951017	2.0644653	1.4368247
35.2289897487348	1.9147075	1.3837296
35.24737914487405	1.8441793	1.3580056
35.26576947854479	1.7718437	1.3311062
35.28416075036418	1.7689323	1.3300122
35.30255296094958	1.8822621	1.3719556
35.32094611091867	1.7850614	1.3360618
35.33934020088932	1.8919806	1.3754929
35.35773523147969	2.1043208	1.4506277
35.3761312033082	1.9109027	1.382354
35.394528116993506	1.6834421	1.2974753
35.41292597315452	1.7736865	1.3317982
35.431324772410434	1.9730054	1.4046371
35.449724515380666	2.2264993	1.4921459
35.46812520268491	2.1962316	1.4819689
35.486526834943106	2.0087314	1.4172972
35.504929412775454	1.7660766	1.3289381
35.52333293680242	1.958914	1.3996121
35.54173740764471	2.5254173	1.5891562
35.560142825923286	2.4732504	1.5726571
35.5785491922594	1.6944469	1.3017092
35.59695650727454	1.1203318	1.0584573
35.61536477159042	0.6149216	0.7841694
