0.008763373481513119	0.0	0.0
0.026290120649546365	0.0	0.0
0.043816868432600686	0.0046239095	0.06799933
0.06134361724069026	0.10102613	0.3178461
0.07887036748382949	0.17721674	0.42097118
0.0963971195720331	0.28847435	0.5370981
0.11392387391531617	0.2243143	0.4736183
0.1314506309236943	0.14292823	0.3780585
0.1489773910071836	0.14147459	0.3761311
0.16650415457580078	0.14360477	0.3789522
0.18403092203956356	0.1960687	0.44279647
0.20155769380849	0.23848069	0.48834485
0.2190844702925996	0.25113526	0.501134
0.2366112519019124	0.22621748	0.47562325
0.2541380390464497	0.21665798	0.46546534
0.27166483213623416	0.1965674	0.44335923
0.28919163158128947	0.2151235	0.46381408
0.3067184377916406	0.20917225	0.45735353
0.324245251177314	0.16923514	0.411382
0.34177207214833777	0.18200645	0.42662215
0.3592989011147415	0.14842196	0.3852557
0.37682573848655654	0.115851976	0.34037036
0.39435258467381573	0.09694098	0.31135347
0.41187944008655414	0.12586576	0.35477564
0.42940630513480854	0.17590854	0.41941452
0.446933180228618	0.21688381	0.46570787
0.4644600657780234	0.2122856	0.46074462
0.48198696219306775	0.2019827	0.44942486
0.49951386988379676	0.20234394	0.44982657
0.5170407892602581	0.21743698	0.46630138
0.5345677207325025	0.17274414	0.415625
0.5520946647105822	0.1641147	0.40511072
0.5696216216045534	0.12329153	0.35112894
0.5871485918244737	0.114598244	0.33852363
0.6046755757804043	0.11260537	0.33556724
0.6222025738824094	0.12900345	0.3591705
0.6397295865405557	0.13018753	0.36081508
0.6572566141649129	0.14458106	0.38023818
0.6747836571655547	0.16192393	0.40239772
0.6923107159525568	0.15848106	0.3980968
0.7098377909359992	0.14941369	0.38654068
0.7273648825259653	0.17312936	0.41608816
0.7448919911325411	0.17509656	0.4184454
0.762419117165817	0.16587743	0.40728053
0.7799462610358868	0.15494168	0.39362633
0.7974734231528482	0.14665395	0.38295424
0.8150006039268024	0.18765704	0.433194
0.8325278037678551	0.22416124	0.47345668
0.8500550230861152	0.23010935	0.47969714
0.8675822622916969	0.2208707	0.46996883
0.8851095217947171	0.21802111	0.46692732
0.9026368020052984	0.21055566	0.45886344
0.9201641033335665	0.18374155	0.42865086
0.9376914261896523	0.16792741	0.40978947
0.9552187709836915	0.159766	0.3997074
0.9727461381258234	0.21750924	0.46637887
0.990273528026193	0.2740589	0.52350634
1.0078009410949496	0.3091622	0.55602354
1.0253283777422473	0.29195848	0.54033184
1.0428558383782454	0.27203512	0.52156985
1.0603833234131086	0.2758587	0.52522254
1.0779108332570058	0.3020478	0.54958874
1.0954383683201119	0.32129592	0.5668297
1.112965929012607	0.36412096	0.6034244
1.1304935157446763	0.48287916	0.6948951
1.1480211289265108	0.5697284	0.75480354
1.1655487689683062	1.4311928	1.1963247
1.1830764362802655	1.7570432	1.325535
1.200604131272596	2.2173924	1.4890912
1.2181318543555117	2.6317718	1.6222737
1.235659605939232	2.558222	1.5994443
1.253187386433982	4.0241017	2.0060165
1.270715196249994	6.2244782	2.4948905
1.2882430357975057	11.555191	3.3992927
1.3057709054867608	16.158354	4.0197453
1.3232988057280106	21.959642	4.6861115
1.3408267369315112	26.770824	5.174053
1.358354699507526	30.354462	5.509488
1.3758826938663256	34.615902	5.883528
1.3934107204181858	36.431915	6.035886
1.410938779573391	37.077488	6.0891285
1.4284668717422309	37.695168	6.139639
1.4459949973350033	37.017128	6.0841703
1.4635231567620117	36.643612	6.0533967
1.4810513504335687	35.863285	5.9885964
1.4985795787599925	35.17391	5.9307594
1.5161078421516088	35.1027	5.924753
1.5336361410187505	34.496212	5.8733478
1.5511644757717598	34.551834	5.878081
1.5686928468209842	35.045677	5.919939
1.58622125457678	35.63155	5.969217
1.6037496994495108	36.946686	6.0783787
1.621278181849548	36.89082	6.0737815
1.6388067021872719	37.887848	6.1553106
1.6563352608730693	37.35282	6.1116953
1.673863858317336	36.400547	6.0332866
1.6913924949304753	35.440655	5.9532056
1.7089211711228998	34.134476	5.8424716
1.7264498873050296	33.35667	5.775523
1.7439786438872935	32.45079	5.6965594
1.7615074412801288	31.664621	5.6271324
1.779036279893981	30.811932	5.5508494
1.796565160139305	29.804829	5.4593797
1.814094082426564	29.252466	5.408555
1.8316230471662298	28.45539	5.3343596
1.849152054768784	27.687437	5.261885
1.8666811056447168	27.02663	5.1987143
1.8842102002045273	26.201094	5.1187005
1.901739338858724	25.800419	5.0794115
1.9192685220178245	25.26492	5.026422
1.9367977500923557	24.689987	4.968902
1.9543270234928547	24.446016	4.944291
1.971856342629867	23.969862	4.8959026
1.9893857079139496	23.217964	4.8185024
2.006915119755667	22.381807	4.7309413
2.0244445785655945	21.957834	4.685919
2.0419740847543175	21.60433	4.648046
2.0595036387324317	21.222385	4.606776
2.0770332409105414	20.601912	4.538933
2.094562891699263	20.27215	4.5024605
2.1120925915092217	20.054827	4.4782615
2.129622340751053	19.682552	4.4365025
2.1471521398354043	187.81985	13.704739
2.1646819891729323	443.9042	21.069035
2.182211889174303	440.15955	20.97998
2.1997418402501974	452.5517	21.273262
2.2172718428113023	432.54166	20.797636
2.234801897268317	320.5415	17.903673
2.2523320040319548	17.09323	4.134396
2.269862163512935	16.748014	4.092434
2.287392376121992	16.360914	4.0448627
2.304922642269869	15.858932	3.9823275
2.322452962367322	15.431409	3.9282832
2.3399833368251164	15.180807	3.8962555
2.357513766054032	15.069369	3.8819284
2.3750442504648586	14.997724	3.8726895
2.3925747904683963	14.792565	3.8461103
2.410105386475459	14.5325775	3.8121617
2.4276360388968707	14.181841	3.7658784
2.445166748143469	13.8736725	3.724738
2.4626975146261025	13.672708	3.6976624
2.4802283387556323	13.595567	3.6872168
2.4977592209429305	13.417744	3.663024
2.5152901615988825	13.278789	3.6440072
2.5328211611343865	12.962051	3.6002848
2.5503522199603523	12.883089	3.589302
2.5678833384877024	12.629277	3.5537694
2.5854145171273712	12.302597	3.507506
2.6029457562903064	11.992953	3.4630845
2.620477056387469	11.872002	3.4455771
2.6380084178298326	11.724423	3.4240944
2.655539841028383	11.596267	3.4053292
2.673071326394119	11.306289	3.3624825
2.6906028743380523	11.21198	3.3484294
2.708134485271211	10.993247	3.3156066
2.7256661596046325	10.765166	3.2810314
2.743197897749369	10.557702	3.2492619
2.760729700116486	10.348795	3.2169542
2.778261567117063	10.402825	3.225341
2.795793499162193	10.177209	3.1901739
2.8133254966629817	10.075594	3.1742077
2.830857560030551	9.728857	3.1191115
2.8483896896760337	9.667754	3.1093013
2.865921886010578	9.533631	3.087658
2.883454149445347	9.521323	3.085664
2.9009864803915177	9.454468	3.074812
2.91851887926028	9.304815	3.0503795
2.9360513464628384	9.240082	3.0397503
2.953583882410413	9.017668	3.0029433
2.9711164875142373	8.8744335	2.9789987
2.9886491621855606	8.756437	2.959128
3.0061819068356455	8.54416	2.9230394
3.023714721875769	8.451202	2.9070952
3.041247607717225	8.279787	2.877462
3.0587805647713213	8.147394	2.8543642
3.0763135934493806	8.138895	2.8528748
3.0938466941627407	8.061531	2.8392835
3.1113798673227544	7.9274306	2.8155694
3.1289131133407904	7.8341784	2.7989602
3.1464464326282315	7.6555796	2.7668717
3.1639798255964786	7.585047	2.7540963
3.1815132926569443	7.4113917	2.722387
3.1990468342210603	7.4274096	2.7253275
3.216580450700272	7.4034734	2.7209325
3.2341141425060416	7.3747993	2.7156582
3.251647910049847	7.3561516	2.7122226
3.2691817537431813	7.2042446	2.6840725
3.286715673997555	7.091195	2.6629298
3.3042496712244938	6.941463	2.6346657
3.32178374583554	6.8954015	2.6259096
3.339317898242251	6.855842	2.6183662
3.3568521288562034	6.6941314	2.587302
3.3743864380889876	6.5841575	2.5659614
3.3919208263522127	6.559674	2.561186
3.4094552940575023	6.62542	2.5739892
3.4269898416164972	6.610845	2.5711563
3.444524469440858	6.5249567	2.5543995
3.4620591779422587	6.422774	2.5343192
3.479593967532391	6.3671966	2.5233305
3.4971288386229658	6.233483	2.4966943
3.5146637916257086	6.205246	2.491033
3.5321988269523628	6.2474475	2.4994895
3.5497339450146903	6.2794495	2.505883
3.5672691462244708	6.289751	2.5079377
3.5848044309934988	6.265469	2.5030918
3.60233979973359	6.322339	2.5144262
3.619875252856575	6.3450103	2.5189304
3.6374107907743034	6.271749	2.5043461
3.6549464138986427	6.238641	2.4977272
3.6724821226414788	6.2453384	2.4990675
3.690017917414714	6.234445	2.496887
3.7075537986302702	6.201706	2.4903224
3.7250897667000857	6.224625	2.4949198
3.7426258220361235	6.4788637	2.5453613
3.7601619650503553	6.843609	2.6160293
3.777698196154779	7.372712	2.7152739
3.7952345157614067	8.330104	2.8861918
3.8127709242822716	9.126449	3.0210013
3.830307422129425	11.353171	3.3694468
3.847844009714936	30.243229	5.4993844
3.8653806874508954	97.698044	9.8842325
3.882917455749409	96.89873	9.843715
3.900454315022606	96.59416	9.828233
3.917991265682631	41.19359	6.418223
3.9355283081416506	10.990807	3.3152385
3.9530654428118495	8.866853	2.9777262
3.970602670105433	7.637918	2.7636783
3.9881399904346244	6.710791	2.5905194
4.005677404211669	6.5782638	2.5648127
4.023214911848827	6.5653553	2.562295
4.0407525137583855	6.5301	2.555406
4.058290210352644	6.500244	2.5495577
4.075828002043927	6.338615	2.5176606
4.0933658892445814	6.210416	2.4920707
4.110903872366966	6.14555	2.479022
4.128441951823468	6.130534	2.4759915
4.145980128026488	6.143643	2.4786372
4.163518401388452	6.016991	2.4529555
4.181056772321807	6.06536	2.4627953
4.1985952412390155	6.05394	2.4604754
4.216133808552567	6.2202535	2.4940436
4.233672474674966	6.316811	2.5133266
4.251211240018741	6.5462103	2.5585563
4.268750104996445	6.825414	2.6125493
4.286289070020643	7.6790733	2.771114
4.303828135503928	9.202843	3.0336187
4.3213673018589125	29.405958	5.422726
4.3389065694982305	90.45956	9.511023
4.356445938834537	165.75737	12.87468
4.3739854102805085	171.32065	13.088951
4.391524984248844	172.23615	13.123877
4.409064661152262	136.3888	11.678561
4.426604441403504	96.65003	9.831075
4.444144325415337	75.41053	8.683924
4.461684313600543	21.31917	4.6172686
4.47922440637193	21.631002	4.650914
4.496764604142329	20.034601	4.4760027
4.5143049073245916	18.324821	4.2807503
4.531845316331589	16.377306	4.0468884
4.5493858315762195	13.5977125	3.6875076
4.566926453471405	11.179198	3.343531
4.584467182430081	9.189826	3.0314727
4.602008018865218	7.98638	2.8260183
4.619548963189798	7.354461	2.711911
4.637090015816834	6.8745103	2.6219287
4.654631177159353	6.562612	2.5617595
4.672172447630417	6.274547	2.5049045
4.689713827643102	6.1580987	2.4815516
4.7072553176105085	6.023423	2.4542663
4.724796917945764	5.9088163	2.4308057
4.742338629062015	5.8267393	2.413864
4.759880451372434	5.824488	2.4133976
4.777422385290215	5.829597	2.414456
4.794964431228581	5.808138	2.410008
4.812506589600768	5.719711	2.3915918
4.830048860820047	5.6099825	2.36854
4.847591245299709	5.5297456	2.351541
4.8651337434530655	5.4648614	2.3377042
4.882676355693457	5.4262495	2.329431
4.900219082434242	5.4407253	2.3325362
4.917761924088813	5.5675416	2.3595638
4.935304881070575	5.545373	2.3548615
4.952847953792969	5.5950813	2.3653924
4.970391142669449	5.5695887	2.3599975
4.9879344481135055	5.6085525	2.3682382
5.005477870538642	5.497845	2.3447485
5.023021410358394	5.3997407	2.3237343
5.040565067986324	5.405611	2.324997
5.05810884383601	5.40338	2.3245173
5.075652738321066	5.362736	2.3157582
5.09319675185512	5.3003173	2.3022418
5.110740884851836	5.277005	2.2971733
5.128285137724894	5.263513	2.2942348
5.145829510888007	5.266155	2.2948103
5.163374004754908	5.2813478	2.2981184
5.1809186197393595	5.257355	2.2928922
5.198463356255145	5.255208	2.292424
5.216008214716077	5.1939726	2.279029
5.233553195535998	5.2641387	2.2943711
5.251098299128764	5.3091183	2.3041525
5.268643525908272	5.3283305	2.3083177
5.286188876288432	5.3374367	2.3102894
5.3037343506831895	5.2904506	2.300098
5.32127994950651	5.258182	2.2930727
5.3388256731723915	5.321876	2.306919
5.356371522094851	5.3437443	2.311654
5.373917496687938	5.254147	2.2921927
5.391463597365729	5.1596236	2.2714806
5.40900982454232	5.0766864	2.2531502
5.426556178631843	5.1333117	2.2656813
5.444102660048449	5.1500483	2.2693717
5.4616492692063225	5.189578	2.2780645
5.479196006519669	5.2243843	2.2856913
5.496742872402727	5.213107	2.283223
5.514289867269756	5.214312	2.2834868
5.531836991535049	5.1724963	2.2743123
5.549384245612924	5.137046	2.2665052
5.566931629917724	5.1487365	2.2690828
5.584479144863822	5.0768547	2.2531877
5.6020267908656205	5.1329107	2.2655928
5.619574568337545	5.1710773	2.2740002
5.637122477694054	5.159639	2.271484
5.654670519349629	5.13332	2.2656832
5.672218693718784	5.1037307	2.2591438
5.689767001216059	5.1639924	2.2724419
5.707315442256021	5.201825	2.280751
5.724864017253266	5.137623	2.2666326
5.7424127266224225	5.0596848	2.2493744
5.75996157077814	5.0246406	2.241571
5.777510550135105	5.0691347	2.251474
5.795059665108022	5.133716	2.2657704
5.812608916111639	5.190722	2.2783155
5.830158303560715	5.268206	2.2952573
5.847707827870055	5.241181	2.2893627
5.86525748945448	5.3156066	2.3055599
5.8828072887288485	5.398578	2.323484
5.900357226108044	5.526702	2.350894
5.917907302006979	5.6174273	2.3701112
5.9354575168406	6.275346	2.505064
5.9530078710238765	6.897026	2.626219
5.970558364971812	7.3775125	2.7161577
5.988108999099438	7.6629543	2.7682042
6.005659773821818	8.074911	2.8416388
6.023210689554039	7.770493	2.7875605
6.040761746711227	8.115668	2.8488011
6.058312945708531	7.5592437	2.7494078
6.075864286961132	7.156496	2.6751628
6.093415770884244	6.5293684	2.5552628
6.1109673978931065	6.0449505	2.4586482
6.128519168402993	5.4468236	2.333843
6.146071082829204	5.318438	2.3061738
6.163623141587075	5.1709642	2.2739754
6.181175345091969	5.1314244	2.2652647
6.198727693759281	5.1068397	2.2598317
6.216280188004435	5.097581	2.2577822
6.233832828242885	5.1447434	2.2682028
6.251385614890126	5.1748905	2.2748387
6.268938548361669	5.1441393	2.2680695
6.286491629073067	5.0449324	2.2460928
6.304044857439898	4.963565	2.227906
6.321598233877777	4.8854394	2.210303
6.339151758802344	4.888169	2.2109203
6.356705432629277	4.9424257	2.2231567
6.37425925577428	4.9825773	2.2321687
6.391813228653095	4.9551544	2.2260177
6.409367351681486	4.963017	2.227783
6.426921625275259	5.011937	2.2387357
6.44447604985025	4.9996896	2.2359986
6.46203062582232	4.945944	2.2239478
6.47958535360737	4.926531	2.219579
6.497140233621328	4.910665	2.216002
6.514695266280161	4.9001546	2.2136292
6.532250451999859	4.8820906	2.2095454
6.549805791196454	4.8615108	2.2048833
6.567361284286002	4.947024	2.2241907
6.584916931684597	5.0374856	2.2444344
6.602472733808367	5.047844	2.2467408
6.6200286910734665	5.0161624	2.239679
6.637584803896092	4.8959727	2.2126844
6.655141072692462	4.884632	2.2101204
6.672697497878842	4.8707676	2.2069817
6.690254079871514	4.9388657	2.2223558
6.707810819086808	4.988223	2.233433
6.725367715941078	4.9955215	2.2350664
6.742924770850719	5.003596	2.236872
6.760481984232151	4.9803715	2.2316747
6.778039356501836	4.9728246	2.229983
6.795596888076266	4.9537964	2.2257125
6.813154579371963	4.990529	2.2339492
6.830712430805492	4.944731	2.2236753
6.84827044279344	4.976575	2.2308238
6.865828615752445	4.9156322	2.2171226
6.883386950099159	4.9138994	2.2167318
6.900945446250287	4.84598	2.2013588
6.918504104622553	4.877723	2.208557
6.936062925632727	4.922458	2.2186613
6.953621909697607	4.981655	2.2319622
6.971181057234028	5.08652	2.2553315
6.988740368658859	5.1907296	2.2783172
7.006299844389007	5.272889	2.2962773
7.023859484841407	5.2734795	2.2964058
7.041419290433036	5.3276587	2.3081722
7.058979261580902	5.374845	2.3183713
7.0765393987020495	5.5687394	2.3598177
7.094099702213559	5.9561234	2.440517
7.111660172532549	6.353551	2.520625
7.129220810076164	6.6689763	2.582436
7.146781615261595	7.24777	2.6921682
7.16434258850606	7.432702	2.7262983
7.181903730226821	7.945153	2.8187149
7.1994650408411704	8.088076	2.8439543
7.217026520766437	8.237217	2.8700552
7.234588170419983	8.51391	2.9178605
7.252149990219215	8.518352	2.9186215
7.269711980581568	8.43094	2.903608
7.2872741419245175	8.216663	2.8664722
7.304836474665574	7.713548	2.7773275
7.322398979222286	7.3873777	2.717973
7.339961656012233	7.143595	2.6727505
7.357524505453039	6.9556766	2.6373618
7.375087527962357	6.6702585	2.5826843
7.392650723957886	6.345636	2.5190547
7.410214093857353	5.9267025	2.4344819
7.427777638078528	5.6933546	2.3860753
7.445341357039213	5.4963055	2.34442
7.4629052511572525	5.3354774	2.3098652
7.480469320850524	5.274231	2.2965693
7.498033566536948	5.1969676	2.279686
7.5155979886344735	5.200366	2.280431
7.5331625875610975	5.2001123	2.2803755
7.550727363734844	5.2391787	2.2889252
7.568292317573788	5.181663	2.2763267
7.585857449496025	5.080448	2.253985
7.603422759919705	4.990249	2.2338865
7.620988249263007	4.997269	2.2354572
7.638553917944147	5.03796	2.24454
7.656119766381391	5.081817	2.2542887
7.673685794993023	5.1296296	2.2648685
7.691252004197388	5.1368484	2.2664616
7.70881839441285	5.1822767	2.2764614
7.726384966057826	5.20135	2.2806468
7.743951719550762	5.1852984	2.2771251
7.761518655310149	5.2746096	2.2966518
7.779085773754511	5.293609	2.3007843
7.796653075302419	5.367875	2.3168676
7.814220560372475	5.3823657	2.3199925
7.831788229383323	5.377091	2.3188555
7.8493560827536495	5.3905625	2.3217585
7.866924120902174	5.317309	2.3059292
7.884492344247663	5.284243	2.2987483
7.9020607532089135	5.24139	2.2894082
7.919629348204771	5.2345786	2.2879202
7.937198129654115	5.289932	2.2999852
7.954767097975865	5.338007	2.3104126
7.972336253588986	5.399827	2.3237529
7.989905596912472	5.4060206	2.3250852
8.007475128365371	5.4445877	2.333364
8.025044848366756	5.4379363	2.3319383
8.042614757335754	5.526777	2.3509097
8.060184855691523	5.523767	2.3502696
8.07775514385327	5.663975	2.3799107
8.095325622240228	5.7122912	2.39004
8.112896291271687	5.751034	2.3981314
8.130467151366968	5.8198442	2.4124353
8.148038202945436	5.847399	2.4181397
8.165609446426497	5.868619	2.4225233
8.183180882229594	5.9386263	2.4369297
8.200752510774217	5.993669	2.4481971
8.218324332479893	5.995622	2.448596
8.235896347766193	5.924934	2.4341187
8.253468557052724	5.8917356	2.4272897
8.27104096075914	5.9265566	2.434452
8.288613559305137	5.995424	2.4485555
8.306186353110448	6.064496	2.4626198
8.32375934259485	6.0942616	2.4686558
8.341332528178162	6.1244917	2.474771
8.358905910280246	6.225189	2.495033
8.376479489321003	6.281564	2.506305
8.394053265720377	6.331111	2.5161698
8.411627239898356	6.3309684	2.5161417
8.42920141227497	6.3759894	2.525072
8.44677578327029	6.318113	2.5135856
8.464350353304427	6.2477436	2.4995487
8.48192512279754	6.176889	2.4853349
8.499500092169827	6.1116505	2.4721754
8.51707526184153	6.0681376	2.463359
8.534650632232934	6.0985565	2.4695256
8.552226203764365	6.133608	2.476612
8.569801976856192	6.220193	2.4940314
8.587377951928834	6.252654	2.5005307
8.60495412940274	6.2890706	2.507802
8.622530509698416	6.3734703	2.5245733
8.6401070932364	6.506992	2.5508807
8.657683880437283	6.6151876	2.5720007
8.675260871721695	6.7586055	2.599732
8.692838067510303	6.905136	2.6277626
8.710415468223834	7.053594	2.6558604
8.727993074283043	7.144879	2.6729906
8.745570886108737	7.0906444	2.6628263
8.763148904121765	7.1310186	2.6703968
8.78072712874302	7.1082406	2.6661284
8.798305560393441	7.3652954	2.7139077
8.815884199494006	7.5269117	2.7435217
8.833463046465745	7.7346253	2.7811193
8.851042101729728	7.874958	2.8062356
8.86862136570707	8.121847	2.8498855
8.886200838818924	8.339591	2.887835
8.903780521486505	8.365134	2.892254
8.921360414131055	8.48329	2.9126089
8.938940517173874	8.645984	2.9404054
8.956520831036297	8.80042	2.96655
8.97410135613971	9.055134	3.0091748
8.99168209290554	9.195048	3.0323339
9.009263041755265	9.480981	3.0791202
9.026844203110405	9.682937	3.1117418
9.044425577392525	9.855134	3.1392887
9.062007165023239	9.928897	3.1510153
9.079588966424197	10.23883	3.1998172
9.097170982017108	10.314897	3.2116814
9.11475321222372	11.227774	3.350787
9.132335657465825	12.045934	3.4707253
9.149918318165264	12.220244	3.4957466
9.167501194743924	12.857026	3.5856695
9.18508428762374	12.487505	3.5337665
9.202667597226693	12.444942	3.527739
9.220251123974803	12.012843	3.4659548
9.237834868290143	11.783421	3.4326987
9.255418830594836	11.63611	3.4111743
9.273003011311046	11.153362	3.339665
9.290587410860985	10.934344	3.306712
9.308172029666911	10.305594	3.2102327
9.32575686815113	10.103005	3.1785226
9.343341926735997	8.870824	2.9783928
9.360927205843916	8.57784	2.9287949
9.378512705897327	8.268314	2.8754678
9.396098427318728	8.012405	2.8306193
9.413684370530664	7.9596744	2.8212895
9.431270535955722	7.843532	2.8006306
9.448856924016539	7.829721	2.798164
9.466443535135806	7.688279	2.7727747
9.484030369736251	7.677393	2.7708108
9.501617428240658	7.675562	2.7704804
9.519204711071852	7.723351	2.7790918
9.536792218652714	7.8046036	2.793672
9.55437995140617	7.8025784	2.7933097
9.571967909755191	7.792514	2.7915075
9.589556094122802	7.7707157	2.7876003
9.60714450493207	7.8016872	2.79315
9.624733142606116	7.8529987	2.8023202
9.642322007568108	7.915941	2.8135283
9.659911100241267	7.955771	2.8205976
9.677500421048851	8.000687	2.8285484
9.695089970414175	8.026683	2.8331401
9.712679748760609	7.9998016	2.828392
9.730269756511557	8.003434	2.829034
9.747859994090492	8.0799055	2.8425174
9.765450461920915	8.193728	2.862469
9.78304116042639	8.181709	2.8603687
9.800632090030527	8.158171	2.8562512
9.81822325115699	8.208021	2.8649645
9.835814644229481	8.239684	2.870485
9.853406269671762	8.283663	2.8781352
9.870998127907646	8.282254	2.8778906
9.888590219360985	8.268006	2.8754141
9.906182544455698	8.255526	2.873243
9.923775103615734	8.233229	2.8693602
9.941367897265108	8.240218	2.870578
9.958960925827878	8.229286	2.8686733
9.97655418972816	8.229908	2.8687816
9.994147689390106	8.223367	2.8676412
10.011741425237934	8.254876	2.87313
10.029335397695904	8.248766	2.8720665
10.04692960718833	8.250941	2.872445
10.06452405413958	8.273929	2.8764439
10.082118738974064	8.298099	2.880642
10.099713662116246	8.29142	2.8794825
10.117308823990651	8.207505	2.8648744
10.134904225021844	8.186484	2.8612032
10.152499865634445	8.228254	2.8684933
10.170095746253125	8.245295	2.871462
10.18769186730261	8.1893635	2.8617065
10.205288229207675	8.094449	2.8450744
10.222884832393145	8.023607	2.8325973
10.2404816772839	8.028135	2.8333964
10.258078764304868	8.095722	2.8452983
10.275676093881035	8.089619	2.8442254
10.293273666437438	8.038904	2.8352962
10.310871482399158	8.126133	2.8506372
10.32846954219134	8.136146	2.852393
10.346067846239173	8.169258	2.8581915
10.363666394967908	8.126037	2.8506205
10.38126518880283	8.071325	2.8410077
10.398864228169298	8.083963	2.8432312
10.416463513492713	8.153946	2.8555114
10.434063045198531	8.122804	2.8500533
10.451662823712262	8.19888	2.8633687
10.469262849459467	8.218366	2.8667693
10.486863122865758	8.190061	2.861828
10.504463644356806	8.18676	2.8612514
10.522064414358338	8.037928	2.835124
10.539665433296118	7.9134517	2.8130858
10.557266701595987	7.8294125	2.7981088
10.574868219683818	7.720781	2.7786293
10.592469987985552	7.6481614	2.765531
10.610072006927185	7.548693	2.7474885
10.627674276934751	7.3931212	2.7190294
10.64527679843435	7.201332	2.6835299
10.662879571852143	7.0825667	2.6613092
10.680482597614331	7.044258	2.654102
10.698085876147173	7.0544868	2.6560283
10.715689407876988	7.024611	2.6503983
10.733293193230146	6.9240446	2.631358
10.750897232633072	6.820884	2.6116822
10.76850152651225	6.697018	2.5878599
10.786106075294207	6.5971823	2.5684981
10.803710879405534	6.521616	2.5537455
10.821315939272877	6.481087	2.545798
10.83892125532294	6.4388075	2.5374806
10.856526827982472	6.3167543	2.5133154
10.874132657678285	6.256696	2.501339
10.891738744837243	6.206426	2.49127
10.909345089886271	6.172026	2.4843564
10.926951693252343	6.0992656	2.469669
10.944558555362494	6.0045605	2.4504204
10.96216567664381	5.9205613	2.4332204
10.979773057523436	5.841175	2.4168522
10.997380698428573	5.747262	2.3973448
11.014988599786477	5.7295938	2.393657
11.032596762024461	5.6967564	2.386788
11.050205185569892	5.647122	2.3763673
11.067813870850198	5.6197057	2.3705919
11.085422818292859	5.557683	2.3574739
11.10303202832541	5.4577646	2.336186
11.120641501375454	5.367425	2.3167703
11.138251237870636	5.311064	2.3045745
11.155861238238671	5.262069	2.29392
11.173471502907317	5.220889	2.2849264
11.191082032304402	5.1267886	2.2642412
11.208692826857805	5.0644875	2.2504416
11.226303886995465	5.0104723	2.2384083
11.243915213145371	4.979413	2.2314599
11.261526805735578	4.929728	2.220299
11.279138665194196	4.8893104	2.2111785
11.296750791949393	4.911544	2.2162004
11.314363186429393	4.9214377	2.2184315
11.331975849062479	4.862488	2.2051048
11.34958878027699	4.751719	2.179844
11.36720198050133	4.6823	2.1638622
11.384815450163948	4.6512494	2.1566756
11.402429189693366	4.606438	2.1462615
11.420043199518153	4.565979	2.136815
11.437657480066942	63.517178	7.9697666
11.455272031768422	85.26073	9.233673
11.472886855051353	107.6935	10.377547
11.490501950344528	99.273125	9.96359
11.508117318076819	84.58158	9.196824
11.52573295867715	45.987118	6.78138
11.543348872574514	4.2806687	2.0689776
11.560965060197946	4.259166	2.0637746
11.57858152197655	4.156891	2.0388455
11.59619825833949	4.078492	2.0195277
11.613815269715985	4.0015254	2.0003812
11.631432556535323	38.548134	6.2087145
11.649050119226837	83.10636	9.116269
11.666667958219929	93.51681	9.670409
11.68428607394406	107.78295	10.381857
11.701904466828756	82.573395	9.08699
11.719523137303586	65.44553	8.089842
11.737142085798196	4.7082458	2.1698492
11.754761312742286	3.8637557	1.9656439
11.772380818565619	3.807074	1.9511725
11.790000603698015	3.738819	1.9336026
11.80762066856935	3.6694176	1.9155724
11.825241013609572	3.6509478	1.9107454
11.842861639248683	3.6221328	1.9031901
11.860482545916748	3.5722244	1.8900329
11.878103734043883	3.5419757	1.8820138
11.895725204060282	3.526779	1.877972
11.91334695639619	3.5273237	1.8781171
11.930968991481919	3.5161123	1.8751299
11.948591309747824	3.4567719	1.8592396
11.966213911624347	3.485387	1.8669192
11.98383679754198	3.454607	1.8586574
12.001459967931268	3.4373052	1.8539971
12.019083423222835	3.4279954	1.8514847
12.036707163847352	3.444304	1.8558836
12.05433119023556	3.4229052	1.8501095
12.071955502818259	3.335192	1.8262508
12.089580102026313	3.2795706	1.8109585
12.107204988290643	3.266053	1.8072225
12.12483016204224	3.292673	1.8145725
12.142455623712152	3.2890952	1.8135862
12.16008137373149	3.284916	1.8124337
12.177707412531431	3.245411	1.8015023
12.19533374054321	3.2229872	1.7952679
12.212960358198126	3.2081583	1.7911333
12.230587265927545	3.2085707	1.7912483
12.248214464162889	3.2168634	1.7935617
12.265841953335649	3.128527	1.7687643
12.283469733877375	3.091432	1.7582469
12.301097806219685	3.0637758	1.7503644
12.31872617079425	3.1280012	1.7686156
12.336354828032825	3.1455948	1.7735825
12.353983778367205	3.1500032	1.7748249
12.371613022229262	3.0894582	1.7576854
12.389242560050928	3.0972116	1.7598896
12.406872392264201	3.0736418	1.7531805
12.424502519301143	3.0626242	1.7500355
12.442132941593874	3.0698133	1.7520883
12.459763659574586	3.066127	1.751036
12.477394673675532	3.0392528	1.7433453
12.49502598432903	3.0345564	1.7419978
12.51265759196746	2.9943175	1.7304096
12.530289497023267	2.9981267	1.7315099
12.547921699928967	2.9487796	1.7172011
12.565554201117134	2.9467719	1.7166164
12.583187001020404	2.935517	1.713335
12.600820100071486	2.9856267	1.7278966
12.618453498703152	2.9906054	1.7293367
12.636087197348235	2.9783719	1.725796
12.65372119643964	2.9819663	1.726837
12.671355496410326	3.0003836	1.7321615
12.68899009769333	3.0131938	1.7358553
12.706625000721749	2.9909003	1.729422
12.724260205928752	3.0556583	1.7480441
12.741895713747551	3.110802	1.7637466
12.759531524611454	3.1763701	1.7822374
12.777167638953818	3.2109542	1.7919135
12.794804057208072	3.209774	1.7915843
12.812440779807702	3.2678783	1.8077273
12.830077807186271	3.417449	1.8486344
12.847715139777405	3.4319506	1.8525524
12.865352778014795	3.6307087	1.9054419
12.882990722332197	3.722016	1.9292527
12.90062897316344	3.8153954	1.9533037
12.918267530942412	3.8920746	1.9728341
12.935906396103071	3.837906	1.9590575
12.953545569079449	3.970995	1.9927355
12.971185050305628	3.8255684	1.955906
12.988824840215775	3.8560388	1.9636799
13.006464939244115	3.867967	1.9667147
13.024105347824943	3.7003875	1.9236392
13.041746066392617	3.7509513	1.9367373
13.05938709538157	3.5574722	1.8861263
13.077028435226296	3.5847573	1.8933456
13.094670086361363	3.5465317	1.8832238
13.112312049221401	3.4243762	1.850507
13.129954324241112	3.3191133	1.8218434
13.147596911855258	3.1333048	1.7701143
13.165239812498685	3.0691175	1.7518897
13.182883026606293	3.0077493	1.7342864
13.200526554613058	2.9786458	1.7258754
13.218170396954017	3.005048	1.7335074
13.235814554064284	3.0189822	1.7375219
13.253459026379034	3.0297062	1.7406051
13.271103814333523	3.0365367	1.7425661
13.288748918363058	3.0512538	1.7467839
13.306394338903031	3.0362728	1.7424904
13.32404007638889	3.0111208	1.7352581
13.341686131256164	2.993222	1.730093
13.359332503940449	2.9798915	1.7262362
13.376979194877402	2.96757	1.7226636
13.394626204502751	2.990414	1.7292813
13.412273533252307	3.0152113	1.7364364
13.429921181561937	3.03868	1.743181
13.447569149867581	3.0761063	1.7538832
13.465217438605247	3.0620353	1.7498672
13.482866048211022	3.0532522	1.7473558
13.500514979121052	3.05131	1.7468
13.518164231771568	3.0440671	1.7447255
13.535813806598844	3.0237813	1.7389023
13.553463704039254	2.9572504	1.7196658
13.571113924529229	2.956309	1.7193921
13.588764468505275	3.012434	1.7356365
13.606415336403956	3.0987072	1.7603145
13.624066528661917	3.175426	1.7819725
13.641718045715882	3.242768	1.8007687
13.659369888002635	3.2360258	1.7988957
13.67702205595903	3.2680168	1.8077657
13.694674550021993	3.3269851	1.8240025
13.712327370628532	3.3796134	1.8383725
13.729980518215713	3.4778988	1.8649125
13.747633993220681	3.6010048	1.8976314
13.765287796080647	3.65526	1.9118735
13.7829419272329	3.7390325	1.9336578
13.800596387114801	3.7381144	1.9334204
13.818251176163775	3.7683642	1.9412276
13.835906294817324	3.8212652	1.9548057
13.853561743513023	3.8466363	1.9612844
13.871217522688525	3.796658	1.9485015
13.888873632781538	3.7683773	1.9412309
13.906530074229858	3.7978895	1.9488175
13.92418684747135	3.8548121	1.9633676
13.941843952943948	3.9176776	1.9793124
13.959501391085665	3.9285266	1.9820511
13.977159162334578	3.8485212	1.9617648
13.994817267128846	3.7735448	1.9425614
14.012475705906693	3.640762	1.9080781
14.030134479106424	3.5770721	1.891315
14.047793587166414	3.5062659	1.8725026
14.065453030525108	3.489769	1.8680923
14.083112809621026	3.4798698	1.865441
14.100772924892766	3.4500973	1.8574438
14.118433376778997	3.4424245	1.8553772
14.136094165718458	3.378143	1.8379725
14.153755292149969	3.2627728	1.8063147
14.171416756512416	3.1413724	1.7723917
14.189078559244768	3.0801597	1.7550384
14.20674070078606	3.0990186	1.7604029
14.224403181575408	3.0526385	1.7471802
14.242066002051999	2.9945016	1.7304628
14.259729162655093	2.9423082	1.7153158
14.277392663824022	2.9501255	1.717593
14.295056505998208	2.9401054	1.7146735
14.312720689617128	2.9604788	1.7206042
14.330385215120348	2.9560106	1.7193053
14.348050082947497	2.9359515	1.7134619
14.3657152935383	2.9123437	1.7065591
14.383380847332528	2.8840454	1.6982478
14.401046744770051	2.8874567	1.6992518
14.418712986290798	2.9130168	1.7067562
14.436379572334793	2.923064	1.709697
14.454046503342123	2.9341743	1.7129432
14.471713779752946	2.946375	1.7165008
14.489381402007504	2.9390526	1.7143666
14.507049370546113	2.998616	1.7316512
14.524717685809168	2.982152	1.7268908
14.542386348237134	3.0074506	1.7342002
14.560055358270553	3.016358	1.7367665
14.577724716350051	3.075038	1.7535787
14.595394422916325	3.0546896	1.7477671
14.61306447841015	3.0613558	1.749673
14.63073488327237	3.0757565	1.7537835
14.648405637943917	3.1077373	1.7628776
14.6660767428658	3.0694735	1.7519913
14.683748198479094	3.1047404	1.7620274
14.701420005224954	3.183081	1.7841191
14.719092163544628	3.298771	1.8162519
14.73676467387942	3.342956	1.8283752
14.754437536670727	3.3328917	1.8256209
14.772110752360014	3.341728	1.8280394
14.78978432138882	3.346996	1.8294797
14.807458244198777	3.319918	1.8220642
14.82513252123159	3.2749736	1.8096888
14.842807152929028	3.3097653	1.8192761
14.860482139732962	3.3362076	1.8265288
14.87815748208531	3.3639975	1.8341204
14.8958331804281	3.372643	1.8364757
14.91350923520342	3.4066615	1.8457143
14.931185646853438	3.5885973	1.8943594
14.948862415820408	3.7995727	1.9492493
14.966539542546656	4.084713	2.0210674
14.98421702747459	4.433775	2.105653
15.001894871046696	4.9607058	2.2272642
15.019573073705542	5.847226	2.418104
15.037251635893766	7.2065105	2.6844945
15.054930558054092	8.892878	2.9820929
15.072609840629323	10.702137	3.2714121
15.090289484062351	12.535487	3.540549
15.107969488796124	13.589791	3.6864333
15.125649855273691	13.807045	3.715783
15.14333058393817	13.224171	3.6365054
15.161011675232768	11.74333	3.4268541
15.17869312960076	9.6102	3.1000323
15.196374947485506	7.8898787	2.8088927
15.214057129330447	6.4314055	2.5360217
15.231739675579114	5.326637	2.3079507
15.249422586675102	4.5639095	2.1363308
15.267105863062092	3.991483	1.9978696
15.284789505183847	3.7312627	1.9316477
15.302473513484218	3.5718818	1.8899423
15.320157888407127	3.4802804	1.865551
15.337842630396578	3.3795164	1.8383461
15.355527739896656	3.2932382	1.8147281
15.37321321735153	3.275756	1.8099049
15.39089906320545	3.2521553	1.8033733
15.408585277902748	3.2270439	1.7963974
15.42627186188783	3.1856408	1.7848364
15.443958815605198	3.1271915	1.7683867
15.461646139499424	3.122283	1.7669983
15.479333834015168	3.1258504	1.7680075
15.497021899597165	3.1132863	1.7644507
15.514710336690234	3.0680282	1.7515788
15.53239914573928	3.0231845	1.7387307
15.550088327189297	3.0391	1.7433014
15.567777881485336	3.0342185	1.7419008
15.58546780907256	3.0493371	1.7462351
15.6031581103962	3.0343268	1.7419319
15.620848785901568	3.070981	1.7524215
15.638539836034063	3.0859034	1.7566739
15.656231261239173	3.0819056	1.7555357
15.673923061962451	3.0496073	1.7463125
15.691615238649552	3.0339344	1.7418193
15.709307791746202	3.0191965	1.7375835
15.727000721698221	3.0310094	1.7409794
15.744694028951498	3.0638957	1.7503988
15.76238771395202	3.0625417	1.7500119
15.780081777145844	3.0552177	1.7479181
15.797776218979125	3.0139337	1.7360685
15.815471039898094	2.980365	1.7263734
15.833166240349064	2.9475827	1.7168525
15.850861820778437	2.9201276	1.7088381
15.868557781632699	2.9207466	1.7090192
15.886254123358412	2.9013574	1.7033372
15.903950846402232	2.890044	1.7000129
15.921647951210897	2.853022	1.6890892
15.939345438231225	2.8412306	1.685595
15.957043307910133	2.8712883	1.6944876
15.974741560694602	2.8839412	1.698217
15.992440197031714	2.8835566	1.6981038
16.01013921736862	2.9206908	1.7090029
16.02783862215259	2.9739163	1.7245047
16.045538411830933	2.9613335	1.7208526
16.06323858685107	2.932408	1.7124275
16.080939147660512	2.8996334	1.702831
16.09864009470684	2.904769	1.7043383
16.11634142843774	2.9379811	1.714054
16.134043149300954	2.9519002	1.7181095
16.15174525774433	2.9530518	1.7184446
16.169447754215817	2.9265025	1.7107023
16.18715063916342	2.8862991	1.6989112
16.204853913035244	2.9298446	1.7116789
16.222557576279478	2.9733658	1.7243451
16.240261629344403	22.990108	4.7948003
16.257966072678386	43.483624	6.5942116
16.275670906729868	38.553562	6.2091513
16.293376131947387	2.9617708	1.7209796
16.31108174877957	3.0160527	1.7366786
16.328787757675133	3.079728	1.7549154
16.34649415908287	3.1193218	1.7661602
16.364200953451657	3.146157	1.773741
16.38190814123048	3.1722798	1.7810895
16.39961572286839	3.154306	1.7760366
16.41732369881455	3.168232	1.7799528
16.43503206951817	3.1694663	1.7802995
16.45274083542859	3.2203436	1.7945316
16.47044999699522	3.2966027	1.8156549
16.488159554667558	3.3502593	1.8303714
16.505869508895184	3.3745198	1.8369867
16.523579860127786	3.3999252	1.8438886
16.541290608815117	3.446856	1.8565711
16.559001755407035	3.447339	1.8567011
16.57671330035348	3.4187994	1.8489996
16.59442524410448	3.4301362	1.8520627
16.61213758711015	3.4816716	1.8659238
16.629850329820705	3.5704846	1.8895726
16.647563472686436	3.6535938	1.9114376
16.665277016157724	3.7492042	1.9362862
16.682990960685053	3.824727	1.955691
16.70070530671898	3.8806732	1.9699425
16.718420054710155	3.9351392	1.9837185
16.736135205109335	3.9508514	1.9876748
16.753850758367335	4.064196	2.0159853
16.771566714935087	4.1241684	2.0308049
16.789283075263597	4.139057	2.0344672
16.80699983980398	4.13369	2.0331478
16.82471700900741	4.1927757	2.0476267
16.84243458332518	4.2973237	2.0729988
16.860152563208665	4.340242	2.0833247
16.87787094910932	4.4433613	2.1079283
16.89558974147871	4.508238	2.1232612
16.913308940768466	4.5996895	2.1446886
16.931028547430333	4.6151953	2.1483006
16.94874856191613	4.6662245	2.1601446
16.966468984677785	4.741441	2.177485
16.98418981616729	4.764511	2.182776
17.00191105683676	4.8034887	2.1916864
17.019632707138374	4.8244853	2.1964712
17.03735476752442	4.848079	2.2018354
17.05507723844728	4.9012694	2.213881
17.072800120359403	4.9416547	2.2229834
17.090523413713353	5.001698	2.2364476
17.108247118961785	4.983319	2.2323349
17.125971236557437	5.060448	2.249544
17.143695766953133	5.0707655	2.251836
17.161420710601806	5.0013003	2.2363586
17.179146067956477	4.9185967	2.2177908
17.19687183947025	4.9471984	2.2242298
17.21459802559634	5.045381	2.2461925
17.232324626788028	5.081164	2.2541437
17.25005164349871	5.0982537	2.2579312
17.267779076181863	5.172327	2.274275
17.285506925291074	5.321658	2.306872
17.30323519127999	5.658214	2.3787
17.320963874602384	5.9724307	2.4438558
17.33869297571211	6.699835	2.588404
17.356422495063114	7.3746324	2.7156274
17.37415243310944	8.434534	2.904227
17.391882790305218	9.23299	3.0385835
17.40961356710468	9.933093	3.151681
17.42734476396215	10.512309	3.242269
17.445076381332044	10.835056	3.2916646
17.462808419668868	10.560569	3.249703
17.48054087942723	10.286605	3.2072737
17.498273761061835	9.729068	3.1191454
17.51600706502747	8.940283	2.9900305
17.533740791779024	8.414163	2.9007175
17.551474941771485	7.496262	2.7379303
17.56920951545993	6.827096	2.6128712
17.586944513299528	6.1956	2.4890962
17.60467993574556	5.67403	2.3820221
17.622415783253373	5.243304	2.2898262
17.64015205627843	4.9681525	2.2289352
17.657888755276293	4.819553	2.195348
17.675625880702604	4.69443	2.1666634
17.69336343301311	4.5318537	2.1288152
17.71110141266366	4.3817587	2.093265
17.728839820110178	4.315892	2.0774724
17.746578655808705	4.2273436	2.0560505
17.764317920215372	4.17567	2.0434456
17.7820576137864	4.1176486	2.0291991
17.79979773697811	4.074724	2.0185945
17.81753829024692	4.052694	2.0131304
17.835279274049356	4.013675	2.0034158
17.85302068884201	3.9699447	1.992472
17.870762535081607	3.9180267	1.9794006
17.888504813224934	3.89169	1.9727367
17.90624752372891	3.8505824	1.96229
17.923990667050536	3.7822828	1.9448092
17.941734243646895	3.7693582	1.9414835
17.959478253975185	3.7456076	1.9353572
17.9772226984927	3.6895056	1.9208086
17.994967577656833	3.6552792	1.9118785
18.01271289192506	3.5994413	1.8972193
18.030458641754965	3.5664163	1.8884958
18.04820482760425	3.5338368	1.8798503
18.06595144993067	3.4968169	1.8699778
18.083698509192125	3.4743137	1.8639511
18.101446005846576	3.446789	1.856553
18.119193940352105	3.4468825	1.8565781
18.136942313166887	3.4404452	1.8548437
18.1546911247492	3.421699	1.8497835
18.1724403755574	3.365319	1.8344806
18.19019006604997	3.3006296	1.8167635
18.207940196685467	3.3171825	1.8213134
18.225690767922575	3.3283381	1.8243734
18.243441780220046	3.3218877	1.8226047
18.261193234036764	3.3021019	1.8171686
18.278945129831676	3.285508	1.812597
18.29669746806386	3.314313	1.8205254
18.314450249192483	3.3047063	1.8178852
18.3322034736768	3.2756534	1.8098766
18.349957141976184	3.2774665	1.8103775
18.3677112545501	3.291317	1.8141987
18.385465811858108	3.2852314	1.8125207
18.403220814359884	3.2065475	1.7906835
18.420976262515172	3.232564	1.7979332
18.43873215678387	3.2915792	1.814271
18.456488497625923	3.3617687	1.8335127
18.474245285501407	3.4158359	1.848198
18.492002520870486	3.4304385	1.8521444
18.50976020419343	3.4756532	1.8643104
18.527518335930615	3.8385627	1.959225
18.545276916542516	4.468776	2.113948
18.563035946489688	4.654521	2.157434
18.580795426232832	5.156177	2.2707217
18.598555356232698	4.9681807	2.2289417
18.616315736950185	5.302086	2.302626
18.63407656884626	4.913334	2.2166042
18.65183785238201	5.111809	2.260931
18.669599588018617	4.8687563	2.2065258
18.68736177621737	4.9138417	2.2167187
18.705124417439652	4.9339247	2.2212439
18.72288751214696	4.745672	2.1784563
18.740651060800886	4.8550906	2.203427
18.758415063863115	4.499872	2.1212902
18.77617952179546	4.645656	2.1553783
18.793944435059814	4.4037595	2.0985136
18.811709804118184	4.4263816	2.1038969
18.829475629432675	4.3945646	2.0963216
18.8472419114655	4.219633	2.0541747
18.86500865067897	4.3102765	2.0761206
18.88277584753551	3.9942904	1.9985721
18.90054350249763	4.0200934	2.005017
18.918311616027957	3.6565316	1.9122059
18.936080188589226	3.5418255	1.8819739
18.953849220644265	3.2039034	1.7899451
18.971618712656007	3.0368488	1.7426556
18.9893886650875	2.9984396	1.7316003
19.007159078401887	8.217628	2.8666406
19.024929953062408	33.13374	5.7561913
19.042701289532435	33.067215	5.75041
19.060473088275405	25.608624	5.0604963
19.07824534975489	2.8902402	1.7000706
19.096018074434568	2.889332	1.6998036
19.113791262778197	2.8634198	1.6921642
19.13156491524966	2.830504	1.6824101
19.149339032312945	2.841329	1.6856242
19.167113614432136	2.7952378	1.6718965
19.184888662071433	2.7472212	1.6574744
19.202664175695123	2.7075934	1.6454767
19.220440155767623	2.7086372	1.6457938
19.238216602753447	2.6605482	1.6311187
19.2559935171172	2.627064	1.620822
19.27377089932361	2.6584916	1.6304882
19.291548749837514	2.6983972	1.6426799
19.309327069123835	2.705523	1.6448474
19.32710585764763	2.6830397	1.6379987
19.344885115874032	2.6597068	1.6308608
19.362664844268313	2.648614	1.6274563
19.380445043295822	2.6815536	1.637545
19.39822571342203	2.696139	1.6419924
19.41600685511252	2.6781268	1.6364983
19.43378846883297	2.6526859	1.6287068
19.451570555049173	2.6433208	1.6258292
19.469353114227037	2.6659555	1.6327754
19.48713614683254	2.6627293	1.6317872
19.50491965333182	2.6295998	1.6216041
19.52270363419109	2.60416	1.613741
19.540488089876686	2.603458	1.6135235
19.55827302085503	2.6236026	1.6197538
19.576058427592674	2.6399121	1.6247807
19.593844310556282	2.6561103	1.6297578
19.611630670212598	2.6308148	1.6219786
19.629417507028506	2.5919497	1.6099533
19.64720482147098	2.6068535	1.6145754
19.6649926140071	2.6348019	1.6232073
19.682780885104084	2.6452966	1.6264368
19.70056963522921	2.623723	1.619791
19.718358864849908	2.6145506	1.6169572
19.7361485744337	2.6425502	1.6255922
19.753938764448215	2.6622999	1.6316556
19.771729435361202	2.6771846	1.6362104
19.789520587640506	2.6932034	1.6410983
19.807312221754092	2.6780493	1.6364746
19.825104338170043	2.6944835	1.6414882
19.842896937356517	2.7059348	1.6449726
19.860690019781824	2.6873555	1.6393156
19.87848358591436	2.6545057	1.6292654
19.896277636222635	2.6430469	1.625745
19.914072171175278	2.6588507	1.6305983
19.931867191241015	2.629942	1.6217096
19.94966269688869	2.6385472	1.6243606
19.967458688587264	2.670368	1.6341261
19.985255166805807	2.6885822	1.6396897
20.00305213201348	2.6299827	1.6217221
20.020849584679578	2.625708	1.6204036
20.038647525273507	2.6322608	1.6224244
20.05644595426477	2.6214745	1.6190969
20.07424487212299	2.60361	1.6135706
20.092044279317903	2.5893695	1.6091518
20.109844176319353	2.5708528	1.603388
20.127644563597304	2.556446	1.598889
20.145445441621817	2.5440433	1.5950058
20.16324681086307	2.5298529	1.5905511
20.181048671791373	2.512138	1.5849725
20.198851024877122	2.4968302	1.5801362
20.216653870590836	2.5070293	1.5833601
20.234457209403146	2.5130923	1.5852736
20.252261041784802	2.5118172	1.5848714
20.270065368206662	2.4886386	1.577542
20.287870189139685	2.4711168	1.5719786
20.305675505054968	2.46787	1.5709456
20.323481316423702	2.5023358	1.5818774
20.341287623717207	2.518731	1.587051
20.359094427406884	2.510165	1.58435
20.376901727964288	2.4734468	1.5727196
20.39470952586107	2.4623373	1.5691836
20.41251782156899	2.4723141	1.5723594
20.430326615559935	2.5052824	1.5828084
20.448135908305886	2.5081108	1.5837016
20.465945700278965	2.4807444	1.5750378
20.483755991951384	2.4490254	1.5649363
20.50156678379548	2.4554274	1.5669804
20.519378076283708	2.468663	1.571198
20.537189869888635	2.460715	1.5686667
20.55500216508294	2.4556127	1.5670395
20.572814962339415	2.462333	1.5691823
20.59062826213098	2.4298465	1.5587965
20.60844206493066	2.4402514	1.5621303
20.626256371211593	2.4490309	1.564938
20.644071181447032	2.432363	1.5596035
20.66188649611036	2.433144	1.5598539
20.67970231567506	2.4551966	1.5669067
20.697518640614742	2.4529474	1.5661888
20.715335471403122	2.3993244	1.5489752
20.73315280851404	2.403254	1.5502433
20.750970652421447	2.4000316	1.5492035
20.768789003599412	2.4392776	1.5618187
20.786607862522136	2.4439042	1.5632992
20.8044272296639	2.464718	1.5699421
20.82224710549913	2.44539	1.5637742
20.84006749050237	2.4308443	1.5591165
20.857888385148268	3.9746132	1.9936432
20.8757097899116	46.085106	6.7886014
20.893531705267254	64.91298	8.056859
20.911354131690224	83.92243	9.160919
20.92917706965566	69.148834	8.3155775
20.94700051963877	50.22478	7.0869446
20.96482448211493	29.466408	5.428297
20.982648957559622	4.2184596	2.0538888
21.00047394644843	2.3412037	1.5300993
21.01829944925707	2.3749394	1.5410838
21.036125466461375	2.4122803	1.5531517
21.053951998537297	2.4045994	1.5506771
21.071779045960906	2.4005744	1.5493788
21.089606609208378	2.3657405	1.5380964
21.10743468875603	2.3654947	1.5380164
21.12526328508028	2.3260567	1.5251416
21.143092398657675	2.305265	1.51831
21.16092202996488	2.2846484	1.5115054
21.17875217947867	2.304166	1.517948
21.19658284767596	2.3405647	1.5298904
21.21441403503377	2.336846	1.5286746
21.232245742029225	2.309809	1.5198056
21.2500779691396	2.2873182	1.5123882
21.26791071684227	2.2859216	1.5119264
21.28574398561475	2.2635207	1.5045002
21.30357777593465	2.2568402	1.5022783
21.321412088279704	2.2448714	1.4982895
21.339246923127792	2.2514346	1.5004781
21.357082280956888	2.2610784	1.5036882
21.3749181622451	2.241393	1.4971282
21.392754567470647	2.2507448	1.5002482
21.41059149711187	2.2790952	1.5096673
21.42842895164726	2.2872949	1.5123805
21.446266931555378	2.276983	1.5089675
21.464105437314945	2.2701094	1.5066882
21.481944469404798	2.2487924	1.4995974
21.49978402830388	2.2309453	1.4936349
21.51762411449127	2.2292686	1.4930736
21.53546472844617	2.2415345	1.4971755
21.553305870647876	2.2415352	1.4971757
21.571147541575865	2.2268033	1.4922477
21.58898974170967	2.2270901	1.4923438
21.60683247152899	2.182164	1.4772149
21.62467573151363	2.191316	1.4803094
21.642519522143523	2.2066267	1.4854718
21.660363843898722	2.2037165	1.4844921
21.6782086972594	2.1932664	1.4809681
21.696054082705864	2.1768708	1.4754223
21.713900000718535	2.1675377	1.472256
21.73174645177795	2.1626155	1.4705834
21.749593436364794	2.151826	1.4669104
21.767440954959845	2.1571388	1.4687201
21.785289008044032	2.1508794	1.4665877
21.803137596098388	2.1469405	1.4652442
21.820986719604086	2.1386583	1.4624152
21.838836379042412	2.1108844	1.4528883
21.85668657489478	2.0922115	1.4464478
21.87453730764273	2.085805	1.4442316
21.892388577767914	2.0697093	1.4386485
21.91024038575213	2.0907524	1.4459435
21.928092732077285	2.0745454	1.4403282
21.945945617225426	2.1210089	1.4563683
21.963799041678694	2.1181824	1.4553977
21.981653005919398	31.450838	5.6081047
21.999507510429943	78.24835	8.84581
22.01736255569286	73.20947	8.556253
22.035218142190818	4.300741	2.0738227
22.05307427040661	2.121597	1.4565703
22.07093094082315	2.1396275	1.4627465
22.088788153923474	2.1247687	1.4576586
22.106645910190746	2.087015	1.4446504
22.12450421010827	2.1172855	1.4550896
22.142363054159464	2.1216788	1.4565984
22.16022244282787	2.1449318	1.4645586
22.178082376597164	2.1404471	1.4630268
22.195942855951145	2.141341	1.4633322
22.213803881373742	2.108938	1.4522183
22.231665453349002	2.0738435	1.4400846
22.24952757236111	2.0749235	1.4404595
22.26739023889438	2.0704904	1.4389199
22.28525345343323	2.0774786	1.4413462
22.30311721646225	2.0931935	1.4467874
22.320981528466113	2.1031613	1.450228
22.33884638992964	2.1129048	1.4535835
22.356711801337788	2.1224873	1.4568759
22.37457776317561	2.1190655	1.455701
22.392444275928337	2.0907648	1.4459476
22.410311340081282	2.0678997	1.4380194
22.428178956119904	2.0227137	1.4222214
22.446047124529805	2.0180001	1.4205633
22.46391584579669	2.061928	1.4359415
22.481785120406414	2.0995305	1.4489757
22.49965494884496	2.1411932	1.4632816
22.51752533159841	2.1342854	1.4609194
22.53539626915302	2.1523044	1.4670734
22.553267761995137	2.140709	1.4631162
22.571139810611264	2.123146	1.457102
22.589012415488025	2.1163669	1.4547738
22.60688557711216	2.1434212	1.4640428
22.624759295970566	2.1617901	1.4703027
22.642633572550263	2.1549733	1.4679828
22.660508407338362	2.1448967	1.4645466
22.67838380082217	2.0940373	1.4470788
22.696259753489077	2.0803864	1.4423544
22.714136265826614	2.0941865	1.4471304
22.73201333832246	2.103915	1.4504879
22.74989097146439	2.088215	1.4450657
22.76776916574035	2.0846362	1.4438269
22.785647921638393	2.084871	1.4439082
22.803527239646712	2.0847948	1.4438819
22.82140712025363	2.080563	1.4424157
22.839287563947593	2.0850914	1.4439845
22.85716857121719	2.0768433	1.4411258
22.875050142551135	2.082646	1.4431375
22.892932278438277	2.0564997	1.4340501
22.910814979367604	2.0185614	1.4207609
22.928698245828222	1.9899011	1.4106386
22.946582078309387	2.044236	1.4297678
22.96446647730047	2.1398554	1.4628245
22.98235144329098	2.1301787	1.4595132
23.000236976770562	2.0575027	1.4343998
23.018123078229	2.0370727	1.4272605
23.03600974815619	2.0317428	1.4253922
23.053896987042194	2.1030471	1.4501886
23.071784795377173	2.114042	1.4539746
23.08967317365145	2.0886846	1.4452282
23.10756212235546	2.0850778	1.4439799
23.125451641979787	2.1109185	1.4529
23.143341733015134	2.1030884	1.4502028
23.161232395952357	2.0503566	1.4319066
23.179123631282426	2.0756588	1.4407147
23.197015439496468	2.0886302	1.4452094
23.214907821085717	2.083493	1.443431
23.23280077654157	2.0552564	1.4336165
23.250694306355538	2.066926	1.4376807
23.268588411019277	2.0772924	1.4412816
23.28648309102458	2.0836935	1.4435004
23.304378346863356	2.105028	1.4508715
23.322274179027676	2.1620104	1.4703777
23.340170588009723	2.1751406	1.4748358
23.358067574301852	2.1478324	1.4655485
23.37596513839651	2.0649552	1.4369953
23.39386328078629	2.0613716	1.4357477
23.411762001963947	2.1121228	1.4533144
23.429661302422353	2.1598637	1.4696475
23.4475611826545	2.122182	1.456771
23.46546164315356	2.0631394	1.4363632
23.48336268441279	2.0446188	1.4299017
23.501264306925638	2.0623026	1.4360719
23.51916651118564	2.0703213	1.4388611
23.537069297686497	2.0828187	1.4431974
23.554972666922037	2.1040545	1.4505359
23.57287661938623	2.1426055	1.4637642
23.59078115557318	2.1156733	1.4545355
23.608686275977128	2.0570374	1.4342376
23.62659198109246	2.064157	1.4367174
23.6444982714137	2.131766	1.4600569
23.66240514743549	2.1239455	1.4573762
23.68031260965263	2.08255	1.4431043
23.698220658560068	2.0725505	1.4396355
23.716129294652845	2.0851798	1.4440151
23.7340385184262	2.0717356	1.4393525
23.75194833037546	2.078659	1.4417555
23.769858730996123	2.0671732	1.4377668
23.78776972078382	2.0500863	1.4318123
23.80568130023431	2.0602174	1.4353458
23.823593469843495	2.1257756	1.458004
23.841506230107424	2.1670802	1.4721006
23.859419581522275	2.1299443	1.4594328
23.87733352458438	2.1175206	1.4551703
23.89524805979019	2.1042926	1.450618
23.913163187636318	2.1224687	1.4568695
23.931078908619508	2.1033227	1.4502836
23.948995223236633	2.1362073	1.461577
23.966912131984735	2.1975045	1.4823983
23.98482963536096	2.2700946	1.5066833
24.002747733862616	2.2564433	1.5021462
24.020666427987155	2.2120507	1.4872965
24.038585718232156	2.2062361	1.4853404
24.056505605095353	2.214209	1.4880219
24.074426089074617	2.2556963	1.5018976
24.092347170667946	2.259723	1.5032375
24.110268850373515	2.2607474	1.5035782
24.128191128689586	2.3063235	1.5186585
24.146114006114626	2.3599489	1.5362126
24.164037483147187	2.347318	1.5320959
24.181961560286005	2.3400776	1.5297313
24.199886238029926	2.279232	1.5097126
24.21781151687797	2.243104	1.4976996
24.235737397329274	2.2397048	1.4965644
24.253663879883135	2.2410722	1.4970211
24.271590965038975	2.2635095	1.5044965
24.289518653296376	2.28108	1.5103245
24.30744694515505	2.266834	1.5056009
24.32537584111486	2.2414064	1.4971328
24.34330534167581	2.2614226	1.5038028
24.361235447338046	2.2521877	1.5007291
24.379166158601876	2.2531307	1.5010432
24.39709747596772	2.235812	1.4952632
24.41502939993615	2.2520938	1.5006977
24.432961931007917	2.2445016	1.4981661
24.450895069683856	2.2269497	1.4922968
24.468828816465	2.1834698	1.4776568
24.4867631718525	2.1693866	1.4728838
24.504698136347656	2.18005	1.4764992
24.52263371045192	2.2225041	1.4908066
24.540569894666874	2.2159367	1.4886023
24.558506689494266	2.236345	1.4954414
24.57644409543597	2.2381327	1.496039
24.594382112994012	2.2510798	1.5003599
24.61232074267057	2.31495	1.5214959
24.630259984967953	2.3517485	1.5335412
24.64819984038863	2.4465873	1.564157
24.66614030943522	2.599449	1.6122806
24.684081392610462	2.8168247	1.6783398
24.702023090417274	3.0610232	1.749578
24.7199654033587	3.278256	1.8105955
24.737908331937927	3.4905539	1.8683023
24.755851876658305	3.7350132	1.9326183
24.773796038023324	3.8895197	1.9721866
24.79174081653661	3.9968317	1.9992077
24.809686212701962	3.97346	1.993354
24.827632227023294	3.959902	1.9899503
24.8455788600047	3.8101637	1.951964
24.8635261121504	3.6405213	1.908015
24.88147398396475	3.3489218	1.830006
24.899422475952303	3.0146935	1.7362872
24.917371588617698	2.8272634	1.6814468
24.935321322465768	2.6213458	1.619057
24.953271678001478	2.525382	1.5891451
24.97122265572994	2.4372735	1.561177
24.989174256156414	2.341254	1.5301157
25.00712647978632	2.2781827	1.509365
25.02507932712521	2.2987556	1.5161648
25.043032798678798	2.2768235	1.5089147
25.060986894952933	2.216616	1.4888303
25.078941616453637	2.2355719	1.4951829
25.096896963687055	2.3290982	1.5261383
25.114852937159508	2.3403015	1.5298043
25.132809537377444	2.23815	1.4960448
25.150766764847468	2.1984463	1.4827158
25.168724620076347	2.1477919	1.4655347
25.186683103570985	2.1675336	1.4722546
25.204642215838426	2.1498005	1.4662198
25.222601957385894	2.1702473	1.4731759
25.24056232872074	2.198007	1.4825678
25.25852333035048	2.2229652	1.4909612
25.276484962782778	2.1505303	1.4664687
25.294447226525435	2.087304	1.4447505
25.312410122086423	2.0996335	1.4490112
25.330373649973843	2.114518	1.4541382
25.348337810695988	2.0930307	1.4467311
25.366302604761245	2.0668035	1.4376382
25.384268032678207	2.0551946	1.433595
25.40223409495558	2.0356379	1.4267578
25.420200792102257	2.072054	1.439463
25.438168124627246	2.0640147	1.4366679
25.45613609303974	2.0540855	1.4332081
25.474104697849057	2.0670803	1.4377344
25.492073939564698	2.0442576	1.4297754
25.510043818696285	2.08739	1.4447802
25.528014335753614	2.0771549	1.4412338
25.54598549124664	2.0727537	1.4397061
25.56395728568544	2.0539374	1.4331565
25.58192971958028	2.0910707	1.4460535
25.59990279344156	2.057389	1.4343601
25.617876507779833	2.0628119	1.4362493
25.635850863105826	2.0650322	1.437022
25.653825859930386	2.0682807	1.4381518
25.671801498764548	2.041745	1.4288964
25.68977778011949	2.045653	1.4302633
25.707754704506524	2.0868258	1.444585
25.725732272437153	2.1442823	1.4643369
25.743710484423012	2.1437201	1.4641448
25.761689340975888	2.089493	1.4455079
25.77966884260774	2.011287	1.4181985
25.797648989830662	2.0491326	1.4314792
25.815629783156922	2.0901895	1.4457488
25.83361122309895	2.114255	1.4540478
25.85159331016929	2.1103895	1.452718
25.869576044880695	2.1278496	1.4587151
25.887559427746034	2.167215	1.4721464
25.90554345927836	2.1597347	1.4696035
25.92352813999086	2.134285	1.4609193
25.94151347039689	2.14767	1.4654931
25.959499451009965	2.126964	1.4584115
25.97748608234374	2.0866582	1.444527
25.995473364912062	2.1106148	1.4527955
26.013461299228904	2.03929	1.428037
26.03144988580839	2.0252352	1.4231076
26.04943912516483	2.037668	1.4274691
26.067429017812675	2.112971	1.4536062
26.085419564266537	2.149301	1.4660494
26.103410765041186	2.1645975	1.4712571
26.12140262065155	2.1512206	1.466704
26.139395131612723	2.1358907	1.4614687
26.157388298439948	2.0672219	1.4377837
26.17538212164861	2.0619593	1.4359524
26.193376601754295	2.0793524	1.441996
26.211371739272714	2.0747852	1.4404114
26.229367534719746	2.0288548	1.4243788
26.247363988611433	2.0311751	1.4251931
26.26536110146397	2.0590599	1.4349425
26.283358873793727	2.093512	1.4468974
26.301357306117204	2.0988493	1.4487406
26.319356398951104	2.0380728	1.4276109
26.33735615281224	2.032156	1.4255371
26.35535656821762	2.0419765	1.4289774
26.373357645684404	2.012363	1.4185778
26.39135938572991	1.99357	1.4119384
26.409361788871614	2.041914	1.4289556
26.427364855627165	2.1201332	1.4560677
26.445368586514352	2.0850048	1.4439546
26.46337298205115	2.060233	1.4353513
26.48137804275568	2.0199466	1.4212482
26.499383769146217	2.0645022	1.4368376
26.517390161741215	2.0328379	1.4257762
26.53539722105928	2.040592	1.4284929
26.553404947619182	2.111722	1.4531765
26.571413341939856	2.140092	1.4629053
26.589422404540397	2.104992	1.4508591
26.60743213594006	2.1161883	1.4547124
26.62544253665827	2.0766404	1.4410553
26.64345360721459	2.0760083	1.440836
26.66146534812879	2.0898945	1.4456468
26.679477759920758	2.1001186	1.4491786
26.69749084311057	2.0839393	1.4435856
26.71550459821847	2.0844092	1.4437484
26.733519025764842	2.0683877	1.438189
26.751534126270258	2.081805	1.4428462
26.769549900255434	2.150844	1.4665756
26.787566348241267	2.1640093	1.4710572
26.80558347074881	2.0818858	1.4428742
26.823601268299267	2.0463147	1.4304945
26.841619741414036	2.0531552	1.4328835
26.85963889061465	2.0606055	1.435481
26.877658716422832	2.060982	1.4356121
26.89567921936045	2.018764	1.4208322
26.913700399949544	2.0132742	1.4188989
26.93172225871233	2.0755186	1.4406661
26.949744796171174	2.138773	1.4624544
26.967768012848605	2.0875566	1.4448379
26.98579190926733	2.1082692	1.451988
27.003816485950225	2.1283817	1.4588975
27.021841743420318	2.1158698	1.454603
27.039867682200814	2.0999315	1.4491141
27.057894302815072	2.081866	1.4428673
27.07592160578664	2.0326455	1.4257088
27.0939495916392	1.9774892	1.4062322
27.111978260896635	1.9852992	1.4090065
27.13000761408296	2.0430555	1.4293549
27.148037651722397	2.060551	1.4354619
27.166068374339304	2.0291295	1.4244752
27.184099782458215	2.0144277	1.4193053
27.20213187660384	2.014193	1.4192227
27.22016465730105	1.9691285	1.4032564
27.23819812507487	1.9516978	1.3970318
27.256232280450533	2.0212393	1.421703
27.274267123953383	2.1065211	1.451386
27.292302656108987	2.0945826	1.4472673
27.31033887744306	2.070381	1.4388819
27.32837578848146	2.0652637	1.4371026
27.34641338975026	2.0530615	1.4328508
27.364451681775673	2.0012226	1.4146458
27.382490665084074	1.9937052	1.4119862
27.400530340202046	2.0133104	1.4189117
27.41857070765629	2.0558634	1.4338282
27.436611767973726	2.0999076	1.4491059
27.454653521681404	2.112127	1.4533159
27.472695969306564	2.1247294	1.4576452
27.490739111376627	2.1308365	1.4597385
27.508782948419153	2.099645	1.4490151
27.526827480961902	2.0590746	1.4349476
27.54487270953279	2.0237446	1.4225838
27.562918634659898	2.0271466	1.423779
27.580965256871508	2.0374632	1.4273974
27.599012576696026	2.0437098	1.4295838
27.617060594662068	2.074392	1.440275
27.63510931129842	2.1652374	1.4714745
27.65315872713401	2.173415	1.4742507
27.67120884269797	2.1105988	1.45279
27.68925965851958	2.0858655	1.4442526
27.707311175128307	2.1054857	1.4510292
27.725363393053787	2.0619822	1.4359604
27.74341631282583	2.096851	1.4480507
27.7614699349744	2.1698143	1.473029
27.77952426002968	2.3560271	1.5349356
27.797579288521973	2.3729947	1.5404527
27.815635020981784	2.726868	1.6513231
27.83369145793979	2.8435078	1.6862704
27.85174859992682	2.7331173	1.6532142
27.869806447473923	2.5425756	1.5945456
27.887865001112267	2.2303774	1.4934448
27.905924261373233	2.1317453	1.4600497
27.92398422878836	2.128299	1.4588691
27.94204490388936	2.1062152	1.4512806
27.96010628720813	2.1303883	1.459585
27.978168379276728	2.1464314	1.4650705
27.9962311806274	2.1086447	1.4521173
28.014294691792568	2.1248312	1.4576801
28.0323589133048	2.140672	1.4631035
28.050423845696887	2.1552482	1.4680763
28.068489489501758	2.1951647	1.4816089
28.086555845252523	2.2533672	1.501122
28.104622913482487	2.2049775	1.4849167
28.122690694725115	2.1646974	1.4712911
28.14075918951405	2.1677418	1.4723253
28.15882839838312	2.2108564	1.4868948
28.176898321866304	2.189344	1.4796432
28.1949689604978	2.1427143	1.4638013
28.213040314811945	2.1360807	1.4615337
28.23111238534327	2.18949	1.4796926
28.249185172626493	2.2094884	1.4864348
28.267258677196473	2.1824403	1.4773085
28.285332899588294	2.1681361	1.4724592
28.303407840337172	2.200083	1.4832677
28.321483499978545	2.2466733	1.4988908
28.33955987904799	2.225993	1.4919761
28.357636978081285	2.2526295	1.5008763
28.37571479761439	2.273867	1.5079347
28.393793338183425	2.3032835	1.5176573
28.41187260032469	2.2497287	1.4999095
28.429952584574686	2.2034872	1.4844147
28.448033291470065	2.1693275	1.4728637
28.46611472154769	2.2029867	1.4842461
28.484196875344566	2.2447007	1.4982325
28.502279753397914	2.2294877	1.4931469
28.52036335624511	2.218359	1.4894156
28.538447684423716	2.269481	1.5064796
28.556532738471482	2.2591643	1.5030516
28.574618518926325	2.2511744	1.5003915
28.59270502632635	2.2192504	1.4897149
28.61079226120985	2.2543113	1.5014365
28.628880224115274	2.2172217	1.4890338
28.646968915581287	2.2274702	1.4924712
28.66505833614671	2.2961736	1.515313
28.68314848635055	2.3341808	1.5278026
28.701239366732004	2.3447125	1.5312454
28.71933097783044	2.3584647	1.5357294
28.737423320185403	2.3734813	1.5406107
28.75551639433665	2.3863196	1.5447717
28.773610200824074	2.3652794	1.5379465
28.791704740187793	2.4146	1.5538983
28.80980001296809	2.4860833	1.5767318
28.827896019705413	2.4775417	1.5740209
28.845992760940433	2.5306265	1.5907943
28.86409023721397	2.5902221	1.6094167
28.88218844906704	2.6089187	1.6152147
28.900287397040845	2.5998354	1.6124005
28.918387081676755	2.6170392	1.6177266
28.936487503516343	2.6236558	1.6197703
28.954588663101365	2.6638386	1.632127
28.97269056097374	2.836288	1.6841283
28.990793197675597	2.987493	1.7284366
29.00889657374923	3.199649	1.7887563
29.027000689737125	3.4363036	1.853727
29.04510554618196	3.7510312	1.9367579
29.06321114362659	4.0477676	2.0119064
29.08131748261405	4.3795867	2.0927463
29.099424563687567	4.797201	2.1902514
29.11753238739057	5.2426243	2.2896779
29.13564095426663	5.7112727	2.389827
29.15375026485954	6.093907	2.468584
29.171860319713275	6.322828	2.5145233
29.18997111937199	6.4399767	2.537711
29.20808266438002	6.406266	2.5310602
29.226194955281898	6.2874675	2.5074823
29.244307992622335	6.067114	2.4631512
29.26242177694624	5.75691	2.3993561
29.2805363087987	5.357345	2.314594
29.29865158872498	5.017943	2.2400765
29.316767617270557	4.727777	2.1743453
29.334884394981064	4.43999	2.1071284
29.353001922402367	4.2886653	2.0709093
29.37112020008047	4.158506	2.0392416
29.389239228561596	4.051499	2.0128336
29.407359008392152	3.9703903	1.9925839
29.42547954011872	3.913501	1.9782571
29.44360082428809	3.8115437	1.9523175
29.46172286144722	3.7166662	1.9278657
29.479845652143283	3.6365912	1.9069848
29.497969196923606	3.6085763	1.8996253
29.516093496335728	3.5854251	1.8935219
29.5342185509274	3.5780852	1.8915827
29.55234436124651	3.5742304	1.8905635
29.570470927841175	3.5374432	1.8808092
29.588598251259686	3.4417267	1.8551891
29.60672633205055	3.3471887	1.8295324
29.624855170762405	3.3268397	1.8239627
29.642984767944146	3.3495717	1.8301835
29.66111512414481	3.3729947	1.8365715
29.67924623991366	3.3323832	1.8254817
29.697378115800138	3.374054	1.8368598
29.71551075235387	3.4247122	1.8505977
29.733644150124675	3.4832904	1.8663576
29.751778309662576	3.478035	1.8649491
29.769913231517766	3.447834	1.8568344
29.78804891624066	3.4554338	1.8588797
29.806185364381818	3.4897966	1.8680997
29.82432257649206	3.4753942	1.8642409
29.842460553122333	3.4744334	1.8639833
29.86059929482382	3.4297745	1.8519651
29.878738802147872	3.4677606	1.8621924
29.896879075646048	3.4821951	1.8660641
29.915020115870114	3.5066345	1.872601
29.933161923371976	3.4574795	1.8594298
29.951304498703777	3.4025555	1.8446018
29.969447842417857	3.3346052	1.8260901
29.987591955066733	3.2834382	1.812026
30.005736837203123	3.2919714	1.8143791
30.023882489379943	3.2467675	1.8018789
30.04202891215028	3.2760928	1.809998
30.060176106067455	3.3320074	1.8253787
30.078324071684946	3.3136876	1.8203537
30.09647280955646	3.3029594	1.8174046
30.114622320235863	3.305006	1.8179675
30.132772604277257	3.3045135	1.8178321
30.1509236622349	3.2912276	1.814174
30.16907549466328	3.287695	1.8132002
30.18722810211705	3.295167	1.8152595
30.205381485151097	3.2343373	1.7984264
30.22353564432045	3.1553528	1.7763313
30.241690580180403	3.0873337	1.757081
30.25984629328638	3.1288302	1.76885
30.278002784194037	3.1901774	1.7861068
30.296160053459246	3.260542	1.8056971
30.314318101638033	3.2565455	1.8045901
30.332476929286646	3.2969475	1.8157499
30.35063653696153	3.2826052	1.8117961
30.368796925219307	3.2715356	1.8087387
30.386958094616844	3.2397351	1.7999264
30.40512004571115	3.2750874	1.8097203
30.423282779059463	3.32851	1.8244205
30.441446295219233	3.4021466	1.8444909
30.459610594748067	3.4709883	1.8630588
30.47777567820382	3.5040965	1.8719232
30.495941546144504	3.455267	1.8588349
30.51410819912835	3.4506876	1.8576027
30.532275637713795	3.521915	1.8766766
30.55044386245946	3.5460954	1.8831079
30.56861287392416	3.4414768	1.8551217
30.586782672666956	3.4007604	1.844115
30.604953259247047	3.3925648	1.8418916
30.623124634223885	3.3489819	1.8300223
30.641296798157075	3.2991495	1.8163561
30.659469751606462	3.279582	1.8109616
30.677643495132074	3.138386	1.771549
30.695818029294152	3.0129719	1.7357914
30.713993354653116	2.9910858	1.7294756
30.73216947176962	3.0130184	1.7358048
30.75034638120448	3.0028794	1.7328818
30.768524083518756	2.9478202	1.7169217
30.786702579273673	2.8881102	1.699444
30.80488186903069	2.8573928	1.6903825
30.82306195335144	2.8414414	1.6856575
30.841242832797782	2.8138676	1.6774586
30.85942450793176	2.7766116	1.6663167
30.877606979315637	2.7248242	1.6507041
30.895790247511883	2.6900485	1.6401367
30.913974313083134	2.6840684	1.6383127
30.932159176592283	2.7473414	1.6575106
30.95034483860237	2.8295689	1.6821322
30.968531299676698	2.8206217	1.6794707
30.98671856037873	2.7364821	1.6542315
31.00490662127215	2.665803	1.6327287
31.023095482920848	2.6163301	1.6175073
31.04128514588892	2.6546526	1.6293105
31.059475610740662	2.6841576	1.6383399
31.07766687804056	2.6031106	1.6134158
31.09585894835335	2.555353	1.5985471
31.11405182224393	2.6011765	1.6128163
31.132245500277417	2.6914175	1.640554
31.15043998301914	2.6937478	1.6412641
31.168635271034628	2.6379864	1.624188
31.18683136488964	2.5939567	1.6105765
31.20502826515008	2.581614	1.6067402
31.223225972382135	2.6152017	1.6171585
31.241424487152155	2.6209517	1.6189353
31.259623810026692	2.6292653	1.621501
31.27782394157253	2.6043131	1.6137885
31.296024882356644	2.5559063	1.5987202
31.314226632946237	2.5456688	1.5955153
31.332429193908684	2.6299918	1.621725
31.350632565811598	2.6798232	1.6370165
31.368836749222787	2.6921854	1.6407881
31.387041744710295	2.657368	1.6301435
31.40524755284232	2.6837323	1.63821
31.423454174187317	2.6989245	1.6428404
31.441661609313922	2.6880722	1.6395341
31.459869858791002	2.7064211	1.6451204
31.478078923187628	2.660715	1.6311699
31.496288803073064	2.5262365	1.5894139
31.514499499016807	2.4949636	1.5795454
31.532711011588546	2.5001173	1.5811759
31.550923341358178	2.5222383	1.5881556
31.56913648889584	2.511508	1.5847738
31.587350454771844	2.4923606	1.5787212
31.605565239556732	2.4643452	1.5698233
31.62378084382127	2.4105573	1.5525969
31.641997268136382	2.4020169	1.5498441
31.660214513073274	2.4691932	1.5713667
31.67843257920331	2.4879806	1.5773333
31.6966514670981	2.483869	1.5760295
31.71487117732944	2.5482328	1.5963185
31.733091710469346	2.54351	1.5948385
31.751313067090052	2.4908571	1.5782449
31.769535247764008	2.5150993	1.5859065
31.787758253063878	2.5812743	1.6066345
31.805982083562526	2.5918365	1.6099181
31.824206739833024	2.4914963	1.5784475
31.84243222244869	2.4117498	1.5529809
31.860658531983013	2.3958313	1.5478473
31.878885669009737	2.3875573	1.5451722
31.897113634102784	2.3542283	1.5343494
31.91534242783632	2.348465	1.5324702
31.933572050784694	2.324697	1.5246958
31.951802503522508	2.2853105	1.5117244
31.970033786624548	2.4209526	1.5559411
31.988265900665834	2.5292025	1.5903467
32.006498846221575	2.523742	1.588629
32.02473262386724	2.4257798	1.5574915
32.04296723417845	2.3600776	1.5362544
32.0612026777311	2.2834954	1.5111239
32.07943895510129	2.3127043	1.5207578
32.097676066865304	2.3942776	1.5473453
32.115914013599685	2.4261494	1.5576102
32.13415279588115	2.414992	1.5540245
32.152392414286666	2.3619018	1.536848
32.1706328693934	2.3181336	1.5225418
32.18887416177875	2.3379116	1.529023
32.20711629202032	2.379697	1.5426267
32.225359260695924	2.3806174	1.542925
32.243603068383614	2.3134437	1.5210009
32.26184771566166	2.209375	1.4863967
32.28009320310852	2.1714158	1.4735725
32.2983395313029	2.2317278	1.4938968
32.31658670082372	2.2559476	1.5019813
32.33483471225012	2.2037323	1.4844973
32.35308356616143	2.2022429	1.4839956
32.371333263137245	2.2217407	1.4905505
32.38958380375734	2.255778	1.5019248
32.407835188601744	2.2564557	1.5021503
32.42608741825067	2.2511225	1.5003741
32.444340493284585	2.221711	1.4905405
32.46259441428416	2.1968606	1.482181
32.48084918183028	2.1974277	1.4823723
32.49910479650405	2.163077	1.4707403
32.51736125888683	2.1696014	1.4729567
32.53561856956014	2.2321212	1.4940286
32.5538767291058	2.331753	1.5270078
32.572135738105764	2.373728	1.5406908
32.59039559714228	2.3037224	1.5178019
32.608656306797776	2.2050698	1.4849477
32.62691786765491	2.2085874	1.4861317
32.645180280296586	2.2481441	1.4993813
32.663443545305896	2.2193272	1.4897406
32.68170766326619	2.1517472	1.4668835
32.69997263476099	2.14766	1.4654896
32.7182384603741	2.135103	1.4611992
32.7365051406895	2.1352127	1.4612367
32.75477267629144	2.1330392	1.4604928
32.77304106776434	2.132613	1.4603468
32.79131031569289	2.0431101	1.429374
32.809580420661966	2.1558063	1.4682665
32.827851383256714	2.2679315	1.5059652
32.84612320406245	2.2543712	1.5014564
32.86439588366476	2.15519	1.4680566
32.88266942264945	2.0938487	1.4470137
32.9009438216025	2.0882056	1.4450625
32.9192190811102	2.0952888	1.4475112
32.937495201758985	2.1437123	1.4641422
32.95577218413556	2.149942	1.4662681
32.974050028826866	2.1039789	1.4505099
32.992328736420035	2.1160476	1.4546641
33.010608307502444	2.1124113	1.4534136
33.02888874266169	2.1471763	1.4653246
33.047170042485604	2.1204908	1.4561905
33.06545220756225	2.133261	1.4605687
33.083735238479896	2.1659806	1.471727
33.10201913582707	2.1112008	1.4529972
33.12030390019248	2.0194197	1.4210628
33.138589532165135	2.0537546	1.4330927
33.15687603233419	2.119967	1.4560107
33.17516340128909	2.3576834	1.535475
33.19345163961947	2.3932261	1.5470055
33.211740747915215	2.3112211	1.5202701
33.23003072676643	2.1699026	1.4730589
33.248321576763466	2.0603004	1.4353746
33.266613298496885	1.963426	1.4012231
33.28490589255747	1.9754614	1.405511
33.30319935953626	2.0394545	1.4280947
33.32149370002451	2.0394673	1.4280992
33.339788914613706	2.0074842	1.4168571
33.358085003895575	2.0584378	1.4347256
33.376381968462034	2.0689888	1.438398
33.39467980890529	1.9852357	1.408984
33.41297852581774	2.0082169	1.4171157
33.43127811979204	2.014945	1.4194876
33.44957859142105	2.004704	1.4158757
33.467879941297866	2.0720446	1.4394598
33.486182170015844	2.1059556	1.4511911
33.50448527816853	2.1531186	1.4673508
33.522789266349754	2.1021657	1.4498848
33.541094135153514	2.0288496	1.424377
33.55939988517411	2.031267	1.4252253
33.57770651700602	2.05785	1.4345208
33.59601403124398	2.1222627	1.4567988
33.61432242848296	2.1411536	1.4632682
33.632631709318154	2.0491514	1.4314858
33.650941874344994	1.9484254	1.3958601
33.66925292415916	1.9321874	1.3900315
33.68756485935654	1.9996759	1.414099
33.70587768053328	1.9963642	1.4129275
33.724191388285746	2.0362306	1.4269655
33.74250598321054	2.001327	1.4146826
33.760821465904506	2.0593324	1.4350374
33.77913783696474	2.067337	1.4378238
33.79745509698852	2.1122856	1.4533705
33.815773246573414	2.1287973	1.4590398
33.8340922863172	2.0221415	1.4220202
33.852412216817896	1.9244379	1.3872411
33.87073303867377	2.0072925	1.4167895
33.889054752483304	2.1062112	1.4512792
33.907377358845245	2.154725	1.4678981
33.92570085835853	2.1567652	1.4685929
33.94402525162239	2.095347	1.4475313
33.96235053923627	2.023389	1.4224588
33.980676721799824	2.04203	1.4289962
33.999003799912984	2.0621827	1.4360301
34.01733177417592	2.0135362	1.4189912
34.03566064518901	1.952212	1.3972158
34.0539904135529	1.9796914	1.4070151
34.07232107986846	1.9001895	1.3784736
34.090652644736785	1.8855062	1.3731374
34.108985108759235	2.0276804	1.4239664
34.12731847253742	2.068872	1.4383574
34.14565273667313	1.917694	1.3848083
34.16398790176847	1.8754622	1.3694751
34.18232396842574	1.9663638	1.4022709
34.20066093724749	1.9481905	1.3957759
34.21899880883651	1.9752815	1.4054471
34.23733758379583	2.0743153	1.4402484
34.25567726272874	2.1627977	1.4706453
34.27401784623872	2.152923	1.4672843
34.29235933492957	2.03746	1.4273963
34.31070172940526	1.9644223	1.4015785
34.32904503027003	2.0050678	1.4160042
34.347389238128386	2.1436217	1.4641112
34.36573435358502	2.180945	1.4768022
34.38408037724492	2.1307213	1.459699
34.402427309713296	2.1661532	1.4717857
34.42077515159559	2.2163205	1.4887311
34.43912390349752	2.3197796	1.5230823
34.45747356602499	2.358554	1.5357584
34.47582413978423	2.2267203	1.4922199
34.49417562538163	1.9333225	1.3904397
34.51252802342388	1.8678511	1.3666935
34.53088133451789	1.9059814	1.3805729
34.54923555927084	2.0241232	1.4227169
34.567590698290104	2.1796265	1.4763558
34.58594675218336	2.1281466	1.4588169
34.6043037215585	2.0591283	1.4349663
34.62266160702365	2.2233458	1.4910887
34.641020409187234	2.3765128	1.5415943
34.65938012865785	2.3100061	1.5198704
34.677740766044394	2.149887	1.4662493
34.69610232195598	2.159393	1.4694873
34.714464797002016	2.1385372	1.4623739
34.73282819179208	2.0162942	1.4199628
34.751192506936064	2.03043	1.4249316
34.76955774304408	2.150494	1.4664563
34.7879239007265	2.162587	1.4705737
34.80629098059391	2.034101	1.4262191
34.824658983257194	2.0521526	1.4325336
34.843027909327446	2.1777878	1.4757329
34.86139775941603	2.1614053	1.4701719
34.879768534134534	2.094387	1.4471997
34.89814023409483	2.0126364	1.4186742
34.91651285990901	2.0432403	1.4294195
34.93488641218944	2.0214174	1.4217656
34.95326089154871	2.0954123	1.4475539
34.97163629859967	2.2433958	1.497797
34.99001263395542	2.1759691	1.4751166
35.00838989822934	2.0073597	1.4168133
35.02676809203499	1.9484041	1.3958524
35.04514721598624	1.9636437	1.4013007
35.063527270697215	2.1340084	1.4608246
35.081908256782256	2.232953	1.4943069
35.10029017485597	2.2073057	1.4857004
35.11867302553321	2.1830752	1.4775233
35.137056809429104	2.04783	1.4310242
35.155441527159006	1.9152548	1.3839273
35.173827179338524	1.9883869	1.4101018
35.19221376658354	2.019053	1.4209338
35.21060128951017	1.8872142	1.3737592
35.2289897487348	2.1723766	1.4738984
35.24737914487405	2.3475184	1.5321614
35.26576947854479	2.1628098	1.4706495
35.28416075036418	1.9602232	1.4000797
35.30255296094958	2.0239663	1.4226617
35.32094611091867	1.9886409	1.4101918
35.33934020088932	1.989788	1.4105985
35.35773523147969	2.179352	1.4762628
35.3761312033082	2.1161888	1.4547126
35.394528116993506	1.8716775	1.3680927
35.41292597315452	1.9909866	1.4110233
35.431324772410434	2.1653905	1.4715266
35.449724515380666	2.1574595	1.4688293
35.46812520268491	2.313051	1.5208718
35.486526834943106	2.5820913	1.6068888
35.504929412775454	2.0595546	1.4351149
35.52333293680242	1.629514	1.2765242
35.54173740764471	1.8261206	1.3513403
35.560142825923286	2.4832768	1.5758417
35.5785491922594	2.9997625	1.7319822
35.59695650727454	2.74666	1.657305
35.61536477159042	2.3560128	1.5349308
