0.008763373481513119	0.0	0.0
0.026290120649546365	0.0	0.0
0.043816868432600686	0.119512066	0.34570518
0.06134361724069026	0.31983063	0.5655357
0.07887036748382949	0.2901874	0.53869045
0.0963971195720331	0.26071778	0.51060534
0.11392387391531617	0.13851139	0.3721712
0.1314506309236943	0.16689186	0.408524
0.1489773910071836	0.21419555	0.46281266
0.16650415457580078	0.22206567	0.47123843
0.18403092203956356	0.1604757	0.40059417
0.20155769380849	0.13503702	0.36747384
0.2190844702925996	0.13852055	0.3721835
0.2366112519019124	0.14669241	0.38300446
0.2541380390464497	0.20782664	0.45588008
0.27166483213623416	0.17648514	0.42010134
0.28919163158128947	0.14999713	0.38729462
0.3067184377916406	0.102794774	0.32061625
0.324245251177314	0.08453838	0.29075485
0.34177207214833777	0.096641146	0.3108716
0.3592989011147415	0.10522976	0.32439137
0.37682573848655654	0.15953901	0.39942336
0.39435258467381573	0.19773564	0.44467476
0.41187944008655414	0.23909186	0.4889702
0.42940630513480854	0.26063624	0.51052547
0.446933180228618	0.25461888	0.5045977
0.4644600657780234	0.21406105	0.46266732
0.48198696219306775	0.2021832	0.44964787
0.49951386988379676	0.18746458	0.4329718
0.5170407892602581	0.17982021	0.42405212
0.5345677207325025	0.15141572	0.38912174
0.5520946647105822	0.14040801	0.37471056
0.5696216216045534	0.1176572	0.34301195
0.5871485918244737	0.14886639	0.38583207
0.6046755757804043	0.163046	0.40378955
0.6222025738824094	0.17814292	0.42206982
0.6397295865405557	0.17345262	0.41647643
0.6572566141649129	0.17133352	0.41392455
0.6747836571655547	0.14285932	0.37796736
0.6923107159525568	0.15028581	0.38766715
0.7098377909359992	0.15259908	0.39063933
0.7273648825259653	0.16162594	0.40202728
0.7448919911325411	0.18675174	0.43214783
0.762419117165817	0.14036012	0.37464666
0.7799462610358868	0.15113702	0.38876346
0.7974734231528482	0.16142912	0.40178242
0.8150006039268024	0.19448815	0.44100812
0.8325278037678551	0.22878431	0.478314
0.8500550230861152	0.24917953	0.49917886
0.8675822622916969	0.25831607	0.50824803
0.8851095217947171	0.22262222	0.47182858
0.9026368020052984	0.20032491	0.4475767
0.9201641033335665	0.18628451	0.4316069
0.9376914261896523	0.22791678	0.4774063
0.9552187709836915	0.2238552	0.4731334
0.9727461381258234	0.25714117	0.50709087
0.990273528026193	0.23241144	0.4820907
1.0078009410949496	0.22514316	0.47449252
1.0253283777422473	0.22537401	0.47473574
1.0428558383782454	0.24158089	0.49150878
1.0603833234131086	0.24885839	0.49885708
1.0779108332570058	0.27746817	0.5267525
1.0954383683201119	0.2843523	0.53324693
1.112965929012607	0.37020546	0.6084451
1.1304935157446763	0.5258052	0.72512424
1.1480211289265108	0.5904802	0.7684271
1.1655487689683062	1.3962435	1.1816275
1.1830764362802655	1.6788747	1.295714
1.200604131272596	2.089164	1.445394
1.2181318543555117	2.3492546	1.5327278
1.235659605939232	2.3111682	1.5202527
1.253187386433982	3.7859716	1.9457574
1.270715196249994	6.046764	2.4590168
1.2882430357975057	11.56413	3.4006073
1.3057709054867608	16.313951	4.0390534
1.3232988057280106	22.475586	4.7408423
1.3408267369315112	27.42512	5.2369
1.358354699507526	30.930483	5.561518
1.3758826938663256	34.425884	5.8673577
1.3934107204181858	36.383045	6.031836
1.410938779573391	36.995335	6.082379
1.4284668717422309	37.696033	6.1397095
1.4459949973350033	37.05198	6.0870337
1.4635231567620117	36.582867	6.048377
1.4810513504335687	35.46376	5.955146
1.4985795787599925	34.7861	5.897974
1.5161078421516088	34.372875	5.8628383
1.5336361410187505	33.96284	5.8277645
1.5511644757717598	34.34649	5.8605876
1.5686928468209842	35.029396	5.918564
1.58622125457678	35.65692	5.9713416
1.6037496994495108	36.678333	6.056264
1.621278181849548	36.517483	6.0429697
1.6388067021872719	37.123512	6.092907
1.6563352608730693	36.598938	6.0497055
1.673863858317336	35.529346	5.96065
1.6913924949304753	34.592583	5.881546
1.7089211711228998	33.611343	5.797529
1.7264498873050296	32.84975	5.73147
1.7439786438872935	32.34694	5.687437
1.7615074412801288	31.816488	5.6406107
1.779036279893981	31.316816	5.596143
1.796565160139305	30.145033	5.4904494
1.814094082426564	29.479437	5.429497
1.8316230471662298	28.565042	5.3446274
1.849152054768784	27.910929	5.2830796
1.8666811056447168	27.064383	5.202344
1.8842102002045273	26.380281	5.1361737
1.901739338858724	25.703598	5.0698714
1.9192685220178245	25.246504	5.02459
1.9367977500923557	24.74999	4.974936
1.9543270234928547	24.290289	4.928518
1.971856342629867	23.897001	4.888456
1.9893857079139496	23.599365	4.857918
2.006915119755667	23.01072	4.796949
2.0244445785655945	22.15836	4.707267
2.0419740847543175	21.487284	4.635438
2.0595036387324317	21.189825	4.6032405
2.0770332409105414	20.973652	4.5797
2.094562891699263	20.642057	4.543353
2.1120925915092217	20.05654	4.4784527
2.129622340751053	19.68367	4.4366283
2.1471521398354043	187.70563	13.70057
2.1646819891729323	444.05157	21.07253
2.182211889174303	440.01477	20.976528
2.1997418402501974	452.51462	21.27239
2.2172718428113023	432.43973	20.795185
2.234801897268317	320.3451	17.898188
2.2523320040319548	16.831736	4.1026497
2.269862163512935	16.561176	4.0695424
2.287392376121992	16.320175	4.0398235
2.304922642269869	16.024992	4.003123
2.322452962367322	15.533257	3.9412253
2.3399833368251164	15.258187	3.906173
2.357513766054032	15.031954	3.8771064
2.3750442504648586	14.722026	3.8369293
2.3925747904683963	14.455608	3.8020532
2.410105386475459	14.120705	3.7577527
2.4276360388968707	13.877113	3.7251997
2.445166748143469	13.702894	3.701742
2.4626975146261025	13.410387	3.6620195
2.4802283387556323	13.121011	3.6222935
2.4977592209429305	12.917364	3.5940735
2.5152901615988825	12.68404	3.561466
2.5328211611343865	12.646896	3.5562475
2.5503522199603523	12.531044	3.5399215
2.5678833384877024	12.43184	3.5258815
2.5854145171273712	12.271596	3.5030837
2.6029457562903064	11.949554	3.4568129
2.620477056387469	11.727092	3.4244843
2.6380084178298326	11.379147	3.3732991
2.655539841028383	11.094482	3.3308382
2.673071326394119	11.008661	3.3179302
2.6906028743380523	10.955735	3.3099449
2.708134485271211	10.805105	3.287112
2.7256661596046325	10.660571	3.265053
2.743197897749369	10.40124	3.2250955
2.760729700116486	10.397784	3.2245595
2.778261567117063	10.341477	3.2158167
2.795793499162193	10.125606	3.1820757
2.8133254966629817	10.0270195	3.1665468
2.830857560030551	9.783859	3.127916
2.8483896896760337	9.609822	3.0999713
2.865921886010578	9.414721	3.0683417
2.883454149445347	9.306626	3.0506763
2.9009864803915177	9.235582	3.03901
2.91851887926028	9.013372	3.002228
2.9360513464628384	8.889181	2.981473
2.953583882410413	8.665323	2.9436922
2.9711164875142373	8.56843	2.9271882
2.9886491621855606	8.33465	2.8869793
3.0061819068356455	8.461765	2.9089115
3.023714721875769	8.597964	2.9322286
3.041247607717225	8.583287	2.9297247
3.0587805647713213	8.440796	2.9053047
3.0763135934493806	8.269958	2.8757534
3.0938466941627407	8.051566	2.8375282
3.1113798673227544	8.019602	2.83189
3.1289131133407904	7.789644	2.7909932
3.1464464326282315	7.747312	2.7833993
3.1639798255964786	7.6686897	2.76924
3.1815132926569443	7.563902	2.7502549
3.1990468342210603	7.4345117	2.7266302
3.216580450700272	7.327238	2.7068872
3.2341141425060416	7.1825714	2.680032
3.251647910049847	7.083622	2.6615074
3.2691817537431813	7.087557	2.6622465
3.286715673997555	7.100905	2.6647522
3.3042496712244938	7.0434017	2.6539407
3.32178374583554	6.865799	2.620267
3.339317898242251	6.8324857	2.6139023
3.3568521288562034	6.811605	2.6099052
3.3743864380889876	6.8662767	2.6203582
3.3919208263522127	6.853222	2.6178658
3.4094552940575023	6.7770967	2.6032858
3.4269898416164972	6.6232686	2.5735712
3.444524469440858	6.4947586	2.5484817
3.4620591779422587	6.3983893	2.5295038
3.479593967532391	6.3631916	2.5225368
3.4971288386229658	6.393701	2.5285769
3.5146637916257086	6.3821635	2.5262945
3.5321988269523628	6.358796	2.5216653
3.5497339450146903	6.366702	2.5232325
3.5672691462244708	6.3004847	2.5100765
3.5848044309934988	6.261884	2.5023756
3.60233979973359	6.2308736	2.4961717
3.619875252856575	6.2242475	2.4948442
3.6374107907743034	6.2694664	2.5038903
3.6549464138986427	6.1828313	2.48653
3.6724821226414788	6.1815076	2.4862638
3.690017917414714	6.212283	2.4924452
3.7075537986302702	6.2810845	2.5062091
3.7250897667000857	6.2342296	2.4968438
3.7426258220361235	6.358551	2.5216167
3.7601619650503553	6.6879034	2.5860982
3.777698196154779	7.3078036	2.703295
3.7952345157614067	8.436285	2.9045284
3.8127709242822716	9.206291	3.034187
3.830307422129425	11.157313	3.3402565
3.847844009714936	12.470813	3.5314038
3.8653806874508954	15.924658	3.990571
3.882917455749409	15.649117	3.9558966
3.900454315022606	15.935457	3.991924
3.917991265682631	12.746625	3.5702417
3.9355283081416506	10.743077	3.2776635
3.9530654428118495	8.516916	2.9183757
3.970602670105433	7.303301	2.702462
3.9881399904346244	6.4757366	2.5447469
4.005677404211669	6.407263	2.5312572
4.023214911848827	6.309151	2.5118024
4.0407525137583855	6.290898	2.5081663
4.058290210352644	6.270147	2.5040262
4.075828002043927	6.173396	2.484632
4.0933658892445814	6.128761	2.4756334
4.110903872366966	6.104157	2.4706593
4.128441951823468	6.0931077	2.4684222
4.145980128026488	6.1269703	2.4752717
4.163518401388452	6.1365037	2.4771967
4.181056772321807	6.1610613	2.4821484
4.1985952412390155	6.054211	2.4605308
4.216133808552567	5.974986	2.4443784
4.233672474674966	6.069329	2.4636009
4.251211240018741	6.32686	2.515325
4.268750104996445	6.596391	2.568344
4.286289070020643	7.6073885	2.7581494
4.303828135503928	9.281934	3.0466266
4.3213673018589125	29.498577	5.431259
4.3389065694982305	90.62791	9.519869
4.356445938834537	165.65514	12.870708
4.3739854102805085	171.3436	13.089828
4.391524984248844	172.2152	13.123078
4.409064661152262	136.35524	11.677125
4.426604441403504	96.68243	9.832723
4.444144325415337	75.87005	8.710341
4.461684313600543	21.836893	4.672996
4.47922440637193	22.229685	4.7148366
4.496764604142329	20.407839	4.5175037
4.5143049073245916	18.573679	4.309719
4.531845316331589	16.330866	4.0411468
4.5493858315762195	13.36058	3.6552129
4.566926453471405	11.0840645	3.329274
4.584467182430081	9.061341	3.0102062
4.602008018865218	8.07701	2.842008
4.619548963189798	7.4456673	2.728675
4.637090015816834	7.045742	2.6543818
4.654631177159353	6.8659477	2.6202953
4.672172447630417	6.533911	2.5561516
4.689713827643102	6.3195395	2.5138695
4.7072553176105085	5.998715	2.4492273
4.724796917945764	5.767889	2.401643
4.742338629062015	5.71764	2.3911586
4.759880451372434	5.7713475	2.4023628
4.777422385290215	5.740733	2.3959827
4.794964431228581	5.717409	2.3911104
4.812506589600768	5.6329236	2.373378
4.830048860820047	5.560502	2.3580716
4.847591245299709	5.550285	2.3559043
4.8651337434530655	5.5106163	2.3474703
4.882676355693457	5.5452437	2.354834
4.900219082434242	5.536112	2.3528943
4.917761924088813	5.516842	2.348796
4.935304881070575	5.4949403	2.3441288
4.952847953792969	5.415137	2.3270447
4.970391142669449	5.3939323	2.322484
4.9879344481135055	5.3547807	2.31404
5.005477870538642	5.3600955	2.315188
5.023021410358394	5.3100605	2.3043568
5.040565067986324	5.3325114	2.3092232
5.05810884383601	5.362217	2.3156462
5.075652738321066	5.4182177	2.3277066
5.09319675185512	5.427667	2.3297355
5.110740884851836	5.456618	2.3359404
5.128285137724894	5.4171653	2.3274806
5.145829510888007	5.390438	2.3217318
5.163374004754908	5.3342214	2.3095934
5.1809186197393595	5.2567024	2.29275
5.198463356255145	5.192009	2.278598
5.216008214716077	5.1910806	2.2783942
5.233553195535998	5.233817	2.2877538
5.251098299128764	5.2476225	2.2907689
5.268643525908272	5.186458	2.2773798
5.286188876288432	5.278769	2.297557
5.3037343506831895	5.29498	2.3010824
5.32127994950651	5.2395005	2.2889955
5.3388256731723915	5.1915956	2.2785072
5.356371522094851	5.1990433	2.280141
5.373917496687938	5.2123966	2.2830675
5.391463597365729	5.188158	2.2777529
5.40900982454232	5.0921063	2.2565696
5.426556178631843	5.1054	2.2595131
5.444102660048449	5.066873	2.2509716
5.4616492692063225	5.053101	2.2479103
5.479196006519669	5.0186944	2.2402444
5.496742872402727	5.0291443	2.2425754
5.514289867269756	5.0459785	2.2463255
5.531836991535049	5.05099	2.2474408
5.549384245612924	5.0276284	2.2422373
5.566931629917724	4.9717193	2.2297351
5.584479144863822	4.925964	2.2194512
5.6020267908656205	4.900509	2.2137094
5.619574568337545	4.9510202	2.2250888
5.637122477694054	4.9312115	2.220633
5.654670519349629	4.9624343	2.2276523
5.672218693718784	5.014655	2.2393425
5.689767001216059	5.0904994	2.2562134
5.707315442256021	5.108559	2.2602122
5.724864017253266	5.1734834	2.2745292
5.7424127266224225	5.105116	2.2594504
5.75996157077814	5.045889	2.2463057
5.777510550135105	5.0042934	2.237028
5.795059665108022	5.0485735	2.2469032
5.812608916111639	5.0585656	2.2491255
5.830158303560715	5.190015	2.2781603
5.847707827870055	5.2071486	2.2819178
5.86525748945448	5.2553005	2.2924442
5.8828072887288485	5.3032475	2.3028781
5.900357226108044	5.349061	2.3128037
5.917907302006979	5.4467673	2.333831
5.9354575168406	6.077588	2.4652765
5.9530078710238765	6.6638017	2.581434
5.970558364971812	7.2141533	2.6859176
5.988108999099438	7.507677	2.740014
6.005659773821818	8.032691	2.8342001
6.023210689554039	7.8222785	2.7968338
6.040761746711227	8.253965	2.8729715
6.058312945708531	7.6831784	2.7718546
6.075864286961132	7.252425	2.6930327
6.093415770884244	6.555986	2.560466
6.1109673978931065	5.98484	2.4463933
6.128519168402993	5.378506	2.3191607
6.146071082829204	5.24481	2.290155
6.163623141587075	5.1317186	2.2653296
6.181175345091969	5.091012	2.2563272
6.198727693759281	5.143599	2.2679503
6.216280188004435	5.1025715	2.2588873
6.233832828242885	5.0474625	2.246656
6.251385614890126	5.086231	2.2552674
6.268938548361669	5.0778594	2.2534106
6.286491629073067	5.1294475	2.2648284
6.304044857439898	5.1225405	2.263303
6.321598233877777	5.1004586	2.2584195
6.339151758802344	5.0308986	2.2429664
6.356705432629277	4.983876	2.2324598
6.37425925577428	4.903667	2.2144225
6.391813228653095	4.919313	2.2179525
6.409367351681486	4.8506546	2.2024202
6.426921625275259	4.8289175	2.1974797
6.44447604985025	4.8619413	2.204981
6.46203062582232	4.9248424	2.2191985
6.47958535360737	4.9842033	2.232533
6.497140233621328	4.9902096	2.2338777
6.514695266280161	4.9836583	2.232411
6.532250451999859	4.9754477	2.230571
6.549805791196454	4.987698	2.2333155
6.567361284286002	5.027227	2.242148
6.584916931684597	5.0432453	2.245717
6.602472733808367	4.9814506	2.2319164
6.6200286910734665	4.954124	2.2257862
6.637584803896092	4.9044857	2.2146072
6.655141072692462	4.9248333	2.2191966
6.672697497878842	4.9006553	2.2137423
6.690254079871514	4.8992343	2.2134213
6.707810819086808	4.884024	2.2099829
6.725367715941078	4.854797	2.2033603
6.742924770850719	4.869706	2.206741
6.760481984232151	4.9272604	2.2197433
6.778039356501836	4.9031024	2.214295
6.795596888076266	4.898126	2.213171
6.813154579371963	4.88483	2.2101653
6.830712430805492	4.863655	2.2053697
6.84827044279344	4.857845	2.204052
6.865828615752445	4.8255816	2.1967206
6.883386950099159	4.881567	2.2094269
6.900945446250287	4.980069	2.231607
6.918504104622553	5.010334	2.2383776
6.936062925632727	5.0195193	2.2404284
6.953621909697607	5.0166674	2.2397919
6.971181057234028	5.042656	2.245586
6.988740368658859	5.1129355	2.2611802
7.006299844389007	5.1973333	2.279766
7.023859484841407	5.2421126	2.289566
7.041419290433036	5.2879434	2.299553
7.058979261580902	5.4207153	2.328243
7.0765393987020495	5.6546025	2.377941
7.094099702213559	6.080981	2.4659646
7.111660172532549	6.43039	2.5358214
7.129220810076164	6.7434745	2.59682
7.146781615261595	7.3411417	2.709454
7.16434258850606	7.5002246	2.738654
7.181903730226821	7.929711	2.8159742
7.1994650408411704	8.056462	2.8383908
7.217026520766437	8.217998	2.866705
7.234588170419983	8.445143	2.9060528
7.252149990219215	8.445437	2.9061034
7.269711980581568	8.310275	2.8827548
7.2872741419245175	8.09502	2.845175
7.304836474665574	7.670286	2.7695282
7.322398979222286	7.357211	2.7124178
7.339961656012233	7.0625725	2.65755
7.357524505453039	6.720247	2.5923438
7.375087527962357	6.4213657	2.5340414
7.392650723957886	6.136626	2.4772215
7.410214093857353	5.8176813	2.411987
7.427777638078528	5.6476583	2.3764803
7.445341357039213	5.509855	2.347308
7.4629052511572525	5.3339934	2.309544
7.480469320850524	5.272181	2.296123
7.498033566536948	5.2282176	2.2865295
7.5155979886344735	5.159729	2.2715037
7.5331625875610975	5.122164	2.2632198
7.550727363734844	5.0819254	2.2543125
7.568292317573788	5.122054	2.2631955
7.585857449496025	5.1948633	2.2792244
7.603422759919705	5.1678934	2.2733002
7.620988249263007	5.1043744	2.2592862
7.638553917944147	5.0507393	2.247385
7.656119766381391	5.0686965	2.2513766
7.673685794993023	5.115875	2.2618299
7.691252004197388	5.105269	2.2594843
7.70881839441285	5.1372957	2.2665603
7.726384966057826	5.167273	2.2731636
7.743951719550762	5.242633	2.2896795
7.761518655310149	5.2328563	2.2875438
7.779085773754511	5.263872	2.294313
7.796653075302419	5.275702	2.2968895
7.814220560372475	5.29752	2.3016343
7.831788229383323	5.2317195	2.2872953
7.8493560827536495	5.194517	2.2791483
7.866924120902174	5.213318	2.2832692
7.884492344247663	5.2142663	2.2834768
7.9020607532089135	5.1926003	2.2787278
7.919629348204771	5.20878	2.2822752
7.937198129654115	5.2792153	2.2976544
7.954767097975865	5.344588	2.3118365
7.972336253588986	5.3144374	2.3053064
7.989905596912472	5.2994905	2.3020623
8.007475128365371	5.3325553	2.3092327
8.025044848366756	5.4212127	2.3283498
8.042614757335754	5.551166	2.3560913
8.060184855691523	5.584687	2.3631942
8.07775514385327	5.6796017	2.3831916
8.095325622240228	5.6892576	2.3852165
8.112896291271687	5.7347393	2.3947315
8.130467151366968	5.8373566	2.416062
8.148038202945436	5.9376636	2.436732
8.165609446426497	6.0180216	2.4531655
8.183180882229594	6.0120234	2.4519427
8.200752510774217	5.895561	2.4280777
8.218324332479893	5.8227262	2.4130325
8.235896347766193	5.806832	2.4097369
8.253468557052724	5.8276215	2.4140468
8.27104096075914	5.85491	2.419692
8.288613559305137	5.8921685	2.427379
8.306186353110448	5.9702573	2.443411
8.32375934259485	6.034703	2.4565632
8.341332528178162	6.078217	2.465404
8.358905910280246	6.1641035	2.4827614
8.376479489321003	6.1798425	2.485929
8.394053265720377	6.2082825	2.4916425
8.411627239898356	6.2424426	2.498488
8.42920141227497	6.2504187	2.5000837
8.44677578327029	6.2138133	2.492752
8.464350353304427	6.10079	2.4699779
8.48192512279754	6.0558147	2.4608564
8.499500092169827	6.074276	2.4646046
8.51707526184153	6.0678663	2.463304
8.534650632232934	6.16088	2.482112
8.552226203764365	6.162272	2.4823923
8.569801976856192	6.195524	2.489081
8.587377951928834	6.176785	2.485314
8.60495412940274	6.197792	2.4895365
8.622530509698416	6.2364445	2.4972875
8.6401070932364	6.389415	2.5277293
8.657683880437283	6.500173	2.5495436
8.675260871721695	6.6438985	2.5775762
8.692838067510303	6.748299	2.5977488
8.710415468223834	6.946324	2.635588
8.727993074283043	7.076823	2.66023
8.745570886108737	7.0831795	2.6614244
8.763148904121765	7.0910587	2.6629043
8.78072712874302	7.1048713	2.6654963
8.798305560393441	7.4070907	2.7215972
8.815884199494006	7.5815268	2.7534573
8.833463046465745	7.7370434	2.7815542
8.851042101729728	7.786548	2.7904387
8.86862136570707	8.106268	2.8471508
8.886200838818924	8.26994	2.8757503
8.903780521486505	8.334634	2.8869765
8.921360414131055	8.449038	2.9067228
8.938940517173874	8.5397625	2.9222872
8.956520831036297	8.666195	2.9438403
8.97410135613971	8.901982	2.983619
8.99168209290554	9.133523	3.022172
9.009263041755265	9.45983	3.0756836
9.026844203110405	9.688226	3.1125915
9.044425577392525	9.871174	3.1418424
9.062007165023239	9.974021	3.1581674
9.079588966424197	10.154715	3.1866462
9.097170982017108	10.203946	3.1943617
9.11475321222372	11.099558	3.3316
9.132335657465825	11.940903	3.4555612
9.149918318165264	12.029555	3.468365
9.167501194743924	12.518458	3.5381434
9.18508428762374	12.237652	3.4982355
9.202667597226693	12.237831	3.4982612
9.220251123974803	11.941175	3.4556005
9.237834868290143	11.732961	3.425341
9.255418830594836	11.653723	3.413755
9.273003011311046	11.09986	3.3316453
9.290587410860985	10.859937	3.2954419
9.308172029666911	10.205659	3.1946297
9.32575686815113	9.9605875	3.15604
9.343341926735997	8.738339	2.9560683
9.360927205843916	8.44104	2.9053469
9.378512705897327	8.204945	2.8644276
9.396098427318728	8.048264	2.8369462
9.413684370530664	8.019015	2.8317866
9.431270535955722	7.904007	2.8114066
9.448856924016539	7.8104444	2.7947173
9.466443535135806	7.6749887	2.770377
9.484030369736251	7.7228928	2.7790093
9.501617428240658	7.761481	2.7859435
9.519204711071852	7.7812967	2.7894976
9.536792218652714	7.7567277	2.7850902
9.55437995140617	7.8487506	2.801562
9.571967909755191	7.8409195	2.8001642
9.589556094122802	7.888496	2.8086467
9.60714450493207	7.816751	2.7958453
9.624733142606116	7.782849	2.7897758
9.642322007568108	7.8116355	2.7949302
9.659911100241267	7.8809977	2.8073115
9.677500421048851	7.9506516	2.81969
9.695089970414175	8.036809	2.8349266
9.712679748760609	8.043511	2.8361084
9.730269756511557	8.065606	2.840001
9.747859994090492	8.062708	2.839491
9.765450461920915	8.113924	2.848495
9.78304116042639	8.134403	2.8520875
9.800632090030527	8.180795	2.8602087
9.81822325115699	8.176715	2.8594956
9.835814644229481	8.223013	2.8675797
9.853406269671762	8.2492695	2.8721542
9.870998127907646	8.253707	2.8729265
9.888590219360985	8.254373	2.8730423
9.906182544455698	8.300601	2.8810763
9.923775103615734	8.348651	2.889403
9.941367897265108	8.403356	2.8988543
9.958960925827878	8.366259	2.8924487
9.97655418972816	8.252416	2.872702
9.994147689390106	8.13288	2.8518205
10.011741425237934	8.027147	2.8332222
10.029335397695904	8.026028	2.8330245
10.04692960718833	8.10437	2.8468175
10.06452405413958	8.130175	2.851346
10.082118738974064	8.131459	2.8515713
10.099713662116246	8.15655	2.8559675
10.117308823990651	8.162005	2.8569224
10.134904225021844	8.136093	2.8523839
10.152499865634445	8.056555	2.838407
10.170095746253125	7.9863276	2.826009
10.18769186730261	7.965046	2.8222413
10.205288229207675	8.013359	2.8307877
10.222884832393145	8.030333	2.833784
10.2404816772839	8.0441265	2.836217
10.258078764304868	8.027017	2.833199
10.275676093881035	8.036884	2.83494
10.293273666437438	7.963274	2.8219273
10.310871482399158	7.9449406	2.8186772
10.32846954219134	7.9907565	2.8267927
10.346067846239173	8.035402	2.8346784
10.363666394967908	8.025828	2.8329892
10.38126518880283	8.0471945	2.8367577
10.398864228169298	8.100179	2.8460813
10.416463513492713	8.134973	2.8521874
10.434063045198531	8.150675	2.8549387
10.451662823712262	8.162254	2.856966
10.469262849459467	8.119305	2.8494394
10.486863122865758	8.075468	2.8417368
10.504463644356806	7.974914	2.8239892
10.522064414358338	7.9535394	2.820202
10.539665433296118	7.8782425	2.8068206
10.557266701595987	7.840751	2.8001342
10.574868219683818	7.696992	2.7743454
10.592469987985552	7.631278	2.7624767
10.610072006927185	7.467953	2.7327557
10.627674276934751	7.3864374	2.7178001
10.64527679843435	7.306478	2.7030497
10.662879571852143	7.279784	2.6981075
10.680482597614331	7.149586	2.673871
10.698085876147173	7.025147	2.6504993
10.715689407876988	6.9507265	2.636423
10.733293193230146	6.8762417	2.622259
10.750897232633072	6.711307	2.590619
10.76850152651225	6.531393	2.555659
10.786106075294207	6.4150896	2.5328028
10.803710879405534	6.425675	2.5348916
10.821315939272877	6.418041	2.5333853
10.83892125532294	6.35259	2.5204346
10.856526827982472	6.2597885	2.501957
10.874132657678285	6.2117414	2.4923365
10.891738744837243	6.1318903	2.4762654
10.909345089886271	6.0535383	2.460394
10.926951693252343	6.006075	2.4507294
10.944558555362494	5.9403734	2.437288
10.96216567664381	5.895046	2.4279716
10.979773057523436	5.8562584	2.4199708
10.997380698428573	5.812886	2.4109929
11.014988599786477	5.75005	2.397926
11.032596762024461	5.6861672	2.3845685
11.050205185569892	5.6506147	2.3771021
11.067813870850198	5.541349	2.354007
11.085422818292859	5.415864	2.327201
11.10303202832541	5.3523884	2.313523
11.120641501375454	5.343912	2.3116903
11.138251237870636	5.2937546	2.300816
11.155861238238671	5.1935177	2.278929
11.173471502907317	5.1321282	2.2654202
11.191082032304402	5.0793295	2.2537367
11.208692826857805	5.0690303	2.2514508
11.226303886995465	4.9595904	2.2270138
11.243915213145371	4.9012127	2.2138684
11.261526805735578	4.9028325	2.214234
11.279138665194196	4.8944535	2.212341
11.296750791949393	4.8982735	2.2132044
11.314363186429393	4.84966	2.2021945
11.331975849062479	4.7959642	2.189969
11.34958878027699	4.7090225	2.1700282
11.36720198050133	4.6283994	2.1513715
11.384815450163948	4.550289	2.1331406
11.402429189693366	4.5103416	2.1237564
11.420043199518153	4.479441	2.1164691
11.437657480066942	63.45886	7.966107
11.455272031768422	85.175934	9.229081
11.472886855051353	107.57732	10.371948
11.490501950344528	99.15952	9.957888
11.508117318076819	84.49021	9.191855
11.52573295867715	45.80395	6.767862
11.543348872574514	4.0692754	2.0172446
11.560965060197946	4.004233	2.0010579
11.57858152197655	3.9718578	1.992952
11.59619825833949	3.9069645	1.9766043
11.613815269715985	3.9464839	1.986576
11.631432556535323	38.476517	6.2029443
11.649050119226837	83.02934	9.112043
11.666667958219929	93.40164	9.664453
11.68428607394406	107.66773	10.376307
11.701904466828756	82.51478	9.083764
11.719523137303586	65.37258	8.085331
11.737142085798196	4.560296	2.135485
11.754761312742286	3.6920729	1.9214767
11.772380818565619	3.6742945	1.916845
11.790000603698015	3.6390529	1.9076302
11.80762066856935	3.5739043	1.8904773
11.825241013609572	3.5117776	1.8739737
11.842861639248683	3.4647346	1.8613797
11.860482545916748	3.4405713	1.8548777
11.878103734043883	3.4233887	1.8502402
11.895725204060282	3.3901272	1.8412298
11.91334695639619	3.3816912	1.8389375
11.930968991481919	3.3471875	1.829532
11.948591309747824	3.288272	1.8133593
11.966213911624347	3.2539465	1.8038698
11.98383679754198	3.2355318	1.7987584
12.001459967931268	3.222867	1.7952346
12.019083423222835	3.2408655	1.8002404
12.036707163847352	3.2172654	1.7936738
12.05433119023556	3.1832955	1.7841792
12.071955502818259	3.1649356	1.7790266
12.089580102026313	3.15169	1.7753
12.107204988290643	3.160433	1.7777607
12.12483016204224	3.1405263	1.772153
12.142455623712152	3.1238508	1.7674419
12.16008137373149	3.0772498	1.7542092
12.177707412531431	3.05104	1.7467226
12.19533374054321	3.046003	1.7452803
12.212960358198126	3.0327125	1.7414684
12.230587265927545	2.9880028	1.728584
12.248214464162889	2.9479876	1.7169704
12.265841953335649	2.9406316	1.714827
12.283469733877375	2.9365237	1.7136288
12.301097806219685	2.923187	1.709733
12.31872617079425	2.9084198	1.705409
12.336354828032825	2.9272783	1.710929
12.353983778367205	2.925632	1.7104479
12.371613022229262	2.9195728	1.7086757
12.389242560050928	2.9155214	1.7074898
12.406872392264201	2.9134836	1.706893
12.424502519301143	2.8883362	1.6995106
12.442132941593874	2.8549204	1.689651
12.459763659574586	2.85038	1.6883068
12.477394673675532	2.8398669	1.6851904
12.49502598432903	2.8230147	1.6801829
12.51265759196746	2.8112972	1.6766924
12.530289497023267	2.7827468	1.6681567
12.547921699928967	2.750129	1.6583513
12.565554201117134	2.6937246	1.641257
12.583187001020404	2.7221353	1.6498895
12.600820100071486	2.7534578	1.6593547
12.618453498703152	2.7608674	1.6615858
12.636087197348235	2.7517488	1.6588396
12.65372119643964	2.742052	1.6559143
12.671355496410326	2.8160317	1.6781036
12.68899009769333	2.8732872	1.6950773
12.706625000721749	2.9030428	1.7038318
12.724260205928752	2.9005973	1.703114
12.741895713747551	2.8687515	1.6937389
12.759531524611454	2.8805885	1.6972296
12.777167638953818	2.9251602	1.71031
12.794804057208072	2.9253833	1.7103752
12.812440779807702	2.9902065	1.7292213
12.830077807186271	3.1612327	1.7779856
12.847715139777405	3.2122524	1.7922758
12.865352778014795	3.4220178	1.8498697
12.882990722332197	3.4883804	1.8677206
12.90062897316344	3.5738451	1.8904616
12.918267530942412	3.6200876	1.9026527
12.935906396103071	3.5246537	1.8774061
12.953545569079449	3.675551	1.9171727
12.971185050305628	3.4954364	1.8696086
12.988824840215775	3.48995	1.8681408
13.006464939244115	3.5052025	1.8722186
13.024105347824943	3.39907	1.8436567
13.041746066392617	3.5099335	1.8734816
13.05938709538157	3.3246286	1.8233564
13.077028435226296	3.2712564	1.8086615
13.094670086361363	3.154338	1.7760456
13.112312049221401	3.1021404	1.7612895
13.129954324241112	3.085033	1.7564262
13.147596911855258	2.915976	1.7076229
13.165239812498685	2.8800611	1.6970743
13.182883026606293	2.7874591	1.6695685
13.200526554613058	2.7377117	1.6546031
13.218170396954017	2.7045379	1.6445479
13.235814554064284	2.6991487	1.6429086
13.253459026379034	2.7239373	1.6504354
13.271103814333523	2.68199	1.6376783
13.288748918363058	2.6927903	1.6409724
13.306394338903031	2.6825645	1.6378536
13.32404007638889	2.6809893	1.6373726
13.341686131256164	2.6686244	1.6335925
13.359332503940449	2.6459916	1.6266505
13.376979194877402	2.661215	1.6313231
13.394626204502751	2.6755013	1.6356959
13.412273533252307	2.662536	1.6317279
13.429921181561937	2.651	1.6281892
13.447569149867581	2.658801	1.630583
13.465217438605247	2.650582	1.6280608
13.482866048211022	2.6351998	1.6233299
13.500514979121052	2.6884549	1.6396508
13.518164231771568	2.6851096	1.6386304
13.535813806598844	2.6919775	1.6407247
13.553463704039254	2.6531131	1.628838
13.571113924529229	2.6667604	1.6330218
13.588764468505275	2.702074	1.6437987
13.606415336403956	2.715716	1.6479429
13.624066528661917	2.7094214	1.646032
13.641718045715882	2.7461865	1.6571622
13.659369888002635	2.8219545	1.6798674
13.67702205595903	2.8700192	1.6941131
13.694674550021993	2.9206336	1.7089862
13.712327370628532	2.9904191	1.7292829
13.729980518215713	3.067427	1.7514071
13.747633993220681	3.1208365	1.7665889
13.765287796080647	3.1683245	1.7799788
13.7829419272329	3.2253075	1.795914
13.800596387114801	3.2599041	1.8055204
13.818251176163775	3.2867677	1.8129445
13.835906294817324	3.3340192	1.8259296
13.853561743513023	3.3798397	1.838434
13.871217522688525	3.4140902	1.8477256
13.888873632781538	3.449359	1.857245
13.906530074229858	3.473113	1.863629
13.92418684747135	3.4941971	1.8692771
13.941843952943948	3.4608984	1.8603489
13.959501391085665	3.3883815	1.8407557
13.977159162334578	3.3327804	1.8255904
13.994817267128846	3.3531702	1.8311664
14.012475705906693	3.3281584	1.8243241
14.030134479106424	3.309075	1.8190863
14.047793587166414	3.1770337	1.7824235
14.065453030525108	3.0971324	1.7598672
14.083112809621026	2.980451	1.7263983
14.100772924892766	2.9475646	1.7168473
14.118433376778997	2.8828528	1.6978966
14.136094165718458	2.8359048	1.6840146
14.153755292149969	2.7218847	1.6498135
14.171416756512416	2.6726952	1.634838
14.189078559244768	2.5750709	1.6047027
14.20674070078606	2.5034392	1.582226
14.224403181575408	2.4559271	1.5671397
14.242066002051999	2.4461682	1.564023
14.259729162655093	2.4648192	1.5699743
14.277392663824022	2.443441	1.563151
14.295056505998208	2.429085	1.5585523
14.312720689617128	2.398335	1.5486559
14.330385215120348	2.3547804	1.5345293
14.348050082947497	2.338734	1.529292
14.3657152935383	2.3315992	1.5269575
14.383380847332528	2.3445385	1.5311886
14.401046744770051	2.3488505	1.532596
14.418712986290798	2.3706956	1.5397063
14.436379572334793	2.365676	1.5380754
14.454046503342123	2.3874142	1.545126
14.471713779752946	2.3637657	1.5374542
14.489381402007504	2.3856487	1.5445546
14.507049370546113	2.3775556	1.5419325
14.524717685809168	2.3808293	1.5429937
14.542386348237134	2.3536477	1.5341603
14.560055358270553	2.3465786	1.5318546
14.577724716350051	2.3993628	1.5489876
14.595394422916325	2.4268901	1.557848
14.61306447841015	2.4444187	1.5634637
14.63073488327237	2.4415145	1.5625347
14.648405637943917	2.487761	1.5772638
14.6660767428658	2.5108542	1.5845675
14.683748198479094	2.5312269	1.590983
14.701420005224954	2.535824	1.5924271
14.719092163544628	2.609934	1.6155291
14.73676467387942	2.653921	1.6290859
14.754437536670727	2.6516135	1.6283776
14.772110752360014	2.629966	1.621717
14.78978432138882	2.6519125	1.6284693
14.807458244198777	2.6885824	1.6396897
14.82513252123159	2.6956413	1.6418408
14.842807152929028	2.7337408	1.6534028
14.860482139732962	2.7322044	1.6529381
14.87815748208531	2.6780837	1.6364851
14.8958331804281	2.6669543	1.6330812
14.91350923520342	2.6332839	1.6227397
14.931185646853438	2.6629562	1.6318567
14.948862415820408	2.6403599	1.6249185
14.966539542546656	2.6602023	1.6310127
14.98421702747459	2.6274552	1.6209427
15.001894871046696	2.6207852	1.618884
15.019573073705542	2.6296098	1.6216072
15.037251635893766	2.6483045	1.6273612
15.054930558054092	2.6785517	1.6366282
15.072609840629323	2.670443	1.6341491
15.090289484062351	2.7467124	1.6573209
15.107969488796124	2.8650193	1.6926368
15.125649855273691	3.081205	1.7553362
15.14333058393817	3.5297241	1.878756
15.161011675232768	4.114298	2.0283732
15.17869312960076	4.7580204	2.1812887
15.196374947485506	5.416125	2.327257
15.214057129330447	6.7580166	2.5996184
15.231739675579114	8.880941	2.9800909
15.249422586675102	13.381903	3.6581283
15.267105863062092	17.847506	4.224631
15.284789505183847	25.034555	5.003454
15.302473513484218	29.843056	5.4628797
15.320157888407127	33.987015	5.8298383
15.337842630396578	32.875526	5.7337184
15.355527739896656	30.077515	5.4842973
15.37321321735153	23.37466	4.834735
15.39089906320545	15.93717	3.9921386
15.408585277902748	10.228357	3.1981802
15.42627186188783	6.368563	2.5236013
15.443958815605198	4.635389	2.1529953
15.461646139499424	3.8473146	1.9614573
15.479333834015168	3.432035	1.8525752
15.497021899597165	3.0589395	1.7489824
15.514710336690234	2.8025649	1.6740863
15.53239914573928	2.654327	1.6292105
15.550088327189297	2.6147277	1.617012
15.567777881485336	2.6402974	1.6248991
15.58546780907256	2.6450002	1.6263456
15.6031581103962	2.584266	1.6075652
15.620848785901568	2.5296795	1.5904967
15.638539836034063	2.4485528	1.5647852
15.656231261239173	2.4016907	1.5497389
15.673923061962451	2.412269	1.5531482
15.691615238649552	2.444281	1.5634197
15.709307791746202	2.431823	1.5594304
15.727000721698221	2.3863916	1.544795
15.744694028951498	2.347932	1.5322963
15.76238771395202	2.3328702	1.5273737
15.780081777145844	2.331879	1.5270491
15.797776218979125	2.3300047	1.5264353
15.815471039898094	2.3433151	1.530789
15.833166240349064	2.380777	1.5429766
15.850861820778437	2.410745	1.5526574
15.868557781632699	2.4209802	1.5559499
15.886254123358412	2.4294674	1.5586749
15.903950846402232	2.463514	1.5695586
15.921647951210897	2.4802551	1.5748826
15.939345438231225	2.53861	1.5933017
15.957043307910133	2.5537052	1.5980316
15.974741560694602	2.5418618	1.5943217
15.992440197031714	2.531083	1.5909379
16.01013921736862	2.5174525	1.5866482
16.02783862215259	2.5057766	1.5829645
16.045538411830933	2.4684474	1.5711293
16.06323858685107	2.4430432	1.5630238
16.080939147660512	2.40937	1.5522145
16.09864009470684	2.4091806	1.5521536
16.11634142843774	2.4292061	1.5585911
16.134043149300954	2.4691715	1.5713598
16.15174525774433	2.4512067	1.5656329
16.169447754215817	2.4531643	1.5662581
16.18715063916342	2.433815	1.560069
16.204853913035244	2.430833	1.5591129
16.222557576279478	2.417865	1.5549486
16.240261629344403	22.39479	4.7323136
16.257966072678386	42.930122	6.5521083
16.275670906729868	38.04794	6.168301
16.293376131947387	2.4918911	1.5785725
16.31108174877957	2.5090866	1.5840096
16.328787757675133	2.5452492	1.5953838
16.34649415908287	2.578371	1.6057307
16.364200953451657	2.608408	1.6150566
16.38190814123048	2.6511142	1.6282243
16.39961572286839	2.6735625	1.6351032
16.41732369881455	2.714937	1.6477066
16.43503206951817	2.7631571	1.6622747
16.45274083542859	2.8044584	1.6746517
16.47044999699522	2.7845883	1.6687086
16.488159554667558	2.8021972	1.6739764
16.505869508895184	2.8495243	1.6880534
16.523579860127786	2.930014	1.7117283
16.541290608815117	2.9581082	1.7199152
16.559001755407035	2.9728968	1.7242091
16.57671330035348	3.0270262	1.7398351
16.59442524410448	3.1670427	1.7796187
16.61213758711015	3.3828702	1.8392581
16.629850329820705	3.482925	1.8662596
16.647563472686436	3.488733	1.867815
16.665277016157724	3.4289265	1.8517361
16.682990960685053	3.3996854	1.8438236
16.70070530671898	3.3995173	1.843778
16.718420054710155	3.4420378	1.855273
16.736135205109335	3.5170903	1.8753908
16.753850758367335	3.562254	1.8873935
16.771566714935087	3.578699	1.891745
16.789283075263597	3.6624825	1.9137614
16.80699983980398	3.783542	1.9451329
16.82471700900741	3.8600943	1.9647123
16.84243458332518	3.8982587	1.9744009
16.860152563208665	3.9201689	1.9799416
16.87787094910932	3.9945369	1.9986337
16.89558974147871	4.0462713	2.0115345
16.913308940768466	4.105874	2.0262957
16.931028547430333	4.147091	2.0364408
16.94874856191613	4.1733155	2.0428693
16.966468984677785	4.2612495	2.0642793
16.98418981616729	4.3460827	2.084726
17.00191105683676	4.4139175	2.1009326
17.019632707138374	4.397425	2.097004
17.03735476752442	4.399611	2.097525
17.05507723844728	4.485111	2.117808
17.072800120359403	4.602085	2.145247
17.090523413713353	4.6559052	2.1577547
17.108247118961785	4.66981	2.1609743
17.125971236557437	4.658771	2.1584187
17.143695766953133	4.649802	2.15634
17.161420710601806	4.617373	2.1488073
17.179146067956477	4.5953255	2.143671
17.19687183947025	4.6139336	2.148007
17.21459802559634	4.607503	2.1465094
17.232324626788028	4.6155543	2.148384
17.25005164349871	4.620342	2.149498
17.267779076181863	4.60792	2.1466067
17.285506925291074	4.5654316	2.136687
17.30323519127999	4.536858	2.12999
17.320963874602384	4.5312214	2.1286666
17.33869297571211	4.5117497	2.124088
17.356422495063114	4.4938807	2.1198776
17.37415243310944	4.4835057	2.117429
17.391882790305218	4.4668474	2.1134918
17.40961356710468	4.4424176	2.1077044
17.42734476396215	4.4798536	2.1165664
17.445076381332044	4.484431	2.1176474
17.462808419668868	4.531307	2.1286867
17.48054087942723	4.5886173	2.1421058
17.498273761061835	4.704501	2.1689863
17.51600706502747	5.0379457	2.2445369
17.533740791779024	5.681066	2.3834987
17.551474941771485	6.623533	2.5736225
17.56920951545993	8.586661	2.9303005
17.586944513299528	9.837092	3.136414
17.60467993574556	12.75621	3.5715837
17.622415783253373	15.419082	3.926714
17.64015205627843	18.140451	4.259161
17.657888755276293	20.330809	4.50897
17.675625880702604	21.811617	4.670291
17.69336343301311	20.415901	4.518396
17.71110141266366	18.32069	4.2802677
17.728839820110178	15.620283	3.9522505
17.746578655808705	12.446264	3.5279264
17.764317920215372	10.3540745	3.2177749
17.7820576137864	8.648671	2.9408624
17.79979773697811	7.306775	2.7031047
17.81753829024692	6.057084	2.4611144
17.835279274049356	5.2225485	2.2852895
17.85302068884201	4.488983	2.118722
17.870762535081607	4.1238375	2.0307233
17.888504813224934	3.8850095	1.9710428
17.90624752372891	3.755827	1.9379956
17.923990667050536	3.6417487	1.9083366
17.941734243646895	3.5634186	1.887702
17.959478253975185	3.4889066	1.8678615
17.9772226984927	3.4364164	1.8537574
17.994967577656833	3.4176812	1.8486972
18.01271289192506	3.4083717	1.8461776
18.030458641754965	3.3808653	1.8387129
18.04820482760425	3.3545365	1.8315394
18.06595144993067	3.346214	1.829266
18.083698509192125	3.3287365	1.8244826
18.101446005846576	3.2876768	1.8131952
18.119193940352105	3.2330873	1.7980788
18.136942313166887	3.1777637	1.7826283
18.1546911247492	3.1545603	1.7761081
18.1724403755574	3.1385179	1.7715863
18.19019006604997	3.127072	1.768353
18.207940196685467	3.0997417	1.7606083
18.225690767922575	3.0611174	1.749605
18.243441780220046	3.063895	1.7503985
18.261193234036764	3.042674	1.7443262
18.278945129831676	3.0384073	1.7431028
18.29669746806386	3.0078037	1.734302
18.314450249192483	3.022374	1.7384976
18.3322034736768	3.0470726	1.7455866
18.349957141976184	3.1134605	1.7645001
18.3677112545501	3.1360352	1.7708855
18.385465811858108	3.0946503	1.7591618
18.403220814359884	3.0757716	1.7537878
18.420976262515172	3.0955598	1.7594203
18.43873215678387	3.1141238	1.764688
18.456488497625923	3.104244	1.7618865
18.474245285501407	3.1945412	1.787328
18.492002520870486	3.289244	1.8136272
18.50976020419343	3.3814933	1.8388838
18.527518335930615	3.604689	1.8986018
18.545276916542516	4.1507173	2.0373309
18.563035946489688	4.371775	2.090879
18.580795426232832	4.8388815	2.199746
18.598555356232698	4.72322	2.173297
18.616315736950185	4.9336205	2.2211754
18.63407656884626	4.5866175	2.141639
18.65183785238201	4.777032	2.1856422
18.669599588018617	4.6439204	2.1549757
18.68736177621737	4.59296	2.143119
18.705124417439652	4.560235	2.1354706
18.72288751214696	4.3822947	2.093393
18.740651060800886	4.538735	2.1304307
18.758415063863115	4.261925	2.064443
18.77617952179546	4.406684	2.0992103
18.793944435059814	4.2206936	2.0544326
18.811709804118184	4.238451	2.05875
18.829475629432675	4.2089605	2.0515752
18.8472419114655	4.0023212	2.0005803
18.86500865067897	4.0672235	2.0167358
18.88277584753551	3.7277772	1.9307452
18.90054350249763	3.72349	1.9296347
18.918311616027957	3.4147267	1.8478979
18.936080188589226	3.3175108	1.8214035
18.953849220644265	3.0453773	1.745101
18.971618712656007	2.8732357	1.6950622
18.9893886650875	2.7882826	1.6698152
19.007159078401887	7.9623823	2.8217695
19.024929953062408	32.865833	5.732873
19.042701289532435	32.804924	5.727558
19.060473088275405	25.320387	5.0319366
19.07824534975489	2.5846722	1.6076915
19.096018074434568	2.6096466	1.61544
19.113791262778197	2.608872	1.6152003
19.13156491524966	2.5906885	1.6095616
19.149339032312945	2.5767434	1.6052238
19.167113614432136	2.5441897	1.5950516
19.184888662071433	2.496683	1.5800896
19.202664175695123	2.4746609	1.5731055
19.220440155767623	2.512863	1.5852013
19.238216602753447	2.5270526	1.5896707
19.2559935171172	2.516085	1.5862172
19.27377089932361	2.5119152	1.5849023
19.291548749837514	2.4935377	1.5790939
19.309327069123835	2.4848082	1.5763274
19.32710585764763	2.484653	1.5762782
19.344885115874032	2.499816	1.5810807
19.362664844268313	2.4887054	1.5775632
19.380445043295822	2.473032	1.5725877
19.39822571342203	2.4768975	1.5738162
19.41600685511252	2.4708297	1.5718873
19.43378846883297	2.4730217	1.5725844
19.451570555049173	2.4813135	1.5752186
19.469353114227037	2.5036035	1.5822779
19.48713614683254	2.5027027	1.5819932
19.50491965333182	2.4696534	1.571513
19.52270363419109	2.459698	1.5683424
19.540488089876686	2.462109	1.5691109
19.55827302085503	2.4762852	1.5736216
19.576058427592674	2.473223	1.5726484
19.593844310556282	2.4890728	1.5776795
19.611630670212598	2.4902973	1.5780675
19.629417507028506	2.4566877	1.5673825
19.64720482147098	2.4377809	1.5613395
19.6649926140071	2.4714015	1.5720692
19.682780885104084	2.500317	1.5812391
19.70056963522921	2.472975	1.5725696
19.718358864849908	2.4704509	1.5717669
19.7361485744337	2.4708178	1.5718836
19.753938764448215	2.472602	1.5724509
19.771729435361202	2.47697	1.5738392
19.789520587640506	2.4956827	1.579773
19.807312221754092	2.5105631	1.5844756
19.825104338170043	2.521232	1.5878388
19.842896937356517	2.5173826	1.5866262
19.860690019781824	2.5168378	1.5864545
19.87848358591436	2.4863393	1.576813
19.896277636222635	2.4940245	1.5792481
19.914072171175278	2.472608	1.5724529
19.931867191241015	2.46151	1.56892
19.94966269688869	2.4468951	1.5642555
19.967458688587264	2.3977559	1.5484688
19.985255166805807	2.373867	1.5407358
20.00305213201348	2.4098191	1.5523592
20.020849584679578	2.4509676	1.5655566
20.038647525273507	2.440617	1.5622474
20.05644595426477	2.4335175	1.5599736
20.07424487212299	2.4333448	1.5599182
20.092044279317903	2.4461088	1.5640041
20.109844176319353	2.46522	1.5701019
20.127644563597304	2.467688	1.5708877
20.145445441621817	2.4186077	1.5551873
20.16324681086307	2.3558066	1.5348637
20.181048671791373	2.292027	1.5139441
20.198851024877122	2.3070624	1.5189017
20.216653870590836	2.3586743	1.5357976
20.234457209403146	2.3976352	1.54843
20.252261041784802	2.3895235	1.5458083
20.270065368206662	2.3649619	1.5378432
20.287870189139685	2.382597	1.5435663
20.305675505054968	2.3846736	1.5442388
20.323481316423702	2.3468323	1.5319375
20.341287623717207	2.2935495	1.514447
20.359094427406884	2.308585	1.5194029
20.376901727964288	2.2923517	1.5140514
20.39470952586107	2.300923	1.5168794
20.41251782156899	2.3389068	1.5293485
20.430326615559935	2.3440523	1.5310298
20.448135908305886	2.3309305	1.5267385
20.465945700278965	2.3107474	1.5201143
20.483755991951384	2.3166187	1.5220443
20.50156678379548	2.3015976	1.5171018
20.519378076283708	2.304881	1.5181835
20.537189869888635	2.3133426	1.5209676
20.55500216508294	2.2939541	1.5145805
20.572814962339415	2.2694583	1.5064721
20.59062826213098	2.266022	1.5053312
20.60844206493066	2.2694588	1.5064723
20.626256371211593	2.2634034	1.5044612
20.644071181447032	2.2641299	1.5047026
20.66188649611036	2.308301	1.5193094
20.67970231567506	2.3480222	1.5323257
20.697518640614742	2.337037	1.5287371
20.715335471403122	2.3392258	1.5294528
20.73315280851404	2.3223453	1.5239244
20.750970652421447	2.2999065	1.5165442
20.768789003599412	2.2748516	1.5082611
20.786607862522136	2.326159	1.5251751
20.8044272296639	2.3309388	1.5267413
20.82224710549913	2.3210156	1.5234879
20.84006749050237	2.3093424	1.519652
20.857888385148268	3.8450449	1.9608786
20.8757097899116	45.95059	6.7786865
20.893531705267254	64.77143	8.04807
20.911354131690224	83.757355	9.151904
20.92917706965566	69.02692	8.308244
20.94700051963877	50.105087	7.0784945
20.96482448211493	29.412035	5.4232864
20.982648957559622	4.149489	2.0370295
21.00047394644843	2.2428803	1.4976249
21.01829944925707	2.2027283	1.4841591
21.036125466461375	2.2004688	1.4833977
21.053951998537297	2.2472231	1.4990741
21.071779045960906	2.2691681	1.5063758
21.089606609208378	2.2731857	1.5077088
21.10743468875603	2.2225926	1.4908363
21.12526328508028	2.1972086	1.4822984
21.143092398657675	2.2056983	1.4851593
21.16092202996488	2.2123134	1.4873848
21.17875217947867	2.1924016	1.480676
21.19658284767596	2.1703136	1.4731984
21.21441403503377	2.1438205	1.4641792
21.232245742029225	2.1215222	1.4565446
21.2500779691396	2.127889	1.4587286
21.26791071684227	2.1482513	1.4656914
21.28574398561475	2.1514034	1.4667664
21.30357777593465	2.1296506	1.4593322
21.321412088279704	2.095076	1.4474378
21.339246923127792	2.108359	1.452019
21.357082280956888	2.12037	1.456149
21.3749181622451	2.1564236	1.4684767
21.392754567470647	2.1665747	1.471929
21.41059149711187	2.1705246	1.47327
21.42842895164726	2.1201022	1.4560571
21.446266931555378	2.0763016	1.4409378
21.464105437314945	2.0556374	1.4337494
21.481944469404798	2.0880811	1.4450194
21.49978402830388	2.0894368	1.4454885
21.51762411449127	2.0550532	1.4335457
21.53546472844617	2.0440333	1.4296969
21.553305870647876	2.0185423	1.4207541
21.571147541575865	2.0231307	1.4223679
21.58898974170967	2.023595	1.4225312
21.60683247152899	2.0570724	1.4342498
21.62467573151363	2.087428	1.4447935
21.642519522143523	2.075186	1.4405506
21.660363843898722	2.0770578	1.4412001
21.6782086972594	2.05631	1.4339839
21.696054082705864	2.0672078	1.4377788
21.713900000718535	2.08176	1.4428306
21.73174645177795	2.0621638	1.4360236
21.749593436364794	2.0292017	1.4245006
21.767440954959845	1.9690928	1.4032437
21.785289008044032	1.9676585	1.4027325
21.803137596098388	2.0065842	1.4165395
21.820986719604086	2.0352473	1.426621
21.838836379042412	2.0135298	1.418989
21.85668657489478	1.9920688	1.4114066
21.87453730764273	2.0024476	1.4150786
21.892388577767914	1.9991232	1.4139036
21.91024038575213	1.9858944	1.4092177
21.928092732077285	1.987457	1.409772
21.945945617225426	2.0148623	1.4194585
21.963799041678694	2.0124907	1.4186229
21.981653005919398	31.320185	5.596444
21.999507510429943	78.10864	8.83791
22.01736255569286	73.0402	8.546356
22.035218142190818	4.143653	2.0355964
22.05307427040661	1.9474792	1.3955212
22.07093094082315	1.9539304	1.3978306
22.088788153923474	1.9398386	1.3927809
22.106645910190746	1.9563549	1.3986976
22.12450421010827	1.9954746	1.4126127
22.142363054159464	2.0186005	1.4207746
22.16022244282787	2.0338726	1.426139
22.178082376597164	2.0051775	1.4160429
22.195942855951145	1.992754	1.4116493
22.213803881373742	1.957839	1.399228
22.231665453349002	1.9322776	1.3900639
22.24952757236111	1.9583304	1.3994036
22.26739023889438	1.9847983	1.4088287
22.28525345343323	1.9588385	1.3995851
22.30311721646225	1.9043283	1.379974
22.320981528466113	1.8884106	1.3741945
22.33884638992964	1.9541808	1.3979201
22.356711801337788	2.0149446	1.4194875
22.37457776317561	1.9984753	1.4136744
22.392444275928337	1.9355724	1.3912485
22.410311340081282	1.8796345	1.3709977
22.428178956119904	1.8963742	1.377089
22.446047124529805	1.9148362	1.3837761
22.46391584579669	1.9458176	1.3949257
22.481785120406414	1.9640489	1.4014453
22.49965494884496	1.9563476	1.398695
22.51752533159841	1.9334022	1.3904684
22.53539626915302	1.9280244	1.3885332
22.553267761995137	1.9511166	1.3968238
22.571139810611264	1.9469451	1.3953297
22.589012415488025	1.941988	1.3935523
22.60688557711216	1.9635588	1.4012704
22.624759295970566	1.964781	1.4017065
22.642633572550263	1.9611126	1.4003973
22.660508407338362	1.9187573	1.3851922
22.67838380082217	1.9456397	1.3948619
22.696259753489077	1.924653	1.3873186
22.714136265826614	1.8988005	1.3779697
22.73201333832246	1.8986624	1.3779196
22.74989097146439	1.9662532	1.4022315
22.76776916574035	1.9599459	1.3999807
22.785647921638393	1.9111853	1.3824563
22.803527239646712	1.8976384	1.377548
22.82140712025363	1.8981992	1.3777515
22.839287563947593	1.8845227	1.3727791
22.85716857121719	1.8865787	1.3735278
22.875050142551135	1.8755296	1.3694998
22.892932278438277	1.8804007	1.371277
22.910814979367604	1.9030911	1.3795257
22.928698245828222	1.958457	1.3994489
22.946582078309387	1.9312215	1.389684
22.96446647730047	1.9192929	1.3853855
22.98235144329098	1.9190512	1.3852983
23.000236976770562	1.9549896	1.3982095
23.018123078229	1.9259845	1.3877984
23.03600974815619	1.9088756	1.3816206
23.053896987042194	1.903468	1.3796623
23.071784795377173	1.8973377	1.3774388
23.08967317365145	1.8794172	1.3709184
23.10756212235546	1.9042747	1.3799546
23.125451641979787	1.9268355	1.388105
23.143341733015134	1.9216435	1.3862336
23.161232395952357	1.9300685	1.389269
23.179123631282426	1.9361902	1.3914706
23.197015439496468	1.9547484	1.3981231
23.214907821085717	1.9541864	1.3979222
23.23280077654157	1.9801316	1.4071715
23.250694306355538	1.9808722	1.4074346
23.268588411019277	1.9858772	1.4092115
23.28648309102458	1.9775213	1.4062437
23.304378346863356	1.9662008	1.4022129
23.322274179027676	1.9586868	1.3995309
23.340170588009723	1.967949	1.4028361
23.358067574301852	1.9509785	1.3967743
23.37596513839651	1.9577209	1.3991858
23.39386328078629	1.9146738	1.3837174
23.411762001963947	1.9408233	1.3931344
23.429661302422353	1.9097133	1.3819238
23.4475611826545	1.9055954	1.3804331
23.46546164315356	1.8812928	1.3716023
23.48336268441279	1.9276773	1.3884082
23.501264306925638	1.9679484	1.4028358
23.51916651118564	1.9637694	1.4013456
23.537069297686497	1.9150218	1.3838431
23.554972666922037	1.8557489	1.3622588
23.57287661938623	1.854558	1.3618215
23.59078115557318	1.866195	1.3660874
23.608686275977128	1.9089822	1.3816592
23.62659198109246	1.9203403	1.3857634
23.6444982714137	1.8885179	1.3742336
23.66240514743549	1.856443	1.3625135
23.68031260965263	1.8971308	1.3773637
23.698220658560068	1.9243028	1.3871924
23.716129294652845	1.9275185	1.388351
23.7340385184262	1.8844426	1.37275
23.75194833037546	1.8903567	1.3749024
23.769858730996123	1.9131433	1.3831642
23.78776972078382	1.934423	1.3908354
23.80568130023431	1.9146956	1.3837253
23.823593469843495	1.9009652	1.378755
23.841506230107424	1.8899173	1.3747426
23.859419581522275	1.86861	1.3669711
23.87733352458438	1.8746063	1.3691626
23.89524805979019	1.881479	1.3716701
23.913163187636318	1.8699878	1.367475
23.931078908619508	1.8982946	1.3777862
23.948995223236633	1.9700105	1.4035707
23.966912131984735	2.037008	1.4272379
23.98482963536096	2.0970216	1.4481096
24.002747733862616	2.0553353	1.433644
24.020666427987155	2.0361304	1.4269304
24.038585718232156	2.021036	1.4216315
24.056505605095353	2.041843	1.4289306
24.074426089074617	2.0729396	1.4397707
24.092347170667946	2.0526712	1.4327146
24.110268850373515	2.0229833	1.4223162
24.128191128689586	2.0233693	1.4224519
24.146114006114626	2.0028975	1.4152377
24.164037483147187	1.9932032	1.4118085
24.181961560286005	2.023148	1.4223741
24.199886238029926	2.0771902	1.441246
24.21781151687797	2.069877	1.4387066
24.235737397329274	2.0674787	1.437873
24.253663879883135	2.0581658	1.4346309
24.271590965038975	2.0969682	1.4480913
24.289518653296376	2.102145	1.4498776
24.30744694515505	2.1015162	1.4496608
24.32537584111486	2.0691898	1.4384679
24.34330534167581	2.015108	1.419545
24.361235447338046	2.0072327	1.4167684
24.379166158601876	2.046628	1.4306041
24.39709747596772	2.0328977	1.4257972
24.41502939993615	2.0243359	1.4227916
24.432961931007917	2.0143206	1.4192677
24.450895069683856	1.9929187	1.4117078
24.468828816465	1.9449059	1.3945988
24.4867631718525	1.8944184	1.3763787
24.504698136347656	1.9395299	1.39267
24.52263371045192	1.9696996	1.4034599
24.540569894666874	1.9982045	1.4135786
24.558506689494266	1.9550537	1.3982323
24.57644409543597	1.9468048	1.3952794
24.594382112994012	1.9312767	1.3897038
24.61232074267057	1.9554679	1.3983805
24.630259984967953	1.9507085	1.3966776
24.64819984038863	1.9525065	1.3973212
24.66614030943522	1.9056765	1.3804624
24.684081392610462	1.9351144	1.3910838
24.702023090417274	1.9687461	1.4031202
24.7199654033587	1.974078	1.4050189
24.737908331937927	1.9946917	1.4123355
24.755851876658305	2.0244877	1.4228449
24.773796038023324	2.087427	1.444793
24.79174081653661	2.0761425	1.4408826
24.809686212701962	2.0630028	1.4363157
24.827632227023294	2.0757694	1.4407531
24.8455788600047	2.0918784	1.4463327
24.8635261121504	2.083537	1.4434463
24.88147398396475	2.077962	1.4415138
24.899422475952303	2.1129408	1.4535958
24.917371588617698	2.1419008	1.4635234
24.935321322465768	2.1619883	1.47037
24.953271678001478	2.2221067	1.4906732
24.97122265572994	2.4287498	1.5584446
24.989174256156414	2.8566377	1.6901591
25.00712647978632	3.482298	1.8660916
25.02507932712521	4.4558697	2.110893
25.043032798678798	5.993229	2.4481072
25.060986894952933	7.6497507	2.7658184
25.078941616453637	9.100351	3.0166788
25.096896963687055	9.924694	3.1503482
25.114852937159508	10.590386	3.2542875
25.132809537377444	10.420292	3.2280476
25.150766764847468	9.648461	3.1061974
25.168724620076347	8.268073	2.8754258
25.186683103570985	7.1151705	2.6674278
25.204642215838426	5.800291	2.4083793
25.222601957385894	4.630757	2.1519194
25.24056232872074	3.577237	1.8913585
25.25852333035048	2.895388	1.701584
25.276484962782778	2.4707448	1.5718603
25.294447226525435	2.2159095	1.4885931
25.312410122086423	2.0397344	1.4281927
25.330373649973843	1.940755	1.3931098
25.348337810695988	1.961836	1.4006555
25.366302604761245	1.9525249	1.3973278
25.384268032678207	1.9152995	1.3839434
25.40223409495558	1.8685241	1.3669397
25.420200792102257	1.9024541	1.3792948
25.438168124627246	1.9110414	1.3824042
25.45613609303974	1.8920003	1.3755001
25.474104697849057	1.8279035	1.3519998
25.492073939564698	1.7992284	1.3413532
25.510043818696285	1.7942088	1.3394808
25.528014335753614	1.8119234	1.3460771
25.54598549124664	1.8431143	1.3576134
25.56395728568544	1.8250772	1.3509542
25.58192971958028	1.8413187	1.356952
25.59990279344156	1.8902835	1.3748758
25.617876507779833	1.9254068	1.3875903
25.635850863105826	1.8938615	1.3761765
25.653825859930386	1.8760018	1.3696722
25.671801498764548	1.8977506	1.3775887
25.68977778011949	1.8968686	1.3772686
25.707754704506524	1.867415	1.3665339
25.725732272437153	1.8818882	1.3718193
25.743710484423012	1.858649	1.3633227
25.761689340975888	1.8676567	1.3666223
25.77966884260774	1.8781586	1.3704592
25.797648989830662	1.8690937	1.367148
25.815629783156922	1.86078	1.3641042
25.83361122309895	1.8157603	1.3475015
25.85159331016929	1.8255053	1.3511126
25.869576044880695	1.843101	1.3576086
25.887559427746034	1.8581275	1.3631315
25.90554345927836	1.8939631	1.3762133
25.92352813999086	1.890767	1.3750516
25.94151347039689	1.8349848	1.354616
25.959499451009965	1.7526156	1.3238639
25.97748608234374	1.7478065	1.3220464
25.995473364912062	1.7792286	1.3338773
26.013461299228904	1.8291034	1.3524435
26.03144988580839	1.8630639	1.364941
26.04943912516483	1.8594018	1.3635988
26.067429017812675	1.8769385	1.3700141
26.085419564266537	1.8815674	1.3717023
26.103410765041186	1.8579472	1.3630654
26.12140262065155	1.8579843	1.363079
26.139395131612723	1.8699881	1.367475
26.157388298439948	1.8636093	1.3651408
26.17538212164861	1.8169478	1.3479421
26.193376601754295	1.8039199	1.3431009
26.211371739272714	1.8254819	1.3511039
26.229367534719746	1.8318248	1.3534492
26.247363988611433	1.8440604	1.3579619
26.26536110146397	1.7900376	1.3379229
26.283358873793727	1.7823442	1.3350446
26.301357306117204	1.8379879	1.3557241
26.319356398951104	1.8309555	1.3531281
26.33735615281224	1.8157524	1.3474985
26.35535656821762	1.7901697	1.3379723
26.373357645684404	1.8015599	1.342222
26.39135938572991	1.800103	1.3416791
26.409361788871614	1.7948742	1.3397292
26.427364855627165	1.7404726	1.3192697
26.445368586514352	1.7563367	1.3252685
26.46337298205115	1.7743702	1.3320549
26.48137804275568	1.8092285	1.3450756
26.499383769146217	1.8311687	1.3532068
26.517390161741215	1.8234297	1.3503443
26.53539722105928	1.8204253	1.3492314
26.553404947619182	1.8407543	1.356744
26.571413341939856	1.9173437	1.3846818
26.589422404540397	1.8658439	1.3659589
26.60743213594006	1.8092977	1.3451014
26.62544253665827	1.8031152	1.3428012
26.64345360721459	1.8215002	1.3496296
26.66146534812879	1.8084357	1.3447809
26.679477759920758	1.7661614	1.3289701
26.69749084311057	1.738624	1.318569
26.71550459821847	1.8118047	1.346033
26.733519025764842	1.8821464	1.3719134
26.751534126270258	1.8212371	1.3495321
26.769549900255434	1.7478452	1.322061
26.787566348241267	1.7486876	1.3223796
26.80558347074881	1.7454419	1.3211517
26.823601268299267	1.7418327	1.3197851
26.841619741414036	1.767107	1.3293258
26.85963889061465	1.813132	1.3465259
26.877658716422832	1.8309656	1.3531318
26.89567921936045	1.8404593	1.3566353
26.913700399949544	1.8372095	1.355437
26.93172225871233	1.8032777	1.3428618
26.949744796171174	1.8126242	1.3463373
26.967768012848605	1.8187646	1.3486158
26.98579190926733	1.8167245	1.3478593
27.003816485950225	1.8618083	1.364481
27.021841743420318	1.8796633	1.3710082
27.039867682200814	1.8123395	1.3462316
27.057894302815072	1.7855804	1.3362561
27.07592160578664	1.8062869	1.3439817
27.0939495916392	1.8352878	1.354728
27.111978260896635	1.7987473	1.3411739
27.13000761408296	1.8020755	1.342414
27.148037651722397	1.7781148	1.3334597
27.166068374339304	1.743619	1.3204616
27.184099782458215	1.7431883	1.3202986
27.20213187660384	1.7403042	1.3192059
27.22016465730105	1.7881958	1.3372344
27.23819812507487	1.8226918	1.3500711
27.256232280450533	1.7960415	1.3401648
27.274267123953383	1.7997911	1.341563
27.292302656108987	1.8086776	1.3448708
27.31033887744306	1.8121341	1.3461553
27.32837578848146	1.8345022	1.354438
27.34641338975026	1.8085368	1.3448185
27.364451681775673	1.8066819	1.3441286
27.382490665084074	1.8183293	1.3484545
27.400530340202046	1.7886153	1.3373913
27.41857070765629	1.7833062	1.3354049
27.436611767973726	1.7922697	1.3387568
27.454653521681404	1.8107232	1.3456311
27.472695969306564	1.8243661	1.350691
27.490739111376627	1.836671	1.3552383
27.508782948419153	1.8297842	1.3526951
27.526827480961902	1.8280447	1.352052
27.54487270953279	1.8327464	1.3537897
27.562918634659898	1.7815045	1.3347301
27.580965256871508	1.7599568	1.3266337
27.599012576696026	1.8071563	1.3443052
27.617060594662068	1.8158108	1.3475202
27.63510931129842	1.8122138	1.3461848
27.65315872713401	1.7900252	1.3379183
27.67120884269797	1.809219	1.3450722
27.68925965851958	1.7781614	1.3334771
27.707311175128307	1.8258021	1.3512224
27.725363393053787	1.9356319	1.3912699
27.74341631282583	1.9688724	1.4031651
27.7614699349744	1.8958145	1.3768858
27.77952426002968	2.050249	1.4318691
27.797579288521973	2.1647148	1.471297
27.815635020981784	2.7140698	1.6474434
27.83369145793979	2.8071558	1.6754569
27.85174859992682	2.6048315	1.6139491
27.869806447473923	2.431943	1.5594687
27.887865001112267	2.0947063	1.44731
27.905924261373233	1.8935211	1.3760527
27.92398422878836	1.8425627	1.3574103
27.94204490388936	1.8636739	1.3651644
27.96010628720813	1.882955	1.372208
27.978168379276728	1.8646456	1.3655202
27.9962311806274	1.831766	1.3534275
28.014294691792568	1.8449813	1.3583009
28.0323589133048	1.8813547	1.3716248
28.050423845696887	1.899307	1.3781534
28.068489489501758	1.8751988	1.369379
28.086555845252523	1.8926337	1.3757303
28.104622913482487	1.89841	1.377828
28.122690694725115	1.8571768	1.3627827
28.14075918951405	1.8458399	1.358617
28.15882839838312	1.8462883	1.3587819
28.176898321866304	1.9379683	1.3921093
28.1949689604978	1.959282	1.3997436
28.213040314811945	1.9332293	1.3904061
28.23111238534327	1.8954749	1.3767625
28.249185172626493	1.886858	1.3736295
28.267258677196473	1.9380049	1.3921224
28.285332899588294	1.9523507	1.3972654
28.303407840337172	1.9433573	1.3940436
28.321483499978545	1.959943	1.3999797
28.33955987904799	2.0162966	1.4199636
28.357636978081285	2.0227814	1.4222451
28.37571479761439	2.0517719	1.4324007
28.393793338183425	2.1070223	1.4515586
28.41187260032469	2.094965	1.4473994
28.429952584574686	2.0390902	1.4279672
28.448033291470065	2.0297112	1.4246794
28.46611472154769	2.0931752	1.4467809
28.484196875344566	2.0906835	1.4459196
28.502279753397914	2.0486956	1.4313265
28.52036335624511	2.0113394	1.418217
28.538447684423716	1.9639156	1.4013977
28.556532738471482	1.953879	1.3978122
28.574618518926325	1.9814361	1.407635
28.59270502632635	1.9816251	1.4077021
28.61079226120985	1.9824473	1.407994
28.628880224115274	1.9984201	1.4136549
28.646968915581287	2.0234709	1.4224876
28.66505833614671	2.0713043	1.4392027
28.68314848635055	2.1150148	1.454309
28.701239366732004	2.0895731	1.4455355
28.71933097783044	2.0655699	1.437209
28.737423320185403	2.069753	1.4386636
28.75551639433665	2.1102102	1.4526563
28.773610200824074	2.1052992	1.4509649
28.791704740187793	2.1046796	1.4507514
28.80980001296809	2.1531324	1.4673556
28.827896019705413	2.1510084	1.4666317
28.845992760940433	2.128445	1.458919
28.86409023721397	2.170808	1.4733663
28.88218844906704	2.2111197	1.4869834
28.900287397040845	2.2143059	1.4880544
28.918387081676755	2.1849282	1.4781502
28.936487503516343	2.2001827	1.4833013
28.954588663101365	2.2636902	1.5045565
28.97269056097374	2.3020134	1.5172387
28.990793197675597	2.2722354	1.5073936
29.00889657374923	2.2956443	1.5151384
29.027000689737125	2.3319507	1.5270725
29.04510554618196	2.3659425	1.538162
29.06321114362659	2.3837306	1.5439335
29.08131748261405	2.44561	1.5638447
29.099424563687567	2.5104609	1.5844433
29.11753238739057	2.6241908	1.6199354
29.13564095426663	2.6932464	1.6411114
29.15375026485954	2.6586242	1.6305288
29.171860319713275	2.6103354	1.6156533
29.18997111937199	2.620248	1.618718
29.20808266438002	2.7114768	1.6466563
29.226194955281898	2.7504687	1.6584537
29.244307992622335	2.80155	1.6737831
29.26242177694624	2.862526	1.6919001
29.2805363087987	2.8827016	1.697852
29.29865158872498	2.8262575	1.6811477
29.316767617270557	2.8417614	1.6857525
29.334884394981064	2.958447	1.7200136
29.353001922402367	3.0474253	1.7456876
29.37112020008047	3.1196775	1.7662609
29.389239228561596	3.2254612	1.795957
29.407359008392152	3.3828843	1.8392619
29.42547954011872	3.6306286	1.9054209
29.44360082428809	4.1226087	2.0304208
29.46172286144722	5.017842	2.240054
29.479845652143283	6.726096	2.5934718
29.497969196923606	9.536155	3.0880666
29.516093496335728	13.372314	3.6568174
29.5342185509274	17.135277	4.1394777
29.55234436124651	20.486238	4.5261726
29.570470927841175	21.76297	4.66508
29.588598251259686	21.359488	4.6216326
29.60672633205055	19.452827	4.410536
29.624855170762405	16.286491	4.0356526
29.642984767944146	13.0084095	3.6067173
29.66111512414481	9.691802	3.1131659
29.67924623991366	7.194055	2.6821735
29.697378115800138	5.285789	2.2990844
29.71551075235387	4.332506	2.0814674
29.733644150124675	3.817466	1.9538337
29.751778309662576	3.6153934	1.9014188
29.769913231517766	3.480807	1.8656921
29.78804891624066	3.4283488	1.85158
29.806185364381818	3.3538873	1.8313621
29.82432257649206	3.3601646	1.8330752
29.842460553122333	3.3797188	1.8384012
29.86059929482382	3.394664	1.8424615
29.878738802147872	3.3797235	1.8384024
29.896879075646048	3.3430285	1.8283951
29.915020115870114	3.295015	1.8152176
29.933161923371976	3.271546	1.8087416
29.951304498703777	3.254896	1.804133
29.969447842417857	3.2673128	1.8075709
29.987591955066733	3.2726152	1.8090371
30.005736837203123	3.2543373	1.8039782
30.023882489379943	3.2565868	1.8046016
30.04202891215028	3.2467275	1.8018677
30.060176106067455	3.246519	1.8018099
30.078324071684946	3.1706183	1.780623
30.09647280955646	3.1166978	1.7654172
30.114622320235863	3.1211743	1.7666845
30.132772604277257	3.1836858	1.7842886
30.1509236622349	3.1335347	1.7701793
30.16907549466328	3.0419183	1.7441096
30.18722810211705	3.0646863	1.7506245
30.205381485151097	3.0969362	1.7598114
30.22353564432045	2.9861255	1.7280409
30.241690580180403	2.8954504	1.7016023
30.25984629328638	2.8629298	1.6920195
30.278002784194037	2.889339	1.6998056
30.296160053459246	2.9127033	1.7066643
30.314318101638033	2.9524963	1.7182829
30.332476929286646	2.9650517	1.7219325
30.35063653696153	2.9144936	1.7071888
30.368796925219307	2.8779714	1.6964585
30.386958094616844	2.9151988	1.7073953
30.40512004571115	2.9828188	1.7270839
30.423282779059463	2.907077	1.7050153
30.441446295219233	2.826179	1.6811243
30.459610594748067	2.796603	1.6723046
30.47777567820382	2.853704	1.689291
30.495941546144504	2.923104	1.7097088
30.51410819912835	2.8915133	1.700445
30.532275637713795	2.7781546	1.6667798
30.55044386245946	2.7541118	1.6595516
30.56861287392416	2.8249822	1.6807684
30.586782672666956	2.8172545	1.6784679
30.604953259247047	2.755819	1.660066
30.623124634223885	2.6748161	1.6354865
30.641296798157075	2.6500406	1.6278945
30.659469751606462	2.698877	1.642826
30.677643495132074	2.769409	1.6641542
30.695818029294152	2.790003	1.6703302
30.713993354653116	2.7676547	1.6636269
30.73216947176962	2.7217753	1.6497804
30.75034638120448	2.8124852	1.6770465
30.768524083518756	2.9048445	1.7043605
30.786702579273673	2.8736174	1.6951747
30.80488186903069	2.9076173	1.7051737
30.82306195335144	3.0452762	1.745072
30.841242832797782	3.293189	1.8147146
30.85942450793176	3.6334734	1.9061671
30.877606979315637	3.9363437	1.9840221
30.895790247511883	4.2156005	2.0531929
30.913974313083134	4.631519	2.1520963
30.932159176592283	5.1220613	2.2631972
30.95034483860237	5.4488087	2.3342683
30.968531299676698	5.5694	2.3599577
30.98671856037873	5.340403	2.3109312
31.00490662127215	4.86704	2.206137
31.023095482920848	4.4065804	2.0991857
31.04128514588892	3.8688772	1.9669461
31.059475610740662	3.3263319	1.8238235
31.07766687804056	2.926223	1.7106206
31.09585894835335	2.6668863	1.6330605
31.11405182224393	2.564757	1.6014858
31.132245500277417	2.498967	1.5808121
31.15043998301914	2.5041358	1.5824462
31.168635271034628	2.5204742	1.5876001
31.18683136488964	2.5669608	1.6021738
31.20502826515008	2.5277927	1.5899034
31.223225972382135	2.4394996	1.5618898
31.241424487152155	2.4260373	1.5575742
31.259623810026692	2.417961	1.5549793
31.27782394157253	2.4386728	1.561625
31.296024882356644	2.4072642	1.5515361
31.314226632946237	2.4449577	1.5636361
31.332429193908684	2.440874	1.5623296
31.350632565811598	2.4028733	1.5501204
31.368836749222787	2.4122493	1.5531417
31.387041744710295	2.4662755	1.570438
31.40524755284232	2.4896681	1.5778682
31.423454174187317	2.526489	1.5894933
31.441661609313922	2.596626	1.611405
31.459869858791002	2.5628574	1.6008927
31.478078923187628	2.4710221	1.5719485
31.496288803073064	2.399588	1.5490603
31.514499499016807	2.4036968	1.550386
31.532711011588546	2.3589976	1.5359029
31.550923341358178	2.3629534	1.5371901
31.56913648889584	2.3582048	1.5356448
31.587350454771844	2.3629994	1.5372051
31.605565239556732	2.3189714	1.5228169
31.62378084382127	2.2671616	1.5057096
31.641997268136382	2.2538118	1.50127
31.660214513073274	2.2987618	1.5161668
31.67843257920331	2.331638	1.5269703
31.6966514670981	2.268095	1.5060196
31.71487117732944	2.2184324	1.4894403
31.733091710469346	2.2149262	1.4882628
31.751313067090052	2.3034391	1.5177085
31.769535247764008	2.3651452	1.5379028
31.787758253063878	2.3730295	1.540464
31.805982083562526	2.3165781	1.522031
31.824206739833024	2.2090242	1.4862787
31.84243222244869	2.2296362	1.4931966
31.860658531983013	2.1891751	1.4795861
31.878885669009737	2.1929798	1.4808713
31.897113634102784	2.177831	1.4757476
31.91534242783632	2.1991942	1.4829681
31.933572050784694	2.2373343	1.4957721
31.951802503522508	2.2309482	1.4936359
31.970033786624548	2.17664	1.4753441
31.988265900665834	2.1720276	1.47378
32.006498846221575	2.22608	1.4920053
32.02473262386724	2.2224338	1.490783
32.04296723417845	2.2442665	1.4980876
32.0612026777311	2.2318125	1.4939252
32.07943895510129	2.152487	1.4671357
32.097676066865304	2.106356	1.451329
32.115914013599685	2.1382802	1.4622859
32.13415279588115	2.0982423	1.448531
32.152392414286666	2.0950177	1.4474176
32.1706328693934	2.1022954	1.4499295
32.18887416177875	2.083493	1.443431
32.20711629202032	2.0696993	1.438645
32.225359260695924	2.1037173	1.4504197
32.243603068383614	2.082864	1.4432131
32.26184771566166	2.086256	1.4443878
32.28009320310852	2.1246262	1.4576098
32.2983395313029	2.0911303	1.4460741
32.31658670082372	2.123892	1.4573579
32.33483471225012	2.2216377	1.490516
32.35308356616143	2.24563	1.4985427
32.371333263137245	2.210345	1.486723
32.38958380375734	2.1924658	1.4806978
32.407835188601744	2.1296492	1.4593318
32.42608741825067	2.0899904	1.4456799
32.444340493284585	2.0969844	1.4480969
32.46259441428416	2.0752296	1.4405657
32.48084918183028	2.1058152	1.4511427
32.49910479650405	2.1643858	1.4711852
32.51736125888683	2.102996	1.4501711
32.53561856956014	2.0248766	1.4229816
32.5538767291058	2.0116377	1.4183221
32.572135738105764	2.0455813	1.4302382
32.59039559714228	2.0072641	1.4167795
32.608656306797776	2.0126934	1.4186943
32.62691786765491	2.0500214	1.4317896
32.645180280296586	1.9855974	1.4091122
32.663443545305896	1.9500169	1.39643
32.68170766326619	1.9623578	1.4008418
32.69997263476099	2.0555384	1.4337149
32.7182384603741	2.100057	1.4491574
32.7365051406895	2.1289923	1.4591067
32.75477267629144	2.0344675	1.4263476
32.77304106776434	1.912075	1.382778
32.79131031569289	1.8864413	1.3734778
32.809580420661966	1.886105	1.3733554
32.827851383256714	1.9633071	1.4011806
32.84612320406245	1.9402803	1.3929394
32.86439588366476	1.9006065	1.3786249
32.88266942264945	1.8630795	1.3649467
32.9009438216025	1.8529875	1.3612448
32.9192190811102	1.9041476	1.3799086
32.937495201758985	2.0227368	1.4222295
32.95577218413556	2.0771964	1.4412482
32.974050028826866	2.0296245	1.4246489
32.992328736420035	1.9555323	1.3984035
33.010608307502444	1.9090656	1.3816894
33.02888874266169	1.9372602	1.3918549
33.047170042485604	1.9210155	1.3860071
33.06545220756225	1.8990023	1.3780429
33.083735238479896	1.9300578	1.3892652
33.10201913582707	1.9633921	1.4012109
33.12030390019248	1.9940288	1.4121008
33.138589532165135	1.9210843	1.3860319
33.15687603233419	1.785468	1.3362141
33.17516340128909	1.8022152	1.3424661
33.19345163961947	1.9132639	1.3832078
33.211740747915215	2.0001757	1.4142756
33.23003072676643	2.0115356	1.4182862
33.248321576763466	1.9938669	1.4120436
33.266613298496885	1.9516948	1.3970307
33.28490589255747	2.0543067	1.4332854
33.30319935953626	2.1180634	1.4553568
33.32149370002451	2.0153327	1.4196241
33.339788914613706	1.8855658	1.373159
33.358085003895575	1.8533841	1.3613905
33.376381968462034	1.7653382	1.3286602
33.39467980890529	1.7766094	1.3328952
33.41297852581774	1.8935072	1.3760477
33.43127811979204	2.0165982	1.4200698
33.44957859142105	2.0111175	1.4181387
33.467879941297866	1.9042722	1.3799537
33.486182170015844	1.8438613	1.3578886
33.50448527816853	1.864294	1.3653915
33.522789266349754	1.9565086	1.3987526
33.541094135153514	1.9301419	1.3892955
33.55939988517411	1.8495486	1.3599811
33.57770651700602	1.8923035	1.3756102
33.59601403124398	1.9703239	1.4036822
33.61432242848296	1.9321189	1.3900068
33.632631709318154	1.8333665	1.3540187
33.650941874344994	1.8863223	1.3734344
33.66925292415916	1.8977776	1.3775985
33.68756485935654	1.8804021	1.3712776
33.70587768053328	1.8087643	1.3449031
33.724191388285746	1.8450475	1.3583252
33.74250598321054	1.8705047	1.367664
33.760821465904506	1.9149929	1.3838327
33.77913783696474	1.9545559	1.3980544
33.79745509698852	2.1309228	1.459768
33.815773246573414	2.2255545	1.4918293
33.8340922863172	2.1250057	1.45774
33.852412216817896	1.9045323	1.3800479
33.87073303867377	1.8698529	1.3674257
33.889054752483304	1.9454081	1.3947788
33.907377358845245	1.976459	1.4058659
33.92570085835853	1.939847	1.3927839
33.94402525162239	1.9406754	1.3930813
33.96235053923627	1.9058375	1.3805207
33.980676721799824	1.8360751	1.3550185
33.999003799912984	1.9495405	1.3962594
34.01733177417592	2.077683	1.441417
34.03566064518901	1.921324	1.3861183
34.0539904135529	1.8875858	1.3738943
34.07232107986846	2.0320842	1.425512
34.090652644736785	2.118573	1.4555318
34.108985108759235	2.0897925	1.4456115
34.12731847253742	1.9646101	1.4016455
34.14565273667313	1.9020798	1.3791591
34.16398790176847	1.7806337	1.3344039
34.18232396842574	1.8861979	1.3733892
34.20066093724749	2.0269299	1.4237028
34.21899880883651	2.017361	1.4203383
34.23733758379583	1.8741394	1.3689921
34.25567726272874	1.9265729	1.3880104
34.27401784623872	1.9583517	1.3994112
34.29235933492957	1.9848456	1.4088455
34.31070172940526	2.0461562	1.4304391
34.32904503027003	2.0008557	1.4145161
34.347389238128386	1.8718483	1.3681551
34.36573435358502	1.9396439	1.3927109
34.38408037724492	2.0003686	1.4143438
34.402427309713296	1.9749441	1.4053271
34.42077515159559	1.8402612	1.3565623
34.43912390349752	1.7296419	1.3151585
34.45747356602499	1.8454138	1.3584601
34.47582413978423	1.9294461	1.389045
34.49417562538163	1.9461267	1.3950365
34.51252802342388	1.8995768	1.3782513
34.53088133451789	1.7595154	1.3264673
34.54923555927084	1.9023042	1.3792404
34.567590698290104	2.0666811	1.4375956
34.58594675218336	2.047784	1.4310081
34.6043037215585	1.9711326	1.4039704
34.62266160702365	2.024063	1.4226958
34.641020409187234	2.0909429	1.4460093
34.65938012865785	2.0367315	1.4271411
34.677740766044394	1.8573347	1.3628407
34.69610232195598	1.7966774	1.3404019
34.714464797002016	1.9242419	1.3871704
34.73282819179208	2.0156133	1.4197229
34.751192506936064	2.06898	1.4383949
34.76955774304408	2.0198913	1.4212288
34.7879239007265	1.828068	1.3520607
34.80629098059391	1.7021493	1.3046644
34.824658983257194	1.7395782	1.3189307
34.843027909327446	1.8675869	1.3665968
34.86139775941603	2.0276318	1.4239494
34.879768534134534	2.0236976	1.4225672
34.89814023409483	1.9997396	1.4141215
34.91651285990901	2.0875325	1.4448296
34.93488641218944	2.0679252	1.4380282
34.95326089154871	1.9420488	1.3935741
34.97163629859967	1.8307767	1.3530619
34.99001263395542	1.9928064	1.411668
35.00838989822934	2.0315952	1.4253404
35.02676809203499	1.9796894	1.4070144
35.04514721598624	1.9521309	1.3971868
35.063527270697215	2.0273972	1.423867
35.081908256782256	1.9708585	1.4038726
35.10029017485597	1.9573764	1.3990626
35.11867302553321	1.9315361	1.3897971
35.137056809429104	2.0196257	1.4211353
35.155441527159006	2.168403	1.4725498
35.173827179338524	2.1485956	1.4658089
35.19221376658354	2.1661854	1.4717966
35.21060128951017	2.1262002	1.4581496
35.2289897487348	2.2413242	1.4971052
35.24737914487405	2.1572814	1.4687687
35.26576947854479	2.1957893	1.4818196
35.28416075036418	1.9181889	1.384987
35.30255296094958	1.7823488	1.3350463
35.32094611091867	1.8104705	1.3455372
35.33934020088932	1.9496963	1.3963152
35.35773523147969	1.9690511	1.4032289
35.3761312033082	2.3175576	1.5223527
35.394528116993506	2.519727	1.5873648
35.41292597315452	2.2777796	1.5092314
35.431324772410434	2.0997937	1.4490665
35.449724515380666	2.10627	1.4512994
35.46812520268491	2.2900608	1.5132947
35.486526834943106	2.3403337	1.529815
35.504929412775454	2.1327147	1.4603817
35.52333293680242	1.9996881	1.4141033
35.54173740764471	1.812303	1.346218
35.560142825923286	1.9685115	1.4030365
35.5785491922594	2.216613	1.4888294
35.59695650727454	2.4692657	1.5713898
35.61536477159042	2.5998158	1.6123945
