0.008763373481513119	0.56609195	0.7523908
0.026290120649546365	0.18888974	0.43461448
0.043816868432600686	0.14562035	0.38160235
0.06134361724069026	0.15308686	0.39126316
0.07887036748382949	0.1599307	0.39991337
0.0963971195720331	0.20495777	0.4527226
0.11392387391531617	0.14192826	0.37673366
0.1314506309236943	0.23110487	0.48073366
0.1489773910071836	0.30514953	0.5524034
0.16650415457580078	0.3033251	0.55074954
0.18403092203956356	0.29850566	0.54635674
0.20155769380849	0.27182713	0.5213704
0.2190844702925996	0.24875617	0.49875462
0.2366112519019124	0.26863444	0.5182996
0.2541380390464497	0.20192246	0.44935784
0.27166483213623416	0.17477196	0.41805738
0.28919163158128947	0.14385174	0.3792779
0.3067184377916406	0.11815511	0.34373698
0.324245251177314	0.15149124	0.38921875
0.34177207214833777	0.13351388	0.36539552
0.3592989011147415	0.14205542	0.3769024
0.37682573848655654	0.12962727	0.36003786
0.39435258467381573	0.11948377	0.34566423
0.41187944008655414	0.111066915	0.33326703
0.42940630513480854	0.09408641	0.30673507
0.446933180228618	0.12042028	0.34701625
0.4644600657780234	0.1797259	0.42394093
0.48198696219306775	0.17262588	0.4154827
0.49951386988379676	0.12836482	0.35828036
0.5170407892602581	0.13940394	0.37336838
0.5345677207325025	0.13970678	0.3737737
0.5520946647105822	0.13908698	0.37294367
0.5696216216045534	0.12057347	0.3472369
0.5871485918244737	0.12584843	0.35475123
0.6046755757804043	0.17998084	0.42424148
0.6222025738824094	0.21400553	0.46260732
0.6397295865405557	0.21652378	0.46532115
0.6572566141649129	0.20264113	0.45015678
0.6747836571655547	0.20199467	0.44943818
0.6923107159525568	0.22576182	0.475144
0.7098377909359992	0.22653002	0.4759517
0.7273648825259653	0.2185938	0.46754017
0.7448919911325411	0.21311536	0.4616442
0.762419117165817	0.21625654	0.46503392
0.7799462610358868	0.22551247	0.47488153
0.7974734231528482	0.27938983	0.5285734
0.8150006039268024	0.2521771	0.50217235
0.8325278037678551	0.2555686	0.5055379
0.8500550230861152	0.2632464	0.5130754
0.8675822622916969	0.29632345	0.544356
0.8851095217947171	0.28986022	0.5383867
0.9026368020052984	0.23419379	0.4839357
0.9201641033335665	0.19503184	0.44162408
0.9376914261896523	0.18357548	0.42845708
0.9552187709836915	0.21045524	0.458754
0.9727461381258234	0.21116342	0.4595252
0.990273528026193	0.25361192	0.503599
1.0078009410949496	0.26816732	0.51784873
1.0253283777422473	0.24166542	0.49159476
1.0428558383782454	0.24312565	0.49307773
1.0603833234131086	0.23288278	0.4825793
1.0779108332570058	0.26226357	0.51211673
1.0954383683201119	0.29516304	0.54328907
1.112965929012607	0.36843318	0.60698694
1.1304935157446763	0.4503524	0.67108303
1.1480211289265108	0.45359462	0.67349434
1.1655487689683062	1.3586009	1.1655904
1.1830764362802655	1.6765155	1.2948033
1.200604131272596	2.1981878	1.4826287
1.2181318543555117	2.4614882	1.5689131
1.235659605939232	2.5218582	1.588036
1.253187386433982	4.062967	2.0156803
1.270715196249994	6.477011	2.5449972
1.2882430357975057	12.009918	3.4655328
1.3057709054867608	17.033411	4.1271553
1.3232988057280106	23.098625	4.8061028
1.3408267369315112	28.093573	5.300337
1.358354699507526	31.429153	5.606171
1.3758826938663256	35.45168	5.954131
1.3934107204181858	37.25887	6.1040044
1.410938779573391	37.894543	6.155854
1.4284668717422309	38.400063	6.1967783
1.4459949973350033	38.15891	6.17729
1.4635231567620117	37.95112	6.160448
1.4810513504335687	36.96074	6.0795345
1.4985795787599925	36.30325	6.025218
1.5161078421516088	35.921814	5.993481
1.5336361410187505	35.268612	5.9387383
1.5511644757717598	35.098026	5.924359
1.5686928468209842	35.68255	5.973487
1.58622125457678	36.21042	6.0175095
1.6037496994495108	37.36028	6.1123056
1.621278181849548	37.39409	6.115071
1.6388067021872719	38.351604	6.1928673
1.6563352608730693	37.882565	6.1548815
1.673863858317336	36.70075	6.058114
1.6913924949304753	35.701954	5.975111
1.7089211711228998	34.319443	5.8582797
1.7264498873050296	33.49073	5.7871175
1.7439786438872935	32.674686	5.7161775
1.7615074412801288	31.921143	5.64988
1.779036279893981	31.392435	5.6028953
1.796565160139305	30.352503	5.5093107
1.814094082426564	29.539907	5.435063
1.8316230471662298	28.548048	5.343037
1.849152054768784	27.921532	5.284083
1.8666811056447168	27.714243	5.264432
1.8842102002045273	27.073437	5.203214
1.901739338858724	26.453373	5.1432843
1.9192685220178245	25.803364	5.079701
1.9367977500923557	24.989237	4.998924
1.9543270234928547	24.631332	4.9629965
1.971856342629867	24.135605	4.9128003
1.9893857079139496	23.569603	4.8548536
2.006915119755667	23.037691	4.7997594
2.0244445785655945	22.363304	4.7289853
2.0419740847543175	21.875952	4.6771736
2.0595036387324317	21.442862	4.630644
2.0770332409105414	21.038818	4.586809
2.094562891699263	20.554071	4.53366
2.1120925915092217	19.77177	4.446546
2.129622340751053	19.566883	4.423447
2.1471521398354043	187.95049	13.709503
2.1646819891729323	444.355	21.07973
2.182211889174303	440.67685	20.992304
2.1997418402501974	453.04333	21.284815
2.2172718428113023	433.05405	20.80995
2.234801897268317	320.8315	17.91177
2.2523320040319548	17.25749	4.1542134
2.269862163512935	16.708204	4.087567
2.287392376121992	16.18387	4.022918
2.304922642269869	15.988412	3.9985511
2.322452962367322	15.85712	3.9821
2.3399833368251164	15.522339	3.9398398
2.357513766054032	15.236809	3.9034355
2.3750442504648586	15.017798	3.8752804
2.3925747904683963	14.764733	3.8424904
2.410105386475459	14.449064	3.8011925
2.4276360388968707	14.108254	3.7560956
2.445166748143469	14.098476	3.754794
2.4626975146261025	14.087505	3.7533326
2.4802283387556323	14.029264	3.745566
2.4977592209429305	13.872437	3.724572
2.5152901615988825	13.550422	3.6810896
2.5328211611343865	13.36362	3.6556284
2.5503522199603523	12.981357	3.6029649
2.5678833384877024	12.46233	3.5302026
2.5854145171273712	12.0625	3.473111
2.6029457562903064	11.84957	3.4423206
2.620477056387469	11.714516	3.4226475
2.6380084178298326	11.531398	3.3957913
2.655539841028383	11.426732	3.3803449
2.673071326394119	11.313601	3.3635695
2.6906028743380523	11.275759	3.3579397
2.708134485271211	11.135256	3.3369532
2.7256661596046325	10.840152	3.2924385
2.743197897749369	10.612084	3.2576194
2.760729700116486	10.506244	3.2413337
2.778261567117063	10.533302	3.2455049
2.795793499162193	10.411258	3.226648
2.8133254966629817	10.248139	3.2012715
2.830857560030551	9.957184	3.1555007
2.8483896896760337	9.915103	3.1488256
2.865921886010578	9.680949	3.1114223
2.883454149445347	9.635041	3.1040363
2.9009864803915177	9.440545	3.072547
2.91851887926028	9.287489	3.0475383
2.9360513464628384	9.282191	3.0466688
2.953583882410413	9.14341	3.023807
2.9711164875142373	8.932839	2.9887855
2.9886491621855606	8.673068	2.9450073
3.0061819068356455	8.519003	2.9187331
3.023714721875769	8.431406	2.9036884
3.041247607717225	8.428284	2.9031506
3.0587805647713213	8.407584	2.8995833
3.0763135934493806	8.303291	2.8815432
3.0938466941627407	8.115731	2.8488123
3.1113798673227544	8.053916	2.8379421
3.1289131133407904	8.063061	2.8395529
3.1464464326282315	8.00394	2.8291235
3.1639798255964786	7.976608	2.8242888
3.1815132926569443	7.722646	2.778965
3.1990468342210603	7.6713457	2.7697194
3.216580450700272	7.570984	2.751542
3.2341141425060416	7.527302	2.743593
3.251647910049847	7.394392	2.719263
3.2691817537431813	7.164994	2.6767507
3.286715673997555	6.979275	2.6418319
3.3042496712244938	6.908496	2.6284018
3.32178374583554	6.91293	2.629245
3.339317898242251	7.0251365	2.6504974
3.3568521288562034	6.95811	2.6378229
3.3743864380889876	6.915383	2.6297116
3.3919208263522127	6.7592797	2.5998614
3.4094552940575023	6.6795216	2.584477
3.4269898416164972	6.669606	2.5825582
3.444524469440858	6.6866736	2.5858603
3.4620591779422587	6.7065473	2.5897002
3.479593967532391	6.5908103	2.5672574
3.4971288386229658	6.4850836	2.5465827
3.5146637916257086	6.328589	2.5156686
3.5321988269523628	6.221109	2.494215
3.5497339450146903	6.202891	2.4905603
3.5672691462244708	6.241104	2.4982202
3.5848044309934988	6.2731423	2.5046241
3.60233979973359	6.3296967	2.515889
3.619875252856575	6.3053765	2.511051
3.6374107907743034	6.2912436	2.5082352
3.6549464138986427	6.2903438	2.5080557
3.6724821226414788	6.296856	2.5093536
3.690017917414714	6.3161054	2.5131862
3.7075537986302702	6.35798	2.5215034
3.7250897667000857	6.4136615	2.5325208
3.7426258220361235	6.621067	2.5731435
3.7601619650503553	6.976537	2.6413136
3.777698196154779	7.4913135	2.7370265
3.7952345157614067	8.550763	2.9241688
3.8127709242822716	9.219047	3.0362883
3.830307422129425	11.364762	3.3711662
3.847844009714936	30.179544	5.4935913
3.8653806874508954	97.67063	9.882845
3.882917455749409	96.94578	9.846105
3.900454315022606	96.778366	9.8376
3.917991265682631	41.374535	6.432304
3.9355283081416506	11.077644	3.3283095
3.9530654428118495	8.876086	2.9792762
3.970602670105433	7.544452	2.7467167
3.9881399904346244	6.596542	2.5683734
4.005677404211669	6.5179224	2.5530221
4.023214911848827	6.453873	2.5404475
4.0407525137583855	6.4394517	2.5376074
4.058290210352644	6.479296	2.5454462
4.075828002043927	6.4557457	2.540816
4.0933658892445814	6.4474015	2.5391734
4.110903872366966	6.351224	2.5201635
4.128441951823468	6.3004107	2.510062
4.145980128026488	6.2204094	2.4940748
4.163518401388452	6.148038	2.4795237
4.181056772321807	6.085065	2.4667923
4.1985952412390155	6.0624747	2.4622092
4.216133808552567	6.132927	2.4764748
4.233672474674966	6.262989	2.5025964
4.251211240018741	6.5789146	2.5649395
4.268750104996445	6.811379	2.6098619
4.286289070020643	7.7184243	2.7782052
4.303828135503928	9.348578	3.0575445
4.3213673018589125	29.62399	5.4427924
4.3389065694982305	90.85218	9.531641
4.356445938834537	166.06721	12.886707
4.3739854102805085	171.58899	13.099198
4.391524984248844	172.4874	13.133446
4.409064661152262	136.54218	11.685126
4.426604441403504	96.95405	9.846524
4.444144325415337	75.96143	8.715586
4.461684313600543	22.054897	4.6962643
4.47922440637193	22.54308	4.7479553
4.496764604142329	20.818558	4.5627356
4.5143049073245916	18.912886	4.3488946
4.531845316331589	16.656597	4.081249
4.5493858315762195	13.674576	3.697915
4.566926453471405	11.201833	3.3469138
4.584467182430081	9.220213	3.0364804
4.602008018865218	8.159928	2.8565588
4.619548963189798	7.557663	2.7491205
4.637090015816834	7.0445747	2.6541617
4.654631177159353	6.789359	2.60564
4.672172447630417	6.496686	2.5488598
4.689713827643102	6.3191476	2.5137916
4.7072553176105085	6.0839276	2.4665618
4.724796917945764	5.944245	2.4380822
4.742338629062015	5.8005986	2.4084432
4.759880451372434	5.7635055	2.4007301
4.777422385290215	5.72746	2.3932111
4.794964431228581	5.725122	2.3927226
4.812506589600768	5.8159037	2.4116185
4.830048860820047	5.746508	2.3971875
4.847591245299709	5.7562237	2.399213
4.8651337434530655	5.729068	2.393547
4.882676355693457	5.7057104	2.3886628
4.900219082434242	5.660228	2.3791232
4.917761924088813	5.6393037	2.3747218
4.935304881070575	5.6002192	2.3664782
4.952847953792969	5.5187926	2.349211
4.970391142669449	5.4182634	2.3277164
4.9879344481135055	5.4553924	2.335678
5.005477870538642	5.581886	2.3626015
5.023021410358394	5.5468025	2.355165
5.040565067986324	5.466885	2.3381371
5.05810884383601	5.3744903	2.3182948
5.075652738321066	5.3787456	2.3192122
5.09319675185512	5.3923535	2.3221443
5.110740884851836	5.3171606	2.305897
5.128285137724894	5.323137	2.3071923
5.145829510888007	5.3193083	2.3063626
5.163374004754908	5.371671	2.3176866
5.1809186197393595	5.3895483	2.32154
5.198463356255145	5.3594546	2.3150496
5.216008214716077	5.416883	2.3274198
5.233553195535998	5.2915173	2.30033
5.251098299128764	5.31345	2.305092
5.268643525908272	5.3235226	2.307276
5.286188876288432	5.398047	2.3233697
5.3037343506831895	5.376785	2.3187895
5.32127994950651	5.3584476	2.314832
5.3388256731723915	5.3048854	2.3032336
5.356371522094851	5.2652454	2.2946122
5.373917496687938	5.2917056	2.3003707
5.391463597365729	5.2270536	2.2862751
5.40900982454232	5.170515	2.2738767
5.426556178631843	5.0611973	2.2497106
5.444102660048449	5.081485	2.254215
5.4616492692063225	5.2130976	2.2832208
5.479196006519669	5.2495766	2.2911954
5.496742872402727	5.306344	2.3035502
5.514289867269756	5.277335	2.297245
5.531836991535049	5.265447	2.2946563
5.549384245612924	5.2629204	2.2941055
5.566931629917724	5.2663736	2.294858
5.584479144863822	5.2442093	2.2900238
5.6020267908656205	5.167387	2.2731888
5.619574568337545	5.0948515	2.2571778
5.637122477694054	5.0283117	2.2423897
5.654670519349629	5.0006166	2.2362058
5.672218693718784	5.025162	2.2416873
5.689767001216059	5.1019635	2.2587526
5.707315442256021	5.1254683	2.2639496
5.724864017253266	5.09925	2.2581518
5.7424127266224225	5.1382294	2.2667663
5.75996157077814	5.201744	2.2807333
5.777510550135105	5.25325	2.291997
5.795059665108022	5.3474264	2.3124504
5.812608916111639	5.3388295	2.3105907
5.830158303560715	5.4522257	2.335
5.847707827870055	5.407869	2.3254826
5.86525748945448	5.4563117	2.335875
5.8828072887288485	5.6042743	2.3673348
5.900357226108044	5.598678	2.3661525
5.917907302006979	5.6478977	2.3765306
5.9354575168406	6.1682363	2.4835935
5.9530078710238765	6.8401804	2.6153738
5.970558364971812	7.4035316	2.7209432
5.988108999099438	7.791084	2.7912512
6.005659773821818	8.292449	2.8796613
6.023210689554039	8.045311	2.8364258
6.040761746711227	8.461292	2.9088302
6.058312945708531	7.790327	2.7911158
6.075864286961132	7.3444586	2.710066
6.093415770884244	6.676595	2.583911
6.1109673978931065	6.081032	2.4659748
6.128519168402993	5.543868	2.354542
6.146071082829204	5.401458	2.3241036
6.163623141587075	5.2763324	2.2970269
6.181175345091969	5.1766224	2.2752192
6.198727693759281	5.1696706	2.273691
6.216280188004435	5.1886454	2.27786
6.233832828242885	5.2299585	2.2869103
6.251385614890126	5.264209	2.2943864
6.268938548361669	5.204047	2.281238
6.286491629073067	5.14634	2.2685547
6.304044857439898	5.088642	2.255802
6.321598233877777	5.0818515	2.2542963
6.339151758802344	5.005598	2.2373195
6.356705432629277	4.965037	2.2282362
6.37425925577428	4.9393454	2.2224638
6.391813228653095	4.9747577	2.2304165
6.409367351681486	4.995467	2.2350543
6.426921625275259	5.00056	2.2361932
6.44447604985025	5.024866	2.2416213
6.46203062582232	5.0455713	2.246235
6.47958535360737	5.0274463	2.2421968
6.497140233621328	5.00816	2.237892
6.514695266280161	4.9740076	2.2302482
6.532250451999859	5.0022073	2.2365615
6.549805791196454	4.9708343	2.2295368
6.567361284286002	4.993084	2.234521
6.584916931684597	5.011034	2.238534
6.602472733808367	5.048732	2.2469382
6.6200286910734665	5.068909	2.2514238
6.637584803896092	5.041727	2.245379
6.655141072692462	5.0068917	2.2376084
6.672697497878842	5.0149255	2.239403
6.690254079871514	4.953489	2.2256434
6.707810819086808	4.9645066	2.2281172
6.725367715941078	4.9065404	2.2150712
6.742924770850719	4.9322047	2.2208567
6.760481984232151	4.917066	2.2174459
6.778039356501836	4.982494	2.23215
6.795596888076266	4.99324	2.234556
6.813154579371963	5.0363946	2.2441914
6.830712430805492	5.056793	2.2487314
6.84827044279344	5.0525885	2.2477963
6.865828615752445	5.0657835	2.2507296
6.883386950099159	5.0919166	2.2565277
6.900945446250287	5.1289387	2.264716
6.918504104622553	5.0950456	2.2572207
6.936062925632727	5.0541105	2.2481349
6.953621909697607	5.0415773	2.2453456
6.971181057234028	5.0492926	2.2470632
6.988740368658859	5.081674	2.254257
7.006299844389007	5.1379156	2.2666972
7.023859484841407	5.1870427	2.277508
7.041419290433036	5.299973	2.302167
7.058979261580902	5.4348073	2.3312674
7.0765393987020495	5.719388	2.3915243
7.094099702213559	6.1268473	2.475247
7.111660172532549	6.4802923	2.545642
7.129220810076164	6.7853584	2.604872
7.146781615261595	7.3559337	2.7121825
7.16434258850606	7.556569	2.7489214
7.181903730226821	7.9814982	2.8251545
7.1994650408411704	8.114906	2.8486674
7.217026520766437	8.23054	2.8688917
7.234588170419983	8.478618	2.9118066
7.252149990219215	8.529272	2.9204917
7.269711980581568	8.4351225	2.9043283
7.2872741419245175	8.199397	2.8634589
7.304836474665574	7.79468	2.7918954
7.322398979222286	7.495114	2.7377205
7.339961656012233	7.205558	2.684317
7.357524505453039	6.9523687	2.6367345
7.375087527962357	6.732158	2.5946403
7.392650723957886	6.4766207	2.5449204
7.410214093857353	6.0929794	2.4683962
7.427777638078528	5.8328533	2.4151301
7.445341357039213	5.6288157	2.3725126
7.4629052511572525	5.4986787	2.344926
7.480469320850524	5.4473305	2.3339517
7.498033566536948	5.3791885	2.3193078
7.5155979886344735	5.342638	2.3114147
7.5331625875610975	5.268165	2.2952483
7.550727363734844	5.2078743	2.2820768
7.568292317573788	5.1421113	2.2676225
7.585857449496025	5.1206436	2.262884
7.603422759919705	5.1207814	2.2629144
7.620988249263007	5.210939	2.2827482
7.638553917944147	5.2467833	2.2905858
7.656119766381391	5.233555	2.2876964
7.673685794993023	5.238232	2.2887185
7.691252004197388	5.202083	2.2808075
7.70881839441285	5.25453	2.2922761
7.726384966057826	5.2418036	2.2894986
7.743951719550762	5.2377524	2.2886136
7.761518655310149	5.2547283	2.2923195
7.779085773754511	5.25194	2.291711
7.796653075302419	5.3132668	2.3050525
7.814220560372475	5.3555894	2.3142147
7.831788229383323	5.4033318	2.3245068
7.8493560827536495	5.3878446	2.3211732
7.866924120902174	5.3582344	2.314786
7.884492344247663	5.3470874	2.312377
7.9020607532089135	5.3592243	2.3149998
7.919629348204771	5.4068446	2.3252623
7.937198129654115	5.4482656	2.334152
7.954767097975865	5.496962	2.3445601
7.972336253588986	5.475222	2.3399193
7.989905596912472	5.4670677	2.3381763
8.007475128365371	5.352343	2.313513
8.025044848366756	5.3161516	2.3056781
8.042614757335754	5.4079914	2.3255088
8.060184855691523	5.565037	2.359033
8.07775514385327	5.7322664	2.394215
8.095325622240228	5.8269725	2.4139123
8.112896291271687	5.866233	2.4220307
8.130467151366968	5.973677	2.4441106
8.148038202945436	6.0463605	2.4589348
8.165609446426497	6.0134363	2.452231
8.183180882229594	5.956732	2.4406416
8.200752510774217	5.920216	2.4331493
8.218324332479893	5.9146547	2.4320064
8.235896347766193	5.929994	2.435158
8.253468557052724	5.9827175	2.4459593
8.27104096075914	6.017846	2.4531298
8.288613559305137	6.113947	2.4726396
8.306186353110448	6.1472607	2.479367
8.32375934259485	6.19562	2.4891002
8.341332528178162	6.21649	2.493289
8.358905910280246	6.2856894	2.5071278
8.376479489321003	6.203154	2.4906132
8.394053265720377	6.2645965	2.5029175
8.411627239898356	6.2752986	2.5050547
8.42920141227497	6.3361444	2.51717
8.44677578327029	6.359354	2.521776
8.464350353304427	6.2269163	2.495379
8.48192512279754	6.1862087	2.487209
8.499500092169827	6.0942087	2.468645
8.51707526184153	6.137433	2.4773843
8.534650632232934	6.162325	2.482403
8.552226203764365	6.209322	2.491851
8.569801976856192	6.2523746	2.500475
8.587377951928834	6.218368	2.4936657
8.60495412940274	6.2688794	2.503773
8.622530509698416	6.288447	2.5076776
8.6401070932364	6.4153833	2.5328608
8.657683880437283	6.5960755	2.5682826
8.675260871721695	6.7625184	2.6004844
8.692838067510303	6.8943887	2.6257167
8.710415468223834	6.965155	2.639158
8.727993074283043	7.122646	2.6688285
8.745570886108737	7.1862555	2.6807191
8.763148904121765	7.2703624	2.696361
8.78072712874302	7.2421474	2.6911237
8.798305560393441	7.493618	2.7374473
8.815884199494006	7.6890955	2.7729218
8.833463046465745	7.958916	2.821155
8.851042101729728	8.129096	2.851157
8.86862136570707	8.4418955	2.905494
8.886200838818924	8.494656	2.9145594
8.903780521486505	8.442185	2.9055438
8.921360414131055	8.4594345	2.9085107
8.938940517173874	8.591911	2.9311962
8.956520831036297	8.807802	2.9677942
8.97410135613971	9.028274	3.0047085
8.99168209290554	9.188611	3.0312722
9.009263041755265	9.4355545	3.0717347
9.026844203110405	9.649371	3.1063437
9.044425577392525	9.813889	3.1327126
9.062007165023239	9.873025	3.142137
9.079588966424197	10.211932	3.1956115
9.097170982017108	10.349763	3.2171047
9.11475321222372	11.367799	3.3716166
9.132335657465825	12.2300415	3.4971476
9.149918318165264	12.387046	3.5195236
9.167501194743924	12.998716	3.6053731
9.18508428762374	12.743305	3.5697765
9.202667597226693	12.725129	3.56723
9.220251123974803	12.397683	3.5210345
9.237834868290143	11.900772	3.4497495
9.255418830594836	11.626742	3.409801
9.273003011311046	11.098242	3.3314023
9.290587410860985	10.939114	3.3074331
9.308172029666911	10.347399	3.2167373
9.32575686815113	10.083858	3.175509
9.343341926735997	8.872114	2.9786093
9.360927205843916	8.646858	2.9405541
9.378512705897327	8.443427	2.9057577
9.396098427318728	8.259526	2.873939
9.413684370530664	8.100852	2.8461995
9.431270535955722	7.9537024	2.820231
9.448856924016539	7.8790975	2.806973
9.466443535135806	7.766522	2.786848
9.484030369736251	7.861166	2.803777
9.501617428240658	7.86708	2.8048315
9.519204711071852	7.8528	2.8022847
9.536792218652714	7.890213	2.8089523
9.55437995140617	7.8544626	2.8025813
9.571967909755191	7.8753033	2.806297
9.589556094122802	7.849337	2.8016667
9.60714450493207	7.8871603	2.8084087
9.624733142606116	7.901955	2.8110416
9.642322007568108	7.900847	2.8108444
9.659911100241267	7.916995	2.8137155
9.677500421048851	8.019433	2.8318603
9.695089970414175	8.119929	2.849549
9.712679748760609	8.143957	2.853762
9.730269756511557	8.112244	2.8482
9.747859994090492	8.076735	2.8419597
9.765450461920915	8.162547	2.8570173
9.78304116042639	8.26201	2.874371
9.800632090030527	8.345991	2.888943
9.81822325115699	8.340636	2.888016
9.835814644229481	8.291417	2.879482
9.853406269671762	8.242582	2.8709898
9.870998127907646	8.254746	2.8731074
9.888590219360985	8.315564	2.883672
9.906182544455698	8.34637	2.8890085
9.923775103615734	8.330135	2.8861973
9.941367897265108	8.318567	2.8841927
9.958960925827878	8.317089	2.8839364
9.97655418972816	8.360266	2.8914125
9.994147689390106	8.356689	2.8907938
10.011741425237934	8.43012	2.903467
10.029335397695904	8.498448	2.9152098
10.04692960718833	8.459484	2.9085193
10.06452405413958	8.40876	2.8997862
10.082118738974064	8.41308	2.900531
10.099713662116246	8.399514	2.8981915
10.117308823990651	8.37769	2.894424
10.134904225021844	8.302521	2.8814094
10.152499865634445	8.336009	2.8872147
10.170095746253125	8.394636	2.8973498
10.18769186730261	8.363845	2.8920312
10.205288229207675	8.306411	2.8820844
10.222884832393145	8.181025	2.860249
10.2404816772839	8.202677	2.8640316
10.258078764304868	8.20434	2.864322
10.275676093881035	8.194762	2.8626494
10.293273666437438	8.165904	2.8576045
10.310871482399158	8.169155	2.8581734
10.32846954219134	8.173826	2.8589904
10.346067846239173	8.208395	2.8650296
10.363666394967908	8.201204	2.8637745
10.38126518880283	8.196718	2.862991
10.398864228169298	8.242583	2.87099
10.416463513492713	8.244572	2.8713362
10.434063045198531	8.174289	2.8590713
10.451662823712262	8.12987	2.8512928
10.469262849459467	8.107095	2.847296
10.486863122865758	8.118139	2.8492348
10.504463644356806	8.137292	2.852594
10.522064414358338	8.101276	2.8462741
10.539665433296118	7.999867	2.8284037
10.557266701595987	7.902385	2.8111181
10.574868219683818	7.8648424	2.8044326
10.592469987985552	7.818698	2.7961934
10.610072006927185	7.7654777	2.7866607
10.627674276934751	7.64565	2.7650769
10.64527679843435	7.4666853	2.7325237
10.662879571852143	7.348004	2.71072
10.680482597614331	7.2069626	2.6845787
10.698085876147173	7.115119	2.667418
10.715689407876988	6.988568	2.64359
10.733293193230146	6.960382	2.6382537
10.750897232633072	6.8698363	2.6210372
10.76850152651225	6.851772	2.617589
10.786106075294207	6.7405143	2.59625
10.803710879405534	6.6369286	2.5762236
10.821315939272877	6.5063224	2.5507493
10.83892125532294	6.4580636	2.541272
10.856526827982472	6.3361154	2.5171642
10.874132657678285	6.31717	2.5133982
10.891738744837243	6.2353725	2.4970727
10.909345089886271	6.146102	2.4791334
10.926951693252343	6.091667	2.4681304
10.944558555362494	6.029595	2.4555233
10.96216567664381	6.0213423	2.4538424
10.979773057523436	5.9600506	2.4413214
10.997380698428573	5.8824615	2.4253786
11.014988599786477	5.828081	2.414142
11.032596762024461	5.803143	2.4089713
11.050205185569892	5.736005	2.3949957
11.067813870850198	5.677291	2.3827066
11.085422818292859	5.566866	2.3594208
11.10303202832541	5.489889	2.3430512
11.120641501375454	5.4022403	2.324272
11.138251237870636	5.319124	2.3063226
11.155861238238671	5.284735	2.2988553
11.173471502907317	5.256811	2.2927737
11.191082032304402	5.226359	2.286123
11.208692826857805	5.214336	2.283492
11.226303886995465	5.168988	2.273541
11.243915213145371	5.0783863	2.2535276
11.261526805735578	4.982573	2.2321677
11.279138665194196	4.914718	2.2169163
11.296750791949393	4.878609	2.2087574
11.314363186429393	4.8264694	2.1969228
11.331975849062479	4.788921	2.1883602
11.34958878027699	4.733771	2.175723
11.36720198050133	4.6603913	2.158794
11.384815450163948	4.6455164	2.155346
11.402429189693366	4.6249723	2.150575
11.420043199518153	4.596212	2.1438777
11.437657480066942	63.536797	7.9709973
11.455272031768422	85.19049	9.22987
11.472886855051353	107.5043	10.368428
11.490501950344528	99.10233	9.955015
11.508117318076819	84.47149	9.190837
11.52573295867715	45.91538	6.7760887
11.543348872574514	4.2155733	2.0531862
11.560965060197946	4.1545796	2.0382786
11.57858152197655	4.123724	2.0306954
11.59619825833949	4.1377163	2.0341377
11.613815269715985	4.134841	2.0334308
11.631432556535323	38.57521	6.2108946
11.649050119226837	83.049286	9.113138
11.666667958219929	93.43053	9.665947
11.68428607394406	107.695724	10.377655
11.701904466828756	82.52265	9.084198
11.719523137303586	65.32955	8.08267
11.737142085798196	4.5981617	2.1443324
11.754761312742286	3.7493243	1.9363172
11.772380818565619	3.746806	1.9356668
11.790000603698015	3.6873062	1.920236
11.80762066856935	3.6459532	1.9094379
11.825241013609572	3.6303575	1.9053497
11.842861639248683	3.5889316	1.8944476
11.860482545916748	3.4936361	1.8691272
11.878103734043883	3.4739954	1.8638657
11.895725204060282	3.4636164	1.8610793
11.91334695639619	3.4789782	1.865202
11.930968991481919	3.4203289	1.8494132
11.948591309747824	3.3716373	1.8362019
11.966213911624347	3.344231	1.8287238
11.98383679754198	3.313283	1.8202425
12.001459967931268	3.264807	1.8068777
12.019083423222835	3.2351685	1.7986574
12.036707163847352	3.2130153	1.7924886
12.05433119023556	3.2268982	1.7963569
12.071955502818259	3.209479	1.7915019
12.089580102026313	3.1978962	1.7882663
12.107204988290643	3.1942718	1.7872525
12.12483016204224	3.1784725	1.7828271
12.142455623712152	3.1891005	1.7858052
12.16008137373149	3.1597996	1.7775825
12.177707412531431	3.1743255	1.7816637
12.19533374054321	3.149764	1.7747575
12.212960358198126	3.1223302	1.7670116
12.230587265927545	3.0502143	1.7464863
12.248214464162889	3.0434418	1.7445463
12.265841953335649	3.037778	1.7429222
12.283469733877375	3.0185847	1.7374074
12.301097806219685	3.0505242	1.746575
12.31872617079425	3.0169308	1.7369314
12.336354828032825	3.0149775	1.736369
12.353983778367205	2.971746	1.7238753
12.371613022229262	2.9626038	1.7212216
12.389242560050928	2.9712975	1.7237452
12.406872392264201	2.9445229	1.7159612
12.424502519301143	2.916321	1.707724
12.442132941593874	2.839839	1.6851822
12.459763659574586	2.8182406	1.6787616
12.477394673675532	2.8196526	1.679182
12.49502598432903	2.8548155	1.6896199
12.51265759196746	2.8540812	1.6894026
12.530289497023267	2.8482368	1.687672
12.547921699928967	2.8697107	1.694022
12.565554201117134	2.849132	1.6879373
12.583187001020404	2.8236287	1.6803657
12.600820100071486	2.8091745	1.6760592
12.618453498703152	2.8275945	1.6815453
12.636087197348235	2.813249	1.6772743
12.65372119643964	2.8017807	1.6738521
12.671355496410326	2.8310397	1.6825694
12.68899009769333	2.8297613	1.6821895
12.706625000721749	2.8588624	1.6908171
12.724260205928752	2.9143982	1.7071608
12.741895713747551	2.964248	1.7216991
12.759531524611454	2.998428	1.731597
12.777167638953818	2.98164	1.7267426
12.794804057208072	2.9630208	1.7213427
12.812440779807702	3.0409203	1.7438234
12.830077807186271	3.2586148	1.8051634
12.847715139777405	3.3409495	1.8278265
12.865352778014795	3.5037081	1.8718195
12.882990722332197	3.5736268	1.8904039
12.90062897316344	3.631918	1.9057591
12.918267530942412	3.6981156	1.9230485
12.935906396103071	3.569994	1.8894428
12.953545569079449	3.7869854	1.9460179
12.971185050305628	3.6413102	1.9082217
12.988824840215775	3.6907063	1.9211211
13.006464939244115	3.668779	1.9154056
13.024105347824943	3.528069	1.8783154
13.041746066392617	3.5749834	1.8907627
13.05938709538157	3.3701115	1.8357863
13.077028435226296	3.379564	1.8383591
13.094670086361363	3.277184	1.8102994
13.112312049221401	3.2220473	1.7950063
13.129954324241112	3.133549	1.7701833
13.147596911855258	2.9653952	1.7220323
13.165239812498685	2.8888924	1.6996742
13.182883026606293	2.8091762	1.6760597
13.200526554613058	2.7209337	1.6495253
13.218170396954017	2.697557	1.6424241
13.235814554064284	2.7142737	1.6475053
13.253459026379034	2.7382157	1.6547555
13.271103814333523	2.7364423	1.6542195
13.288748918363058	2.7411556	1.6556436
13.306394338903031	2.7186368	1.6488289
13.32404007638889	2.6922183	1.6407981
13.341686131256164	2.7297957	1.6522093
13.359332503940449	2.7183645	1.6487464
13.376979194877402	2.741115	1.6556313
13.394626204502751	2.7121108	1.6468487
13.412273533252307	2.7325559	1.6530445
13.429921181561937	2.7106974	1.6464195
13.447569149867581	2.7263355	1.6511619
13.465217438605247	2.7325294	1.6530365
13.482866048211022	2.6993384	1.6429664
13.500514979121052	2.7198277	1.64919
13.518164231771568	2.7099974	1.646207
13.535813806598844	2.706663	1.6451939
13.553463704039254	2.6998124	1.6431106
13.571113924529229	2.6968582	1.6422113
13.588764468505275	2.7137432	1.6473442
13.606415336403956	2.745426	1.6569327
13.624066528661917	2.7720008	1.6649326
13.641718045715882	2.826317	1.6811653
13.659369888002635	2.851167	1.6885399
13.67702205595903	2.900207	1.7029995
13.694674550021993	3.0056689	1.7336864
13.712327370628532	3.1259098	1.7680243
13.729980518215713	3.2074068	1.7909235
13.747633993220681	3.2470949	1.8019698
13.765287796080647	3.2267253	1.7963088
13.7829419272329	3.2628765	1.8063434
13.800596387114801	3.310818	1.8195653
13.818251176163775	3.3770778	1.8376827
13.835906294817324	3.4280052	1.8514873
13.853561743513023	3.4136133	1.8475966
13.871217522688525	3.4644797	1.8613113
13.888873632781538	3.4974573	1.870149
13.906530074229858	3.5383673	1.8810549
13.92418684747135	3.5541344	1.8852412
13.941843952943948	3.546155	1.8831238
13.959501391085665	3.5075543	1.8728466
13.977159162334578	3.3946548	1.8424588
13.994817267128846	3.312532	1.8200363
14.012475705906693	3.247149	1.8019848
14.030134479106424	3.207916	1.7910656
14.047793587166414	3.177664	1.7826004
14.065453030525108	3.1571693	1.7768425
14.083112809621026	3.1194313	1.7661911
14.100772924892766	3.0303173	1.7407807
14.118433376778997	2.9308598	1.7119755
14.136094165718458	2.8166242	1.6782801
14.153755292149969	2.7842796	1.668616
14.171416756512416	2.7390423	1.6550052
14.189078559244768	2.6946182	1.6415292
14.20674070078606	2.6401753	1.6248616
14.224403181575408	2.5731058	1.6040903
14.242066002051999	2.5216951	1.5879846
14.259729162655093	2.4832425	1.5758307
14.277392663824022	2.4654403	1.5701721
14.295056505998208	2.4588454	1.5680707
14.312720689617128	2.417227	1.5547434
14.330385215120348	2.3980377	1.5485599
14.348050082947497	2.369186	1.539216
14.3657152935383	2.3722079	1.5401974
14.383380847332528	2.3826208	1.5435741
14.401046744770051	2.410707	1.5526452
14.418712986290798	2.4114037	1.5528694
14.436379572334793	2.4191086	1.5553484
14.454046503342123	2.4149675	1.5540166
14.471713779752946	2.4570782	1.567507
14.489381402007504	2.4685013	1.5711465
14.507049370546113	2.4700546	1.5716407
14.524717685809168	2.422084	1.5563046
14.542386348237134	2.3928802	1.5468937
14.560055358270553	2.4065404	1.5513028
14.577724716350051	2.4467878	1.5642211
14.595394422916325	2.4761226	1.57357
14.61306447841015	2.493135	1.5789664
14.63073488327237	2.53656	1.5926582
14.648405637943917	2.5226321	1.5882796
14.6660767428658	2.485002	1.576389
14.683748198479094	2.465484	1.5701859
14.701420005224954	2.519272	1.5872215
14.719092163544628	2.5906336	1.6095445
14.73676467387942	2.6211057	1.6189829
14.754437536670727	2.664205	1.6322393
14.772110752360014	2.6734803	1.6350781
14.78978432138882	2.7115433	1.6466764
14.807458244198777	2.7164717	1.6481723
14.82513252123159	2.6948724	1.6416067
14.842807152929028	2.6965568	1.6421196
14.860482139732962	2.6858802	1.6388655
14.87815748208531	2.6694202	1.633836
14.8958331804281	2.6942735	1.6414242
14.91350923520342	2.6911018	1.6404577
14.931185646853438	2.7093787	1.6460191
14.948862415820408	2.6686702	1.6336066
14.966539542546656	2.6610966	1.6312867
14.98421702747459	2.6608891	1.6312232
15.001894871046696	2.6692815	1.6337936
15.019573073705542	2.676955	1.6361402
15.037251635893766	2.639512	1.6246575
15.054930558054092	2.647745	1.6271893
15.072609840629323	2.6990492	1.6428783
15.090289484062351	2.8933947	1.7009982
15.107969488796124	3.274243	1.809487
15.125649855273691	3.7113733	1.9264925
15.14333058393817	4.21632	2.053368
15.161011675232768	5.1063695	2.2597277
15.17869312960076	6.432695	2.5362759
15.196374947485506	8.2943945	2.8799992
15.214057129330447	11.287316	3.3596601
15.231739675579114	15.941601	3.9926934
15.249422586675102	20.955008	4.577664
15.267105863062092	24.14038	4.913286
15.284789505183847	24.405884	4.9402313
15.302473513484218	22.278393	4.7199993
15.320157888407127	18.648907	4.318438
15.337842630396578	14.550909	3.8145654
15.355527739896656	11.35192	3.369261
15.37321321735153	8.90116	2.9834812
15.39089906320545	6.5014186	2.549788
15.408585277902748	4.9016733	2.2139723
15.42627186188783	3.7538486	1.9374851
15.443958815605198	3.2297304	1.797145
15.461646139499424	2.9509125	1.717822
15.479333834015168	2.790016	1.6703341
15.497021899597165	2.705385	1.6448054
15.514710336690234	2.6416497	1.6253153
15.53239914573928	2.612164	1.616219
15.550088327189297	2.5267706	1.5895818
15.567777881485336	2.4544485	1.5666679
15.58546780907256	2.4552407	1.5669208
15.6031581103962	2.4693103	1.571404
15.620848785901568	2.5152318	1.5859482
15.638539836034063	2.4987965	1.5807582
15.656231261239173	2.4586475	1.5680075
15.673923061962451	2.43961	1.561925
15.691615238649552	2.4347546	1.56037
15.709307791746202	2.4433942	1.563136
15.727000721698221	2.4384878	1.5615658
15.744694028951498	2.4319644	1.5594757
15.76238771395202	2.3814673	1.5432004
15.780081777145844	2.341012	1.5300366
15.797776218979125	2.34052	1.5298758
15.815471039898094	2.3544986	1.5344375
15.833166240349064	2.3663945	1.538309
15.850861820778437	2.3738163	1.5407194
15.868557781632699	2.4035282	1.5503316
15.886254123358412	2.416341	1.5544585
15.903950846402232	2.4229949	1.5565972
15.921647951210897	2.3984957	1.5487077
15.939345438231225	2.372869	1.540412
15.957043307910133	2.3275433	1.5256288
15.974741560694602	2.331303	1.5268605
15.992440197031714	2.3490021	1.5326455
16.01013921736862	2.3915458	1.5464623
16.02783862215259	2.4184177	1.5551263
16.045538411830933	2.4258516	1.5575145
16.06323858685107	2.4401696	1.5621042
16.080939147660512	2.4200025	1.5556357
16.09864009470684	2.4094403	1.5522372
16.11634142843774	2.407312	1.5515515
16.134043149300954	2.400567	1.5493764
16.15174525774433	2.417913	1.554964
16.169447754215817	2.4126482	1.5532702
16.18715063916342	2.4071069	1.5514854
16.204853913035244	2.4153373	1.5541356
16.222557576279478	2.394416	1.5473901
16.240261629344403	22.37455	4.7301745
16.257966072678386	42.94269	6.553067
16.275670906729868	38.07221	6.170268
16.293376131947387	2.5100164	1.5843031
16.31108174877957	2.555006	1.5984386
16.328787757675133	2.5949948	1.6108987
16.34649415908287	2.6072712	1.6147047
16.364200953451657	2.6363246	1.6236763
16.38190814123048	2.6588876	1.6306096
16.39961572286839	2.708971	1.6458952
16.41732369881455	2.7494678	1.658152
16.43503206951817	2.759036	1.6610346
16.45274083542859	2.7814562	1.6677698
16.47044999699522	2.79641	1.672247
16.488159554667558	2.8683164	1.6936104
16.505869508895184	2.905236	1.7044753
16.523579860127786	2.9275534	1.7110095
16.541290608815117	3.0053675	1.7335995
16.559001755407035	3.070523	1.7522908
16.57671330035348	3.0955076	1.7594055
16.59442524410448	3.1422412	1.7726368
16.61213758711015	3.1952446	1.7875247
16.629850329820705	3.2806215	1.8112487
16.647563472686436	3.364464	1.8342476
16.665277016157724	3.409339	1.8464395
16.682990960685053	3.4359589	1.853634
16.70070530671898	3.435161	1.8534187
16.718420054710155	3.5027454	1.8715622
16.736135205109335	3.5391543	1.881264
16.753850758367335	3.5977957	1.8967856
16.771566714935087	3.6602674	1.9131825
16.789283075263597	3.7619603	1.9395773
16.80699983980398	3.8373442	1.958914
16.82471700900741	3.8996725	1.9747589
16.84243458332518	3.958497	1.9895972
16.860152563208665	4.077861	2.0193715
16.87787094910932	4.1423926	2.035287
16.89558974147871	4.182424	2.0450976
16.913308940768466	4.230536	2.0568266
16.931028547430333	4.286244	2.0703247
16.94874856191613	4.3914647	2.0955822
16.966468984677785	4.452478	2.1100895
16.98418981616729	4.495576	2.1202774
17.00191105683676	4.4813504	2.11692
17.019632707138374	4.494978	2.1201363
17.03735476752442	4.552936	2.133761
17.05507723844728	4.6040673	2.145709
17.072800120359403	4.671706	2.161413
17.090523413713353	4.678434	2.1629689
17.108247118961785	4.70594	2.1693177
17.125971236557437	4.7507033	2.1796107
17.143695766953133	4.733146	2.1755795
17.161420710601806	4.7390904	2.1769452
17.179146067956477	4.7395344	2.1770473
17.19687183947025	4.7695866	2.1839383
17.21459802559634	4.7526646	2.1800606
17.232324626788028	4.71652	2.171755
17.25005164349871	4.7217374	2.172956
17.267779076181863	4.678156	2.1629045
17.285506925291074	4.644468	2.1551027
17.30323519127999	4.5961504	2.1438634
17.320963874602384	4.602321	2.145302
17.33869297571211	4.6077642	2.1465704
17.356422495063114	4.6539965	2.1573124
17.37415243310944	4.6653757	2.159948
17.391882790305218	4.592123	2.1429238
17.40961356710468	4.503046	2.1220381
17.42734476396215	4.4915104	2.1193185
17.445076381332044	4.551729	2.1334782
17.462808419668868	4.6548223	2.1575038
17.48054087942723	4.7586894	2.181442
17.498273761061835	4.997092	2.2354176
17.51600706502747	5.4172764	2.3275044
17.533740791779024	6.131284	2.4761431
17.551474941771485	7.6229563	2.76097
17.56920951545993	8.811324	2.9683874
17.586944513299528	10.935608	3.3069031
17.60467993574556	12.536804	3.540735
17.622415783253373	14.230997	3.7723994
17.64015205627843	15.554623	3.943935
17.657888755276293	16.5554	4.068833
17.675625880702604	17.029627	4.126697
17.69336343301311	16.887457	4.109435
17.71110141266366	16.319567	4.039748
17.728839820110178	15.405772	3.9250188
17.746578655808705	14.420663	3.7974548
17.764317920215372	12.829931	3.5818894
17.7820576137864	11.3441105	3.3681018
17.79979773697811	9.384526	3.0634174
17.81753829024692	7.5776596	2.752755
17.835279274049356	5.9692335	2.4432015
17.85302068884201	4.896101	2.2127135
17.870762535081607	4.2542543	2.0625844
17.888504813224934	3.9110162	1.977629
17.90624752372891	3.6679637	1.9151928
17.923990667050536	3.5682924	1.8889924
17.941734243646895	3.5008578	1.871058
17.959478253975185	3.4504497	1.8575386
17.9772226984927	3.401151	1.844221
17.994967577656833	3.3745537	1.8369958
18.01271289192506	3.4006412	1.8440827
18.030458641754965	3.3992145	1.8436959
18.04820482760425	3.3760774	1.8374106
18.06595144993067	3.3560133	1.8319424
18.083698509192125	3.37207	1.8363197
18.101446005846576	3.3734071	1.8366838
18.119193940352105	3.35361	1.8312864
18.136942313166887	3.312446	1.8200127
18.1546911247492	3.2516263	1.8032266
18.1724403755574	3.2053123	1.7903386
18.19019006604997	3.183311	1.7841836
18.207940196685467	3.1450524	1.7734295
18.225690767922575	3.1472087	1.7740374
18.243441780220046	3.1411645	1.772333
18.261193234036764	3.1339421	1.7702943
18.278945129831676	3.0870485	1.7569999
18.29669746806386	3.0926561	1.758595
18.314450249192483	3.1425095	1.7727125
18.3322034736768	3.1273742	1.7684383
18.349957141976184	3.0782394	1.7544912
18.3677112545501	3.0412076	1.7439058
18.385465811858108	3.0545282	1.7477208
18.403220814359884	3.0964227	1.7596655
18.420976262515172	3.1390688	1.7717417
18.43873215678387	3.1638427	1.7787194
18.456488497625923	3.1871762	1.7852664
18.474245285501407	3.2598505	1.8055056
18.492002520870486	3.3074985	1.8186529
18.50976020419343	3.416288	1.8483202
18.527518335930615	3.7370977	1.9331574
18.545276916542516	4.291167	2.0715132
18.563035946489688	4.4372168	2.10647
18.580795426232832	4.880814	2.2092564
18.598555356232698	4.7904882	2.1887183
18.616315736950185	5.1087623	2.260257
18.63407656884626	4.779665	2.1862445
18.65183785238201	4.989876	2.233803
18.669599588018617	4.680784	2.163512
18.68736177621737	4.637561	2.1534996
18.705124417439652	4.66523	2.1599143
18.72288751214696	4.5309277	2.1285975
18.740651060800886	4.698472	2.1675959
18.758415063863115	4.390141	2.0952663
18.77617952179546	4.5610514	2.1356618
18.793944435059814	4.294007	2.0721986
18.811709804118184	4.325953	2.0798926
18.829475629432675	4.291588	2.0716147
18.8472419114655	4.044649	2.0111313
18.86500865067897	4.0995812	2.0247424
18.88277584753551	3.7246232	1.9299283
18.90054350249763	3.7899005	1.9467667
18.918311616027957	3.5025995	1.8715233
18.936080188589226	3.37133	1.8361182
18.953849220644265	3.0343943	1.7419512
18.971618712656007	2.8659084	1.6928993
18.9893886650875	2.8581011	1.6905919
19.007159078401887	8.037084	2.834975
19.024929953062408	32.9441	5.739695
19.042701289532435	32.87561	5.7337255
19.060473088275405	25.39241	5.0390882
19.07824534975489	2.6477137	1.6271796
19.096018074434568	2.6740525	1.6352531
19.113791262778197	2.6751978	1.6356032
19.13156491524966	2.644331	1.6261399
19.149339032312945	2.5857646	1.6080313
19.167113614432136	2.5649445	1.6015444
19.184888662071433	2.5587745	1.599617
19.202664175695123	2.5689235	1.6027862
19.220440155767623	2.6002033	1.6125146
19.238216602753447	2.61474	1.6170157
19.2559935171172	2.6044495	1.6138307
19.27377089932361	2.5530422	1.5978242
19.291548749837514	2.5263953	1.5894638
19.309327069123835	2.5313199	1.5910122
19.32710585764763	2.5263608	1.589453
19.344885115874032	2.5390294	1.5934331
19.362664844268313	2.5434713	1.5948265
19.380445043295822	2.5497088	1.5967808
19.39822571342203	2.5010023	1.5814557
19.41600685511252	2.4860976	1.5767363
19.43378846883297	2.4910133	1.5782944
19.451570555049173	2.486575	1.5768877
19.469353114227037	2.5158489	1.5861428
19.48713614683254	2.4954152	1.5796883
19.50491965333182	2.4840343	1.576082
19.52270363419109	2.485168	1.5764415
19.540488089876686	2.447689	1.5645092
19.55827302085503	2.4347067	1.5603547
19.576058427592674	2.4538536	1.5664781
19.593844310556282	2.4746966	1.5731169
19.611630670212598	2.4810367	1.5751307
19.629417507028506	2.4875124	1.5771849
19.64720482147098	2.4928863	1.5788877
19.6649926140071	2.5158906	1.5861559
19.682780885104084	2.528511	1.5901293
19.70056963522921	2.5329285	1.5915177
19.718358864849908	2.5492916	1.5966501
19.7361485744337	2.5435998	1.5948668
19.753938764448215	2.5002885	1.58123
19.771729435361202	2.5241168	1.5887469
19.789520587640506	2.5342171	1.5919224
19.807312221754092	2.5499969	1.5968709
19.825104338170043	2.503143	1.5821325
19.842896937356517	2.5352974	1.5922617
19.860690019781824	2.5544157	1.598254
19.87848358591436	2.5628211	1.6008813
19.896277636222635	2.560792	1.6002475
19.914072171175278	2.552729	1.5977261
19.931867191241015	2.5303361	1.590703
19.94966269688869	2.5300877	1.5906249
19.967458688587264	2.4991426	1.5808676
19.985255166805807	2.5091581	1.5840323
20.00305213201348	2.4698243	1.5715674
20.020849584679578	2.4455788	1.5638347
20.038647525273507	2.4309874	1.5591624
20.05644595426477	2.4548252	1.5667882
20.07424487212299	2.434178	1.5601853
20.092044279317903	2.441056	1.562388
20.109844176319353	2.4376168	1.5612869
20.127644563597304	2.4692535	1.5713859
20.145445441621817	2.44553	1.563819
20.16324681086307	2.450502	1.5654079
20.181048671791373	2.4322906	1.5595802
20.198851024877122	2.4351304	1.5604904
20.216653870590836	2.4218018	1.556214
20.234457209403146	2.4296257	1.5587257
20.252261041784802	2.4187176	1.5552227
20.270065368206662	2.4030366	1.550173
20.287870189139685	2.3839839	1.5440155
20.305675505054968	2.3733246	1.5405599
20.323481316423702	2.3716378	1.5400122
20.341287623717207	2.356994	1.5352504
20.359094427406884	2.398788	1.5488021
20.376901727964288	2.392441	1.5467517
20.39470952586107	2.3775287	1.5419236
20.41251782156899	2.3561	1.5349593
20.430326615559935	2.3516061	1.5334947
20.448135908305886	2.3662732	1.5382695
20.465945700278965	2.3792524	1.5424826
20.483755991951384	2.365782	1.5381099
20.50156678379548	2.3379369	1.5290314
20.519378076283708	2.360456	1.5363775
20.537189869888635	2.347789	1.5322497
20.55500216508294	2.3291457	1.5261539
20.572814962339415	2.28627	1.5120417
20.59062826213098	2.3295157	1.5262752
20.60844206493066	2.3531375	1.533994
20.626256371211593	2.3648562	1.5378089
20.644071181447032	2.3404102	1.52984
20.66188649611036	2.3088038	1.5194749
20.67970231567506	2.2834451	1.5111072
20.697518640614742	2.2787488	1.5095525
20.715335471403122	2.2734342	1.5077912
20.73315280851404	2.3283663	1.5258985
20.750970652421447	2.340884	1.5299947
20.768789003599412	2.3447924	1.5312715
20.786607862522136	2.2948768	1.5148851
20.8044272296639	2.297938	1.5158951
20.82224710549913	2.304296	1.5179908
20.84006749050237	2.3121214	1.5205661
20.857888385148268	3.8561153	1.9636995
20.8757097899116	45.95825	6.779251
20.893531705267254	64.84743	8.05279
20.911354131690224	83.892746	9.159298
20.92917706965566	69.16676	8.316656
20.94700051963877	50.19884	7.085114
20.96482448211493	29.420887	5.4241023
20.982648957559622	4.117044	2.02905
21.00047394644843	2.2222936	1.4907359
21.01829944925707	2.1993523	1.4830214
21.036125466461375	2.2064264	1.4854045
21.053951998537297	2.2422075	1.4974003
21.071779045960906	2.2611651	1.5037171
21.089606609208378	2.2418191	1.4972706
21.10743468875603	2.2415857	1.4971926
21.12526328508028	2.2242544	1.4913934
21.143092398657675	2.2454002	1.4984659
21.16092202996488	2.2322133	1.4940593
21.17875217947867	2.2545524	1.5015167
21.19658284767596	2.2357674	1.4952483
21.21441403503377	2.2503846	1.5001281
21.232245742029225	2.2513921	1.500464
21.2500779691396	2.2478874	1.4992956
21.26791071684227	2.2215075	1.4904722
21.28574398561475	2.1687644	1.4726725
21.30357777593465	2.1588986	1.4693191
21.321412088279704	2.170739	1.4733428
21.339246923127792	2.20641	1.4853989
21.357082280956888	2.2212057	1.490371
21.3749181622451	2.23116	1.4937068
21.392754567470647	2.2175934	1.4891586
21.41059149711187	2.1867917	1.4787805
21.42842895164726	2.19461	1.4814217
21.446266931555378	2.198	1.4825653
21.464105437314945	2.2029915	1.4842478
21.481944469404798	2.1749437	1.474769
21.49978402830388	2.1472344	1.4653444
21.51762411449127	2.0986323	1.4486657
21.53546472844617	2.1206703	1.4562521
21.553305870647876	2.1312573	1.4598826
21.571147541575865	2.118575	1.4555326
21.58898974170967	2.114648	1.454183
21.60683247152899	2.1195993	1.4558843
21.62467573151363	2.1440604	1.464261
21.642519522143523	2.150593	1.46649
21.660363843898722	2.1484077	1.4657447
21.6782086972594	2.1132054	1.4536868
21.696054082705864	2.078635	1.4417472
21.713900000718535	2.0479755	1.431075
21.73174645177795	2.0417204	1.4288878
21.749593436364794	2.029259	1.4245206
21.767440954959845	2.0296168	1.4246463
21.785289008044032	2.023318	1.4224339
21.803137596098388	2.0110521	1.4181157
21.820986719604086	2.0249321	1.423001
21.838836379042412	2.0353887	1.4266706
21.85668657489478	2.0509799	1.4321243
21.87453730764273	2.0360367	1.4268976
21.892388577767914	2.0212958	1.4217228
21.91024038575213	2.0202973	1.4213716
21.928092732077285	2.0285392	1.4242679
21.945945617225426	2.014068	1.4191786
21.963799041678694	2.0519562	1.4324651
21.981653005919398	31.38227	5.6019883
21.999507510429943	78.169945	8.841377
22.01736255569286	73.07809	8.548573
22.035218142190818	4.164491	2.0407085
22.05307427040661	1.9887497	1.4102304
22.07093094082315	2.011766	1.4183674
22.088788153923474	2.0083168	1.417151
22.106645910190746	1.9803412	1.407246
22.12450421010827	1.9404836	1.3930124
22.142363054159464	1.9596741	1.3998836
22.16022244282787	2.0043442	1.4157486
22.178082376597164	2.0439248	1.429659
22.195942855951145	2.0321496	1.4255348
22.213803881373742	2.0374827	1.4274042
22.231665453349002	2.044445	1.4298409
22.24952757236111	2.0404024	1.4284265
22.26739023889438	2.013904	1.4191209
22.28525345343323	2.0055318	1.416168
22.30311721646225	2.025195	1.4230934
22.320981528466113	2.0036936	1.4155189
22.33884638992964	2.002032	1.4149318
22.356711801337788	1.9987288	1.413764
22.37457776317561	1.9763077	1.4058121
22.392444275928337	1.9577758	1.3992054
22.410311340081282	1.9449917	1.3946296
22.428178956119904	1.9600898	1.400032
22.446047124529805	1.938848	1.3924252
22.46391584579669	1.9250478	1.387461
22.481785120406414	1.9475112	1.3955326
22.49965494884496	1.9625243	1.4009012
22.51752533159841	1.9484203	1.3958583
22.53539626915302	1.9256356	1.3876727
22.553267761995137	1.9273971	1.3883073
22.571139810611264	1.9219713	1.3863518
22.589012415488025	1.9687424	1.4031188
22.60688557711216	1.9549869	1.3982085
22.624759295970566	1.9554393	1.3983703
22.642633572550263	1.9558856	1.3985298
22.660508407338362	1.9586997	1.3995355
22.67838380082217	1.9532846	1.3975996
22.696259753489077	1.9306363	1.3894734
22.714136265826614	1.9054592	1.3803837
22.73201333832246	1.9058822	1.3805369
22.74989097146439	1.9183346	1.3850396
22.76776916574035	1.9358956	1.3913647
22.785647921638393	1.9387068	1.3923745
22.803527239646712	1.9382763	1.3922199
22.82140712025363	1.9088198	1.3816005
22.839287563947593	1.9265751	1.3880112
22.85716857121719	1.913575	1.3833203
22.875050142551135	1.9209791	1.385994
22.892932278438277	1.9200932	1.3856742
22.910814979367604	1.9240612	1.3871053
22.928698245828222	1.9255677	1.3876482
22.946582078309387	1.9247903	1.3873681
22.96446647730047	1.9421493	1.3936101
22.98235144329098	1.9787427	1.4066778
23.000236976770562	1.9790847	1.4067994
23.018123078229	1.9627206	1.4009713
23.03600974815619	1.920798	1.3859285
23.053896987042194	1.9108205	1.3823243
23.071784795377173	1.9265847	1.3880147
23.08967317365145	1.9198176	1.3855748
23.10756212235546	1.8902907	1.3748784
23.125451641979787	1.8748144	1.3692386
23.143341733015134	1.8676299	1.3666126
23.161232395952357	1.8907121	1.3750317
23.179123631282426	1.8990399	1.3780565
23.197015439496468	1.8846877	1.3728392
23.214907821085717	1.9070699	1.380967
23.23280077654157	1.9341395	1.3907335
23.250694306355538	1.9444332	1.3944293
23.268588411019277	1.9690981	1.4032456
23.28648309102458	1.9597175	1.3998991
23.304378346863356	1.9496754	1.3963078
23.322274179027676	1.946305	1.3951004
23.340170588009723	1.9466497	1.3952239
23.358067574301852	1.9555774	1.3984196
23.37596513839651	1.9619093	1.4006817
23.39386328078629	1.9278105	1.3884562
23.411762001963947	1.9248769	1.3873993
23.429661302422353	1.9368217	1.3916974
23.4475611826545	1.9333007	1.3904319
23.46546164315356	1.9784433	1.4065715
23.48336268441279	1.9815861	1.4076883
23.501264306925638	1.9840592	1.4085664
23.51916651118564	1.975627	1.40557
23.537069297686497	1.9754413	1.405504
23.554972666922037	1.9509184	1.3967528
23.57287661938623	1.9556977	1.3984627
23.59078115557318	1.9775358	1.4062488
23.608686275977128	1.9546994	1.3981056
23.62659198109246	1.9075537	1.3811421
23.6444982714137	1.8585004	1.3632683
23.66240514743549	1.8353907	1.3547659
23.68031260965263	1.8677132	1.3666431
23.698220658560068	1.9144669	1.3836426
23.716129294652845	1.9455403	1.3948263
23.7340385184262	1.9474772	1.3955204
23.75194833037546	1.9405495	1.3930361
23.769858730996123	1.9284858	1.3886993
23.78776972078382	1.905277	1.3803177
23.80568130023431	1.8971097	1.377356
23.823593469843495	1.9240248	1.3870922
23.841506230107424	1.9227964	1.3866494
23.859419581522275	1.9028019	1.3794209
23.87733352458438	1.8803129	1.371245
23.89524805979019	1.9065943	1.3807948
23.913163187636318	1.9453492	1.3947577
23.931078908619508	2.0067778	1.4166079
23.948995223236633	2.058725	1.4348258
23.966912131984735	2.0716097	1.4393088
23.98482963536096	2.072974	1.4397826
24.002747733862616	2.07425	1.4402257
24.020666427987155	2.1080322	1.4519064
24.038585718232156	2.1196654	1.4559071
24.056505605095353	2.0924268	1.4465224
24.074426089074617	2.0751364	1.4405334
24.092347170667946	2.0144234	1.4193038
24.110268850373515	2.0319378	1.4254606
24.128191128689586	2.0499935	1.4317799
24.146114006114626	2.0968857	1.4480628
24.164037483147187	2.0969427	1.4480824
24.181961560286005	2.0614479	1.4357743
24.199886238029926	2.071951	1.4394273
24.21781151687797	2.1245666	1.4575893
24.235737397329274	2.128667	1.4589952
24.253663879883135	2.086904	1.444612
24.271590965038975	2.0629394	1.4362936
24.289518653296376	2.0006454	1.4144417
24.30744694515505	2.0102992	1.4178503
24.32537584111486	2.001261	1.4146594
24.34330534167581	2.0314703	1.4252965
24.361235447338046	2.0375657	1.4274333
24.379166158601876	2.0257237	1.4232792
24.39709747596772	2.0312023	1.4252026
24.41502939993615	2.058514	1.4347522
24.432961931007917	2.0638676	1.4366167
24.450895069683856	2.0139966	1.4191535
24.468828816465	2.0101526	1.4177985
24.4867631718525	1.9832108	1.4082652
24.504698136347656	2.0211637	1.4216764
24.52263371045192	2.0059106	1.4163017
24.540569894666874	2.0224152	1.4221164
24.558506689494266	1.9609483	1.4003386
24.57644409543597	1.9340318	1.3906947
24.594382112994012	1.9496849	1.3963112
24.61232074267057	1.9717993	1.4042077
24.630259984967953	2.019956	1.4212517
24.64819984038863	2.0490115	1.4314369
24.66614030943522	2.054102	1.4332138
24.684081392610462	1.9813076	1.4075893
24.702023090417274	1.9631331	1.4011185
24.7199654033587	1.9814712	1.4076474
24.737908331937927	1.9764689	1.4058695
24.755851876658305	1.9731733	1.4046968
24.773796038023324	1.9682912	1.402958
24.79174081653661	2.0129085	1.4187701
24.809686212701962	2.0598412	1.4352146
24.827632227023294	2.076133	1.4408792
24.8455788600047	2.087547	1.4448346
24.8635261121504	2.1311178	1.4598348
24.88147398396475	2.1396282	1.4627467
24.899422475952303	2.1639154	1.4710252
24.917371588617698	2.1541388	1.4676985
24.935321322465768	2.1998277	1.4831816
24.953271678001478	2.315844	1.5217898
24.97122265572994	2.5096757	1.5841956
24.989174256156414	2.7907033	1.6705399
25.00712647978632	3.1652837	1.7791244
25.02507932712521	3.6680043	1.9152035
25.043032798678798	4.2194467	2.0541291
25.060986894952933	4.922047	2.2185688
25.078941616453637	5.7282043	2.3933668
25.096896963687055	6.627002	2.5742965
25.114852937159508	7.7559285	2.7849467
25.132809537377444	8.194687	2.8626363
25.150766764847468	8.242827	2.8710325
25.168724620076347	7.702965	2.7754216
25.186683103570985	6.7175117	2.5918162
25.204642215838426	5.5804963	2.3623073
25.222601957385894	4.253301	2.0623534
25.24056232872074	3.2565064	1.8045793
25.25852333035048	2.6645517	1.6323454
25.276484962782778	2.2933087	1.5143675
25.294447226525435	2.086813	1.4445806
25.312410122086423	2.027421	1.4238753
25.330373649973843	1.9715158	1.4041067
25.348337810695988	1.9553441	1.3983362
25.366302604761245	1.894593	1.3764422
25.384268032678207	1.9092684	1.3817627
25.40223409495558	1.8992393	1.3781289
25.420200792102257	1.9013445	1.3788925
25.438168124627246	1.8994893	1.3782196
25.45613609303974	1.8867381	1.3735858
25.474104697849057	1.8930734	1.37589
25.492073939564698	1.8959221	1.3769249
25.510043818696285	1.8455293	1.3585026
25.528014335753614	1.8599753	1.3638091
25.54598549124664	1.8649131	1.3656182
25.56395728568544	1.930049	1.389262
25.58192971958028	1.9094174	1.3818167
25.59990279344156	1.8968546	1.3772634
25.617876507779833	1.8818657	1.3718112
25.635850863105826	1.8844551	1.3727546
25.653825859930386	1.8359826	1.3549843
25.671801498764548	1.8398231	1.3564008
25.68977778011949	1.8372644	1.3554573
25.707754704506524	1.8658363	1.3659562
25.725732272437153	1.8468924	1.3590041
25.743710484423012	1.8277481	1.3519423
25.761689340975888	1.7785233	1.3336129
25.77966884260774	1.7686851	1.3299192
25.797648989830662	1.8213874	1.3495879
25.815629783156922	1.8837095	1.372483
25.83361122309895	1.8906373	1.3750044
25.85159331016929	1.868767	1.3670286
25.869576044880695	1.850711	1.3604084
25.887559427746034	1.8746725	1.3691868
25.90554345927836	1.8614448	1.3643478
25.92352813999086	1.8684924	1.3669281
25.94151347039689	1.8510107	1.3605186
25.959499451009965	1.790904	1.3382466
25.97748608234374	1.7924182	1.3388122
25.995473364912062	1.8149182	1.347189
26.013461299228904	1.8453344	1.3584309
26.03144988580839	1.849802	1.3600743
26.04943912516483	1.8286952	1.3522925
26.067429017812675	1.8383518	1.3558583
26.085419564266537	1.8117101	1.3459978
26.103410765041186	1.7757894	1.3325875
26.12140262065155	1.7593566	1.3264074
26.139395131612723	1.8041582	1.3431896
26.157388298439948	1.8203416	1.3492004
26.17538212164861	1.8432629	1.3576682
26.193376601754295	1.8714159	1.367997
26.211371739272714	1.8586376	1.3633186
26.229367534719746	1.8127815	1.3463957
26.247363988611433	1.7946373	1.3396407
26.26536110146397	1.7819914	1.3349125
26.283358873793727	1.7616109	1.3272569
26.301357306117204	1.7665895	1.3291311
26.319356398951104	1.8219784	1.3498068
26.33735615281224	1.8651979	1.3657225
26.35535656821762	1.9020869	1.3791616
26.373357645684404	1.8659112	1.3659836
26.39135938572991	1.8589103	1.3634186
26.409361788871614	1.8116952	1.3459923
26.427364855627165	1.8145847	1.3470652
26.445368586514352	1.8276707	1.3519137
26.46337298205115	1.8371758	1.3554246
26.48137804275568	1.8060864	1.3439071
26.499383769146217	1.8445472	1.3581411
26.517390161741215	1.8293308	1.3525276
26.53539722105928	1.8015648	1.3422239
26.553404947619182	1.8045014	1.3433173
26.571413341939856	1.8342576	1.3543477
26.589422404540397	1.8390574	1.3561186
26.60743213594006	1.8210584	1.349466
26.62544253665827	1.760942	1.3270049
26.64345360721459	1.7453382	1.3211125
26.66146534812879	1.78178	1.3348334
26.679477759920758	1.8028911	1.3427178
26.69749084311057	1.8468812	1.3590001
26.71550459821847	1.8320204	1.3535215
26.733519025764842	1.8324121	1.3536662
26.751534126270258	1.8326104	1.3537394
26.769549900255434	1.8073243	1.3443676
26.787566348241267	1.77973	1.3340652
26.80558347074881	1.8029494	1.3427396
26.823601268299267	1.8345461	1.3544542
26.841619741414036	1.7907681	1.3381958
26.85963889061465	1.7794216	1.3339496
26.877658716422832	1.7770154	1.3330474
26.89567921936045	1.8270963	1.3517013
26.913700399949544	1.8826919	1.3721122
26.93172225871233	1.8982885	1.3777839
26.949744796171174	1.863285	1.365022
26.967768012848605	1.81331	1.346592
26.98579190926733	1.8226784	1.3500661
27.003816485950225	1.8225281	1.3500104
27.021841743420318	1.8342	1.3543264
27.039867682200814	1.8022456	1.3424774
27.057894302815072	1.7803847	1.3343105
27.07592160578664	1.7865171	1.3366066
27.0939495916392	1.8017232	1.3422829
27.111978260896635	1.8109257	1.3457063
27.13000761408296	1.8369782	1.3553517
27.148037651722397	1.8370856	1.3553913
27.166068374339304	1.7899268	1.3378814
27.184099782458215	1.7637469	1.3280613
27.20213187660384	1.7693815	1.330181
27.22016465730105	1.7465695	1.3215784
27.23819812507487	1.7931974	1.3391032
27.256232280450533	1.8755729	1.3695155
27.274267123953383	1.9297231	1.3891448
27.292302656108987	1.8830361	1.3722377
27.31033887744306	1.8102733	1.345464
27.32837578848146	1.8232335	1.3502716
27.34641338975026	1.8024491	1.3425533
27.364451681775673	1.8321365	1.3535644
27.382490665084074	1.8202592	1.3491699
27.400530340202046	1.8744729	1.3691139
27.41857070765629	1.9029585	1.3794776
27.436611767973726	1.9030164	1.3794986
27.454653521681404	1.7787775	1.3337082
27.472695969306564	1.7358334	1.3175102
27.490739111376627	1.7699543	1.3303963
27.508782948419153	1.850483	1.3603246
27.526827480961902	1.8415822	1.3570491
27.54487270953279	1.8023349	1.3425107
27.562918634659898	1.8150134	1.3472244
27.580965256871508	1.8296317	1.3526388
27.599012576696026	1.8178362	1.3482715
27.617060594662068	1.8490496	1.3597976
27.63510931129842	1.8471249	1.3590897
27.65315872713401	1.7855304	1.3362374
27.67120884269797	1.7625692	1.3276179
27.68925965851958	1.8563868	1.3624928
27.707311175128307	1.8648559	1.3655972
27.725363393053787	1.8278081	1.3519646
27.74341631282583	1.8239766	1.3505468
27.7614699349744	1.8649752	1.365641
27.77952426002968	2.0482154	1.4311588
27.797579288521973	2.0881183	1.4450322
27.815635020981784	2.5838456	1.6074345
27.83369145793979	2.7178655	1.648595
27.85174859992682	2.5427885	1.5946124
27.869806447473923	2.3503551	1.5330868
27.887865001112267	2.0341039	1.4262202
27.905924261373233	1.8920496	1.375518
27.92398422878836	1.8763458	1.3697977
27.94204490388936	1.909402	1.3818111
27.96010628720813	1.8868729	1.3736349
27.978168379276728	1.8658831	1.3659734
27.9962311806274	1.8834383	1.3723842
28.014294691792568	1.8535805	1.3614626
28.0323589133048	1.8124188	1.346261
28.050423845696887	1.7688693	1.3299885
28.068489489501758	1.8041477	1.3431857
28.086555845252523	1.9213156	1.3861153
28.104622913482487	2.0175905	1.4204191
28.122690694725115	1.9913996	1.4111696
28.14075918951405	1.9469495	1.3953313
28.15882839838312	1.9115832	1.3826002
28.176898321866304	1.9324002	1.390108
28.1949689604978	1.9358331	1.3913422
28.213040314811945	1.9266841	1.3880504
28.23111238534327	1.9091384	1.3817158
28.249185172626493	1.9319309	1.3899392
28.267258677196473	1.9676685	1.4027361
28.285332899588294	1.9092487	1.3817557
28.303407840337172	1.8615597	1.3643899
28.321483499978545	1.9097712	1.3819448
28.33955987904799	1.965067	1.4018085
28.357636978081285	1.9864303	1.4094077
28.37571479761439	1.9847809	1.4088225
28.393793338183425	1.9826035	1.4080496
28.41187260032469	2.0063422	1.4164541
28.429952584574686	2.0232873	1.422423
28.448033291470065	2.0401618	1.4283423
28.46611472154769	1.9938848	1.4120499
28.484196875344566	1.9610916	1.4003898
28.502279753397914	1.9421285	1.3936027
28.52036335624511	1.9260621	1.3878264
28.538447684423716	1.9258847	1.3877625
28.556532738471482	1.9588317	1.3995826
28.574618518926325	2.0165603	1.4200565
28.59270502632635	2.0264153	1.4235221
28.61079226120985	2.0141006	1.41919
28.628880224115274	1.9799227	1.4070972
28.646968915581287	1.9750857	1.4053774
28.66505833614671	2.0171764	1.4202733
28.68314848635055	1.9957097	1.4126959
28.701239366732004	2.0276325	1.4239496
28.71933097783044	2.041307	1.4287431
28.737423320185403	2.1144216	1.4541051
28.75551639433665	2.149489	1.4661136
28.773610200824074	2.1488714	1.4659029
28.791704740187793	2.1846623	1.4780604
28.80980001296809	2.1493695	1.4660728
28.827896019705413	2.125923	1.4580545
28.845992760940433	2.150816	1.4665661
28.86409023721397	2.1982594	1.4826528
28.88218844906704	2.17711	1.4755033
28.900287397040845	2.21763	1.4891709
28.918387081676755	2.2961223	1.5152961
28.936487503516343	2.324244	1.5245471
28.954588663101365	2.3479245	1.5322939
28.97269056097374	2.3287923	1.5260382
28.990793197675597	2.3404136	1.5298411
29.00889657374923	2.3189867	1.5228219
29.027000689737125	2.3061128	1.518589
29.04510554618196	2.3238387	1.5244142
29.06321114362659	2.4001286	1.5492349
29.08131748261405	2.4527395	1.5661224
29.099424563687567	2.4721618	1.5723109
29.11753238739057	2.5030665	1.5821083
29.13564095426663	2.545104	1.5953382
29.15375026485954	2.6258194	1.6204381
29.171860319713275	2.6350653	1.6232884
29.18997111937199	2.6484005	1.6273907
29.20808266438002	2.7411199	1.6556327
29.226194955281898	2.7703936	1.6644499
29.244307992622335	2.7948246	1.6717728
29.26242177694624	2.829829	1.6822096
29.2805363087987	2.8921995	1.7006468
29.29865158872498	2.9397497	1.7145698
29.316767617270557	2.9561975	1.7193596
29.334884394981064	3.0067983	1.7340122
29.353001922402367	3.0658026	1.7509433
29.37112020008047	3.087168	1.7570338
29.389239228561596	3.1148918	1.7649056
29.407359008392152	3.335678	1.8263838
29.42547954011872	3.7751114	1.9429646
29.44360082428809	4.383412	2.0936599
29.46172286144722	5.3080106	2.303912
29.479845652143283	6.833848	2.614163
29.497969196923606	8.848988	2.9747248
29.516093496335728	11.397692	3.3760467
29.5342185509274	14.152447	3.7619739
29.55234436124651	16.561256	4.0695524
29.570470927841175	17.98913	4.241359
29.588598251259686	17.64484	4.2005763
29.60672633205055	16.280905	4.0349603
29.624855170762405	14.172832	3.764682
29.642984767944146	11.563371	3.4004958
29.66111512414481	8.881361	2.9801612
29.67924623991366	6.714125	2.591163
29.697378115800138	5.185636	2.2771993
29.71551075235387	4.206448	2.0509627
29.733644150124675	3.7654357	1.9404731
29.751778309662576	3.489244	1.8679519
29.769913231517766	3.383822	1.8395168
29.78804891624066	3.3723767	1.8364033
29.806185364381818	3.3428895	1.8283571
29.82432257649206	3.2959287	1.8154693
29.842460553122333	3.2984068	1.8161516
29.86059929482382	3.3503847	1.8304056
29.878738802147872	3.3382273	1.8270817
29.896879075646048	3.3464346	1.8293263
29.915020115870114	3.3404489	1.8276895
29.933161923371976	3.3351638	1.826243
29.951304498703777	3.2889473	1.8135455
29.969447842417857	3.2831163	1.8119372
29.987591955066733	3.2090142	1.7913722
30.005736837203123	3.1587005	1.7772733
30.023882489379943	3.1774435	1.7825385
30.04202891215028	3.1817358	1.7837421
30.060176106067455	3.1969938	1.7880139
30.078324071684946	3.1261683	1.7680974
30.09647280955646	3.085149	1.7564592
30.114622320235863	3.0820823	1.755586
30.132772604277257	3.136748	1.7710867
30.1509236622349	3.151898	1.7753586
30.16907549466328	3.029357	1.7405047
30.18722810211705	3.052092	1.7470238
30.205381485151097	3.1604981	1.777779
30.22353564432045	3.1637335	1.7786887
30.241690580180403	3.103239	1.7616013
30.25984629328638	3.0555189	1.7480042
30.278002784194037	3.0526485	1.7471831
30.296160053459246	3.0325904	1.7414334
30.314318101638033	3.0188653	1.7374883
30.332476929286646	3.0569038	1.7484003
30.35063653696153	3.0415914	1.7440159
30.368796925219307	2.9524217	1.7182612
30.386958094616844	2.917395	1.7080383
30.40512004571115	2.905923	1.7046767
30.423282779059463	2.8760638	1.6958961
30.441446295219233	2.7985475	1.672886
30.459610594748067	2.750423	1.6584399
30.47777567820382	2.8219457	1.6798648
30.495941546144504	2.8666484	1.693118
30.51410819912835	2.8475938	1.6874815
30.532275637713795	2.8238873	1.6804426
30.55044386245946	2.8109362	1.6765847
30.56861287392416	2.7315335	1.6527351
30.586782672666956	2.6893609	1.639927
30.604953259247047	2.7191923	1.6489973
30.623124634223885	2.8275952	1.6815455
30.641296798157075	2.8393047	1.6850237
30.659469751606462	2.8541832	1.6894329
30.677643495132074	2.810709	1.6765169
30.695818029294152	2.7075815	1.645473
30.713993354653116	2.6854613	1.6387377
30.73216947176962	2.7355294	1.6539435
30.75034638120448	2.7342112	1.653545
30.768524083518756	2.6997979	1.6431062
30.786702579273673	2.7301564	1.6523185
30.80488186903069	2.7885587	1.6698978
30.82306195335144	2.8613591	1.6915553
30.841242832797782	3.0404909	1.7437004
30.85942450793176	3.3422062	1.8281702
30.877606979315637	3.6100974	1.9000256
30.895790247511883	3.969304	1.9923112
30.913974313083134	4.408991	2.0997598
30.932159176592283	4.8371162	2.1993444
30.95034483860237	4.8906612	2.211484
30.968531299676698	4.6480556	2.155935
30.98671856037873	4.3668084	2.089691
31.00490662127215	3.962074	1.9904959
31.023095482920848	3.515413	1.8749435
31.04128514588892	3.20204	1.7894244
31.059475610740662	2.8558807	1.6899351
31.07766687804056	2.5773082	1.6053997
31.09585894835335	2.48581	1.5766451
31.11405182224393	2.5166748	1.5864031
31.132245500277417	2.5401685	1.5937907
31.15043998301914	2.4905374	1.5781437
31.168635271034628	2.4321346	1.5595303
31.18683136488964	2.4184167	1.555126
31.20502826515008	2.4197664	1.5555599
31.223225972382135	2.422054	1.5562949
31.241424487152155	2.3693328	1.5392637
31.259623810026692	2.3551967	1.534665
31.27782394157253	2.4271424	1.5579289
31.296024882356644	2.5168695	1.5864645
31.314226632946237	2.5456126	1.5954976
31.332429193908684	2.4965203	1.5800381
31.350632565811598	2.5204706	1.587599
31.368836749222787	2.5113697	1.5847301
31.387041744710295	2.5236654	1.5886049
31.40524755284232	2.538733	1.5933402
31.423454174187317	2.545497	1.5954614
31.441661609313922	2.5648859	1.6015261
31.459869858791002	2.4883504	1.5774506
31.478078923187628	2.4005566	1.5493729
31.496288803073064	2.4190483	1.555329
31.514499499016807	2.42555	1.5574178
31.532711011588546	2.3800478	1.5427403
31.550923341358178	2.353569	1.5341346
31.56913648889584	2.3947175	1.5474875
31.587350454771844	2.369704	1.5393842
31.605565239556732	2.363533	1.5373787
31.62378084382127	2.400694	1.5494173
31.641997268136382	2.4340532	1.5601453
31.660214513073274	2.4043934	1.5506107
31.67843257920331	2.3375173	1.5288942
31.6966514670981	2.2894962	1.5131081
31.71487117732944	2.3018985	1.5172008
31.733091710469346	2.3061345	1.5185962
31.751313067090052	2.3009627	1.5168924
31.769535247764008	2.3547628	1.5345236
31.787758253063878	2.3378468	1.5290018
31.805982083562526	2.306189	1.5186142
31.824206739833024	2.3100302	1.5198784
31.84243222244869	2.3598566	1.5361825
31.860658531983013	2.3607786	1.5364826
31.878885669009737	2.3470545	1.53201
31.897113634102784	2.2959359	1.5152346
31.91534242783632	2.1818871	1.4771212
31.933572050784694	2.1875505	1.479037
31.951802503522508	2.2818925	1.5105934
31.970033786624548	2.301274	1.5169951
31.988265900665834	2.2475095	1.4991696
32.006498846221575	2.273782	1.5079066
32.02473262386724	2.2849221	1.5115958
32.04296723417845	2.172665	1.4739963
32.0612026777311	2.1536448	1.4675301
32.07943895510129	2.2162945	1.4887224
32.097676066865304	2.1640549	1.4710727
32.115914013599685	2.0875442	1.4448336
32.13415279588115	2.119823	1.4559612
32.152392414286666	2.1298313	1.4593942
32.1706328693934	2.1007934	1.4494114
32.18887416177875	2.0761013	1.4408683
32.20711629202032	2.1320608	1.4601578
32.225359260695924	2.175955	1.4751118
32.243603068383614	2.1400542	1.4628924
32.26184771566166	2.093251	1.4468071
32.28009320310852	2.0820892	1.4429446
32.2983395313029	2.0926554	1.4466014
32.31658670082372	2.163591	1.470915
32.33483471225012	2.1145298	1.4541423
32.35308356616143	2.0537093	1.4330769
32.371333263137245	1.9741644	1.4050496
32.38958380375734	1.9834026	1.4083333
32.407835188601744	2.0347977	1.4264634
32.42608741825067	2.0882576	1.4450805
32.444340493284585	2.1164634	1.454807
32.46259441428416	2.074968	1.440475
32.48084918183028	2.056391	1.4340122
32.49910479650405	2.013084	1.418832
32.51736125888683	2.011603	1.4183099
32.53561856956014	2.0707483	1.4390095
32.5538767291058	2.0712688	1.4391903
32.572135738105764	2.0432038	1.4294068
32.59039559714228	2.0259755	1.4233676
32.608656306797776	1.917996	1.3849174
32.62691786765491	1.9640199	1.4014349
32.645180280296586	2.0093164	1.4175036
32.663443545305896	2.039665	1.4281684
32.68170766326619	1.9865233	1.4094408
32.69997263476099	1.8877795	1.3739649
32.7182384603741	1.9178333	1.3848586
32.7365051406895	2.0301845	1.4248455
32.75477267629144	2.0154378	1.4196612
32.77304106776434	1.9754872	1.4055203
32.79131031569289	1.9987574	1.4137741
32.809580420661966	1.9888464	1.4102646
32.827851383256714	1.9700909	1.4035993
32.84612320406245	2.0372403	1.4273193
32.86439588366476	2.0446384	1.4299085
32.88266942264945	1.9548266	1.3981512
32.9009438216025	1.8844589	1.372756
32.9192190811102	1.8957078	1.376847
32.937495201758985	1.9055457	1.3804151
32.95577218413556	1.9277697	1.3884414
32.974050028826866	1.923775	1.3870021
32.992328736420035	1.9973536	1.4132776
33.010608307502444	2.0104573	1.4179059
33.02888874266169	1.8866184	1.3735423
33.047170042485604	1.8927782	1.3757827
33.06545220756225	1.9897331	1.410579
33.083735238479896	2.0103202	1.4178576
33.10201913582707	1.9685156	1.403038
33.12030390019248	1.9544896	1.3980306
33.138589532165135	1.9466712	1.3952316
33.15687603233419	1.9779778	1.4064059
33.17516340128909	1.9575957	1.3991411
33.19345163961947	1.9512974	1.3968885
33.211740747915215	1.8793238	1.3708843
33.23003072676643	1.8646008	1.3655039
33.248321576763466	1.8669219	1.3663535
33.266613298496885	1.9401338	1.3928869
33.28490589255747	1.9795784	1.4069749
33.30319935953626	1.9777901	1.4063393
33.32149370002451	1.9975	1.4133294
33.339788914613706	1.9778211	1.4063503
33.358085003895575	2.0559318	1.4338521
33.376381968462034	2.1364074	1.4616455
33.39467980890529	2.1095836	1.4524406
33.41297852581774	1.9727883	1.4045599
33.43127811979204	1.8772336	1.3701217
33.44957859142105	1.754078	1.3244162
33.467879941297866	1.7605593	1.3268607
33.486182170015844	1.8705909	1.3676955
33.50448527816853	1.9172537	1.3846493
33.522789266349754	1.8858846	1.3732752
33.541094135153514	1.8969687	1.3773049
33.55939988517411	1.8621402	1.3646026
33.57770651700602	1.8949226	1.3765619
33.59601403124398	1.9136693	1.3833544
33.61432242848296	1.9940575	1.412111
33.632631709318154	1.9914149	1.411175
33.650941874344994	1.9439437	1.3942538
33.66925292415916	1.8359938	1.3549885
33.68756485935654	1.8426809	1.3574538
33.70587768053328	1.9247268	1.3873452
33.724191388285746	2.0462503	1.430472
33.74250598321054	2.0907896	1.4459562
33.760821465904506	2.0974953	1.4482732
33.77913783696474	1.9441134	1.3943146
33.79745509698852	1.8572763	1.3628193
33.815773246573414	1.9018824	1.3790876
33.8340922863172	2.0350635	1.4265565
33.852412216817896	1.9673878	1.402636
33.87073303867377	1.8631941	1.3649887
33.889054752483304	1.8313531	1.353275
33.907377358845245	1.8172493	1.3480539
33.92570085835853	1.7704303	1.3305752
33.94402525162239	1.8846854	1.3728385
33.96235053923627	1.9670601	1.4025192
33.980676721799824	1.8893166	1.3745241
33.999003799912984	1.8191516	1.3487593
34.01733177417592	1.8210889	1.3494773
34.03566064518901	1.810786	1.3456545
34.0539904135529	1.7634836	1.3279622
34.07232107986846	1.9013203	1.3788837
34.090652644736785	2.0746822	1.4403757
34.108985108759235	2.1215224	1.4565446
34.12731847253742	2.0432825	1.4294343
34.14565273667313	1.9327555	1.3902358
34.16398790176847	1.8750389	1.3693206
34.18232396842574	1.8944885	1.3764042
34.20066093724749	1.8707896	1.3677682
34.21899880883651	1.8287923	1.3523285
34.23733758379583	1.8793713	1.3709016
34.25567726272874	1.8491837	1.359847
34.27401784623872	1.8138319	1.3467858
34.29235933492957	1.9491591	1.3961229
34.31070172940526	2.0730162	1.4397973
34.32904503027003	2.1315594	1.4599861
34.347389238128386	2.0988545	1.4487424
34.36573435358502	2.04677	1.4306537
34.38408037724492	2.0060697	1.4163579
34.402427309713296	1.976409	1.4058481
34.42077515159559	1.9204854	1.3858157
34.43912390349752	1.8376145	1.3555864
34.45747356602499	1.8543069	1.3617294
34.47582413978423	1.9282938	1.3886302
34.49417562538163	2.0152283	1.4195874
34.51252802342388	2.0499957	1.4317806
34.53088133451789	2.0124855	1.418621
34.54923555927084	1.8451537	1.3583643
34.567590698290104	1.9035823	1.3797038
34.58594675218336	2.114585	1.4541613
34.6043037215585	2.2698085	1.5065883
34.62266160702365	2.2118561	1.487231
34.641020409187234	1.9733409	1.4047565
34.65938012865785	1.7880396	1.337176
34.677740766044394	1.7454814	1.3211666
34.69610232195598	1.8010213	1.3420213
34.714464797002016	1.7608126	1.3269562
34.73282819179208	1.8425863	1.357419
34.751192506936064	1.8469268	1.3590169
34.76955774304408	1.9548255	1.3981508
34.7879239007265	1.9913241	1.4111428
34.80629098059391	1.9613333	1.4004761
34.824658983257194	1.8367648	1.355273
34.843027909327446	1.7515619	1.3234658
34.86139775941603	1.9125346	1.3829442
34.879768534134534	1.9290977	1.3889196
34.89814023409483	1.7346352	1.3170555
34.91651285990901	1.7964307	1.34031
34.93488641218944	2.0148308	1.4194474
34.95326089154871	2.1064465	1.4513602
34.97163629859967	2.0198536	1.4212155
34.99001263395542	1.6975564	1.302903
35.00838989822934	1.6257411	1.2750455
35.02676809203499	1.7794576	1.3339632
35.04514721598624	1.9274192	1.3883152
35.063527270697215	1.9075527	1.3811418
35.081908256782256	1.932375	1.3900989
35.10029017485597	1.9071206	1.3809854
35.11867302553321	1.8385426	1.3559287
35.137056809429104	1.7050955	1.305793
35.155441527159006	1.560037	1.2490144
35.173827179338524	1.6495268	1.2843391
35.19221376658354	1.9742835	1.405092
35.21060128951017	2.2045746	1.484781
35.2289897487348	2.1174724	1.4551537
35.24737914487405	2.209168	1.486327
35.26576947854479	2.3031423	1.5176107
35.28416075036418	1.9503162	1.3965372
35.30255296094958	1.859686	1.363703
35.32094611091867	2.052545	1.4326706
35.33934020088932	2.1739655	1.4744374
35.35773523147969	2.4585443	1.5679746
35.3761312033082	2.3178844	1.52246
35.394528116993506	1.9616896	1.4006033
35.41292597315452	1.8359241	1.3549628
35.431324772410434	2.0558815	1.4338346
35.449724515380666	2.1395197	1.4627097
35.46812520268491	2.036164	1.4269422
35.486526834943106	2.1095388	1.4524251
35.504929412775454	2.2688067	1.5062559
35.52333293680242	1.8732373	1.3686626
35.54173740764471	1.5566138	1.2476434
35.560142825923286	1.1395054	1.0674762
35.5785491922594	1.43913	1.1996374
35.59695650727454	1.8733927	1.3687193
35.61536477159042	2.0904145	1.4458265
