0.008763373481513119	0.0	0.0
0.026290120649546365	0.0	0.0
0.043816868432600686	0.060138714	0.24523196
0.06134361724069026	0.13546567	0.3680566
0.07887036748382949	0.14616542	0.38231584
0.0963971195720331	0.20578578	0.45363617
0.11392387391531617	0.12536563	0.3540701
0.1314506309236943	0.1192851	0.34537676
0.1489773910071836	0.09568771	0.3093343
0.16650415457580078	0.079460904	0.2818881
0.18403092203956356	0.06752191	0.2598498
0.20155769380849	0.058167912	0.24118024
0.2190844702925996	0.096709825	0.31098202
0.2366112519019124	0.13563523	0.36828688
0.2541380390464497	0.17838803	0.42236006
0.27166483213623416	0.23268226	0.48237148
0.28919163158128947	0.19725858	0.44413802
0.3067184377916406	0.16288935	0.40359554
0.324245251177314	0.13809064	0.3716055
0.34177207214833777	0.102555595	0.32024303
0.3592989011147415	0.11003802	0.3317198
0.37682573848655654	0.1352274	0.3677328
0.39435258467381573	0.14276034	0.37783638
0.41187944008655414	0.1303923	0.36109874
0.42940630513480854	0.14411831	0.37962916
0.446933180228618	0.1247531	0.35320404
0.4644600657780234	0.13061912	0.36141267
0.48198696219306775	0.14520173	0.38105345
0.49951386988379676	0.16082674	0.4010321
0.5170407892602581	0.14053461	0.37487945
0.5345677207325025	0.17478926	0.41807806
0.5520946647105822	0.18251671	0.42721975
0.5696216216045534	0.18401746	0.42897257
0.5871485918244737	0.14427306	0.37983292
0.6046755757804043	0.12618156	0.35522044
0.6222025738824094	0.10463707	0.32347655
0.6397295865405557	0.08254966	0.28731456
0.6572566141649129	0.09309867	0.30512074
0.6747836571655547	0.12631392	0.3554067
0.6923107159525568	0.15958692	0.39948332
0.7098377909359992	0.18935755	0.43515232
0.7273648825259653	0.19245629	0.4386984
0.7448919911325411	0.23408818	0.4838266
0.762419117165817	0.20567104	0.4535097
0.7799462610358868	0.22051279	0.4695879
0.7974734231528482	0.20762406	0.45565784
0.8150006039268024	0.16831529	0.41026247
0.8325278037678551	0.1667542	0.40835547
0.8500550230861152	0.17845246	0.42243633
0.8675822622916969	0.21521637	0.4639142
0.8851095217947171	0.2202275	0.46928403
0.9026368020052984	0.18502866	0.43014959
0.9201641033335665	0.20690472	0.4548678
0.9376914261896523	0.23528269	0.48505947
0.9552187709836915	0.28338796	0.53234196
0.9727461381258234	0.29399827	0.54221606
0.990273528026193	0.2691635	0.5188097
1.0078009410949496	0.26433778	0.5141379
1.0253283777422473	0.28456888	0.53344995
1.0428558383782454	0.31600606	0.56214416
1.0603833234131086	0.31227407	0.5588149
1.0779108332570058	0.30746156	0.5544922
1.0954383683201119	0.3194062	0.56516033
1.112965929012607	0.39041758	0.62483406
1.1304935157446763	0.53119147	0.72882885
1.1480211289265108	0.560169	0.7484444
1.1655487689683062	1.4317629	1.196563
1.1830764362802655	1.7137448	1.3091007
1.200604131272596	2.196618	1.4820992
1.2181318543555117	2.6459005	1.6266224
1.235659605939232	2.6538923	1.6290771
1.253187386433982	4.0311146	2.0077636
1.270715196249994	6.189266	2.4878235
1.2882430357975057	11.683369	3.4180944
1.3057709054867608	16.524424	4.0650244
1.3232988057280106	22.536839	4.7472982
1.3408267369315112	27.387356	5.233293
1.358354699507526	31.022785	5.5698104
1.3758826938663256	35.348183	5.9454336
1.3934107204181858	37.826294	6.1503086
1.410938779573391	38.22215	6.1824064
1.4284668717422309	38.421654	6.19852
1.4459949973350033	37.574387	6.129795
1.4635231567620117	37.426235	6.1176987
1.4810513504335687	36.978085	6.0809608
1.4985795787599925	36.28024	6.023308
1.5161078421516088	35.81009	5.9841533
1.5336361410187505	34.87731	5.9057016
1.5511644757717598	34.992268	5.9154263
1.5686928468209842	35.690063	5.9741163
1.58622125457678	36.29123	6.02422
1.6037496994495108	37.39275	6.114961
1.621278181849548	37.50486	6.124121
1.6388067021872719	38.72928	6.223285
1.6563352608730693	38.249435	6.1846128
1.673863858317336	37.07252	6.088721
1.6913924949304753	35.69535	5.974559
1.7089211711228998	34.696884	5.890406
1.7264498873050296	33.82412	5.8158507
1.7439786438872935	32.779354	5.7253256
1.7615074412801288	31.608124	5.6221104
1.779036279893981	31.128952	5.5793324
1.796565160139305	30.611763	5.5327897
1.814094082426564	29.929317	5.4707694
1.8316230471662298	28.967144	5.3821135
1.849152054768784	28.038622	5.2951508
1.8666811056447168	27.590214	5.252639
1.8842102002045273	26.959341	5.1922383
1.901739338858724	26.67122	5.1644187
1.9192685220178245	26.106998	5.109501
1.9367977500923557	25.416674	5.0414953
1.9543270234928547	24.734665	4.973396
1.971856342629867	23.989046	4.8978615
1.9893857079139496	23.425142	4.839953
2.006915119755667	22.947008	4.7903037
2.0244445785655945	22.181337	4.709707
2.0419740847543175	21.846046	4.6739755
2.0595036387324317	21.615923	4.649293
2.0770332409105414	21.289421	4.614046
2.094562891699263	21.026354	4.58545
2.1120925915092217	20.428055	4.5197406
2.129622340751053	19.938408	4.4652443
2.1471521398354043	188.09319	13.714707
2.1646819891729323	444.29395	21.078281
2.182211889174303	440.5643	20.989624
2.1997418402501974	452.7888	21.278833
2.2172718428113023	432.75955	20.802874
2.234801897268317	320.89288	17.913483
2.2523320040319548	17.445429	4.1767726
2.269862163512935	17.297415	4.159016
2.287392376121992	16.740732	4.091544
2.304922642269869	16.413984	4.0514174
2.322452962367322	16.082037	4.0102415
2.3399833368251164	15.840937	3.9800675
2.357513766054032	15.595487	3.9491122
2.3750442504648586	15.241048	3.9039783
2.3925747904683963	14.978927	3.870262
2.410105386475459	14.77362	3.8436468
2.4276360388968707	14.552319	3.8147502
2.445166748143469	14.381293	3.7922676
2.4626975146261025	13.941972	3.733895
2.4802283387556323	13.572951	3.6841486
2.4977592209429305	13.376494	3.657389
2.5152901615988825	13.266892	3.6423745
2.5328211611343865	12.941891	3.5974839
2.5503522199603523	12.55957	3.5439484
2.5678833384877024	12.210847	3.4944022
2.5854145171273712	12.180878	3.4901114
2.6029457562903064	12.225694	3.496526
2.620477056387469	12.101589	3.4787338
2.6380084178298326	11.888327	3.4479454
2.655539841028383	11.478351	3.3879714
2.673071326394119	11.331388	3.3662128
2.6906028743380523	11.05517	3.3249316
2.708134485271211	10.900704	3.3016214
2.7256661596046325	10.833619	3.2914464
2.743197897749369	10.756346	3.279687
2.760729700116486	10.690257	3.2695959
2.778261567117063	10.432394	3.2299216
2.795793499162193	10.204109	3.1943872
2.8133254966629817	9.961826	3.1562362
2.830857560030551	9.852213	3.1388235
2.8483896896760337	9.735651	3.1202004
2.865921886010578	9.5799055	3.0951421
2.883454149445347	9.482999	3.0794477
2.9009864803915177	9.420324	3.0692546
2.91851887926028	9.253772	3.0420012
2.9360513464628384	9.035461	3.0059044
2.953583882410413	8.984646	2.9974399
2.9711164875142373	9.077656	3.012915
2.9886491621855606	9.180277	3.0298972
3.0061819068356455	9.044142	3.007348
3.023714721875769	9.019662	3.0032752
3.041247607717225	8.815707	2.9691257
3.0587805647713213	8.570521	2.9275453
3.0763135934493806	8.402544	2.8987143
3.0938466941627407	8.188804	2.8616085
3.1113798673227544	8.246843	2.8717318
3.1289131133407904	7.965957	2.8224027
3.1464464326282315	7.8075547	2.7942002
3.1639798255964786	7.6418333	2.7643867
3.1815132926569443	7.6442738	2.764828
3.1990468342210603	7.660961	2.7678442
3.216580450700272	7.480269	2.735008
3.2341141425060416	7.4414444	2.727901
3.251647910049847	7.493301	2.7373893
3.2691817537431813	7.467216	2.7326207
3.286715673997555	7.3319716	2.7077613
3.3042496712244938	7.161497	2.6760974
3.32178374583554	7.086386	2.6620266
3.339317898242251	7.03887	2.653087
3.3568521288562034	6.925388	2.6316133
3.3743864380889876	6.967479	2.6395984
3.3919208263522127	6.864106	2.6199439
3.4094552940575023	6.8063965	2.6089072
3.4269898416164972	6.6762185	2.583838
3.444524469440858	6.6359587	2.5760355
3.4620591779422587	6.6938434	2.5872462
3.479593967532391	6.624322	2.5737758
3.4971288386229658	6.522805	2.5539782
3.5146637916257086	6.4041653	2.5306451
3.5321988269523628	6.3876395	2.527378
3.5497339450146903	6.360073	2.5219185
3.5672691462244708	6.3475056	2.5194256
3.5848044309934988	6.2941456	2.5088136
3.60233979973359	6.2429023	2.49858
3.619875252856575	6.294371	2.5088584
3.6374107907743034	6.3312254	2.5161927
3.6549464138986427	6.359155	2.5217366
3.6724821226414788	6.3521576	2.5203488
3.690017917414714	6.3809505	2.5260544
3.7075537986302702	6.365301	2.522955
3.7250897667000857	6.4364705	2.53702
3.7426258220361235	6.6862125	2.585771
3.7601619650503553	6.9690623	2.639898
3.777698196154779	7.5340676	2.7448256
3.7952345157614067	8.498051	2.9151416
3.8127709242822716	9.33303	3.0550008
3.830307422129425	11.574451	3.4021246
3.847844009714936	30.24496	5.4995418
3.8653806874508954	97.68378	9.883511
3.882917455749409	96.925766	9.845088
3.900454315022606	96.84078	9.840772
3.917991265682631	41.432507	6.4368086
3.9355283081416506	11.043121	3.3231192
3.9530654428118495	8.657581	2.9423769
3.970602670105433	7.2995944	2.7017763
3.9881399904346244	6.465111	2.5426583
4.005677404211669	6.427992	2.5353484
4.023214911848827	6.4192233	2.5336187
4.0407525137583855	6.4686007	2.5433445
4.058290210352644	6.484948	2.5465562
4.075828002043927	6.3465214	2.5192304
4.0933658892445814	6.211026	2.492193
4.110903872366966	6.103847	2.4705966
4.128441951823468	6.131837	2.4762547
4.145980128026488	6.1591496	2.4817634
4.163518401388452	6.244488	2.4988973
4.181056772321807	6.1758037	2.4851165
4.1985952412390155	6.1746693	2.484888
4.216133808552567	6.1926355	2.4885006
4.233672474674966	6.3183994	2.5136425
4.251211240018741	6.478315	2.5452535
4.268750104996445	6.716561	2.5916328
4.286289070020643	7.6625915	2.7681386
4.303828135503928	9.345407	3.0570257
4.3213673018589125	29.630327	5.4433746
4.3389065694982305	90.75917	9.526761
4.356445938834537	165.99043	12.883727
4.3739854102805085	171.5762	13.09871
4.391524984248844	172.49365	13.133684
4.409064661152262	136.60484	11.687807
4.426604441403504	96.84008	9.840735
4.444144325415337	75.93932	8.714317
4.461684313600543	21.98207	4.688504
4.47922440637193	22.21285	4.7130513
4.496764604142329	20.586182	4.5372
4.5143049073245916	18.701572	4.3245316
4.531845316331589	16.494268	4.0613136
4.5493858315762195	13.590586	3.686541
4.566926453471405	11.2768955	3.358109
4.584467182430081	9.324348	3.0535796
4.602008018865218	8.234732	2.8696222
4.619548963189798	7.5137434	2.7411208
4.637090015816834	6.982053	2.6423573
4.654631177159353	6.7628636	2.6005507
4.672172447630417	6.555127	2.5602982
4.689713827643102	6.4213963	2.5340474
4.7072553176105085	6.223344	2.494663
4.724796917945764	6.0154767	2.452647
4.742338629062015	5.8446574	2.4175727
4.759880451372434	5.739739	2.3957753
4.777422385290215	5.676876	2.3826196
4.794964431228581	5.7195263	2.3915532
4.812506589600768	5.737987	2.3954096
4.830048860820047	5.756867	2.3993473
4.847591245299709	5.778594	2.4038706
4.8651337434530655	5.7389493	2.3956103
4.882676355693457	5.608207	2.3681653
4.900219082434242	5.610166	2.368579
4.917761924088813	5.6278443	2.3723078
4.935304881070575	5.6548376	2.3779902
4.952847953792969	5.6357355	2.3739705
4.970391142669449	5.5698185	2.3600464
4.9879344481135055	5.6120996	2.368987
5.005477870538642	5.583137	2.3628662
5.023021410358394	5.572768	2.360671
5.040565067986324	5.5524073	2.3563547
5.05810884383601	5.5122724	2.347823
5.075652738321066	5.4644537	2.3376172
5.09319675185512	5.491214	2.343334
5.110740884851836	5.509978	2.3473341
5.128285137724894	5.5646358	2.358948
5.145829510888007	5.5397944	2.3536768
5.163374004754908	5.4993954	2.345079
5.1809186197393595	5.4546843	2.3355265
5.198463356255145	5.4646277	2.3376544
5.216008214716077	5.4601235	2.3366907
5.233553195535998	5.4173274	2.3275154
5.251098299128764	5.34202	2.311281
5.268643525908272	5.254439	2.2922564
5.286188876288432	5.229723	2.2868588
5.3037343506831895	5.2708063	2.2958236
5.32127994950651	5.3323917	2.3091972
5.3388256731723915	5.3243256	2.30745
5.356371522094851	5.268206	2.2952573
5.373917496687938	5.2395573	2.289008
5.391463597365729	5.181418	2.2762728
5.40900982454232	5.1282597	2.2645662
5.426556178631843	5.160311	2.271632
5.444102660048449	5.2508173	2.2914662
5.4616492692063225	5.2945313	2.3009849
5.479196006519669	5.288674	2.2997117
5.496742872402727	5.226373	2.2861261
5.514289867269756	5.1678267	2.2732854
5.531836991535049	5.1448374	2.2682233
5.549384245612924	5.125045	2.2638562
5.566931629917724	5.167419	2.2731957
5.584479144863822	5.2063575	2.2817445
5.6020267908656205	5.2686834	2.2953613
5.619574568337545	5.268208	2.2952578
5.637122477694054	5.2002716	2.2804103
5.654670519349629	5.211752	2.282926
5.672218693718784	5.1385875	2.2668452
5.689767001216059	5.207038	2.2818935
5.707315442256021	5.17531	2.2749307
5.724864017253266	5.2344666	2.2878957
5.7424127266224225	5.258157	2.2930672
5.75996157077814	5.2676554	2.2951374
5.777510550135105	5.239415	2.288977
5.795059665108022	5.1743546	2.2747207
5.812608916111639	5.2122183	2.2830284
5.830158303560715	5.2894425	2.2998788
5.847707827870055	5.3829665	2.320122
5.86525748945448	5.495929	2.3443398
5.8828072887288485	5.5732718	2.3607779
5.900357226108044	5.579011	2.361993
5.917907302006979	5.6497836	2.3769274
5.9354575168406	6.342668	2.5184655
5.9530078710238765	6.9342422	2.633295
5.970558364971812	7.4247746	2.724844
5.988108999099438	7.730829	2.7804368
6.005659773821818	8.254329	2.8730347
6.023210689554039	8.046724	2.836675
6.040761746711227	8.3904915	2.8966346
6.058312945708531	7.7917337	2.7913678
6.075864286961132	7.361167	2.7131472
6.093415770884244	6.787755	2.6053321
6.1109673978931065	6.3430104	2.5185335
6.128519168402993	5.7052317	2.3885627
6.146071082829204	5.5533776	2.3565605
6.163623141587075	5.4117346	2.3263135
6.181175345091969	5.3554573	2.314186
6.198727693759281	5.3582816	2.3147962
6.216280188004435	5.3178635	2.3060493
6.233832828242885	5.2354794	2.288117
6.251385614890126	5.2066746	2.2818139
6.268938548361669	5.1258574	2.2640357
6.286491629073067	5.1033154	2.2590518
6.304044857439898	5.1139245	2.2613988
6.321598233877777	5.049284	2.2470613
6.339151758802344	5.0438333	2.245848
6.356705432629277	5.0322957	2.2432778
6.37425925577428	5.0817842	2.2542813
6.391813228653095	5.0859056	2.2551951
6.409367351681486	5.156421	2.2707756
6.426921625275259	5.1336837	2.2657633
6.44447604985025	5.113923	2.2613986
6.46203062582232	5.003195	2.2367823
6.47958535360737	4.928391	2.219998
6.497140233621328	4.918829	2.2178433
6.514695266280161	5.0253983	2.24174
6.532250451999859	5.0396886	2.244925
6.549805791196454	5.06535	2.2506332
6.567361284286002	5.023989	2.2414258
6.584916931684597	4.997231	2.2354488
6.602472733808367	4.9681296	2.2289302
6.6200286910734665	4.995799	2.2351284
6.637584803896092	5.006409	2.2375007
6.655141072692462	5.033626	2.2435744
6.672697497878842	5.0829587	2.2545419
6.690254079871514	5.084596	2.254905
6.707810819086808	5.052884	2.247862
6.725367715941078	4.9988923	2.2358203
6.742924770850719	5.0054207	2.2372797
6.760481984232151	5.056064	2.2485693
6.778039356501836	5.061847	2.249855
6.795596888076266	5.069526	2.251561
6.813154579371963	5.027687	2.2422504
6.830712430805492	5.0253606	2.2417316
6.84827044279344	4.9583344	2.2267318
6.865828615752445	4.963584	2.2279103
6.883386950099159	4.895139	2.212496
6.900945446250287	4.9513197	2.225156
6.918504104622553	5.0057955	2.2373636
6.936062925632727	5.0317316	2.2431521
6.953621909697607	5.041185	2.2452583
6.971181057234028	5.0750585	2.252789
6.988740368658859	5.099373	2.2581792
7.006299844389007	5.1680098	2.2733257
7.023859484841407	5.273918	2.2965014
7.041419290433036	5.3889585	2.321413
7.058979261580902	5.583468	2.3629363
7.0765393987020495	5.7140145	2.3904004
7.094099702213559	6.095688	2.4689448
7.111660172532549	6.4368463	2.537094
7.129220810076164	6.8404207	2.6154199
7.146781615261595	7.4095507	2.722049
7.16434258850606	7.6547365	2.7667193
7.181903730226821	8.04838	2.8369668
7.1994650408411704	8.164445	2.8573494
7.217026520766437	8.349852	2.889611
7.234588170419983	8.564258	2.9264753
7.252149990219215	8.53872	2.922109
7.269711980581568	8.33309	2.8867092
7.2872741419245175	8.178817	2.859863
7.304836474665574	7.82037	2.7964926
7.322398979222286	7.559198	2.7493997
7.339961656012233	7.2860155	2.6992621
7.357524505453039	6.931868	2.6328442
7.375087527962357	6.6518097	2.5791101
7.392650723957886	6.3092804	2.5118282
7.410214093857353	6.0123425	2.4520078
7.427777638078528	5.752487	2.3984344
7.445341357039213	5.6270213	2.3721344
7.4629052511572525	5.479806	2.3408985
7.480469320850524	5.4035363	2.3245509
7.498033566536948	5.325217	2.3076432
7.5155979886344735	5.2877917	2.2995198
7.5331625875610975	5.269493	2.2955377
7.550727363734844	5.3034678	2.3029258
7.568292317573788	5.303052	2.3028357
7.585857449496025	5.303359	2.3029022
7.603422759919705	5.2834687	2.2985797
7.620988249263007	5.2415686	2.2894473
7.638553917944147	5.236703	2.2883844
7.656119766381391	5.2589507	2.2932403
7.673685794993023	5.2772183	2.2972198
7.691252004197388	5.223891	2.2855833
7.70881839441285	5.2183723	2.2843757
7.726384966057826	5.189913	2.278138
7.743951719550762	5.271402	2.2959533
7.761518655310149	5.277153	2.2972054
7.779085773754511	5.2836213	2.2986128
7.796653075302419	5.2823496	2.2983363
7.814220560372475	5.284613	2.2988286
7.831788229383323	5.250206	2.2913327
7.8493560827536495	5.217872	2.2842662
7.866924120902174	5.1949916	2.2792525
7.884492344247663	5.23916	2.288921
7.9020607532089135	5.322312	2.3070135
7.919629348204771	5.365946	2.316451
7.937198129654115	5.3583403	2.3148088
7.954767097975865	5.295479	2.3011909
7.972336253588986	5.2579403	2.29302
7.989905596912472	5.2920117	2.3004372
8.007475128365371	5.3548493	2.3140547
8.025044848366756	5.433818	2.3310552
8.042614757335754	5.497989	2.344779
8.060184855691523	5.5752454	2.3611958
8.07775514385327	5.6920753	2.385807
8.095325622240228	5.791687	2.4065924
8.112896291271687	5.82261	2.4130085
8.130467151366968	5.915048	2.4320872
8.148038202945436	5.9305763	2.4352775
8.165609446426497	5.9341564	2.4360125
8.183180882229594	5.887635	2.426445
8.200752510774217	5.8253255	2.4135711
8.218324332479893	5.909847	2.4310176
8.235896347766193	5.977213	2.444834
8.253468557052724	6.057082	2.461114
8.27104096075914	6.049981	2.459671
8.288613559305137	6.1585603	2.4816446
8.306186353110448	6.253035	2.500607
8.32375934259485	6.3082542	2.5116239
8.341332528178162	6.319728	2.513907
8.358905910280246	6.3745766	2.5247924
8.376479489321003	6.415689	2.532921
8.394053265720377	6.4161353	2.533009
8.411627239898356	6.4181914	2.533415
8.42920141227497	6.3360715	2.5171554
8.44677578327029	6.3272867	2.51541
8.464350353304427	6.239264	2.4978518
8.48192512279754	6.2640743	2.5028133
8.499500092169827	6.2206144	2.494116
8.51707526184153	6.232478	2.496493
8.534650632232934	6.174559	2.484866
8.552226203764365	6.2205143	2.4940958
8.569801976856192	6.2637067	2.50274
8.587377951928834	6.336763	2.5172927
8.60495412940274	6.332284	2.516403
8.622530509698416	6.385016	2.5268588
8.6401070932364	6.4966774	2.5488582
8.657683880437283	6.685819	2.585695
8.675260871721695	6.910206	2.628727
8.692838067510303	7.0860972	2.6619725
8.710415468223834	7.170189	2.6777208
8.727993074283043	7.1312675	2.6704433
8.745570886108737	7.0635157	2.6577275
8.763148904121765	7.1122108	2.6668727
8.78072712874302	7.2079496	2.6847625
8.798305560393441	7.5445724	2.7467384
8.815884199494006	7.6672277	2.768976
8.833463046465745	7.8053136	2.7937992
8.851042101729728	7.8886046	2.808666
8.86862136570707	8.232259	2.8691914
8.886200838818924	8.449402	2.9067855
8.903780521486505	8.549561	2.923963
8.921360414131055	8.624916	2.9368207
8.938940517173874	8.700557	2.9496706
8.956520831036297	8.885451	2.9808474
8.97410135613971	9.154926	3.0257108
8.99168209290554	9.345528	3.0570455
9.009263041755265	9.660095	3.1080694
9.026844203110405	9.87875	3.1430478
9.044425577392525	10.026098	3.1664014
9.062007165023239	10.131888	3.1830628
9.079588966424197	10.346241	3.2165573
9.097170982017108	10.480023	3.2372863
9.11475321222372	11.440614	3.3823977
9.132335657465825	12.316173	3.5094404
9.149918318165264	12.401205	3.5215344
9.167501194743924	12.973772	3.6019123
9.18508428762374	12.643469	3.5557656
9.202667597226693	12.686516	3.5618136
9.220251123974803	12.358759	3.5155027
9.237834868290143	12.016598	3.4664965
9.255418830594836	11.8685875	3.4450817
9.273003011311046	11.315607	3.3638678
9.290587410860985	11.150964	3.3393059
9.308172029666911	10.5577345	3.2492669
9.32575686815113	10.265087	3.2039175
9.343341926735997	8.911807	2.985265
9.360927205843916	8.600174	2.9326053
9.378512705897327	8.351778	2.8899443
9.396098427318728	8.183338	2.8606534
9.413684370530664	8.065439	2.8399718
9.431270535955722	7.9723973	2.8235433
9.448856924016539	7.875963	2.8064146
9.466443535135806	7.7480836	2.7835379
9.484030369736251	7.6990647	2.7747188
9.501617428240658	7.6429024	2.76458
9.519204711071852	7.6235447	2.7610767
9.536792218652714	7.672985	2.7700152
9.55437995140617	7.756644	2.7850752
9.571967909755191	7.854304	2.8025532
9.589556094122802	7.8714924	2.805618
9.60714450493207	7.9611416	2.8215494
9.624733142606116	8.024798	2.8328075
9.642322007568108	8.079024	2.8423624
9.659911100241267	8.093052	2.844829
9.677500421048851	8.095148	2.8451974
9.695089970414175	8.12599	2.8506122
9.712679748760609	8.090753	2.8444247
9.730269756511557	8.078217	2.8422203
9.747859994090492	8.116519	2.8489504
9.765450461920915	8.216536	2.86645
9.78304116042639	8.310707	2.8828297
9.800632090030527	8.310375	2.8827722
9.81822325115699	8.250175	2.8723118
9.835814644229481	8.235178	2.8697
9.853406269671762	8.287461	2.8787951
9.870998127907646	8.331077	2.8863604
9.888590219360985	8.328582	2.8859282
9.906182544455698	8.323267	2.8850074
9.923775103615734	8.33032	2.8862295
9.941367897265108	8.375509	2.8940473
9.958960925827878	8.35193	2.8899705
9.97655418972816	8.380793	2.89496
9.994147689390106	8.40903	2.8998327
10.011741425237934	8.403946	2.898956
10.029335397695904	8.377788	2.894441
10.04692960718833	8.288141	2.8789132
10.06452405413958	8.289699	2.8791838
10.082118738974064	8.255176	2.873182
10.099713662116246	8.269168	2.875616
10.117308823990651	8.316807	2.8838875
10.134904225021844	8.3032675	2.881539
10.152499865634445	8.290454	2.879315
10.170095746253125	8.218301	2.8667579
10.18769186730261	8.13161	2.8515978
10.205288229207675	8.12626	2.8506596
10.222884832393145	8.124851	2.8504124
10.2404816772839	8.192689	2.8622873
10.258078764304868	8.210553	2.8654063
10.275676093881035	8.258776	2.8738086
10.293273666437438	8.176783	2.8595073
10.310871482399158	8.214267	2.8660543
10.32846954219134	8.223121	2.8675985
10.346067846239173	8.178143	2.8597453
10.363666394967908	8.111529	2.8480747
10.38126518880283	8.049168	2.8371055
10.398864228169298	8.111138	2.848006
10.416463513492713	8.173237	2.8588874
10.434063045198531	8.181138	2.8602688
10.451662823712262	8.226996	2.8682742
10.469262849459467	8.274303	2.876509
10.486863122865758	8.182208	2.860456
10.504463644356806	8.16755	2.8578925
10.522064414358338	8.095681	2.8452911
10.539665433296118	8.032639	2.834191
10.557266701595987	8.027656	2.8333118
10.574868219683818	7.9307423	2.8161573
10.592469987985552	7.8574424	2.803113
10.610072006927185	7.71664	2.777884
10.627674276934751	7.5866027	2.7543788
10.64527679843435	7.4217916	2.7242966
10.662879571852143	7.289279	2.6998665
10.680482597614331	7.2089667	2.684952
10.698085876147173	7.0839233	2.661564
10.715689407876988	6.996884	2.6451623
10.733293193230146	6.9549336	2.6372209
10.750897232633072	6.8230276	2.6120925
10.76850152651225	6.75455	2.5989518
10.786106075294207	6.6435127	2.5775013
10.803710879405534	6.610031	2.5709982
10.821315939272877	6.5196757	2.5533655
10.83892125532294	6.4283066	2.5354106
10.856526827982472	6.3675265	2.5233958
10.874132657678285	6.3599296	2.5218902
10.891738744837243	6.3774467	2.5253606
10.909345089886271	6.292478	2.5084813
10.926951693252343	6.2311416	2.4962254
10.944558555362494	6.124586	2.47479
10.96216567664381	6.075602	2.4648736
10.979773057523436	6.0061893	2.4507527
10.997380698428573	5.930971	2.4353585
11.014988599786477	5.8151164	2.4114552
11.032596762024461	5.7596965	2.3999367
11.050205185569892	5.7438903	2.3966415
11.067813870850198	5.6805816	2.383397
11.085422818292859	5.6038847	2.3672526
11.10303202832541	5.488369	2.342727
11.120641501375454	5.4605355	2.3367789
11.138251237870636	5.382864	2.3201
11.155861238238671	5.301345	2.302465
11.173471502907317	5.2211676	2.2849874
11.191082032304402	5.1862226	2.277328
11.208692826857805	5.1748843	2.2748373
11.226303886995465	5.1347136	2.2659907
11.243915213145371	5.037331	2.2444
11.261526805735578	4.9179583	2.217647
11.279138665194196	4.878362	2.2087014
11.296750791949393	4.8475785	2.2017217
11.314363186429393	4.8075986	2.1926236
11.331975849062479	4.7421045	2.1776373
11.34958878027699	4.6672363	2.1603787
11.36720198050133	4.594468	2.143471
11.384815450163948	4.5465283	2.132259
11.402429189693366	4.5502677	2.1331356
11.420043199518153	4.4998827	2.1212926
11.437657480066942	63.471077	7.9668736
11.455272031768422	85.14798	9.227567
11.472886855051353	107.561806	10.371201
11.490501950344528	99.136055	9.956709
11.508117318076819	84.50703	9.19277
11.52573295867715	45.85792	6.7718477
11.543348872574514	4.119819	2.0297337
11.560965060197946	4.0696664	2.0173414
11.57858152197655	4.0972066	2.0241559
11.59619825833949	4.139045	2.0344644
11.613815269715985	4.1070385	2.026583
11.631432556535323	38.56969	6.21045
11.649050119226837	83.05372	9.113381
11.666667958219929	93.40207	9.6644745
11.68428607394406	107.67283	10.376552
11.701904466828756	82.49023	9.082413
11.719523137303586	65.362076	8.0846815
11.737142085798196	4.6016827	2.1451533
11.754761312742286	3.7226286	1.9294114
11.772380818565619	3.7245414	1.9299071
11.790000603698015	3.7035959	1.9244729
11.80762066856935	3.656578	1.9122181
11.825241013609572	3.6188598	1.90233
11.842861639248683	3.5659156	1.8883632
11.860482545916748	3.5439873	1.8825481
11.878103734043883	3.4933248	1.8690438
11.895725204060282	3.465135	1.8614874
11.91334695639619	3.415719	1.8481663
11.930968991481919	3.397617	1.8432627
11.948591309747824	3.3843572	1.8396623
11.966213911624347	3.3480902	1.8297787
11.98383679754198	3.3138301	1.8203928
12.001459967931268	3.283495	1.8120416
12.019083423222835	3.2634785	1.8065101
12.036707163847352	3.2818308	1.8115824
12.05433119023556	3.308347	1.8188862
12.071955502818259	3.2560644	1.8044568
12.089580102026313	3.1935673	1.7870555
12.107204988290643	3.1857681	1.784872
12.12483016204224	3.2001944	1.7889087
12.142455623712152	3.2082753	1.791166
12.16008137373149	3.157853	1.7770349
12.177707412531431	3.14737	1.7740829
12.19533374054321	3.1283183	1.7687052
12.212960358198126	3.127699	1.7685301
12.230587265927545	3.0976098	1.7600027
12.248214464162889	3.095594	1.75943
12.265841953335649	3.113149	1.7644118
12.283469733877375	3.0709193	1.7524039
12.301097806219685	3.0350485	1.7421391
12.31872617079425	2.9996161	1.73194
12.336354828032825	3.0078032	1.7343019
12.353983778367205	3.047907	1.7458256
12.371613022229262	2.999386	1.7318736
12.389242560050928	2.9367523	1.7136955
12.406872392264201	2.9235234	1.7098314
12.424502519301143	2.8943462	1.7012779
12.442132941593874	2.9054182	1.7045287
12.459763659574586	2.904524	1.7042664
12.477394673675532	2.8763535	1.6959816
12.49502598432903	2.9223735	1.7094951
12.51265759196746	2.8964942	1.701909
12.530289497023267	2.8687017	1.6937242
12.547921699928967	2.7909126	1.6706024
12.565554201117134	2.7759662	1.6661232
12.583187001020404	2.7859993	1.6691313
12.600820100071486	2.7712457	1.6647059
12.618453498703152	2.773778	1.6654663
12.636087197348235	2.7539625	1.6595067
12.65372119643964	2.7945776	1.671699
12.671355496410326	2.8076272	1.6755975
12.68899009769333	2.83899	1.6849302
12.706625000721749	2.8639727	1.6923276
12.724260205928752	2.8860576	1.69884
12.741895713747551	2.9171278	1.7079601
12.759531524611454	2.9487154	1.7171824
12.777167638953818	2.9570887	1.7196188
12.794804057208072	2.9854703	1.7278514
12.812440779807702	3.0503016	1.7465112
12.830077807186271	3.2039557	1.7899597
12.847715139777405	3.206367	1.7906331
12.865352778014795	3.3934639	1.8421357
12.882990722332197	3.5190158	1.875904
12.90062897316344	3.6558232	1.9120207
12.918267530942412	3.7774224	1.9435592
12.935906396103071	3.603132	1.8981918
12.953545569079449	3.7279375	1.9307867
12.971185050305628	3.574682	1.8906829
12.988824840215775	3.656807	1.9122779
13.006464939244115	3.7127335	1.9268454
13.024105347824943	3.5256658	1.8776757
13.041746066392617	3.5689166	1.8891577
13.05938709538157	3.3172908	1.8213432
13.077028435226296	3.3374999	1.8268826
13.094670086361363	3.288729	1.8134853
13.112312049221401	3.2281406	1.7967027
13.129954324241112	3.1798491	1.7832131
13.147596911855258	2.9588382	1.7201273
13.165239812498685	2.905368	1.704514
13.182883026606293	2.8076625	1.675608
13.200526554613058	2.767609	1.6636132
13.218170396954017	2.7566671	1.6603214
13.235814554064284	2.7763798	1.6662472
13.253459026379034	2.7744684	1.6656736
13.271103814333523	2.7199826	1.649237
13.288748918363058	2.7115247	1.6466708
13.306394338903031	2.7417903	1.6558353
13.32404007638889	2.7424686	1.6560401
13.341686131256164	2.7253125	1.6508521
13.359332503940449	2.7143695	1.6475344
13.376979194877402	2.6659667	1.6327789
13.394626204502751	2.734859	1.6537409
13.412273533252307	2.7693024	1.6641221
13.429921181561937	2.7532015	1.6592774
13.447569149867581	2.7375197	1.6545452
13.465217438605247	2.6953695	1.6417581
13.482866048211022	2.6980746	1.6425817
13.500514979121052	2.6723258	1.634725
13.518164231771568	2.6679184	1.6333764
13.535813806598844	2.6703434	1.6341186
13.553463704039254	2.6827781	1.6379188
13.571113924529229	2.6849647	1.6385862
13.588764468505275	2.7143965	1.6475426
13.606415336403956	2.717275	1.6484159
13.624066528661917	2.7513728	1.6587262
13.641718045715882	2.7990594	1.673039
13.659369888002635	2.8734882	1.6951367
13.67702205595903	2.9218988	1.7093563
13.694674550021993	2.9503236	1.7176507
13.712327370628532	2.9829235	1.7271142
13.729980518215713	3.0914166	1.7582425
13.747633993220681	3.2169783	1.7935936
13.765287796080647	3.2657313	1.8071334
13.7829419272329	3.2833118	1.8119911
13.800596387114801	3.3049214	1.8179443
13.818251176163775	3.3810363	1.8387594
13.835906294817324	3.4207835	1.8495361
13.853561743513023	3.4772022	1.8647257
13.871217522688525	3.4645026	1.8613174
13.888873632781538	3.4862053	1.8671383
13.906530074229858	3.5098023	1.8734467
13.92418684747135	3.5184128	1.8757433
13.941843952943948	3.546691	1.883266
13.959501391085665	3.5368814	1.8806598
13.977159162334578	3.4841928	1.8665993
13.994817267128846	3.4558175	1.8589829
14.012475705906693	3.3296154	1.8247234
14.030134479106424	3.2437396	1.8010385
14.047793587166414	3.1630983	1.7785101
14.065453030525108	3.1163242	1.7653114
14.083112809621026	3.0407097	1.7437631
14.100772924892766	2.9410145	1.7149386
14.118433376778997	2.929783	1.7116609
14.136094165718458	2.8895328	1.6998626
14.153755292149969	2.8245928	1.6806525
14.171416756512416	2.7058842	1.6449572
14.189078559244768	2.6002696	1.6125351
14.20674070078606	2.5437746	1.5949215
14.224403181575408	2.4953377	1.5796638
14.242066002051999	2.4807189	1.5750299
14.259729162655093	2.4638379	1.5696617
14.277392663824022	2.4231946	1.5566614
14.295056505998208	2.396647	1.5481107
14.312720689617128	2.402305	1.549937
14.330385215120348	2.4152732	1.5541149
14.348050082947497	2.4037764	1.5504117
14.3657152935383	2.3971906	1.5482863
14.383380847332528	2.4171512	1.554719
14.401046744770051	2.4495387	1.5651002
14.418712986290798	2.421738	1.5561934
14.436379572334793	2.3868477	1.5449426
14.454046503342123	2.4029253	1.5501372
14.471713779752946	2.3997576	1.5491151
14.489381402007504	2.3973267	1.5483303
14.507049370546113	2.3933764	1.547054
14.524717685809168	2.3901472	1.5460101
14.542386348237134	2.4019508	1.5498228
14.560055358270553	2.4020622	1.5498588
14.577724716350051	2.4329922	1.5598052
14.595394422916325	2.4351683	1.5605025
14.61306447841015	2.449967	1.565237
14.63073488327237	2.471091	1.5719705
14.648405637943917	2.5187213	1.587048
14.6660767428658	2.5598152	1.5999422
14.683748198479094	2.610712	1.6157697
14.701420005224954	2.6367786	1.623816
14.719092163544628	2.7047238	1.6446044
14.73676467387942	2.7064378	1.6451255
14.754437536670727	2.7299674	1.6522613
14.772110752360014	2.6913993	1.6405485
14.78978432138882	2.646828	1.6269075
14.807458244198777	2.66464	1.6323725
14.82513252123159	2.6931713	1.6410885
14.842807152929028	2.7241323	1.6504946
14.860482139732962	2.7106416	1.6464026
14.87815748208531	2.7009463	1.6434556
14.8958331804281	2.723742	1.6503763
14.91350923520342	2.6795805	1.6369424
14.931185646853438	2.7017772	1.6437083
14.948862415820408	2.6472442	1.6270354
14.966539542546656	2.6325192	1.622504
14.98421702747459	2.602093	1.6131004
15.001894871046696	2.601096	1.6127913
15.019573073705542	2.599521	1.612303
15.037251635893766	2.5989332	1.6121207
15.054930558054092	2.597077	1.6115448
15.072609840629323	2.6821485	1.6377267
15.090289484062351	2.8203583	1.6793922
15.107969488796124	3.153384	1.775777
15.125649855273691	3.5645366	1.887998
15.14333058393817	4.0681896	2.0169754
15.161011675232768	5.016257	2.2397
15.17869312960076	6.379013	2.5256708
15.196374947485506	8.253043	2.872811
15.214057129330447	11.406523	3.3773544
15.231739675579114	16.22902	4.028526
15.249422586675102	21.328398	4.618268
15.267105863062092	24.512375	4.9509974
15.284789505183847	24.770868	4.977034
15.302473513484218	22.63614	4.7577453
15.320157888407127	19.06812	4.366706
15.337842630396578	14.8601265	3.8548834
15.355527739896656	11.533104	3.3960423
15.37321321735153	8.856665	2.9760149
15.39089906320545	6.440067	2.5377288
15.408585277902748	4.885046	2.210214
15.42627186188783	3.8237092	1.9554307
15.443958815605198	3.3069286	1.8184962
15.461646139499424	2.9859653	1.7279946
15.479333834015168	2.8232074	1.6802403
15.497021899597165	2.7540824	1.6595428
15.514710336690234	2.7141008	1.6474528
15.53239914573928	2.686186	1.6389588
15.550088327189297	2.6431797	1.6257858
15.567777881485336	2.5781474	1.605661
15.58546780907256	2.5451758	1.5953608
15.6031581103962	2.4793484	1.5745947
15.620848785901568	2.467887	1.570951
15.638539836034063	2.47627	1.5736169
15.656231261239173	2.499657	1.5810304
15.673923061962451	2.476913	1.5738212
15.691615238649552	2.4492662	1.5650132
15.709307791746202	2.4472437	1.5643668
15.727000721698221	2.4261754	1.5576185
15.744694028951498	2.4130342	1.5533944
15.76238771395202	2.418161	1.5550437
15.780081777145844	2.4336376	1.5600121
15.797776218979125	2.4717517	1.5721805
15.815471039898094	2.4410625	1.56239
15.833166240349064	2.4065723	1.5513132
15.850861820778437	2.3837018	1.5439242
15.868557781632699	2.396995	1.5482231
15.886254123358412	2.415421	1.5541625
15.903950846402232	2.3852339	1.5444202
15.921647951210897	2.358217	1.5356487
15.939345438231225	2.3569906	1.5352494
15.957043307910133	2.3672624	1.538591
15.974741560694602	2.3779004	1.5420442
15.992440197031714	2.3890414	1.5456524
16.01013921736862	2.4144719	1.5538571
16.02783862215259	2.407932	1.5517513
16.045538411830933	2.417723	1.5549029
16.06323858685107	2.4128919	1.5533485
16.080939147660512	2.4348805	1.5604104
16.09864009470684	2.4063826	1.5512519
16.11634142843774	2.4139838	1.5537001
16.134043149300954	2.4247868	1.5571727
16.15174525774433	2.4199352	1.5556141
16.169447754215817	2.3901427	1.5460086
16.18715063916342	2.3801725	1.5427808
16.204853913035244	2.401894	1.5498046
16.222557576279478	2.4083097	1.551873
16.240261629344403	22.410591	4.7339826
16.257966072678386	42.96299	6.554616
16.275670906729868	38.092632	6.1719227
16.293376131947387	2.4884923	1.5774956
16.31108174877957	2.5487652	1.5964853
16.328787757675133	2.581778	1.6067913
16.34649415908287	2.5959325	1.6111897
16.364200953451657	2.5915787	1.6098381
16.38190814123048	2.6219018	1.6192287
16.39961572286839	2.6693866	1.6338258
16.41732369881455	2.7015536	1.6436404
16.43503206951817	2.723174	1.6502043
16.45274083542859	2.7242491	1.65053
16.47044999699522	2.7705731	1.6645038
16.488159554667558	2.7984035	1.672843
16.505869508895184	2.8506835	1.6883967
16.523579860127786	2.9075527	1.7051548
16.541290608815117	2.9712996	1.7237458
16.559001755407035	3.0443962	1.7448198
16.57671330035348	3.135423	1.7707125
16.59442524410448	3.1981032	1.7883241
16.61213758711015	3.2614872	1.8059589
16.629850329820705	3.2982895	1.8161193
16.647563472686436	3.3658464	1.8346243
16.665277016157724	3.3859477	1.8400944
16.682990960685053	3.4659367	1.8617027
16.70070530671898	3.4746566	1.8640431
16.718420054710155	3.5147889	1.874777
16.736135205109335	3.54191	1.8819963
16.753850758367335	3.636797	1.9070388
16.771566714935087	3.7242744	1.929838
16.789283075263597	3.794905	1.9480516
16.80699983980398	3.8120468	1.9524463
16.82471700900741	3.832947	1.9577913
16.84243458332518	3.914116	1.9784125
16.860152563208665	4.0360265	2.0089865
16.87787094910932	4.096517	2.0239854
16.89558974147871	4.149043	2.03692
16.913308940768466	4.1899347	2.046933
16.931028547430333	4.2765255	2.0679762
16.94874856191613	4.363337	2.0888603
16.966468984677785	4.4188633	2.1021092
16.98418981616729	4.4278636	2.104249
17.00191105683676	4.472552	2.1148407
17.019632707138374	4.4771237	2.1159215
17.03735476752442	4.5046544	2.1224172
17.05507723844728	4.5341864	2.1293628
17.072800120359403	4.6290154	2.1515148
17.090523413713353	4.7054205	2.169198
17.108247118961785	4.7703295	2.1841085
17.125971236557437	4.7462397	2.1785867
17.143695766953133	4.681549	2.1636887
17.161420710601806	4.6764627	2.162513
17.179146067956477	4.7194858	2.1724377
17.19687183947025	4.759665	2.1816657
17.21459802559634	4.7722898	2.1845572
17.232324626788028	4.787755	2.188094
17.25005164349871	4.693792	2.166516
17.267779076181863	4.6227427	2.1500564
17.285506925291074	4.621073	2.149668
17.30323519127999	4.6376452	2.1535192
17.320963874602384	4.6293216	2.1515858
17.33869297571211	4.615113	2.1482813
17.356422495063114	4.6252556	2.1506407
17.37415243310944	4.596661	2.1439826
17.391882790305218	4.575907	2.139137
17.40961356710468	4.552658	2.1336958
17.42734476396215	4.527534	2.1278002
17.445076381332044	4.5717473	2.1381645
17.462808419668868	4.6718674	2.1614504
17.48054087942723	4.795505	2.1898642
17.498273761061835	5.035399	2.2439694
17.51600706502747	5.495761	2.3443038
17.533740791779024	6.2009487	2.4901705
17.551474941771485	7.709603	2.776617
17.56920951545993	8.854765	2.9756956
17.586944513299528	11.095686	3.3310187
17.60467993574556	12.81358	3.579606
17.622415783253373	14.725225	3.837346
17.64015205627843	16.169125	4.021085
17.657888755276293	17.234402	4.1514335
17.675625880702604	17.700489	4.207195
17.69336343301311	17.471085	4.1798425
17.71110141266366	16.56731	4.0702963
17.728839820110178	15.579642	3.9471056
17.746578655808705	14.560238	3.815788
17.764317920215372	13.035805	3.610513
17.7820576137864	11.484751	3.3889158
17.79979773697811	9.459709	3.075664
17.81753829024692	7.561048	2.749736
17.835279274049356	5.901458	2.4292917
17.85302068884201	4.883061	2.209765
17.870762535081607	4.2222376	2.0548084
17.888504813224934	3.9163094	1.9789667
17.90624752372891	3.7501636	1.9365339
17.923990667050536	3.668784	1.915407
17.941734243646895	3.5856748	1.8935878
17.959478253975185	3.5569365	1.8859842
17.9772226984927	3.5133884	1.8744035
17.994967577656833	3.4768977	1.8646442
18.01271289192506	3.425314	1.8507603
18.030458641754965	3.3842785	1.8396409
18.04820482760425	3.3289568	1.8245429
18.06595144993067	3.3601785	1.833079
18.083698509192125	3.3432915	1.828467
18.101446005846576	3.303676	1.8176017
18.119193940352105	3.2483563	1.8023198
18.136942313166887	3.2343676	1.7984347
18.1546911247492	3.176816	1.7823625
18.1724403755574	3.1340413	1.7703223
18.19019006604997	3.1094682	1.7633685
18.207940196685467	3.1150036	1.7649373
18.225690767922575	3.1149588	1.7649245
18.243441780220046	3.117318	1.7655928
18.261193234036764	3.0955417	1.7594151
18.278945129831676	3.1053572	1.7622024
18.29669746806386	3.0846093	1.7563056
18.314450249192483	3.0517354	1.7469217
18.3322034736768	3.0263739	1.7396476
18.349957141976184	3.081509	1.7554228
18.3677112545501	3.094917	1.7592376
18.385465811858108	3.090771	1.7580589
18.403220814359884	3.032311	1.7413532
18.420976262515172	3.0633163	1.7502332
18.43873215678387	3.1577964	1.7770189
18.456488497625923	3.2288656	1.7969044
18.474245285501407	3.2766736	1.8101585
18.492002520870486	3.320806	1.8223078
18.50976020419343	3.4428403	1.8554893
18.527518335930615	3.8015063	1.9497452
18.545276916542516	4.3664513	2.0896056
18.563035946489688	4.482817	2.1172664
18.580795426232832	4.872381	2.2073472
18.598555356232698	4.7283344	2.1744733
18.616315736950185	5.059375	2.2493055
18.63407656884626	4.7308307	2.1750474
18.65183785238201	4.925315	2.219305
18.669599588018617	4.732344	2.1753953
18.68736177621737	4.7419343	2.1775982
18.705124417439652	4.720313	2.1726282
18.72288751214696	4.5072885	2.1230376
18.740651060800886	4.6510425	2.1566277
18.758415063863115	4.3482485	2.0852454
18.77617952179546	4.484929	2.1177652
18.793944435059814	4.231907	2.05716
18.811709804118184	4.2926755	2.0718772
18.829475629432675	4.2633176	2.0647802
18.8472419114655	4.0635314	2.0158203
18.86500865067897	4.1896334	2.0468595
18.88277584753551	3.8778791	1.9692332
18.90054350249763	3.8609664	1.9649342
18.918311616027957	3.4940476	1.8692372
18.936080188589226	3.3670535	1.8349533
18.953849220644265	3.0292294	1.7404681
18.971618712656007	2.835396	1.6838634
18.9893886650875	2.7936618	1.6714251
19.007159078401887	7.9922123	2.8270502
19.024929953062408	32.921246	5.737704
19.042701289532435	32.90021	5.7358704
19.060473088275405	25.431143	5.04293
19.07824534975489	2.673397	1.6350526
19.096018074434568	2.6745136	1.635394
19.113791262778197	2.641718	1.6253363
19.13156491524966	2.590807	1.6095984
19.149339032312945	2.5611374	1.6003554
19.167113614432136	2.5598216	1.5999442
19.184888662071433	2.560969	1.6003028
19.202664175695123	2.552519	1.5976605
19.220440155767623	2.5230832	1.5884216
19.238216602753447	2.5338871	1.5918188
19.2559935171172	2.5423777	1.5944835
19.27377089932361	2.5449831	1.5953003
19.291548749837514	2.5245767	1.5888916
19.309327069123835	2.5179846	1.5868158
19.32710585764763	2.540667	1.593947
19.344885115874032	2.5676017	1.6023737
19.362664844268313	2.5655613	1.6017369
19.380445043295822	2.5430672	1.5946997
19.39822571342203	2.522264	1.5881637
19.41600685511252	2.4885442	1.577512
19.43378846883297	2.5090022	1.5839831
19.451570555049173	2.5290134	1.5902872
19.469353114227037	2.5122762	1.5850161
19.48713614683254	2.4541516	1.5665733
19.50491965333182	2.4483943	1.5647346
19.52270363419109	2.48645	1.5768481
19.540488089876686	2.527775	1.5898978
19.55827302085503	2.562432	1.6007599
19.576058427592674	2.5817947	1.6067964
19.593844310556282	2.5500066	1.596874
19.611630670212598	2.5657141	1.6017847
19.629417507028506	2.5457249	1.5955328
19.64720482147098	2.5201702	1.5875044
19.6649926140071	2.4702964	1.5717176
19.682780885104084	2.4819577	1.575423
19.70056963522921	2.4948947	1.5795236
19.718358864849908	2.5224073	1.5882088
19.7361485744337	2.5405936	1.5939239
19.753938764448215	2.5519419	1.5974798
19.771729435361202	2.525382	1.5891451
19.789520587640506	2.478711	1.5743922
19.807312221754092	2.478707	1.574391
19.825104338170043	2.4834838	1.5759073
19.842896937356517	2.5033224	1.5821891
19.860690019781824	2.5105777	1.5844803
19.87848358591436	2.5316489	1.5911156
19.896277636222635	2.5221093	1.588115
19.914072171175278	2.503271	1.5821729
19.931867191241015	2.4922445	1.5786844
19.94966269688869	2.4941933	1.5793015
19.967458688587264	2.4454334	1.5637882
19.985255166805807	2.4431148	1.5630466
20.00305213201348	2.444723	1.563561
20.020849584679578	2.4466581	1.5641797
20.038647525273507	2.4338512	1.5600805
20.05644595426477	2.4312992	1.5592624
20.07424487212299	2.4525259	1.5660542
20.092044279317903	2.4667406	1.5705861
20.109844176319353	2.4648256	1.5699763
20.127644563597304	2.47382	1.5728382
20.145445441621817	2.456721	1.5673931
20.16324681086307	2.4385138	1.5615741
20.181048671791373	2.4176595	1.5548825
20.198851024877122	2.4405131	1.5622141
20.216653870590836	2.4066079	1.5513246
20.234457209403146	2.356358	1.5350434
20.252261041784802	2.336443	1.5285428
20.270065368206662	2.3621314	1.5369227
20.287870189139685	2.3806155	1.5429243
20.305675505054968	2.39378	1.5471846
20.323481316423702	2.4299064	1.5588157
20.341287623717207	2.4184623	1.5551406
20.359094427406884	2.413233	1.5534585
20.376901727964288	2.4057946	1.5510625
20.39470952586107	2.3884487	1.5454607
20.41251782156899	2.3831296	1.5437388
20.430326615559935	2.4098127	1.5523572
20.448135908305886	2.3813214	1.543153
20.465945700278965	2.3593132	1.5360056
20.483755991951384	2.3442464	1.5310932
20.50156678379548	2.3323774	1.5272123
20.519378076283708	2.3069198	1.5188547
20.537189869888635	2.2923107	1.5140378
20.55500216508294	2.3046753	1.5181158
20.572814962339415	2.328223	1.5258516
20.59062826213098	2.3293493	1.5262206
20.60844206493066	2.3191414	1.5228727
20.626256371211593	2.307914	1.519182
20.644071181447032	2.3157184	1.5217484
20.66188649611036	2.308727	1.5194496
20.67970231567506	2.3139708	1.5211742
20.697518640614742	2.3546195	1.534477
20.715335471403122	2.3771977	1.5418164
20.73315280851404	2.346121	1.5317053
20.750970652421447	2.3222504	1.5238931
20.768789003599412	2.3183854	1.5226245
20.786607862522136	2.3216693	1.5237025
20.8044272296639	2.2923386	1.5140471
20.82224710549913	2.2708483	1.5069335
20.84006749050237	2.2901747	1.5133324
20.857888385148268	3.8839264	1.970768
20.8757097899116	45.99871	6.782235
20.893531705267254	64.83441	8.051982
20.911354131690224	83.84402	9.156638
20.92917706965566	69.09116	8.312109
20.94700051963877	50.13786	7.080809
20.96482448211493	29.365145	5.4189615
20.982648957559622	4.1010637	2.0251083
21.00047394644843	2.2519476	1.5006491
21.01829944925707	2.2887015	1.5128455
21.036125466461375	2.2995386	1.516423
21.053951998537297	2.289946	1.5132568
21.071779045960906	2.2858849	1.5119143
21.089606609208378	2.2841744	1.5113486
21.10743468875603	2.269724	1.5065603
21.12526328508028	2.2452571	1.4984182
21.143092398657675	2.225064	1.4916649
21.16092202996488	2.2112179	1.4870164
21.17875217947867	2.188993	1.4795246
21.19658284767596	2.1697648	1.4730121
21.21441403503377	2.1882	1.4792565
21.232245742029225	2.2204406	1.4901143
21.2500779691396	2.2229328	1.4909503
21.26791071684227	2.2146783	1.4881796
21.28574398561475	2.1672735	1.4721663
21.30357777593465	2.1523128	1.4670763
21.321412088279704	2.1449013	1.4645481
21.339246923127792	2.1764467	1.4752785
21.357082280956888	2.2052953	1.4850237
21.3749181622451	2.200376	1.4833665
21.392754567470647	2.1753192	1.4748963
21.41059149711187	2.121988	1.4567045
21.42842895164726	2.108182	1.451958
21.446266931555378	2.1249666	1.4577265
21.464105437314945	2.1643016	1.4711566
21.481944469404798	2.1484287	1.4657519
21.49978402830388	2.113561	1.4538091
21.51762411449127	2.077532	1.4413646
21.53546472844617	2.096412	1.4478991
21.553305870647876	2.1178687	1.4552898
21.571147541575865	2.1309707	1.4597845
21.58898974170967	2.1431959	1.4639658
21.60683247152899	2.142701	1.4637967
21.62467573151363	2.1225739	1.4569056
21.642519522143523	2.1062782	1.4513023
21.660363843898722	2.0967333	1.4480101
21.6782086972594	2.095885	1.4477172
21.696054082705864	2.0750155	1.4404914
21.713900000718535	2.1052551	1.4509498
21.73174645177795	2.098133	1.4484934
21.749593436364794	2.0757618	1.4407505
21.767440954959845	2.0407891	1.4285619
21.785289008044032	2.0338857	1.4261436
21.803137596098388	2.0095158	1.4175739
21.820986719604086	2.0148222	1.4194443
21.838836379042412	2.0232544	1.4224114
21.85668657489478	2.038531	1.4277713
21.87453730764273	2.0261478	1.4234282
21.892388577767914	2.0451233	1.430078
21.91024038575213	2.0345929	1.4263916
21.928092732077285	2.0346642	1.4264165
21.945945617225426	2.054264	1.4332705
21.963799041678694	2.0374503	1.4273928
21.981653005919398	31.363607	5.6003222
21.999507510429943	78.17306	8.841553
22.01736255569286	73.12253	8.551171
22.035218142190818	4.1959877	2.0484111
22.05307427040661	2.017881	1.4205214
22.07093094082315	2.0483723	1.4312136
22.088788153923474	2.0555117	1.4337056
22.106645910190746	2.0515702	1.4323304
22.12450421010827	1.9893589	1.4104464
22.142363054159464	1.980838	1.4074224
22.16022244282787	1.9971825	1.4132171
22.178082376597164	2.0375674	1.4274338
22.195942855951145	2.0506988	1.4320261
22.213803881373742	2.0425062	1.4291627
22.231665453349002	2.024562	1.422871
22.24952757236111	2.0106483	1.4179733
22.26739023889438	2.0316138	1.425347
22.28525345343323	2.0081882	1.4171056
22.30311721646225	2.019058	1.4209356
22.320981528466113	1.9856546	1.4091326
22.33884638992964	1.994234	1.4121735
22.356711801337788	1.9775659	1.4062595
22.37457776317561	1.9710999	1.4039587
22.392444275928337	1.9540838	1.3978854
22.410311340081282	1.9613386	1.400478
22.428178956119904	1.9520612	1.3971618
22.446047124529805	1.9816359	1.4077059
22.46391584579669	1.9989494	1.4138421
22.481785120406414	2.0178561	1.4205127
22.49965494884496	1.9987069	1.4137564
22.51752533159841	1.9957258	1.4127016
22.53539626915302	1.9766549	1.4059356
22.553267761995137	1.9698217	1.4035034
22.571139810611264	1.940746	1.3931066
22.589012415488025	1.9144019	1.3836191
22.60688557711216	1.9136755	1.3833566
22.624759295970566	1.9756935	1.4055936
22.642633572550263	2.0042455	1.4157138
22.660508407338362	1.9906205	1.4108936
22.67838380082217	1.9463266	1.3951081
22.696259753489077	1.9265904	1.3880167
22.714136265826614	1.9256945	1.3876939
22.73201333832246	1.9250836	1.3874738
22.74989097146439	1.9276984	1.3884158
22.76776916574035	1.9437157	1.3941721
22.785647921638393	1.9545611	1.3980561
22.803527239646712	1.9267068	1.3880587
22.82140712025363	1.9119446	1.3827308
22.839287563947593	1.9182858	1.3850219
22.85716857121719	1.9781135	1.4064542
22.875050142551135	1.9959283	1.4127733
22.892932278438277	1.981235	1.4075634
22.910814979367604	1.9448354	1.3945736
22.928698245828222	1.9499748	1.396415
22.946582078309387	1.9311062	1.3896425
22.96446647730047	1.9226763	1.3866061
22.98235144329098	1.9567208	1.3988284
23.000236976770562	1.9852684	1.4089955
23.018123078229	1.9763383	1.405823
23.03600974815619	1.9545742	1.3980609
23.053896987042194	1.923918	1.3870537
23.071784795377173	1.8848389	1.3728944
23.08967317365145	1.8814679	1.3716661
23.10756212235546	1.895846	1.3768972
23.125451641979787	1.908498	1.381484
23.143341733015134	1.9278096	1.3884559
23.161232395952357	1.9228549	1.3866705
23.179123631282426	1.9213444	1.3861257
23.197015439496468	1.8949435	1.3765695
23.214907821085717	1.8966756	1.3771985
23.23280077654157	1.8807346	1.3713988
23.250694306355538	1.8855846	1.3731658
23.268588411019277	1.8562722	1.3624508
23.28648309102458	1.8757731	1.3695886
23.304378346863356	1.8697735	1.3673966
23.322274179027676	1.9146361	1.3837038
23.340170588009723	1.9030037	1.379494
23.358067574301852	1.9073528	1.3810694
23.37596513839651	1.8827704	1.3721408
23.39386328078629	1.8946537	1.3764642
23.411762001963947	1.9027066	1.3793863
23.429661302422353	1.9275149	1.3883497
23.4475611826545	1.96812	1.402897
23.46546164315356	1.9948536	1.4123929
23.48336268441279	1.9946232	1.4123113
23.501264306925638	1.9809608	1.407466
23.51916651118564	1.9900596	1.4106947
23.537069297686497	1.988096	1.4099985
23.554972666922037	1.9744714	1.4051589
23.57287661938623	1.9275554	1.3883643
23.59078115557318	1.9262382	1.3878899
23.608686275977128	1.9489899	1.3960623
23.62659198109246	1.9462724	1.3950887
23.6444982714137	1.9596802	1.3998858
23.66240514743549	1.9634519	1.4012322
23.68031260965263	1.9671423	1.4025486
23.698220658560068	1.9305685	1.389449
23.716129294652845	1.9198359	1.3855815
23.7340385184262	1.9084448	1.3814647
23.75194833037546	1.9159464	1.3841771
23.769858730996123	1.905015	1.3802228
23.78776972078382	1.8732712	1.368675
23.80568130023431	1.9054681	1.380387
23.823593469843495	1.912855	1.38306
23.841506230107424	1.9192582	1.385373
23.859419581522275	1.9054524	1.3803812
23.87733352458438	1.8712859	1.3679495
23.89524805979019	1.8938868	1.3761857
23.913163187636318	1.944214	1.3943508
23.931078908619508	1.941428	1.3933513
23.948995223236633	1.9641896	1.4014955
23.966912131984735	1.9712331	1.4040061
23.98482963536096	1.9942212	1.412169
24.002747733862616	2.0087774	1.4173135
24.020666427987155	2.0759366	1.440811
24.038585718232156	2.103894	1.4504806
24.056505605095353	2.1030357	1.4501847
24.074426089074617	2.0942578	1.4471551
24.092347170667946	2.1130822	1.4536444
24.110268850373515	2.1382008	1.4622588
24.128191128689586	2.1144168	1.4541035
24.146114006114626	2.0357575	1.4267998
24.164037483147187	2.0408635	1.4285879
24.181961560286005	2.119708	1.4559218
24.199886238029926	2.1034296	1.4503205
24.21781151687797	2.0340898	1.4262152
24.235737397329274	2.0281708	1.4241387
24.253663879883135	2.0414557	1.4287952
24.271590965038975	2.0626204	1.4361826
24.289518653296376	2.0247986	1.4229542
24.30744694515505	2.0549786	1.4335196
24.32537584111486	2.0665908	1.4375641
24.34330534167581	2.0574443	1.4343795
24.361235447338046	2.0426912	1.4292275
24.379166158601876	2.0251064	1.4230623
24.39709747596772	2.0260916	1.4234084
24.41502939993615	1.9971813	1.4132166
24.432961931007917	2.0132754	1.4188993
24.450895069683856	2.0162933	1.4199624
24.468828816465	2.0067642	1.4166031
24.4867631718525	1.986862	1.4095609
24.504698136347656	1.938472	1.3922902
24.52263371045192	1.918492	1.3850964
24.540569894666874	1.9726843	1.4045228
24.558506689494266	2.0020316	1.4149317
24.57644409543597	1.9815022	1.4076585
24.594382112994012	1.9567578	1.3988416
24.61232074267057	1.936855	1.3917093
24.630259984967953	1.9316194	1.3898271
24.64819984038863	1.9572407	1.3990142
24.66614030943522	1.9682503	1.4029435
24.684081392610462	1.9537226	1.3977562
24.702023090417274	1.9575033	1.399108
24.7199654033587	2.055646	1.4337524
24.737908331937927	2.0836155	1.4434735
24.755851876658305	2.0647106	1.4369102
24.773796038023324	2.0796814	1.4421101
24.79174081653661	2.1552587	1.4680799
24.809686212701962	2.1623266	1.4704851
24.827632227023294	2.0849266	1.4439275
24.8455788600047	2.0152614	1.419599
24.8635261121504	2.0556316	1.4337474
24.88147398396475	2.1422153	1.4636308
24.899422475952303	2.1821394	1.4772066
24.917371588617698	2.1670299	1.4720836
24.935321322465768	2.1446972	1.4644785
24.953271678001478	2.2189033	1.4895984
24.97122265572994	2.4524798	1.5660396
24.989174256156414	2.8712482	1.6944758
25.00712647978632	3.3357325	1.8263987
25.02507932712521	3.8254304	1.9558707
25.043032798678798	4.333338	2.0816672
25.060986894952933	4.980217	2.2316399
25.078941616453637	5.7609854	2.4002054
25.096896963687055	6.7309747	2.594412
25.114852937159508	7.8873873	2.8084493
25.132809537377444	8.42883	2.9032447
25.150766764847468	8.5107355	2.9173164
25.168724620076347	7.9014225	2.810947
25.186683103570985	6.869462	2.620966
25.204642215838426	5.6384993	2.3745525
25.222601957385894	4.257636	2.063404
25.24056232872074	3.2185032	1.7940187
25.25852333035048	2.6972995	1.6423457
25.276484962782778	2.336988	1.528721
25.294447226525435	2.0947835	1.4473367
25.312410122086423	1.9517556	1.3970525
25.330373649973843	1.9243474	1.3872085
25.348337810695988	1.938326	1.3922378
25.366302604761245	1.9237003	1.3869753
25.384268032678207	1.9524567	1.3973033
25.40223409495558	1.9817898	1.4077606
25.420200792102257	1.993672	1.4119745
25.438168124627246	1.9561236	1.3986149
25.45613609303974	1.9340398	1.3906976
25.474104697849057	1.9404358	1.3929952
25.492073939564698	1.9344274	1.390837
25.510043818696285	1.9081259	1.3813493
25.528014335753614	1.908195	1.3813744
25.54598549124664	1.8897752	1.3746909
25.56395728568544	1.8619522	1.3645337
25.58192971958028	1.8499254	1.3601196
25.59990279344156	1.8346508	1.3544928
25.617876507779833	1.832787	1.3538047
25.635850863105826	1.8030951	1.3427938
25.653825859930386	1.7981812	1.3409628
25.671801498764548	1.830379	1.352915
25.68977778011949	1.8687024	1.3670049
25.707754704506524	1.8617498	1.3644595
25.725732272437153	1.8841562	1.3726457
25.743710484423012	1.8988299	1.3779804
25.761689340975888	1.9065785	1.380789
25.77966884260774	1.8872706	1.3737797
25.797648989830662	1.853876	1.3615712
25.815629783156922	1.8653197	1.3657671
25.83361122309895	1.876835	1.3699763
25.85159331016929	1.8621776	1.3646163
25.869576044880695	1.8375243	1.3555532
25.887559427746034	1.8479581	1.3593962
25.90554345927836	1.8713942	1.3679891
25.92352813999086	1.8560604	1.3623731
25.94151347039689	1.8336233	1.3541135
25.959499451009965	1.841016	1.3568405
25.97748608234374	1.8645194	1.365474
25.995473364912062	1.8747039	1.3691983
26.013461299228904	1.8883501	1.3741726
26.03144988580839	1.8607936	1.364109
26.04943912516483	1.835634	1.3548557
26.067429017812675	1.8189809	1.348696
26.085419564266537	1.8348757	1.3545759
26.103410765041186	1.8835205	1.3724141
26.12140262065155	1.8915899	1.3753508
26.139395131612723	1.8569916	1.3627148
26.157388298439948	1.8101052	1.3454015
26.17538212164861	1.8108693	1.3456855
26.193376601754295	1.8043547	1.3432627
26.211371739272714	1.7865435	1.3366164
26.229367534719746	1.7688023	1.3299632
26.247363988611433	1.7836189	1.3355219
26.26536110146397	1.8028562	1.3427048
26.283358873793727	1.7704424	1.3305798
26.301357306117204	1.7720912	1.3311992
26.319356398951104	1.793806	1.3393304
26.33735615281224	1.8298112	1.3527051
26.35535656821762	1.8401589	1.3565246
26.373357645684404	1.8153424	1.3473464
26.39135938572991	1.7975857	1.3407407
26.409361788871614	1.8368956	1.3553212
26.427364855627165	1.8765008	1.3698543
26.445368586514352	1.8368285	1.3552965
26.46337298205115	1.8632355	1.3650038
26.48137804275568	1.8678061	1.366677
26.499383769146217	1.8018897	1.3423449
26.517390161741215	1.7822225	1.3349991
26.53539722105928	1.8211389	1.3494958
26.553404947619182	1.8452312	1.3583928
26.571413341939856	1.8093218	1.3451103
26.589422404540397	1.8178692	1.3482838
26.60743213594006	1.8314093	1.3532957
26.62544253665827	1.8303219	1.352894
26.64345360721459	1.8148717	1.3471718
26.66146534812879	1.8098713	1.3453146
26.679477759920758	1.7950413	1.3397915
26.69749084311057	1.7866228	1.3366461
26.71550459821847	1.7916108	1.3385106
26.733519025764842	1.7581676	1.3259591
26.751534126270258	1.7612932	1.3271372
26.769549900255434	1.7719646	1.3311516
26.787566348241267	1.8203266	1.3491948
26.80558347074881	1.80672	1.3441429
26.823601268299267	1.7835256	1.335487
26.841619741414036	1.7688302	1.3299737
26.85963889061465	1.7596494	1.3265178
26.877658716422832	1.7687565	1.329946
26.89567921936045	1.8294736	1.3525803
26.913700399949544	1.8289423	1.352384
26.93172225871233	1.8537557	1.361527
26.949744796171174	1.8305254	1.352969
26.967768012848605	1.8298569	1.352722
26.98579190926733	1.8333173	1.3540004
27.003816485950225	1.7940823	1.3394336
27.021841743420318	1.7257345	1.3136722
27.039867682200814	1.7369106	1.317919
27.057894302815072	1.7986159	1.3411249
27.07592160578664	1.860177	1.363883
27.0939495916392	1.8540169	1.3616229
27.111978260896635	1.8648318	1.3655884
27.13000761408296	1.8633078	1.3650303
27.148037651722397	1.8660094	1.3660195
27.166068374339304	1.8533188	1.3613665
27.184099782458215	1.8037221	1.3430272
27.20213187660384	1.7891393	1.3375871
27.22016465730105	1.7925411	1.3388581
27.23819812507487	1.8303239	1.3528947
27.256232280450533	1.8268028	1.3515927
27.274267123953383	1.8430628	1.3575945
27.292302656108987	1.870614	1.3677039
27.31033887744306	1.8728669	1.3685273
27.32837578848146	1.833468	1.3540561
27.34641338975026	1.8113555	1.3458661
27.364451681775673	1.7970918	1.3405565
27.382490665084074	1.8236768	1.3504357
27.400530340202046	1.8446193	1.3581676
27.41857070765629	1.8716856	1.3680956
27.436611767973726	1.8256767	1.351176
27.454653521681404	1.7829682	1.3352783
27.472695969306564	1.7744206	1.3320738
27.490739111376627	1.7720932	1.3311999
27.508782948419153	1.7950025	1.339777
27.526827480961902	1.8168836	1.3479183
27.54487270953279	1.7999223	1.3416119
27.562918634659898	1.8256353	1.3511608
27.580965256871508	1.8941876	1.3762949
27.599012576696026	1.9052049	1.3802916
27.617060594662068	1.8669447	1.3663619
27.63510931129842	1.8349555	1.3546053
27.65315872713401	1.8112962	1.345844
27.67120884269797	1.7918859	1.3386134
27.68925965851958	1.7910811	1.3383127
27.707311175128307	1.8394845	1.3562759
27.725363393053787	1.9084783	1.3814769
27.74341631282583	1.9264609	1.3879701
27.7614699349744	1.8958416	1.3768957
27.77952426002968	2.044979	1.4300276
27.797579288521973	2.0732722	1.4398862
27.815635020981784	2.4418135	1.5626303
27.83369145793979	2.5463288	1.5957221
27.85174859992682	2.478409	1.5742964
27.869806447473923	2.344137	1.5310575
27.887865001112267	2.0140095	1.419158
27.905924261373233	1.9242046	1.387157
27.92398422878836	1.9223884	1.3865023
27.94204490388936	1.9236947	1.3869733
27.96010628720813	1.9131609	1.3831706
27.978168379276728	1.8842686	1.3726866
27.9962311806274	1.8863894	1.3734589
28.014294691792568	1.8397136	1.3563604
28.0323589133048	1.7966129	1.3403779
28.050423845696887	1.8079439	1.344598
28.068489489501758	1.8794625	1.3709348
28.086555845252523	1.9199896	1.3856369
28.104622913482487	1.9046568	1.380093
28.122690694725115	1.954388	1.3979943
28.14075918951405	1.9671699	1.4025583
28.15882839838312	1.965849	1.4020873
28.176898321866304	1.9580911	1.3993181
28.1949689604978	1.926863	1.3881149
28.213040314811945	1.9147471	1.3837439
28.23111238534327	1.9092455	1.3817545
28.249185172626493	1.8929875	1.3758588
28.267258677196473	1.8594987	1.3636343
28.285332899588294	1.93923	1.3925624
28.303407840337172	2.006229	1.4164141
28.321483499978545	1.9860039	1.4092565
28.33955987904799	1.9546674	1.3980942
28.357636978081285	1.9555571	1.3984123
28.37571479761439	1.9295592	1.3890858
28.393793338183425	1.9679632	1.4028411
28.41187260032469	1.9460578	1.3950118
28.429952584574686	1.9250265	1.3874532
28.448033291470065	1.9132398	1.3831991
28.46611472154769	1.9504822	1.3965967
28.484196875344566	1.9386234	1.3923446
28.502279753397914	1.9988254	1.4137982
28.52036335624511	2.0164058	1.4200021
28.538447684423716	1.9625355	1.4009053
28.556532738471482	1.9627589	1.400985
28.574618518926325	2.0110803	1.4181256
28.59270502632635	2.0568092	1.434158
28.61079226120985	2.0314302	1.4252825
28.628880224115274	1.9522305	1.3972224
28.646968915581287	1.9568573	1.3988771
28.66505833614671	2.006358	1.4164597
28.68314848635055	2.0474634	1.430896
28.701239366732004	2.1075525	1.4517412
28.71933097783044	2.1154199	1.4544483
28.737423320185403	2.0666685	1.4375912
28.75551639433665	2.0243247	1.4227877
28.773610200824074	2.0727599	1.4397082
28.791704740187793	2.1432314	1.4639779
28.80980001296809	2.1427734	1.4638215
28.827896019705413	2.1277397	1.4586774
28.845992760940433	2.1401103	1.4629116
28.86409023721397	2.1908464	1.4801508
28.88218844906704	2.2301342	1.4933634
28.900287397040845	2.1845872	1.478035
28.918387081676755	2.1474679	1.4654241
28.936487503516343	2.165991	1.4717306
28.954588663101365	2.2255142	1.4918157
28.97269056097374	2.318918	1.5227994
28.990793197675597	2.3238358	1.5244132
29.00889657374923	2.2923489	1.5140505
29.027000689737125	2.352118	1.5336616
29.04510554618196	2.4712148	1.5720098
29.06321114362659	2.4935987	1.5791132
29.08131748261405	2.4991329	1.5808645
29.099424563687567	2.5118666	1.5848869
29.11753238739057	2.5240803	1.5887355
29.13564095426663	2.5487173	1.5964702
29.15375026485954	2.6260076	1.620496
29.171860319713275	2.7281833	1.6517214
29.18997111937199	2.7531664	1.6592668
29.20808266438002	2.7868936	1.6693991
29.226194955281898	2.8251014	1.6808038
29.244307992622335	2.8235896	1.680354
29.26242177694624	2.8813791	1.6974626
29.2805363087987	2.873724	1.6952062
29.29865158872498	2.8895528	1.6998684
29.316767617270557	2.891499	1.7004409
29.334884394981064	2.908499	1.7054322
29.353001922402367	3.0196278	1.7377076
29.37112020008047	3.1871386	1.7852559
29.389239228561596	3.3481505	1.8297952
29.407359008392152	3.4854689	1.8669411
29.42547954011872	3.7364216	1.9329826
29.44360082428809	4.4057612	2.0989904
29.46172286144722	5.5184293	2.3491337
29.479845652143283	7.1189137	2.6681292
29.497969196923606	9.224632	3.037208
29.516093496335728	11.885368	3.4475162
29.5342185509274	14.717128	3.8362908
29.55234436124651	16.955067	4.117653
29.570470927841175	18.26143	4.2733397
29.588598251259686	17.941433	4.235733
29.60672633205055	16.460772	4.0571876
29.624855170762405	14.305259	3.7822294
29.642984767944146	11.628066	3.409995
29.66111512414481	9.011896	3.001982
29.67924623991366	6.7436852	2.5968606
29.697378115800138	5.1228046	2.2633615
29.71551075235387	4.2518463	2.0620005
29.733644150124675	3.8012884	1.9496893
29.751778309662576	3.51223	1.8740944
29.769913231517766	3.3679569	1.8351994
29.78804891624066	3.3814285	1.8388661
29.806185364381818	3.346233	1.8292711
29.82432257649206	3.3126345	1.8200644
29.842460553122333	3.3023672	1.8172417
29.86059929482382	3.3159635	1.8209788
29.878738802147872	3.328545	1.8244301
29.896879075646048	3.3015015	1.8170035
29.915020115870114	3.3099277	1.8193207
29.933161923371976	3.3301423	1.8248677
29.951304498703777	3.3331685	1.8256967
29.969447842417857	3.2392988	1.7998052
29.987591955066733	3.1673152	1.7796953
30.005736837203123	3.1854174	1.7847738
30.023882489379943	3.160283	1.7777185
30.04202891215028	3.1461873	1.7737495
30.060176106067455	3.1543024	1.7760355
30.078324071684946	3.1573925	1.7769053
30.09647280955646	3.1349251	1.770572
30.114622320235863	3.0524359	1.7471222
30.132772604277257	3.0499287	1.7464045
30.1509236622349	3.1556346	1.7764106
30.16907549466328	3.1689303	1.780149
30.18722810211705	3.1747339	1.7817783
30.205381485151097	3.1312292	1.7695279
30.22353564432045	3.0414917	1.7439873
30.241690580180403	2.990414	1.7292813
30.25984629328638	3.0398123	1.7435057
30.278002784194037	3.1094844	1.763373
30.296160053459246	3.0514097	1.7468284
30.314318101638033	2.972745	1.724165
30.332476929286646	2.9360163	1.7134807
30.35063653696153	2.9468646	1.7166435
30.368796925219307	2.9635973	1.7215102
30.386958094616844	2.9242964	1.7100574
30.40512004571115	2.8653123	1.6927234
30.423282779059463	2.8294976	1.682111
30.441446295219233	2.8441	1.686446
30.459610594748067	2.8886917	1.6996151
30.47777567820382	2.8858488	1.6987786
30.495941546144504	2.8580902	1.6905887
30.51410819912835	2.8929718	1.7008739
30.532275637713795	2.929975	1.711717
30.55044386245946	2.8995218	1.7027982
30.56861287392416	2.8312676	1.6826371
30.586782672666956	2.7711532	1.6646781
30.604953259247047	2.847143	1.6873479
30.623124634223885	2.8732216	1.695058
30.641296798157075	2.7581973	1.6607821
30.659469751606462	2.723965	1.6504439
30.677643495132074	2.7333474	1.6532838
30.695818029294152	2.6726484	1.6348237
30.713993354653116	2.6878757	1.6394743
30.73216947176962	2.7504327	1.6584429
30.75034638120448	2.7367032	1.6542984
30.768524083518756	2.7152398	1.6477984
30.786702579273673	2.7711554	1.6646788
30.80488186903069	2.8912516	1.700368
30.82306195335144	2.9549294	1.7189908
30.841242832797782	3.1261973	1.7681056
30.85942450793176	3.4457557	1.8562747
30.877606979315637	3.7683551	1.9412252
30.895790247511883	4.1108456	2.027522
30.913974313083134	4.4347324	2.1058805
30.932159176592283	4.725126	2.1737354
30.95034483860237	4.893804	2.2121944
30.968531299676698	4.744689	2.1782308
30.98671856037873	4.27113	2.0666714
31.00490662127215	3.804764	1.9505805
31.023095482920848	3.4753268	1.8642229
31.04128514588892	3.1577764	1.7770133
31.059475610740662	2.793936	1.6715071
31.07766687804056	2.6188128	1.6182747
31.09585894835335	2.5747817	1.6046126
31.11405182224393	2.556303	1.5988443
31.132245500277417	2.5566063	1.5989391
31.15043998301914	2.5164635	1.5863365
31.168635271034628	2.443773	1.5632572
31.18683136488964	2.4484854	1.5647637
31.20502826515008	2.4231994	1.5566629
31.223225972382135	2.4061277	1.5511698
31.241424487152155	2.5116801	1.5848281
31.259623810026692	2.5012877	1.581546
31.27782394157253	2.4731123	1.5726132
31.296024882356644	2.4591043	1.5681531
31.314226632946237	2.4042342	1.5505593
31.332429193908684	2.4276896	1.5581045
31.350632565811598	2.5069618	1.5833389
31.368836749222787	2.5380723	1.5931329
31.387041744710295	2.530857	1.5908668
31.40524755284232	2.5626276	1.6008209
31.423454174187317	2.4840264	1.5760795
31.441661609313922	2.4197428	1.5555522
31.459869858791002	2.421961	1.5562651
31.478078923187628	2.4238586	1.5568746
31.496288803073064	2.4717596	1.572183
31.514499499016807	2.4590857	1.5681472
31.532711011588546	2.3681571	1.5388818
31.550923341358178	2.365943	1.5381622
31.56913648889584	2.3881927	1.5453779
31.587350454771844	2.3577158	1.5354855
31.605565239556732	2.2725935	1.5075123
31.62378084382127	2.3139093	1.5211539
31.641997268136382	2.4103684	1.5525361
31.660214513073274	2.4090626	1.5521156
31.67843257920331	2.3926456	1.5468179
31.6966514670981	2.2917678	1.5138586
31.71487117732944	2.2450595	1.4983523
31.733091710469346	2.25949	1.50316
31.751313067090052	2.2971213	1.5156257
31.769535247764008	2.3180034	1.5224991
31.787758253063878	2.3920493	1.5466251
31.805982083562526	2.3853872	1.5444698
31.824206739833024	2.375914	1.5414001
31.84243222244869	2.2786498	1.5095197
31.860658531983013	2.2251475	1.4916928
31.878885669009737	2.2076378	1.4858122
31.897113634102784	2.2217817	1.4905642
31.91534242783632	2.2746053	1.5081794
31.933572050784694	2.2752569	1.5083954
31.951802503522508	2.2867622	1.5122044
31.970033786624548	2.1748028	1.4747213
31.988265900665834	2.1522343	1.4670495
32.006498846221575	2.1384163	1.4623325
32.02473262386724	2.2234223	1.4911145
32.04296723417845	2.2259834	1.4919729
32.0612026777311	2.2082272	1.4860104
32.07943895510129	2.0976589	1.4483297
32.097676066865304	2.0939238	1.4470397
32.115914013599685	2.1161258	1.4546909
32.13415279588115	2.1482372	1.4656866
32.152392414286666	2.128174	1.4588263
32.1706328693934	2.135832	1.4614487
32.18887416177875	2.2268775	1.4922726
32.20711629202032	2.201344	1.4836926
32.225359260695924	2.0814495	1.4427229
32.243603068383614	2.0336263	1.4260527
32.26184771566166	2.1058795	1.4511648
32.28009320310852	2.1112916	1.4530284
32.2983395313029	2.1128652	1.4535698
32.31658670082372	2.145734	1.4648324
32.33483471225012	2.114668	1.4541898
32.35308356616143	2.0141342	1.419202
32.371333263137245	2.0279107	1.4240474
32.38958380375734	2.1148393	1.4542487
32.407835188601744	2.127524	1.4586034
32.42608741825067	2.0357	1.4267796
32.444340493284585	2.0483801	1.4312164
32.46259441428416	2.0842843	1.4437051
32.48084918183028	2.1116533	1.4531529
32.49910479650405	2.031073	1.4251572
32.51736125888683	2.01371	1.4190525
32.53561856956014	2.0129745	1.4187933
32.5538767291058	1.9829376	1.4081682
32.572135738105764	2.0869958	1.4446439
32.59039559714228	2.1750596	1.4748083
32.608656306797776	2.1635504	1.4709013
32.62691786765491	2.1220796	1.456736
32.645180280296586	1.9802246	1.4072045
32.663443545305896	1.895307	1.3767015
32.68170766326619	1.9570209	1.3989357
32.69997263476099	2.0302668	1.4248743
32.7182384603741	2.06984	1.4386939
32.7365051406895	2.02478	1.4229476
32.75477267629144	2.0207655	1.4215363
32.77304106776434	2.0663538	1.4374818
32.79131031569289	2.0523531	1.4326036
32.809580420661966	2.0371716	1.4272952
32.827851383256714	2.0226958	1.4222151
32.84612320406245	1.969783	1.4034896
32.86439588366476	1.9490907	1.3960984
32.88266942264945	1.916031	1.3842077
32.9009438216025	1.8830302	1.3722354
32.9192190811102	1.890151	1.3748276
32.937495201758985	1.9819766	1.4078269
32.95577218413556	2.015185	1.4195721
32.974050028826866	1.9573177	1.3990417
32.992328736420035	1.9065629	1.3807834
33.010608307502444	1.8834482	1.3723878
33.02888874266169	1.8936641	1.3761047
33.047170042485604	1.8679413	1.3667265
33.06545220756225	1.9541907	1.3979237
33.083735238479896	2.0232923	1.4224248
33.10201913582707	2.0267515	1.4236403
33.12030390019248	1.9902205	1.4107518
33.138589532165135	1.9401995	1.3929105
33.15687603233419	1.8818617	1.3718096
33.17516340128909	1.8654783	1.3658252
33.19345163961947	1.8855906	1.3731681
33.211740747915215	2.023733	1.4225796
33.23003072676643	2.1181989	1.4554033
33.248321576763466	2.0622246	1.4360448
33.266613298496885	1.9643352	1.4015474
33.28490589255747	1.9546076	1.3980728
33.30319935953626	1.958178	1.3993491
33.32149370002451	1.9997809	1.414136
33.339788914613706	2.0063045	1.4164408
33.358085003895575	1.961785	1.4006374
33.376381968462034	1.9453219	1.394748
33.39467980890529	1.9388728	1.3924341
33.41297852581774	1.8985443	1.3778768
33.43127811979204	1.870139	1.3675302
33.44957859142105	1.9200753	1.3856678
33.467879941297866	1.9333665	1.3904555
33.486182170015844	1.9659957	1.4021397
33.50448527816853	1.9049067	1.3801836
33.522789266349754	1.8390203	1.3561049
33.541094135153514	1.8268731	1.3516186
33.55939988517411	1.8779653	1.3703887
33.57770651700602	1.8977563	1.3775908
33.59601403124398	1.8135597	1.3466847
33.61432242848296	1.7929859	1.3390242
33.632631709318154	1.8992916	1.3781478
33.650941874344994	1.9063388	1.3807023
33.66925292415916	1.9209346	1.3859779
33.68756485935654	1.936573	1.3916081
33.70587768053328	1.9750465	1.4053634
33.724191388285746	2.0153008	1.4196129
33.74250598321054	1.9221761	1.3864256
33.760821465904506	1.8592522	1.363544
33.77913783696474	1.953166	1.3975571
33.79745509698852	1.9587463	1.3995522
33.815773246573414	1.8821543	1.3719163
33.8340922863172	1.8540096	1.3616202
33.852412216817896	1.8178904	1.3482916
33.87073303867377	1.8636657	1.3651614
33.889054752483304	1.8688228	1.367049
33.907377358845245	1.8330495	1.3539016
33.92570085835853	1.948622	1.3959305
33.94402525162239	2.1748686	1.4747436
33.96235053923627	2.1821246	1.4772016
33.980676721799824	2.0442624	1.429777
33.999003799912984	1.9174122	1.3847065
34.01733177417592	1.9671508	1.4025515
34.03566064518901	2.0147254	1.4194102
34.0539904135529	2.1181033	1.4553705
34.07232107986846	2.0973208	1.448213
34.090652644736785	2.0625827	1.4361695
34.108985108759235	2.0130064	1.4188045
34.12731847253742	2.0614533	1.4357762
34.14565273667313	2.154752	1.4679073
34.16398790176847	2.0776882	1.4414188
34.18232396842574	1.9024132	1.37928
34.20066093724749	1.8735825	1.3687887
34.21899880883651	1.9868573	1.4095592
34.23733758379583	2.015782	1.4197824
34.25567726272874	2.0677187	1.4379565
34.27401784623872	2.121439	1.456516
34.29235933492957	2.087639	1.4448664
34.31070172940526	1.9203925	1.3857822
34.32904503027003	1.892168	1.375561
34.347389238128386	1.9359787	1.3913945
34.36573435358502	1.9627932	1.4009973
34.38408037724492	1.9415357	1.39339
34.402427309713296	1.9323163	1.3900778
34.42077515159559	1.9075395	1.381137
34.43912390349752	1.9039464	1.3798356
34.45747356602499	1.9734378	1.404791
34.47582413978423	1.9048235	1.3801534
34.49417562538163	1.841975	1.3571938
34.51252802342388	1.9087304	1.3815681
34.53088133451789	1.9733454	1.4047581
34.54923555927084	1.986775	1.40953
34.567590698290104	1.9379567	1.3921051
34.58594675218336	2.0244043	1.4228156
34.6043037215585	2.2152247	1.4883631
34.62266160702365	2.3143437	1.5212967
34.641020409187234	1.9937134	1.4119892
34.65938012865785	1.8184181	1.3484874
34.677740766044394	1.8236514	1.3504264
34.69610232195598	1.8053895	1.3436478
34.714464797002016	1.8139172	1.3468174
34.73282819179208	1.8912604	1.375231
34.751192506936064	1.9863902	1.4093935
34.76955774304408	2.0394623	1.4280975
34.7879239007265	1.9186084	1.3851384
34.80629098059391	1.7838019	1.3355905
34.824658983257194	1.7840542	1.3356849
34.843027909327446	1.8542197	1.3616973
34.86139775941603	1.910916	1.3823588
34.879768534134534	1.9929785	1.4117289
34.89814023409483	2.1202796	1.456118
34.91651285990901	2.1339989	1.4608213
34.93488641218944	1.9927386	1.411644
34.95326089154871	2.04978	1.4317052
34.97163629859967	2.1615496	1.4702209
34.99001263395542	2.1754951	1.474956
35.00838989822934	1.9297166	1.3891424
35.02676809203499	1.8956	1.3768079
35.04514721598624	2.1440523	1.4642583
35.063527270697215	2.1669035	1.4720405
35.081908256782256	2.0244608	1.4228355
35.10029017485597	2.258334	1.5027754
35.11867302553321	2.360049	1.5362451
35.137056809429104	2.0914598	1.446188
35.155441527159006	1.8816804	1.3717436
35.173827179338524	2.0119836	1.418444
35.19221376658354	2.0724075	1.4395859
35.21060128951017	2.0044675	1.4157922
35.2289897487348	2.0712755	1.4391927
35.24737914487405	2.2101018	1.4866412
35.26576947854479	2.1069677	1.4515398
35.28416075036418	1.9801748	1.4071869
35.30255296094958	1.7499355	1.3228513
35.32094611091867	1.6775293	1.2951947
35.33934020088932	1.6585934	1.2878639
35.35773523147969	1.6801127	1.2961916
35.3761312033082	1.926658	1.388041
35.394528116993506	2.248447	1.4994823
35.41292597315452	2.1673713	1.4721994
35.431324772410434	2.0358832	1.4268438
35.449724515380666	1.9783033	1.4065217
35.46812520268491	1.8308557	1.3530911
35.486526834943106	1.7440901	1.32064
35.504929412775454	1.7041093	1.3054154
35.52333293680242	1.9511082	1.3968208
35.54173740764471	2.095724	1.4476616
35.560142825923286	2.46647	1.5704999
35.5785491922594	2.4745693	1.5730764
35.59695650727454	2.1759148	1.4750983
35.61536477159042	1.635571	1.2788944
