0.008763373481513119	0.0	0.0
0.026290120649546365	0.0	0.0
0.043816868432600686	0.0	0.0
0.06134361724069026	0.07129023	0.2670023
0.07887036748382949	0.09072099	0.30119926
0.0963971195720331	0.14251728	0.3775146
0.11392387391531617	0.17281349	0.41570842
0.1314506309236943	0.23031813	0.47991472
0.1489773910071836	0.27319694	0.5226824
0.16650415457580078	0.20460625	0.45233423
0.18403092203956356	0.13163927	0.36282128
0.20155769380849	0.108006395	0.32864326
0.2190844702925996	0.14223905	0.37714592
0.2366112519019124	0.17882673	0.4228791
0.2541380390464497	0.19317526	0.43951708
0.27166483213623416	0.14846393	0.38531017
0.28919163158128947	0.12582006	0.35471123
0.3067184377916406	0.090733245	0.30121958
0.324245251177314	0.097340636	0.3119946
0.34177207214833777	0.16099064	0.4012364
0.3592989011147415	0.20980847	0.45804855
0.37682573848655654	0.24572426	0.4957058
0.39435258467381573	0.20718898	0.45518017
0.41187944008655414	0.15456158	0.3931432
0.42940630513480854	0.1298878	0.3603995
0.446933180228618	0.13038097	0.36108306
0.4644600657780234	0.14912075	0.38616157
0.48198696219306775	0.18640335	0.43174455
0.49951386988379676	0.16317765	0.40395254
0.5170407892602581	0.16121477	0.4015156
0.5345677207325025	0.13499884	0.3674219
0.5520946647105822	0.121898875	0.3491402
0.5696216216045534	0.10528538	0.32447708
0.5871485918244737	0.11301096	0.33617103
0.6046755757804043	0.14372648	0.37911275
0.6222025738824094	0.16941722	0.41160324
0.6397295865405557	0.17221506	0.414988
0.6572566141649129	0.1923496	0.4385768
0.6747836571655547	0.18466656	0.42972848
0.6923107159525568	0.1891742	0.43494162
0.7098377909359992	0.1801154	0.42440006
0.7273648825259653	0.14948498	0.38663286
0.7448919911325411	0.17024001	0.41260153
0.762419117165817	0.13941616	0.37338474
0.7799462610358868	0.1468289	0.3831826
0.7974734231528482	0.17093551	0.41344348
0.8150006039268024	0.18119332	0.4256681
0.8325278037678551	0.19202879	0.4382109
0.8500550230861152	0.17655082	0.42017952
0.8675822622916969	0.1888972	0.43462306
0.8851095217947171	0.18770504	0.43324938
0.9026368020052984	0.21279372	0.4612957
0.9201641033335665	0.21135032	0.45972854
0.9376914261896523	0.17152368	0.41415417
0.9552187709836915	0.20656174	0.45449063
0.9727461381258234	0.23961528	0.48950514
0.990273528026193	0.25608006	0.50604355
1.0078009410949496	0.24716488	0.4971568
1.0253283777422473	0.26597953	0.51573205
1.0428558383782454	0.30691734	0.5540012
1.0603833234131086	0.30901337	0.5558897
1.0779108332570058	0.3175897	0.56355095
1.0954383683201119	0.3337137	0.5776796
1.112965929012607	0.4004228	0.63278973
1.1304935157446763	0.4780341	0.6914001
1.1480211289265108	0.5002408	0.70727706
1.1655487689683062	1.2772249	1.1301438
1.1830764362802655	1.5941988	1.2626159
1.200604131272596	2.033184	1.4258976
1.2181318543555117	2.3778121	1.5420156
1.235659605939232	2.4096801	1.5523144
1.253187386433982	3.842091	1.9601253
1.270715196249994	6.352632	2.5204427
1.2882430357975057	12.036645	3.4693868
1.3057709054867608	16.802326	4.099064
1.3232988057280106	22.627222	4.756808
1.3408267369315112	27.42727	5.2371054
1.358354699507526	31.161737	5.58227
1.3758826938663256	35.39504	5.949373
1.3934107204181858	37.24003	6.102461
1.410938779573391	37.689423	6.139171
1.4284668717422309	38.324352	6.1906667
1.4459949973350033	37.90855	6.156992
1.4635231567620117	38.051605	6.168598
1.4810513504335687	37.49181	6.1230555
1.4985795787599925	36.736763	6.061086
1.5161078421516088	36.19847	6.0165167
1.5336361410187505	35.312405	5.9424243
1.5511644757717598	35.265038	5.9384375
1.5686928468209842	35.722034	5.9767914
1.58622125457678	36.176632	6.0147014
1.6037496994495108	37.364822	6.112677
1.621278181849548	37.270054	6.1049204
1.6388067021872719	38.412746	6.1978016
1.6563352608730693	37.655823	6.136434
1.673863858317336	36.452473	6.037588
1.6913924949304753	35.33587	5.944398
1.7089211711228998	34.327267	5.8589478
1.7264498873050296	33.838852	5.817117
1.7439786438872935	33.310783	5.7715497
1.7615074412801288	32.48541	5.6995974
1.779036279893981	32.01251	5.65796
1.796565160139305	30.879402	5.556924
1.814094082426564	30.047813	5.4815884
1.8316230471662298	29.331285	5.4158363
1.849152054768784	28.310171	5.32073
1.8666811056447168	27.825935	5.275029
1.8842102002045273	27.0931	5.2051034
1.901739338858724	26.725176	5.1696396
1.9192685220178245	26.264906	5.12493
1.9367977500923557	25.309465	5.0308514
1.9543270234928547	24.563353	4.956143
1.971856342629867	23.931175	4.89195
1.9893857079139496	23.601152	4.858102
2.006915119755667	22.859232	4.7811327
2.0244445785655945	22.015858	4.692106
2.0419740847543175	21.42066	4.628246
2.0595036387324317	21.305573	4.615796
2.0770332409105414	21.122149	4.595884
2.094562891699263	20.975136	4.579862
2.1120925915092217	20.473919	4.5248113
2.129622340751053	20.285433	4.5039353
2.1471521398354043	188.38048	13.725177
2.1646819891729323	444.74503	21.08898
2.182211889174303	440.80322	20.995314
2.1997418402501974	452.95114	21.282648
2.2172718428113023	432.69067	20.801218
2.234801897268317	320.57617	17.90464
2.2523320040319548	17.167625	4.1433835
2.269862163512935	16.977242	4.1203446
2.287392376121992	16.799128	4.098674
2.304922642269869	16.544802	4.06753
2.322452962367322	16.211168	4.0263095
2.3399833368251164	15.818629	3.977264
2.357513766054032	15.551382	3.9435241
2.3750442504648586	15.242552	3.904171
2.3925747904683963	15.089953	3.884579
2.410105386475459	15.022881	3.875936
2.4276360388968707	14.734746	3.8385866
2.445166748143469	14.510696	3.809291
2.4626975146261025	14.191627	3.7671776
2.4802283387556323	13.823573	3.7180066
2.4977592209429305	13.387112	3.6588402
2.5152901615988825	13.098754	3.61922
2.5328211611343865	13.048009	3.612203
2.5503522199603523	13.00745	3.6065843
2.5678833384877024	12.791029	3.5764549
2.5854145171273712	12.76899	3.5733724
2.6029457562903064	12.491861	3.5343828
2.620477056387469	12.099744	3.4784687
2.6380084178298326	11.618001	3.4085188
2.655539841028383	11.438417	3.382073
2.673071326394119	11.326482	3.365484
2.6906028743380523	11.142308	3.3380096
2.708134485271211	10.912312	3.3033788
2.7256661596046325	10.797836	3.2860062
2.743197897749369	10.607012	3.2568407
2.760729700116486	10.599298	3.2556562
2.778261567117063	10.347106	3.2166917
2.795793499162193	10.221704	3.19714
2.8133254966629817	10.021256	3.1656368
2.830857560030551	9.81933	3.1335812
2.8483896896760337	9.624452	3.10233
2.865921886010578	9.485673	3.079882
2.883454149445347	9.527937	3.0867357
2.9009864803915177	9.4826145	3.0793855
2.91851887926028	9.416041	3.0685568
2.9360513464628384	9.281364	3.046533
2.953583882410413	9.038876	3.0064723
2.9711164875142373	8.811523	2.968421
2.9886491621855606	8.780342	2.963164
3.0061819068356455	8.590908	2.931025
3.023714721875769	8.582728	2.9296293
3.041247607717225	8.397382	2.8978236
3.0587805647713213	8.305406	2.88191
3.0763135934493806	8.280377	2.8775644
3.0938466941627407	8.211991	2.8656573
3.1113798673227544	8.103758	2.84671
3.1289131133407904	7.9321856	2.8164136
3.1464464326282315	7.777341	2.7887883
3.1639798255964786	7.852846	2.802293
3.1815132926569443	7.7814603	2.789527
3.1990468342210603	7.674872	2.770356
3.216580450700272	7.5103464	2.7405012
3.2341141425060416	7.346051	2.71036
3.251647910049847	7.2862806	2.6993113
3.2691817537431813	7.1424074	2.6725283
3.286715673997555	7.210234	2.6851878
3.3042496712244938	7.1663938	2.6770122
3.32178374583554	7.0929117	2.663252
3.339317898242251	6.878448	2.6226795
3.3568521288562034	6.759837	2.5999687
3.3743864380889876	6.6870236	2.585928
3.3919208263522127	6.6212506	2.573179
3.4094552940575023	6.5942597	2.567929
3.4269898416164972	6.5830717	2.5657496
3.444524469440858	6.666072	2.5818737
3.4620591779422587	6.683016	2.5851529
3.479593967532391	6.6506915	2.5788934
3.4971288386229658	6.4557214	2.540811
3.5146637916257086	6.3559065	2.5210924
3.5321988269523628	6.321279	2.5142155
3.5497339450146903	6.4073052	2.5312655
3.5672691462244708	6.4317822	2.5360959
3.5848044309934988	6.4255123	2.5348594
3.60233979973359	6.4015107	2.5301206
3.619875252856575	6.288709	2.5077298
3.6374107907743034	6.2141986	2.4928293
3.6549464138986427	6.160426	2.4820206
3.6724821226414788	6.1014442	2.4701102
3.690017917414714	6.171033	2.4841564
3.7075537986302702	6.2464437	2.4992886
3.7250897667000857	6.356823	2.521274
3.7426258220361235	6.5029826	2.5500946
3.7601619650503553	6.807309	2.609082
3.777698196154779	7.343544	2.7098975
3.7952345157614067	8.348991	2.8894622
3.8127709242822716	9.131944	3.0219107
3.830307422129425	11.34507	3.3682444
3.847844009714936	30.240341	5.4991217
3.8653806874508954	97.74775	9.886746
3.882917455749409	97.00507	9.849115
3.900454315022606	96.78226	9.837797
3.917991265682631	41.394432	6.4338503
3.9355283081416506	11.031915	3.3214326
3.9530654428118495	8.790148	2.9648182
3.970602670105433	7.435845	2.7268746
3.9881399904346244	6.553646	2.560009
4.005677404211669	6.4977055	2.5490596
4.023214911848827	6.5003223	2.549573
4.0407525137583855	6.469521	2.5435252
4.058290210352644	6.4232545	2.534414
4.075828002043927	6.2135863	2.4927065
4.0933658892445814	6.2372217	2.497443
4.110903872366966	6.233257	2.496649
4.128441951823468	6.289646	2.5079167
4.145980128026488	6.3273764	2.5154276
4.163518401388452	6.21915	2.4938223
4.181056772321807	6.2270145	2.4953988
4.1985952412390155	6.2006946	2.4901195
4.216133808552567	6.28035	2.5060627
4.233672474674966	6.304297	2.510836
4.251211240018741	6.4918814	2.5479171
4.268750104996445	6.6507134	2.5788977
4.286289070020643	7.6085515	2.7583604
4.303828135503928	9.244428	3.040465
4.3213673018589125	29.573082	5.4381137
4.3389065694982305	90.67025	9.522093
4.356445938834537	165.88216	12.879524
4.3739854102805085	171.38179	13.091287
4.391524984248844	172.2891	13.125894
4.409064661152262	136.44682	11.681046
4.426604441403504	96.736435	9.835468
4.444144325415337	75.77603	8.704943
4.461684313600543	21.745064	4.6631603
4.47922440637193	22.079445	4.698877
4.496764604142329	20.33542	4.509481
4.5143049073245916	18.530876	4.3047504
4.531845316331589	16.468529	4.0581436
4.5493858315762195	13.519734	3.6769192
4.566926453471405	11.2846575	3.3592644
4.584467182430081	9.368051	3.0607271
4.602008018865218	8.302379	2.8813848
4.619548963189798	7.599023	2.7566326
4.637090015816834	7.0573683	2.6565707
4.654631177159353	6.7715816	2.6022263
4.672172447630417	6.551281	2.559547
4.689713827643102	6.4157553	2.5329342
4.7072553176105085	6.155841	2.4810967
4.724796917945764	5.951008	2.4394689
4.742338629062015	5.842005	2.417024
4.759880451372434	5.737883	2.395388
4.777422385290215	5.682939	2.3838916
4.794964431228581	5.7188005	2.3914013
4.812506589600768	5.7612906	2.4002688
4.830048860820047	5.7718616	2.4024699
4.847591245299709	5.7239385	2.3924754
4.8651337434530655	5.634276	2.373663
4.882676355693457	5.5839076	2.3630292
4.900219082434242	5.5587163	2.357693
4.917761924088813	5.594722	2.3653164
4.935304881070575	5.527004	2.350958
4.952847953792969	5.4303007	2.3303006
4.970391142669449	5.392795	2.3222392
4.9879344481135055	5.4208856	2.3282795
5.005477870538642	5.453372	2.3352456
5.023021410358394	5.472305	2.3392959
5.040565067986324	5.4916086	2.3434181
5.05810884383601	5.481008	2.3411553
5.075652738321066	5.4458523	2.333635
5.09319675185512	5.376248	2.3186738
5.110740884851836	5.4255867	2.329289
5.128285137724894	5.486476	2.3423228
5.145829510888007	5.4846544	2.341934
5.163374004754908	5.41793	2.3276448
5.1809186197393595	5.3012605	2.3024466
5.198463356255145	5.3089175	2.3041089
5.216008214716077	5.355026	2.3140929
5.233553195535998	5.3449306	2.3119106
5.251098299128764	5.3330774	2.3093457
5.268643525908272	5.2725515	2.2962036
5.286188876288432	5.2956767	2.3012338
5.3037343506831895	5.332854	2.3092973
5.32127994950651	5.309145	2.3041582
5.3388256731723915	5.3806505	2.319623
5.356371522094851	5.300136	2.3022025
5.373917496687938	5.2682295	2.2952623
5.391463597365729	5.22499	2.2858236
5.40900982454232	5.2196956	2.2846653
5.426556178631843	5.2799373	2.2978115
5.444102660048449	5.276757	2.2971191
5.4616492692063225	5.2162757	2.2839167
5.479196006519669	5.18478	2.2770112
5.496742872402727	5.10648	2.2597523
5.514289867269756	5.0734177	2.252425
5.531836991535049	5.084192	2.2548153
5.549384245612924	5.1039147	2.2591846
5.566931629917724	5.104642	2.2593455
5.584479144863822	5.0641212	2.2503603
5.6020267908656205	4.987517	2.233275
5.619574568337545	5.0335317	2.2435534
5.637122477694054	5.039899	2.244972
5.654670519349629	5.082989	2.2545485
5.672218693718784	5.0960836	2.2574506
5.689767001216059	5.1612215	2.2718322
5.707315442256021	5.2051415	2.281478
5.724864017253266	5.2065988	2.2817972
5.7424127266224225	5.216341	2.283931
5.75996157077814	5.254346	2.292236
5.777510550135105	5.2492247	2.2911186
5.795059665108022	5.256933	2.2928002
5.812608916111639	5.270288	2.2957108
5.830158303560715	5.368111	2.3169184
5.847707827870055	5.325518	2.3077085
5.86525748945448	5.4136114	2.326717
5.8828072887288485	5.470269	2.3388608
5.900357226108044	5.5435376	2.354472
5.917907302006979	5.6800227	2.3832798
5.9354575168406	6.2638617	2.502771
5.9530078710238765	6.9321203	2.632892
5.970558364971812	7.4246736	2.7248254
5.988108999099438	7.753788	2.7845623
6.005659773821818	8.390372	2.8966138
6.023210689554039	8.0993395	2.845934
6.040761746711227	8.471275	2.9105456
6.058312945708531	7.817018	2.795893
6.075864286961132	7.296652	2.7012315
6.093415770884244	6.670895	2.5828075
6.1109673978931065	6.1390257	2.4777057
6.128519168402993	5.5326023	2.3521485
6.146071082829204	5.3704996	2.3174338
6.163623141587075	5.1325455	2.2655122
6.181175345091969	5.061625	2.2498055
6.198727693759281	5.077692	2.2533734
6.216280188004435	5.1411705	2.267415
6.233832828242885	5.159252	2.2713988
6.251385614890126	5.222357	2.2852476
6.268938548361669	5.1753964	2.2749498
6.286491629073067	5.093273	2.256828
6.304044857439898	5.027459	2.2421997
6.321598233877777	4.9949656	2.234942
6.339151758802344	4.9643574	2.2280838
6.356705432629277	4.9491224	2.2246623
6.37425925577428	4.9964566	2.2352755
6.391813228653095	5.0713778	2.251972
6.409367351681486	5.031575	2.2431173
6.426921625275259	4.96364	2.227923
6.44447604985025	4.91227	2.2163641
6.46203062582232	4.9280977	2.2199318
6.47958535360737	4.9594173	2.226975
6.497140233621328	4.982399	2.2321289
6.514695266280161	5.0343137	2.2437277
6.532250451999859	5.1247344	2.2637875
6.549805791196454	5.146714	2.2686372
6.567361284286002	5.1692905	2.2736075
6.584916931684597	5.124035	2.263633
6.602472733808367	5.085948	2.2552047
6.6200286910734665	5.0443873	2.2459714
6.637584803896092	5.01827	2.2401495
6.655141072692462	5.0246954	2.2415833
6.672697497878842	5.054477	2.2482164
6.690254079871514	5.0759983	2.2529976
6.707810819086808	5.128613	2.2646441
6.725367715941078	5.0522246	2.2477155
6.742924770850719	5.0424013	2.2455292
6.760481984232151	4.9769216	2.2309015
6.778039356501836	4.9107146	2.2160132
6.795596888076266	4.892197	2.211831
6.813154579371963	4.875537	2.2080617
6.830712430805492	4.8760915	2.2081873
6.84827044279344	4.899801	2.2135494
6.865828615752445	4.888292	2.2109482
6.883386950099159	4.9266105	2.2195969
6.900945446250287	4.969235	2.2291782
6.918504104622553	5.0956874	2.2573628
6.936062925632727	5.10476	2.2593715
6.953621909697607	5.021409	2.24085
6.971181057234028	4.992148	2.2343116
6.988740368658859	5.009712	2.2382386
7.006299844389007	5.1066523	2.2597904
7.023859484841407	5.25258	2.2918508
7.041419290433036	5.414518	2.3269117
7.058979261580902	5.595308	2.3654404
7.0765393987020495	5.8276405	2.4140506
7.094099702213559	6.092836	2.468367
7.111660172532549	6.376672	2.5252073
7.129220810076164	6.6973267	2.5879195
7.146781615261595	7.3115897	2.7039952
7.16434258850606	7.6027737	2.7573128
7.181903730226821	8.0269	2.8331785
7.1994650408411704	8.147929	2.8544579
7.217026520766437	8.20804	2.8649678
7.234588170419983	8.445926	2.9061875
7.252149990219215	8.424818	2.9025538
7.269711980581568	8.396195	2.897619
7.2872741419245175	8.237439	2.8700938
7.304836474665574	7.815928	2.7956982
7.322398979222286	7.4108205	2.7222822
7.339961656012233	7.155332	2.6749454
7.357524505453039	6.764715	2.6009066
7.375087527962357	6.5030403	2.550106
7.392650723957886	6.23687	2.4973726
7.410214093857353	5.9038024	2.429774
7.427777638078528	5.7660666	2.4012635
7.445341357039213	5.6420946	2.3753095
7.4629052511572525	5.5110483	2.3475623
7.480469320850524	5.4495344	2.3344238
7.498033566536948	5.345878	2.3121154
7.5155979886344735	5.307424	2.3037846
7.5331625875610975	5.3118763	2.304751
7.550727363734844	5.309966	2.3043363
7.568292317573788	5.2652626	2.294616
7.585857449496025	5.20247	2.2808924
7.603422759919705	5.200877	2.280543
7.620988249263007	5.257708	2.2929692
7.638553917944147	5.2592006	2.2932947
7.656119766381391	5.2583914	2.2931182
7.673685794993023	5.306801	2.3036494
7.691252004197388	5.360935	2.3153694
7.70881839441285	5.3577485	2.314681
7.726384966057826	5.3021593	2.3026419
7.743951719550762	5.17625	2.2751374
7.761518655310149	5.168716	2.2734811
7.779085773754511	5.2257853	2.2859976
7.796653075302419	5.288899	2.2997606
7.814220560372475	5.3412366	2.3111115
7.831788229383323	5.3233714	2.3072433
7.8493560827536495	5.314823	2.3053901
7.866924120902174	5.3543687	2.3139508
7.884492344247663	5.409712	2.3258786
7.9020607532089135	5.4516916	2.3348858
7.919629348204771	5.448354	2.3341708
7.937198129654115	5.397311	2.3232114
7.954767097975865	5.4576654	2.3361647
7.972336253588986	5.4337816	2.3310473
7.989905596912472	5.447012	2.3338835
8.007475128365371	5.4417725	2.3327608
8.025044848366756	5.4916544	2.343428
8.042614757335754	5.6253624	2.3717847
8.060184855691523	5.7070084	2.3889346
8.07775514385327	5.8807178	2.425019
8.095325622240228	5.927203	2.4345849
8.112896291271687	5.9436617	2.4379625
8.130467151366968	5.8948956	2.4279406
8.148038202945436	5.883206	2.425532
8.165609446426497	5.855984	2.419914
8.183180882229594	5.866349	2.4220548
8.200752510774217	5.8520193	2.4190948
8.218324332479893	5.852582	2.419211
8.235896347766193	5.8711085	2.423037
8.253468557052724	5.9416714	2.4375544
8.27104096075914	5.9714494	2.443655
8.288613559305137	6.049614	2.4595964
8.306186353110448	6.1263905	2.4751546
8.32375934259485	6.1528435	2.4804926
8.341332528178162	6.1085305	2.4715443
8.358905910280246	6.0707674	2.4638927
8.376479489321003	6.0819755	2.4661663
8.394053265720377	6.1435194	2.4786124
8.411627239898356	6.238915	2.497782
8.42920141227497	6.3010283	2.510185
8.44677578327029	6.3299875	2.5159466
8.464350353304427	6.3512354	2.5201657
8.48192512279754	6.2890286	2.5077937
8.499500092169827	6.244073	2.4988143
8.51707526184153	6.174349	2.4848237
8.534650632232934	6.146987	2.4793117
8.552226203764365	6.1588116	2.4816954
8.569801976856192	6.18741	2.4874504
8.587377951928834	6.2697644	2.5039499
8.60495412940274	6.3310432	2.5161564
8.622530509698416	6.3943315	2.5287015
8.6401070932364	6.478381	2.5452664
8.657683880437283	6.5384336	2.5570362
8.675260871721695	6.6756773	2.5837333
8.692838067510303	6.8442802	2.6161575
8.710415468223834	6.9406	2.634502
8.727993074283043	7.1145563	2.6673126
8.745570886108737	7.0930676	2.6632814
8.763148904121765	7.1660733	2.6769524
8.78072712874302	7.1042547	2.6653807
8.798305560393441	7.343173	2.7098289
8.815884199494006	7.517044	2.7417228
8.833463046465745	7.7059298	2.7759557
8.851042101729728	7.8591204	2.8034122
8.86862136570707	8.184599	2.8608737
8.886200838818924	8.324375	2.8851993
8.903780521486505	8.40815	2.8996809
8.921360414131055	8.51141	2.917432
8.938940517173874	8.649016	2.940921
8.956520831036297	8.776847	2.9625745
8.97410135613971	9.060126	3.0100043
8.99168209290554	9.231995	3.0384197
9.009263041755265	9.465923	3.076674
9.026844203110405	9.66491	3.1088438
9.044425577392525	9.789165	3.1287642
9.062007165023239	9.907532	3.1476233
9.079588966424197	10.190195	3.1922085
9.097170982017108	10.260227	3.2031589
9.11475321222372	11.26951	3.3570092
9.132335657465825	12.229193	3.4970262
9.149918318165264	12.378637	3.5183287
9.167501194743924	12.984559	3.6034093
9.18508428762374	12.73612	3.5687702
9.202667597226693	12.740039	3.569319
9.220251123974803	12.464309	3.5304828
9.237834868290143	12.128364	3.48258
9.255418830594836	11.822715	3.4384174
9.273003011311046	11.20988	3.348116
9.290587410860985	10.91419	3.3036633
9.308172029666911	10.373585	3.220805
9.32575686815113	10.088435	3.1762297
9.343341926735997	8.83354	2.9721272
9.360927205843916	8.550252	2.9240813
9.378512705897327	8.302338	2.8813777
9.396098427318728	8.097992	2.8456972
9.413684370530664	7.971178	2.8233275
9.431270535955722	7.8921027	2.8092887
9.448856924016539	7.830171	2.7982442
9.466443535135806	7.73156	2.7805684
9.484030369736251	7.748923	2.7836888
9.501617428240658	7.7528872	2.7844007
9.519204711071852	7.785312	2.7902172
9.536792218652714	7.8299084	2.7981973
9.55437995140617	7.7626586	2.7861547
9.571967909755191	7.8310065	2.7983935
9.589556094122802	7.844489	2.8008015
9.60714450493207	7.893711	2.8095748
9.624733142606116	8.024628	2.8327773
9.642322007568108	8.03652	2.8348756
9.659911100241267	8.059519	2.8389292
9.677500421048851	8.018362	2.8316712
9.695089970414175	8.048707	2.8370242
9.712679748760609	8.114481	2.8485928
9.730269756511557	8.141764	2.8533776
9.747859994090492	8.173168	2.8588753
9.765450461920915	8.168198	2.858006
9.78304116042639	8.158087	2.8562365
9.800632090030527	8.149776	2.8547814
9.81822325115699	8.224806	2.8678923
9.835814644229481	8.244444	2.871314
9.853406269671762	8.2250395	2.867933
9.870998127907646	8.255129	2.873174
9.888590219360985	8.366735	2.892531
9.906182544455698	8.4056635	2.8992522
9.923775103615734	8.389556	2.896473
9.941367897265108	8.264309	2.874771
9.958960925827878	8.212362	2.865722
9.97655418972816	8.224666	2.8678677
9.994147689390106	8.230751	2.8689287
10.011741425237934	8.301512	2.8812344
10.029335397695904	8.341356	2.8881407
10.04692960718833	8.342529	2.8883438
10.06452405413958	8.303954	2.8816583
10.082118738974064	8.274511	2.876545
10.099713662116246	8.295217	2.8801417
10.117308823990651	8.336899	2.887369
10.134904225021844	8.322615	2.8848941
10.152499865634445	8.294595	2.8800337
10.170095746253125	8.289714	2.8791864
10.18769186730261	8.233168	2.8693497
10.205288229207675	8.207017	2.8647892
10.222884832393145	8.1525135	2.8552606
10.2404816772839	8.122728	2.85004
10.258078764304868	8.13313	2.8518643
10.275676093881035	8.0695505	2.8406954
10.293273666437438	8.032343	2.8341389
10.310871482399158	8.110013	2.8478084
10.32846954219134	8.215927	2.866344
10.346067846239173	8.250194	2.872315
10.363666394967908	8.212347	2.8657193
10.38126518880283	8.203924	2.8642492
10.398864228169298	8.245322	2.8714669
10.416463513492713	8.179453	2.8599744
10.434063045198531	8.110776	2.8479424
10.451662823712262	8.127843	2.8509371
10.469262849459467	8.19632	2.8629215
10.486863122865758	8.246652	2.8716984
10.504463644356806	8.214942	2.866172
10.522064414358338	8.101041	2.8462327
10.539665433296118	7.9814734	2.8251503
10.557266701595987	7.8809714	2.8073068
10.574868219683818	7.8092203	2.7944982
10.592469987985552	7.693016	2.7736287
10.610072006927185	7.600065	2.7568216
10.627674276934751	7.5607233	2.749677
10.64527679843435	7.463982	2.732029
10.662879571852143	7.2811427	2.6983593
10.680482597614331	7.048201	2.6548448
10.698085876147173	6.919209	2.630439
10.715689407876988	6.954975	2.6372287
10.733293193230146	6.9237695	2.6313057
10.750897232633072	6.8639355	2.6199114
10.76850152651225	6.755389	2.5991132
10.786106075294207	6.6771193	2.5840123
10.803710879405534	6.6449986	2.5777895
10.821315939272877	6.5054145	2.5505714
10.83892125532294	6.3656464	2.5230234
10.856526827982472	6.2119493	2.4923782
10.874132657678285	6.1714497	2.4842403
10.891738744837243	6.1955805	2.4890924
10.909345089886271	6.1721864	2.4843886
10.926951693252343	6.162663	2.4824712
10.944558555362494	6.1409016	2.4780843
10.96216567664381	6.0788083	2.465524
10.979773057523436	6.034487	2.4565191
10.997380698428573	5.9437976	2.4379904
11.014988599786477	5.880182	2.4249086
11.032596762024461	5.789537	2.4061456
11.050205185569892	5.712709	2.3901274
11.067813870850198	5.6461883	2.3761709
11.085422818292859	5.615624	2.3697307
11.10303202832541	5.5086684	2.3470552
11.120641501375454	5.392972	2.3222773
11.138251237870636	5.338146	2.310443
11.155861238238671	5.337644	2.3103342
11.173471502907317	5.291588	2.3003452
11.191082032304402	5.221626	2.2850876
11.208692826857805	5.1407137	2.2673142
11.226303886995465	5.0569596	2.2487686
11.243915213145371	5.010714	2.2384624
11.261526805735578	4.971759	2.2297442
11.279138665194196	4.9311275	2.2206142
11.296750791949393	4.841386	2.200315
11.314363186429393	4.7551517	2.1806312
11.331975849062479	4.696331	2.167102
11.34958878027699	4.655368	2.1576302
11.36720198050133	4.658648	2.15839
11.384815450163948	4.6216807	2.1498094
11.402429189693366	4.60527	2.1459892
11.420043199518153	4.504238	2.122319
11.437657480066942	63.423115	7.963863
11.455272031768422	85.13909	9.227085
11.472886855051353	107.578804	10.372021
11.490501950344528	99.190285	9.959432
11.508117318076819	84.51072	9.192971
11.52573295867715	45.890984	6.7742887
11.543348872574514	4.191583	2.0473356
11.560965060197946	4.188378	2.0465527
11.57858152197655	4.178055	2.044029
11.59619825833949	4.137375	2.0340538
11.613815269715985	4.097405	2.0242047
11.631432556535323	38.57575	6.210938
11.649050119226837	83.090004	9.115372
11.666667958219929	93.47849	9.668427
11.68428607394406	107.746956	10.380123
11.701904466828756	82.56652	9.086612
11.719523137303586	65.35929	8.084509
11.737142085798196	4.592367	2.1429808
11.754761312742286	3.7175343	1.9280908
11.772380818565619	3.7160997	1.9277188
11.790000603698015	3.6886322	1.9205812
11.80762066856935	3.6368053	1.907041
11.825241013609572	3.5683432	1.8890059
11.842861639248683	3.5144958	1.8746989
11.860482545916748	3.5275874	1.8781873
11.878103734043883	3.5194654	1.8760239
11.895725204060282	3.4912767	1.8684958
11.91334695639619	3.4410408	1.8550042
11.930968991481919	3.3841612	1.839609
11.948591309747824	3.3471966	1.8295345
11.966213911624347	3.2924628	1.8145145
11.98383679754198	3.2893424	1.8136544
12.001459967931268	3.3150148	1.8207182
12.019083423222835	3.3131232	1.8201987
12.036707163847352	3.2798274	1.8110293
12.05433119023556	3.212988	1.792481
12.071955502818259	3.202602	1.7895815
12.089580102026313	3.1893375	1.7858716
12.107204988290643	3.155132	1.7762692
12.12483016204224	3.1518989	1.7753588
12.142455623712152	3.147556	1.7741354
12.16008137373149	3.1979122	1.7882707
12.177707412531431	3.1772175	1.7824751
12.19533374054321	3.158516	1.7772214
12.212960358198126	3.0898426	1.7577949
12.230587265927545	3.0668218	1.7512344
12.248214464162889	3.0227387	1.7386025
12.265841953335649	3.006591	1.7339524
12.283469733877375	2.9881785	1.7286348
12.301097806219685	2.9843001	1.7275127
12.31872617079425	2.9838943	1.7273953
12.336354828032825	3.0029843	1.7329121
12.353983778367205	3.005997	1.7337811
12.371613022229262	2.984941	1.7276982
12.389242560050928	2.9473743	1.7167919
12.406872392264201	2.8981416	1.7023929
12.424502519301143	2.8904235	1.7001246
12.442132941593874	2.9087565	1.7055076
12.459763659574586	2.913499	1.7068975
12.477394673675532	2.9041717	1.7041631
12.49502598432903	2.8773654	1.6962799
12.51265759196746	2.8416443	1.6857177
12.530289497023267	2.8487887	1.6878356
12.547921699928967	2.8563554	1.6900755
12.565554201117134	2.847357	1.6874113
12.583187001020404	2.8226936	1.6800873
12.600820100071486	2.7874205	1.669557
12.618453498703152	2.7749176	1.6658084
12.636087197348235	2.795124	1.6718625
12.65372119643964	2.8032236	1.674283
12.671355496410326	2.817119	1.6784275
12.68899009769333	2.801455	1.6737548
12.706625000721749	2.8413796	1.6856393
12.724260205928752	2.911489	1.7063086
12.741895713747551	2.9682755	1.7228684
12.759531524611454	3.0109758	1.7352164
12.777167638953818	3.022778	1.7386138
12.794804057208072	3.005723	1.7337021
12.812440779807702	3.0742908	1.7533655
12.830077807186271	3.2512212	1.8031143
12.847715139777405	3.3142812	1.8205167
12.865352778014795	3.505292	1.8722425
12.882990722332197	3.5498633	1.8841081
12.90062897316344	3.6171234	1.9018736
12.918267530942412	3.6902673	1.9210068
12.935906396103071	3.5903876	1.8948318
12.953545569079449	3.768557	1.9412771
12.971185050305628	3.5950074	1.8960505
12.988824840215775	3.5914943	1.8951238
13.006464939244115	3.5654655	1.888244
13.024105347824943	3.435216	1.8534336
13.041746066392617	3.584444	1.8932629
13.05938709538157	3.4158633	1.8482054
13.077028435226296	3.425012	1.8506788
13.094670086361363	3.3107316	1.8195416
13.112312049221401	3.2417574	1.8004881
13.129954324241112	3.1549885	1.7762288
13.147596911855258	2.9388587	1.71431
13.165239812498685	2.8395731	1.6851033
13.182883026606293	2.7491672	1.6580613
13.200526554613058	2.681264	1.6374565
13.218170396954017	2.6541066	1.6291429
13.235814554064284	2.6627498	1.6317934
13.253459026379034	2.7088091	1.645846
13.271103814333523	2.741717	1.6558131
13.288748918363058	2.7515833	1.6587898
13.306394338903031	2.7269542	1.6513492
13.32404007638889	2.6399722	1.6247991
13.341686131256164	2.6309526	1.6220212
13.359332503940449	2.626328	1.620595
13.376979194877402	2.65601	1.6297269
13.394626204502751	2.7154546	1.6478636
13.412273533252307	2.716595	1.6482096
13.429921181561937	2.7283447	1.6517701
13.447569149867581	2.700887	1.6434375
13.465217438605247	2.685167	1.6386479
13.482866048211022	2.652218	1.6285632
13.500514979121052	2.6511042	1.6282212
13.518164231771568	2.6591172	1.63068
13.535813806598844	2.6507258	1.628105
13.553463704039254	2.6750815	1.6355677
13.571113924529229	2.6633801	1.6319866
13.588764468505275	2.6803873	1.6371888
13.606415336403956	2.7270799	1.6513872
13.624066528661917	2.8063042	1.6752027
13.641718045715882	2.830767	1.6824883
13.659369888002635	2.851112	1.6885235
13.67702205595903	2.8701432	1.6941497
13.694674550021993	2.981345	1.7266572
13.712327370628532	3.0507438	1.7466378
13.729980518215713	3.1206636	1.76654
13.747633993220681	3.1692972	1.780252
13.765287796080647	3.1967776	1.7879535
13.7829419272329	3.2341416	1.7983719
13.800596387114801	3.2577677	1.8049287
13.818251176163775	3.2780619	1.8105419
13.835906294817324	3.3860025	1.8401093
13.853561743513023	3.4580112	1.8595729
13.871217522688525	3.546145	1.883121
13.888873632781538	3.506568	1.8725833
13.906530074229858	3.5470843	1.8833705
13.92418684747135	3.5373795	1.8807923
13.941843952943948	3.509036	1.8732421
13.959501391085665	3.4615057	1.8605123
13.977159162334578	3.4076853	1.8459917
13.994817267128846	3.3857062	1.8400289
14.012475705906693	3.2951534	1.8152558
14.030134479106424	3.221779	1.7949315
14.047793587166414	3.1403372	1.7720996
14.065453030525108	3.0972378	1.7598971
14.083112809621026	3.0735059	1.7531418
14.100772924892766	2.9996703	1.7319556
14.118433376778997	2.9645963	1.7218003
14.136094165718458	2.8308592	1.6825157
14.153755292149969	2.7747386	1.6657547
14.171416756512416	2.7269251	1.6513404
14.189078559244768	2.6970367	1.6422657
14.20674070078606	2.6076546	1.6148233
14.224403181575408	2.5476298	1.5961297
14.242066002051999	2.498241	1.5805825
14.259729162655093	2.4835906	1.5759412
14.277392663824022	2.4567738	1.5674099
14.295056505998208	2.4143085	1.5538045
14.312720689617128	2.3921707	1.5466644
14.330385215120348	2.393143	1.5469786
14.348050082947497	2.4111466	1.5527867
14.3657152935383	2.4145427	1.5538799
14.383380847332528	2.4181838	1.5550511
14.401046744770051	2.4000602	1.5492128
14.418712986290798	2.4104974	1.5525776
14.436379572334793	2.4085634	1.5519547
14.454046503342123	2.3887181	1.5455478
14.471713779752946	2.3860636	1.5446888
14.489381402007504	2.408985	1.5520905
14.507049370546113	2.406503	1.5512908
14.524717685809168	2.4030464	1.5501763
14.542386348237134	2.3834383	1.5438389
14.560055358270553	2.4203784	1.5557566
14.577724716350051	2.46425	1.569793
14.595394422916325	2.4970896	1.5802182
14.61306447841015	2.5345788	1.592036
14.63073488327237	2.5021484	1.5818181
14.648405637943917	2.4748313	1.5731597
14.6660767428658	2.4685948	1.5711763
14.683748198479094	2.5243244	1.5888122
14.701420005224954	2.582583	1.6070417
14.719092163544628	2.6484745	1.6274134
14.73676467387942	2.6362054	1.6236396
14.754437536670727	2.659459	1.6307849
14.772110752360014	2.6729553	1.6349175
14.78978432138882	2.6714213	1.6344483
14.807458244198777	2.6671188	1.6331316
14.82513252123159	2.6636775	1.6320777
14.842807152929028	2.703406	1.6442038
14.860482139732962	2.6352623	1.6233491
14.87815748208531	2.5943682	1.6107043
14.8958331804281	2.6175	1.617869
14.91350923520342	2.622522	1.6194203
14.931185646853438	2.6661189	1.6328254
14.948862415820408	2.6462128	1.6267184
14.966539542546656	2.6904655	1.6402638
14.98421702747459	2.696327	1.6420497
15.001894871046696	2.7053041	1.6447809
15.019573073705542	2.6759923	1.635846
15.037251635893766	2.6537528	1.6290343
15.054930558054092	2.7083678	1.6457119
15.072609840629323	2.7814183	1.6677585
15.090289484062351	2.8966212	1.7019463
15.107969488796124	3.1365483	1.7710303
15.125649855273691	3.5464704	1.8832074
15.14333058393817	4.0211997	2.005293
15.161011675232768	4.942178	2.223101
15.17869312960076	6.2712955	2.5042555
15.196374947485506	8.10932	2.8476868
15.214057129330447	11.214938	3.3488712
15.231739675579114	15.958376	3.9947937
15.249422586675102	21.202198	4.6045847
15.267105863062092	24.37898	4.9375076
15.284789505183847	24.757195	4.9756603
15.302473513484218	22.646301	4.758813
15.320157888407127	19.07339	4.367309
15.337842630396578	14.81918	3.8495688
15.355527739896656	11.487182	3.3892746
15.37321321735153	8.9248	2.9874403
15.39089906320545	6.504134	2.5503204
15.408585277902748	4.8697295	2.2067463
15.42627186188783	3.7087395	1.9258088
15.443958815605198	3.1661432	1.7793659
15.461646139499424	2.895552	1.7016321
15.479333834015168	2.7569666	1.6604116
15.497021899597165	2.670305	1.6341068
15.514710336690234	2.6050801	1.6140261
15.53239914573928	2.5642126	1.6013159
15.550088327189297	2.5605707	1.6001784
15.567777881485336	2.5436509	1.5948827
15.58546780907256	2.5332024	1.5916038
15.6031581103962	2.521598	1.587954
15.620848785901568	2.486882	1.5769851
15.638539836034063	2.503242	1.5821637
15.656231261239173	2.4879723	1.5773307
15.673923061962451	2.4813845	1.5752411
15.691615238649552	2.4490478	1.5649434
15.709307791746202	2.4077187	1.5516825
15.727000721698221	2.423961	1.5569075
15.744694028951498	2.4190738	1.5553372
15.76238771395202	2.4433107	1.5631093
15.780081777145844	2.4513798	1.5656883
15.797776218979125	2.4238186	1.5568618
15.815471039898094	2.3460689	1.5316882
15.833166240349064	2.3077583	1.5191308
15.850861820778437	2.3381314	1.5290949
15.868557781632699	2.370753	1.539725
15.886254123358412	2.3824866	1.5435306
15.903950846402232	2.3736396	1.540662
15.921647951210897	2.389925	1.5459383
15.939345438231225	2.4213533	1.5560699
15.957043307910133	2.4618318	1.5690225
15.974741560694602	2.454966	1.5668331
15.992440197031714	2.4189217	1.5552883
16.01013921736862	2.405158	1.5508572
16.02783862215259	2.4239116	1.5568917
16.045538411830933	2.4457908	1.5639024
16.06323858685107	2.4498165	1.565189
16.080939147660512	2.437111	1.5611249
16.09864009470684	2.4124093	1.5531932
16.11634142843774	2.4061248	1.5511689
16.134043149300954	2.4210138	1.5559608
16.15174525774433	2.4298384	1.5587939
16.169447754215817	2.4318652	1.5594438
16.18715063916342	2.4010282	1.5495251
16.204853913035244	2.4334002	1.5599359
16.222557576279478	2.4534311	1.5663432
16.240261629344403	22.457005	4.738882
16.257966072678386	42.988667	6.5565743
16.275670906729868	38.08319	6.171158
16.293376131947387	2.480109	1.5748361
16.31108174877957	2.5115492	1.5847868
16.328787757675133	2.5354908	1.5923225
16.34649415908287	2.545564	1.5954823
16.364200953451657	2.5563338	1.598854
16.38190814123048	2.5908248	1.6096039
16.39961572286839	2.6388638	1.624458
16.41732369881455	2.6902566	1.6402001
16.43503206951817	2.7418396	1.6558502
16.45274083542859	2.7862775	1.6692146
16.47044999699522	2.8294086	1.6820846
16.488159554667558	2.8640451	1.692349
16.505869508895184	2.8763132	1.6959697
16.523579860127786	2.9140825	1.7070684
16.541290608815117	2.947601	1.7168579
16.559001755407035	2.9713655	1.7237649
16.57671330035348	3.0016935	1.7325397
16.59442524410448	3.0976796	1.7600226
16.61213758711015	3.2302756	1.7972968
16.629850329820705	3.2787545	1.8107331
16.647563472686436	3.319702	1.8220049
16.665277016157724	3.3390648	1.8273108
16.682990960685053	3.4169917	1.8485106
16.70070530671898	3.4907062	1.8683431
16.718420054710155	3.5855083	1.8935438
16.736135205109335	3.6075778	1.8993624
16.753850758367335	3.613484	1.9009166
16.771566714935087	3.6509626	1.9107492
16.789283075263597	3.6699746	1.9157177
16.80699983980398	3.7695284	1.9415274
16.82471700900741	3.8503745	1.9622371
16.84243458332518	3.9552965	1.9887928
16.860152563208665	4.0114303	2.0028555
16.87787094910932	4.051516	2.012838
16.89558974147871	4.0990453	2.0246098
16.913308940768466	4.146629	2.0363274
16.931028547430333	4.2055426	2.050742
16.94874856191613	4.3056817	2.0750136
16.966468984677785	4.3885326	2.0948825
16.98418981616729	4.4420834	2.107625
17.00191105683676	4.5031147	2.1220543
17.019632707138374	4.518323	2.1256347
17.03735476752442	4.5584908	2.1350622
17.05507723844728	4.598785	2.1444778
17.072800120359403	4.63404	2.152682
17.090523413713353	4.60792	2.1466067
17.108247118961785	4.5789156	2.1398401
17.125971236557437	4.6097927	2.1470428
17.143695766953133	4.6646366	2.159777
17.161420710601806	4.711228	2.1705363
17.179146067956477	4.7520385	2.179917
17.19687183947025	4.7154465	2.1715078
17.21459802559634	4.6965246	2.1671467
17.232324626788028	4.7014093	2.1682734
17.25005164349871	4.688535	2.1653025
17.267779076181863	4.6777496	2.1628106
17.285506925291074	4.60762	2.1465366
17.30323519127999	4.597737	2.1442335
17.320963874602384	4.542552	2.1313264
17.33869297571211	4.5623264	2.1359603
17.356422495063114	4.5585833	2.135084
17.37415243310944	4.5775986	2.1395323
17.391882790305218	4.5325837	2.1289866
17.40961356710468	4.476301	2.1157272
17.42734476396215	4.512547	2.1242757
17.445076381332044	4.550634	2.1332214
17.462808419668868	4.6114774	2.147435
17.48054087942723	4.665761	2.1600373
17.498273761061835	4.9333243	2.221109
17.51600706502747	5.4329567	2.3308704
17.533740791779024	6.15961	2.481856
17.551474941771485	7.5909243	2.7551632
17.56920951545993	8.687743	2.9474978
17.586944513299528	10.999573	3.3165603
17.60467993574556	12.719759	3.566477
17.622415783253373	14.426785	3.798261
17.64015205627843	15.77068	3.9712317
17.657888755276293	16.900171	4.110982
17.675625880702604	17.374659	4.168292
17.69336343301311	17.152508	4.1415586
17.71110141266366	16.29536	4.0367513
17.728839820110178	15.321152	3.9142244
17.746578655808705	14.42084	3.7974782
17.764317920215372	12.857776	3.5857742
17.7820576137864	11.34385	3.3680632
17.79979773697811	9.359446	3.0593212
17.81753829024692	7.538718	2.7456727
17.835279274049356	5.8654757	2.4218745
17.85302068884201	4.831705	2.198114
17.870762535081607	4.214505	2.052926
17.888504813224934	3.947709	1.9868842
17.90624752372891	3.8020403	1.9498821
17.923990667050536	3.7005062	1.9236699
17.941734243646895	3.6029046	1.8981318
17.959478253975185	3.5474308	1.8834624
17.9772226984927	3.470873	1.8630279
17.994967577656833	3.4087286	1.8462743
18.01271289192506	3.327169	1.8240529
18.030458641754965	3.290357	1.8139342
18.04820482760425	3.2675376	1.8076332
18.06595144993067	3.24897	1.80249
18.083698509192125	3.228608	1.7968327
18.101446005846576	3.2658002	1.8071525
18.119193940352105	3.2674363	1.8076051
18.136942313166887	3.237635	1.7993429
18.1546911247492	3.2148259	1.7929935
18.1724403755574	3.219044	1.7941694
18.19019006604997	3.1735277	1.7814398
18.207940196685467	3.1544805	1.7760857
18.225690767922575	3.136321	1.7709662
18.243441780220046	3.1628685	1.7784455
18.261193234036764	3.1132271	1.764434
18.278945129831676	3.0744607	1.753414
18.29669746806386	3.0540857	1.7475942
18.314450249192483	3.0508182	1.7466592
18.3322034736768	3.0473597	1.7456689
18.349957141976184	3.049995	1.7464235
18.3677112545501	3.0216875	1.7383002
18.385465811858108	3.034201	1.7418958
18.403220814359884	3.0061638	1.7338293
18.420976262515172	3.0473144	1.7456559
18.43873215678387	3.1376293	1.7713355
18.456488497625923	3.1942823	1.7872555
18.474245285501407	3.2388294	1.7996747
18.492002520870486	3.2780485	1.8105382
18.50976020419343	3.3446214	1.8288306
18.527518335930615	3.706562	1.9252434
18.545276916542516	4.375705	2.0918186
18.563035946489688	4.5332823	2.1291506
18.580795426232832	4.846367	2.2014465
18.598555356232698	4.6865993	2.1648555
18.616315736950185	5.0361223	2.2441306
18.63407656884626	4.7199306	2.1725402
18.65183785238201	4.9213114	2.2184029
18.669599588018617	4.664414	2.1597254
18.68736177621737	4.689386	2.165499
18.705124417439652	4.6607127	2.1588683
18.72288751214696	4.4706683	2.1143954
18.740651060800886	4.577491	2.139507
18.758415063863115	4.2767076	2.06802
18.77617952179546	4.439193	2.106939
18.793944435059814	4.2074814	2.0512147
18.811709804118184	4.236623	2.0583057
18.829475629432675	4.170688	2.0422263
18.8472419114655	3.9449213	1.9861826
18.86500865067897	4.060713	2.015121
18.88277584753551	3.8030148	1.950132
18.90054350249763	3.8477318	1.9615636
18.918311616027957	3.5136032	1.8744608
18.936080188589226	3.3661687	1.8347121
18.953849220644265	3.0137925	1.7360278
18.971618712656007	2.840498	1.6853777
18.9893886650875	2.799343	1.6731237
19.007159078401887	7.9727254	2.8236015
19.024929953062408	32.85367	5.731812
19.042701289532435	32.78701	5.725994
19.060473088275405	25.347317	5.0346117
19.07824534975489	2.6122963	1.6162599
19.096018074434568	2.6307154	1.621948
19.113791262778197	2.6344733	1.6231061
19.13156491524966	2.6443484	1.6261452
19.149339032312945	2.6280959	1.6211402
19.167113614432136	2.5763106	1.605089
19.184888662071433	2.571141	1.6034778
19.202664175695123	2.552593	1.5976837
19.220440155767623	2.5395384	1.5935929
19.238216602753447	2.5240538	1.5887271
19.2559935171172	2.537149	1.592843
19.27377089932361	2.5458913	1.595585
19.291548749837514	2.552174	1.5975525
19.309327069123835	2.5297372	1.5905148
19.32710585764763	2.479352	1.5745958
19.344885115874032	2.4550474	1.5668591
19.362664844268313	2.4606612	1.5686495
19.380445043295822	2.4434073	1.5631402
19.39822571342203	2.433845	1.5600785
19.41600685511252	2.467132	1.5707107
19.43378846883297	2.5167217	1.5864179
19.451570555049173	2.5377574	1.593034
19.469353114227037	2.5043626	1.5825177
19.48713614683254	2.4848444	1.5763389
19.50491965333182	2.5224655	1.5882272
19.52270363419109	2.4649403	1.5700128
19.540488089876686	2.4553246	1.5669476
19.55827302085503	2.45001	1.5652508
19.576058427592674	2.4602165	1.5685078
19.593844310556282	2.4672687	1.5707542
19.611630670212598	2.4932663	1.579008
19.629417507028506	2.531405	1.591039
19.64720482147098	2.5470867	1.5959595
19.6649926140071	2.5448554	1.5952603
19.682780885104084	2.531812	1.5911669
19.70056963522921	2.517461	1.5866508
19.718358864849908	2.4980214	1.580513
19.7361485744337	2.527429	1.589789
19.753938764448215	2.542585	1.5945485
19.771729435361202	2.578535	1.6057818
19.789520587640506	2.5562227	1.5988191
19.807312221754092	2.564428	1.6013832
19.825104338170043	2.5733037	1.604152
19.842896937356517	2.5918398	1.6099192
19.860690019781824	2.5742238	1.6044388
19.87848358591436	2.5166738	1.5864028
19.896277636222635	2.4744678	1.5730441
19.914072171175278	2.4861758	1.5767611
19.931867191241015	2.5196395	1.5873373
19.94966269688869	2.5343113	1.5919521
19.967458688587264	2.5249543	1.5890105
19.985255166805807	2.5031009	1.5821191
20.00305213201348	2.5055647	1.5828975
20.020849584679578	2.4545794	1.5667098
20.038647525273507	2.4221284	1.5563189
20.05644595426477	2.3976552	1.5484364
20.07424487212299	2.4464164	1.5641024
20.092044279317903	2.460941	1.5687387
20.109844176319353	2.424591	1.5571098
20.127644563597304	2.370212	1.5395494
20.145445441621817	2.3489165	1.5326176
20.16324681086307	2.3678298	1.5387754
20.181048671791373	2.3673904	1.5386326
20.198851024877122	2.350184	1.533031
20.216653870590836	2.3478816	1.5322798
20.234457209403146	2.355801	1.5348619
20.252261041784802	2.3760068	1.5414301
20.270065368206662	2.3817515	1.5432924
20.287870189139685	2.3642871	1.5376239
20.305675505054968	2.3268435	1.5253994
20.323481316423702	2.3355043	1.5282357
20.341287623717207	2.360088	1.5362579
20.359094427406884	2.3601105	1.5362651
20.376901727964288	2.3276198	1.5256538
20.39470952586107	2.3309622	1.5267489
20.41251782156899	2.3702483	1.539561
20.430326615559935	2.3728404	1.5404027
20.448135908305886	2.3322203	1.5271609
20.465945700278965	2.314913	1.5214838
20.483755991951384	2.3546803	1.5344968
20.50156678379548	2.3531778	1.5340071
20.519378076283708	2.323357	1.5242562
20.537189869888635	2.3052168	1.5182941
20.55500216508294	2.3084197	1.5193485
20.572814962339415	2.322391	1.5239394
20.59062826213098	2.3522248	1.5336964
20.60844206493066	2.310618	1.5200716
20.626256371211593	2.2795393	1.5098144
20.644071181447032	2.3087175	1.5194465
20.66188649611036	2.331926	1.5270646
20.67970231567506	2.3262653	1.5252099
20.697518640614742	2.3156965	1.5217413
20.715335471403122	2.3106802	1.5200921
20.73315280851404	2.342768	1.5306103
20.750970652421447	2.345868	1.5316226
20.768789003599412	2.331875	1.5270479
20.786607862522136	2.3168046	1.5221053
20.8044272296639	2.3419304	1.5303367
20.82224710549913	2.3569431	1.5352339
20.84006749050237	2.328036	1.5257903
20.857888385148268	3.8525894	1.9628015
20.8757097899116	45.936653	6.7776585
20.893531705267254	64.782295	8.048745
20.911354131690224	83.77518	9.152878
20.92917706965566	69.03679	8.308838
20.94700051963877	50.096687	7.0779014
20.96482448211493	29.370148	5.419423
20.982648957559622	4.1727996	2.0427432
21.00047394644843	2.2841418	1.5113378
21.01829944925707	2.2455328	1.4985101
21.036125466461375	2.2040837	1.4846157
21.053951998537297	2.2517617	1.5005871
21.071779045960906	2.2903214	1.5133808
21.089606609208378	2.2873337	1.5123934
21.10743468875603	2.2627218	1.5042347
21.12526328508028	2.2284281	1.492792
21.143092398657675	2.2044935	1.4847537
21.16092202996488	2.170244	1.4731748
21.17875217947867	2.1771	1.4754999
21.19658284767596	2.1628647	1.4706681
21.21441403503377	2.1659694	1.4717233
21.232245742029225	2.1782107	1.4758762
21.2500779691396	2.2164192	1.4887643
21.26791071684227	2.2310302	1.4936633
21.28574398561475	2.2296455	1.4931997
21.30357777593465	2.2039294	1.4845637
21.321412088279704	2.1553924	1.4681255
21.339246923127792	2.1469848	1.4652593
21.357082280956888	2.1509457	1.4666103
21.3749181622451	2.1488397	1.4658921
21.392754567470647	2.1189277	1.4556537
21.41059149711187	2.088301	1.4450954
21.42842895164726	2.0801244	1.4422636
21.446266931555378	2.0954852	1.4475791
21.464105437314945	2.0760202	1.4408401
21.481944469404798	2.0870233	1.4446534
21.49978402830388	2.095211	1.4474844
21.51762411449127	2.1131613	1.4536717
21.53546472844617	2.110856	1.4528786
21.553305870647876	2.124708	1.4576378
21.571147541575865	2.1165037	1.4548209
21.58898974170967	2.1150954	1.4543368
21.60683247152899	2.0887845	1.4452628
21.62467573151363	2.0608835	1.4355778
21.642519522143523	2.0448017	1.4299656
21.660363843898722	2.0496988	1.431677
21.6782086972594	2.0562613	1.433967
21.696054082705864	2.0655053	1.4371866
21.713900000718535	2.076406	1.440974
21.73174645177795	2.0845659	1.4438026
21.749593436364794	2.0584679	1.4347361
21.767440954959845	2.018932	1.4208913
21.785289008044032	2.0246773	1.4229115
21.803137596098388	2.0551045	1.4335636
21.820986719604086	2.0632246	1.4363929
21.838836379042412	2.0473502	1.4308565
21.85668657489478	2.033357	1.4259583
21.87453730764273	2.0218525	1.4219186
21.892388577767914	2.0092778	1.41749
21.91024038575213	1.9980981	1.413541
21.928092732077285	1.9766898	1.405948
21.945945617225426	2.0050352	1.4159926
21.963799041678694	2.0046377	1.4158523
21.981653005919398	31.34589	5.59874
21.999507510429943	78.15555	8.840563
22.01736255569286	73.13928	8.552151
22.035218142190818	4.239825	2.0590835
22.05307427040661	2.055761	1.4337926
22.07093094082315	2.0187411	1.420824
22.088788153923474	1.9859765	1.4092468
22.106645910190746	1.9624193	1.4008638
22.12450421010827	1.9864346	1.4094093
22.142363054159464	1.9949578	1.4124298
22.16022244282787	2.0032513	1.4153626
22.178082376597164	1.9669843	1.4024922
22.195942855951145	1.9694741	1.4033796
22.213803881373742	1.9569093	1.3988957
22.231665453349002	1.9398901	1.3927994
22.24952757236111	1.9306173	1.3894665
22.26739023889438	1.9635736	1.4012758
22.28525345343323	1.9663967	1.4022827
22.30311721646225	1.9702353	1.4036508
22.320981528466113	1.9708674	1.4038758
22.33884638992964	1.9863116	1.4093657
22.356711801337788	1.9882064	1.4100378
22.37457776317561	1.9495926	1.3962781
22.392444275928337	1.9310695	1.3896292
22.410311340081282	1.9351964	1.3911134
22.428178956119904	1.9746529	1.4052235
22.446047124529805	1.9905031	1.410852
22.46391584579669	1.9762216	1.4057815
22.481785120406414	1.9341156	1.3907249
22.49965494884496	1.9251286	1.38749
22.51752533159841	1.9658597	1.4020911
22.53539626915302	1.9741969	1.4050611
22.553267761995137	1.9616488	1.4005888
22.571139810611264	1.9544898	1.3980306
22.589012415488025	1.9527293	1.397401
22.60688557711216	1.9477165	1.3956062
22.624759295970566	1.9229231	1.386695
22.642633572550263	1.920198	1.385712
22.660508407338362	1.9199396	1.3856188
22.67838380082217	1.948488	1.3958825
22.696259753489077	1.9880476	1.4099814
22.714136265826614	1.9524294	1.3972936
22.73201333832246	1.9412988	1.3933051
22.74989097146439	1.934094	1.390717
22.76776916574035	1.9300749	1.3892714
22.785647921638393	1.9383962	1.3922629
22.803527239646712	1.9319483	1.3899454
22.82140712025363	1.8988539	1.377989
22.839287563947593	1.9063628	1.380711
22.85716857121719	1.900569	1.3786112
22.875050142551135	1.9255183	1.3876305
22.892932278438277	1.9625021	1.4008933
22.910814979367604	1.9487988	1.3959938
22.928698245828222	1.9512886	1.3968853
22.946582078309387	1.9084896	1.3814809
22.96446647730047	1.9294866	1.3890597
22.98235144329098	1.9329972	1.3903227
23.000236976770562	1.921143	1.3860531
23.018123078229	1.9240798	1.387112
23.03600974815619	1.947489	1.3955246
23.053896987042194	1.9506909	1.3966713
23.071784795377173	1.9544297	1.3980092
23.08967317365145	1.9704592	1.4037305
23.10756212235546	1.9639438	1.4014078
23.125451641979787	1.910726	1.3822901
23.143341733015134	1.8633479	1.3650451
23.161232395952357	1.8620896	1.3645841
23.179123631282426	1.8526192	1.3611095
23.197015439496468	1.8660747	1.3660434
23.214907821085717	1.908032	1.3813154
23.23280077654157	1.919549	1.3854779
23.250694306355538	1.9009567	1.3787519
23.268588411019277	1.8971368	1.377366
23.28648309102458	1.9028528	1.3794394
23.304378346863356	1.952926	1.3974713
23.322274179027676	1.9760634	1.4057252
23.340170588009723	1.977558	1.4062568
23.358067574301852	1.9590913	1.3996754
23.37596513839651	1.9625158	1.4008982
23.39386328078629	1.937802	1.3920496
23.411762001963947	1.9136748	1.3833563
23.429661302422353	1.9371405	1.391812
23.4475611826545	1.9544561	1.3980186
23.46546164315356	1.92213	1.386409
23.48336268441279	1.9172237	1.3846384
23.501264306925638	1.9465714	1.3951958
23.51916651118564	1.9850752	1.408927
23.537069297686497	2.0023358	1.4150392
23.554972666922037	2.0002835	1.4143138
23.57287661938623	1.9709691	1.4039121
23.59078115557318	1.9339402	1.3906617
23.608686275977128	1.888272	1.3741441
23.62659198109246	1.8830812	1.372254
23.6444982714137	1.896965	1.3773035
23.66240514743549	1.8915526	1.3753372
23.68031260965263	1.8787297	1.3706676
23.698220658560068	1.8646511	1.3655223
23.716129294652845	1.8810396	1.37151
23.7340385184262	1.888596	1.374262
23.75194833037546	1.8875896	1.3738958
23.769858730996123	1.8814272	1.3716513
23.78776972078382	1.8806652	1.3713734
23.80568130023431	1.8771359	1.3700861
23.823593469843495	1.8755846	1.3695198
23.841506230107424	1.874028	1.3689514
23.859419581522275	1.895262	1.3766851
23.87733352458438	1.9013456	1.3788929
23.89524805979019	1.9118183	1.3826852
23.913163187636318	1.9071739	1.3810047
23.931078908619508	1.9458834	1.3949492
23.948995223236633	1.9843689	1.4086763
23.966912131984735	2.0114403	1.4182526
23.98482963536096	2.036385	1.4270196
24.002747733862616	2.0284278	1.4242289
24.020666427987155	2.0137777	1.4190763
24.038585718232156	1.9988407	1.4138036
24.056505605095353	2.000744	1.4144766
24.074426089074617	2.0154548	1.4196671
24.092347170667946	1.9965558	1.4129953
24.110268850373515	2.0443249	1.4297988
24.128191128689586	2.0875661	1.4448413
24.146114006114626	2.1035488	1.4503616
24.164037483147187	2.096514	1.4479344
24.181961560286005	2.055797	1.4338051
24.199886238029926	2.0144508	1.4193135
24.21781151687797	2.00199	1.414917
24.235737397329274	2.0051606	1.416037
24.253663879883135	2.049221	1.4315101
24.271590965038975	2.0702033	1.4388201
24.289518653296376	2.0755303	1.4406701
24.30744694515505	2.0745375	1.4403255
24.32537584111486	2.0856867	1.4441906
24.34330534167581	2.0630589	1.4363352
24.361235447338046	2.070352	1.4388719
24.379166158601876	2.0482674	1.4311769
24.39709747596772	2.0393443	1.4280561
24.41502939993615	2.0298893	1.4247419
24.432961931007917	2.027104	1.423764
24.450895069683856	2.0738087	1.4400724
24.468828816465	2.0603995	1.4354092
24.4867631718525	2.01875	1.4208272
24.504698136347656	1.9471581	1.3954061
24.52263371045192	1.9551678	1.3982731
24.540569894666874	1.9496722	1.3963066
24.558506689494266	1.9552898	1.3983167
24.57644409543597	1.9307629	1.389519
24.594382112994012	1.9016719	1.3790112
24.61232074267057	1.9438204	1.3942096
24.630259984967953	1.9898121	1.410607
24.64819984038863	2.0125198	1.4186331
24.66614030943522	2.0351188	1.4265759
24.684081392610462	2.028708	1.4243273
24.702023090417274	2.036034	1.4268967
24.7199654033587	1.9967532	1.4130652
24.737908331937927	1.9710354	1.4039357
24.755851876658305	1.9666373	1.4023684
24.773796038023324	2.0242472	1.4227604
24.79174081653661	2.0803962	1.4423579
24.809686212701962	2.18271	1.4773997
24.827632227023294	2.1723588	1.4738923
24.8455788600047	2.1191432	1.4557277
24.8635261121504	2.102633	1.4500458
24.88147398396475	2.0960474	1.4477732
24.899422475952303	2.0557742	1.4337971
24.917371588617698	2.0742881	1.440239
24.935321322465768	2.1575263	1.468852
24.953271678001478	2.281426	1.510439
24.97122265572994	2.4614093	1.568888
24.989174256156414	2.761996	1.6619254
25.00712647978632	3.2246754	1.7957381
25.02507932712521	3.790879	1.947018
25.043032798678798	4.3324776	2.0814605
25.060986894952933	5.0142846	2.2392597
25.078941616453637	5.723639	2.392413
25.096896963687055	6.6731052	2.5832355
25.114852937159508	7.8366003	2.799393
25.132809537377444	8.323357	2.8850229
25.150766764847468	8.367067	2.8925884
25.168724620076347	7.841041	2.800186
25.186683103570985	6.8635497	2.6198378
25.204642215838426	5.626432	2.37201
25.222601957385894	4.22369	2.0551617
25.24056232872074	3.1958942	1.7877064
25.25852333035048	2.6109412	1.6158407
25.276484962782778	2.2399642	1.496651
25.294447226525435	2.0717146	1.4393452
25.312410122086423	1.9547868	1.3981369
25.330373649973843	1.9239304	1.3870581
25.348337810695988	1.8697424	1.3673853
25.366302604761245	1.8848438	1.3728962
25.384268032678207	1.8603554	1.3639485
25.40223409495558	1.8414216	1.3569899
25.420200792102257	1.8599198	1.3637887
25.438168124627246	1.8975667	1.377522
25.45613609303974	1.9058174	1.3805134
25.474104697849057	1.9040211	1.3798628
25.492073939564698	1.8939863	1.3762218
25.510043818696285	1.872649	1.3684477
25.528014335753614	1.8436606	1.3578147
25.54598549124664	1.8124342	1.3462667
25.56395728568544	1.8283323	1.3521584
25.58192971958028	1.8744389	1.3691015
25.59990279344156	1.8903214	1.3748896
25.617876507779833	1.8723278	1.3683302
25.635850863105826	1.8470044	1.3590454
25.653825859930386	1.8315669	1.353354
25.671801498764548	1.857008	1.3627208
25.68977778011949	1.9021306	1.3791775
25.707754704506524	1.8826221	1.3720868
25.725732272437153	1.8674045	1.3665301
25.743710484423012	1.8687761	1.3670318
25.761689340975888	1.8527999	1.3611759
25.77966884260774	1.8523881	1.3610246
25.797648989830662	1.8556548	1.3622242
25.815629783156922	1.8409206	1.3568053
25.83361122309895	1.8101705	1.3454257
25.85159331016929	1.7826524	1.33516
25.869576044880695	1.7523218	1.3237529
25.887559427746034	1.7244259	1.313174
25.90554345927836	1.7289141	1.3148818
25.92352813999086	1.7660589	1.3289315
25.94151347039689	1.8126774	1.3463571
25.959499451009965	1.8474238	1.3591996
25.97748608234374	1.8788412	1.3707082
25.995473364912062	1.8787565	1.3706774
26.013461299228904	1.8486521	1.3596514
26.03144988580839	1.8212259	1.3495281
26.04943912516483	1.8735888	1.368791
26.067429017812675	1.8856177	1.373178
26.085419564266537	1.8573778	1.3628565
26.103410765041186	1.8161978	1.3476638
26.12140262065155	1.8512115	1.3605924
26.139395131612723	1.8505636	1.3603542
26.157388298439948	1.841151	1.3568902
26.17538212164861	1.8395015	1.3562822
26.193376601754295	1.8332814	1.3539872
26.211371739272714	1.82494	1.3509034
26.229367534719746	1.8122629	1.3462031
26.247363988611433	1.7744321	1.3320781
26.26536110146397	1.7521806	1.3236996
26.283358873793727	1.7678173	1.329593
26.301357306117204	1.7702323	1.3305007
26.319356398951104	1.790491	1.3380923
26.33735615281224	1.8250561	1.3509463
26.35535656821762	1.8502712	1.3602468
26.373357645684404	1.817217	1.3480419
26.39135938572991	1.8045256	1.3433263
26.409361788871614	1.7905403	1.3381107
26.427364855627165	1.8387983	1.356023
26.445368586514352	1.8663006	1.3661262
26.46337298205115	1.8484893	1.3595916
26.48137804275568	1.8113563	1.3458663
26.499383769146217	1.7885218	1.3373562
26.517390161741215	1.8156091	1.3474454
26.53539722105928	1.8466678	1.3589215
26.553404947619182	1.8247285	1.3508251
26.571413341939856	1.8162233	1.3476733
26.589422404540397	1.7818857	1.334873
26.60743213594006	1.7685173	1.3298562
26.62544253665827	1.8185886	1.3485506
26.64345360721459	1.891974	1.3754904
26.66146534812879	1.9212259	1.3860829
26.679477759920758	1.8221967	1.3498877
26.69749084311057	1.7687352	1.329938
26.71550459821847	1.786757	1.3366963
26.733519025764842	1.807831	1.3445561
26.751534126270258	1.7757938	1.3325891
26.769549900255434	1.8158085	1.3475194
26.787566348241267	1.8370128	1.3553644
26.80558347074881	1.8692154	1.3671925
26.823601268299267	1.8261081	1.3513356
26.841619741414036	1.8540194	1.3616238
26.85963889061465	1.8644941	1.3654648
26.877658716422832	1.8309704	1.3531336
26.89567921936045	1.8331124	1.3539248
26.913700399949544	1.821944	1.349794
26.93172225871233	1.8641219	1.3653286
26.949744796171174	1.8597472	1.3637254
26.967768012848605	1.7918613	1.3386042
26.98579190926733	1.7783006	1.3335294
27.003816485950225	1.7966433	1.3403893
27.021841743420318	1.8009918	1.3420104
27.039867682200814	1.793838	1.3393424
27.057894302815072	1.7814977	1.3347275
27.07592160578664	1.7794919	1.333976
27.0939495916392	1.7757348	1.332567
27.111978260896635	1.7343425	1.3169444
27.13000761408296	1.7112421	1.3081446
27.148037651722397	1.7627623	1.3276906
27.166068374339304	1.8037392	1.3430336
27.184099782458215	1.8342925	1.3543606
27.20213187660384	1.7902176	1.3379902
27.22016465730105	1.7799195	1.3341362
27.23819812507487	1.7749807	1.332284
27.256232280450533	1.7793833	1.3339353
27.274267123953383	1.7867362	1.3366885
27.292302656108987	1.7880867	1.3371936
27.31033887744306	1.8252265	1.3510095
27.32837578848146	1.82736	1.3517988
27.34641338975026	1.8346338	1.3544866
27.364451681775673	1.8319666	1.3535017
27.382490665084074	1.8301146	1.3528173
27.400530340202046	1.8252509	1.3510184
27.41857070765629	1.7915848	1.338501
27.436611767973726	1.7823492	1.3350465
27.454653521681404	1.81796	1.3483175
27.472695969306564	1.8485115	1.3595997
27.490739111376627	1.8104355	1.3455243
27.508782948419153	1.7675474	1.3294914
27.526827480961902	1.7700145	1.330419
27.54487270953279	1.8103065	1.3454763
27.562918634659898	1.8317934	1.3534377
27.580965256871508	1.7841611	1.335725
27.599012576696026	1.7284017	1.3146869
27.617060594662068	1.7461084	1.321404
27.63510931129842	1.8158205	1.3475238
27.65315872713401	1.8056728	1.3437532
27.67120884269797	1.8100374	1.3453763
27.68925965851958	1.8437355	1.3578422
27.707311175128307	1.907364	1.3810735
27.725363393053787	1.9103643	1.3821592
27.74341631282583	1.9147877	1.3837585
27.7614699349744	1.8824056	1.3720078
27.77952426002968	2.0902567	1.445772
27.797579288521973	2.1756375	1.4750042
27.815635020981784	2.5386124	1.5933024
27.83369145793979	2.5637271	1.6011643
27.85174859992682	2.4504197	1.5653816
27.869806447473923	2.3187237	1.5227356
27.887865001112267	2.0057802	1.4162557
27.905924261373233	1.8901559	1.3748294
27.92398422878836	1.8624966	1.3647332
27.94204490388936	1.8515137	1.3607033
27.96010628720813	1.8659643	1.366003
27.978168379276728	1.8532864	1.3613546
27.9962311806274	1.8545209	1.361808
28.014294691792568	1.8307195	1.3530408
28.0323589133048	1.825994	1.3512934
28.050423845696887	1.7846514	1.3359084
28.068489489501758	1.8123863	1.346249
28.086555845252523	1.8680861	1.3667794
28.104622913482487	1.9028004	1.3794203
28.122690694725115	1.8688354	1.3670535
28.14075918951405	1.8386506	1.3559685
28.15882839838312	1.8903878	1.3749137
28.176898321866304	1.8898921	1.3747334
28.1949689604978	1.8848627	1.372903
28.213040314811945	1.9120824	1.3827807
28.23111238534327	1.9179419	1.3848978
28.249185172626493	1.9098068	1.3819577
28.267258677196473	1.9006579	1.3786435
28.285332899588294	1.9593042	1.3997514
28.303407840337172	1.9469477	1.3953307
28.321483499978545	1.9025922	1.3793448
28.33955987904799	1.9424844	1.3937304
28.357636978081285	1.9263415	1.387927
28.37571479761439	1.9129035	1.3830776
28.393793338183425	1.9326531	1.390199
28.41187260032469	1.9300513	1.3892629
28.429952584574686	1.931653	1.3898392
28.448033291470065	1.9359128	1.3913709
28.46611472154769	1.9250841	1.3874741
28.484196875344566	1.9354922	1.3912196
28.502279753397914	1.930598	1.3894596
28.52036335624511	1.9159817	1.3841898
28.538447684423716	1.9149555	1.3838192
28.556532738471482	1.9482106	1.3957832
28.574618518926325	1.9747167	1.4052461
28.59270502632635	1.9549816	1.3982066
28.61079226120985	1.9213063	1.386112
28.628880224115274	1.9472672	1.3954451
28.646968915581287	1.9827347	1.4080961
28.66505833614671	2.0381744	1.4276464
28.68314848635055	1.9883337	1.4100828
28.701239366732004	2.0271006	1.4237628
28.71933097783044	2.0922616	1.4464651
28.737423320185403	2.1159348	1.4546254
28.75551639433665	2.0929236	1.446694
28.773610200824074	2.119893	1.4559853
28.791704740187793	2.151932	1.4669465
28.80980001296809	2.1674101	1.4722127
28.827896019705413	2.1784782	1.4759669
28.845992760940433	2.205678	1.4851525
28.86409023721397	2.1999123	1.4832101
28.88218844906704	2.179276	1.476237
28.900287397040845	2.217131	1.4890033
28.918387081676755	2.2629895	1.5043236
28.936487503516343	2.3243492	1.5245817
28.954588663101365	2.317333	1.5222789
28.97269056097374	2.2559316	1.5019759
28.990793197675597	2.2385714	1.4961857
29.00889657374923	2.2908797	1.5135652
29.027000689737125	2.3418899	1.5303235
29.04510554618196	2.3580885	1.5356069
29.06321114362659	2.3696907	1.53938
29.08131748261405	2.3836002	1.5438913
29.099424563687567	2.4662704	1.5704364
29.11753238739057	2.5202236	1.5875212
29.13564095426663	2.5911329	1.6096996
29.15375026485954	2.599045	1.6121554
29.171860319713275	2.6155708	1.6172726
29.18997111937199	2.669859	1.6339703
29.20808266438002	2.7004445	1.6433029
29.226194955281898	2.7831423	1.6682752
29.244307992622335	2.8407142	1.6854419
29.26242177694624	2.8080194	1.6757146
29.2805363087987	2.8368192	1.684286
29.29865158872498	2.9330182	1.7126057
29.316767617270557	2.9429564	1.7155048
29.334884394981064	2.9080691	1.7053062
29.353001922402367	2.8819165	1.6976209
29.37112020008047	2.985424	1.7278379
29.389239228561596	3.1091578	1.7632804
29.407359008392152	3.2786207	1.8106962
29.42547954011872	3.59599	1.8963096
29.44360082428809	4.354927	2.086846
29.46172286144722	5.5138807	2.3481655
29.479845652143283	7.1154075	2.6674721
29.497969196923606	9.125651	3.0208693
29.516093496335728	11.552793	3.3989398
29.5342185509274	14.279571	3.778832
29.55234436124651	16.58131	4.0720153
29.570470927841175	18.053385	4.2489276
29.588598251259686	17.888775	4.229512
29.60672633205055	16.615702	4.0762362
29.624855170762405	14.412334	3.796358
29.642984767944146	11.599791	3.4058466
29.66111512414481	8.887993	2.9812737
29.67924623991366	6.71187	2.5907278
29.697378115800138	5.142412	2.2676888
29.71551075235387	4.225554	2.0556152
29.733644150124675	3.793491	1.9476886
29.751778309662576	3.5800152	1.8920928
29.769913231517766	3.475226	1.8641958
29.78804891624066	3.3990455	1.84365
29.806185364381818	3.411312	1.8469738
29.82432257649206	3.4012003	1.8442343
29.842460553122333	3.3069916	1.8185135
29.86059929482382	3.2292087	1.7969999
29.878738802147872	3.2446454	1.8012899
29.896879075646048	3.2635202	1.8065215
29.915020115870114	3.2574658	1.8048451
29.933161923371976	3.2493882	1.802606
29.951304498703777	3.273466	1.8092723
29.969447842417857	3.2829103	1.8118804
29.987591955066733	3.2338111	1.79828
30.005736837203123	3.2263005	1.7961905
30.023882489379943	3.285326	1.8125468
30.04202891215028	3.2796352	1.8109763
30.060176106067455	3.2034009	1.7898047
30.078324071684946	3.1994963	1.7887136
30.09647280955646	3.151286	1.7751862
30.114622320235863	3.1064172	1.7625031
30.132772604277257	3.1191788	1.7661197
30.1509236622349	3.0715249	1.7525766
30.16907549466328	3.0159323	1.736644
30.18722810211705	3.0183709	1.7373459
30.205381485151097	3.0202732	1.7378933
30.22353564432045	3.053917	1.747546
30.241690580180403	3.049543	1.746294
30.25984629328638	3.0608861	1.7495388
30.278002784194037	3.0778008	1.7543662
30.296160053459246	3.0577586	1.7486448
30.314318101638033	3.029576	1.7405677
30.332476929286646	2.9783967	1.7258031
30.35063653696153	2.98999	1.7291588
30.368796925219307	2.9524648	1.7182738
30.386958094616844	2.9118087	1.7064023
30.40512004571115	2.8832462	1.6980125
30.423282779059463	2.920132	1.7088393
30.441446295219233	2.9113572	1.70627
30.459610594748067	2.950592	1.7177287
30.47777567820382	2.9384828	1.7142004
30.495941546144504	2.8079214	1.6756854
30.51410819912835	2.741041	1.6556089
30.532275637713795	2.8163066	1.6781855
30.55044386245946	2.8456984	1.6869198
30.56861287392416	2.8259492	1.681056
30.586782672666956	2.8488886	1.6878651
30.604953259247047	2.8766968	1.6960828
30.623124634223885	2.873322	1.6950876
30.641296798157075	2.8712423	1.6944741
30.659469751606462	2.8210196	1.6795892
30.677643495132074	2.750573	1.6584852
30.695818029294152	2.7388413	1.6549445
30.713993354653116	2.7985654	1.6728914
30.73216947176962	2.8405688	1.6853987
30.75034638120448	2.8210003	1.6795834
30.768524083518756	2.8078115	1.6756525
30.786702579273673	2.79403	1.6715353
30.80488186903069	2.8051934	1.6748712
30.82306195335144	2.8759005	1.695848
30.841242832797782	3.0521417	1.747038
30.85942450793176	3.309091	1.8190907
30.877606979315637	3.6365309	1.9069691
30.895790247511883	3.9855344	1.9963803
30.913974313083134	4.4359336	2.1061656
30.932159176592283	4.8663197	2.2059736
30.95034483860237	4.939487	2.2224956
30.968531299676698	4.716806	2.1718209
30.98671856037873	4.5651393	2.1366186
31.00490662127215	4.2229486	2.0549815
31.023095482920848	3.7024972	1.9241874
31.04128514588892	3.1857271	1.7848605
31.059475610740662	2.7614276	1.6617544
31.07766687804056	2.60107	1.6127833
31.09585894835335	2.5455604	1.5954813
31.11405182224393	2.5209267	1.5877427
31.132245500277417	2.4385238	1.5615773
31.15043998301914	2.443722	1.5632409
31.168635271034628	2.4274845	1.5580387
31.18683136488964	2.428931	1.5585028
31.20502826515008	2.4321778	1.5595441
31.223225972382135	2.4229941	1.556597
31.241424487152155	2.3687806	1.5390843
31.259623810026692	2.3720508	1.5401464
31.27782394157253	2.4325802	1.5596731
31.296024882356644	2.3943386	1.5473651
31.314226632946237	2.3777683	1.5420014
31.332429193908684	2.4545758	1.5667086
31.350632565811598	2.5012014	1.5815187
31.368836749222787	2.4894607	1.5778025
31.387041744710295	2.4834075	1.575883
31.40524755284232	2.4908812	1.5782526
31.423454174187317	2.4414532	1.562515
31.441661609313922	2.4271684	1.5579373
31.459869858791002	2.4338505	1.5600803
31.478078923187628	2.3769941	1.5417503
31.496288803073064	2.3134387	1.5209992
31.514499499016807	2.332772	1.5273415
31.532711011588546	2.2830482	1.5109758
31.550923341358178	2.2606635	1.5035503
31.56913648889584	2.2870276	1.5122921
31.587350454771844	2.3031085	1.5175996
31.605565239556732	2.2749915	1.5083075
31.62378084382127	2.351213	1.5333666
31.641997268136382	2.4072547	1.551533
31.660214513073274	2.4353569	1.560563
31.67843257920331	2.3867316	1.5449051
31.6966514670981	2.3728251	1.5403978
31.71487117732944	2.3391876	1.5294403
31.733091710469346	2.3527353	1.5338628
31.751313067090052	2.301933	1.5172123
31.769535247764008	2.2869976	1.5122823
31.787758253063878	2.3077333	1.5191226
31.805982083562526	2.3250678	1.5248172
31.824206739833024	2.324747	1.5247121
31.84243222244869	2.2616913	1.5038921
31.860658531983013	2.2225485	1.4908214
31.878885669009737	2.2214923	1.4904672
31.897113634102784	2.250924	1.500308
31.91534242783632	2.2804585	1.5101187
31.933572050784694	2.2454538	1.4984839
31.951802503522508	2.1779761	1.4757968
31.970033786624548	2.1706321	1.4733065
31.988265900665834	2.18506	1.4781948
32.006498846221575	2.19926	1.4829903
32.02473262386724	2.1621466	1.4704239
32.04296723417845	2.1600313	1.4697045
32.0612026777311	2.1282246	1.4588436
32.07943895510129	2.1065133	1.4513832
32.097676066865304	2.1517544	1.4668859
32.115914013599685	2.2018483	1.4838626
32.13415279588115	2.1528084	1.4672452
32.152392414286666	2.1163359	1.4547632
32.1706328693934	2.1715124	1.4736053
32.18887416177875	2.2058	1.4851936
32.20711629202032	2.1359086	1.4614748
32.225359260695924	2.118845	1.4556253
32.243603068383614	2.126196	1.4581481
32.26184771566166	2.145479	1.4647454
32.28009320310852	2.0909176	1.4460006
32.2983395313029	1.9973089	1.4132618
32.31658670082372	1.9881941	1.4100333
32.33483471225012	2.0546718	1.4334127
32.35308356616143	2.0664475	1.4375143
32.371333263137245	2.070322	1.4388614
32.38958380375734	2.063561	1.43651
32.407835188601744	2.0053062	1.4160883
32.42608741825067	2.0037045	1.4155227
32.444340493284585	2.0590405	1.4349357
32.46259441428416	2.0817325	1.442821
32.48084918183028	2.0412364	1.4287184
32.49910479650405	1.9956436	1.4126725
32.51736125888683	2.028453	1.4242377
32.53561856956014	2.0076644	1.4169208
32.5538767291058	2.091111	1.4460675
32.572135738105764	2.1331837	1.4605423
32.59039559714228	2.1042933	1.4506183
32.608656306797776	2.0491104	1.4314715
32.62691786765491	2.0448008	1.4299653
32.645180280296586	2.0092802	1.4174908
32.663443545305896	1.9685392	1.4030464
32.68170766326619	1.9280471	1.3885413
32.69997263476099	1.9205612	1.3858432
32.7182384603741	1.9741235	1.405035
32.7365051406895	2.0276406	1.4239525
32.75477267629144	2.086865	1.4445986
32.77304106776434	2.0828183	1.4431973
32.79131031569289	1.9836313	1.4084145
32.809580420661966	1.993958	1.4120758
32.827851383256714	2.011881	1.4184079
32.84612320406245	2.0813859	1.4427009
32.86439588366476	2.164017	1.4710598
32.88266942264945	2.0922585	1.4464641
32.9009438216025	1.9557779	1.3984913
32.9192190811102	1.9298918	1.3892055
32.937495201758985	1.9289637	1.3888713
32.95577218413556	1.9544613	1.3980205
32.974050028826866	1.9715775	1.4041288
32.992328736420035	2.0014164	1.4147142
33.010608307502444	2.0027797	1.415196
33.02888874266169	1.9609044	1.4003229
33.047170042485604	1.9536145	1.3977176
33.06545220756225	1.9628267	1.4010092
33.083735238479896	1.8502384	1.3602347
33.10201913582707	1.8753625	1.3694388
33.12030390019248	1.9716883	1.4041681
33.138589532165135	1.9936981	1.4119837
33.15687603233419	1.9888418	1.4102631
33.17516340128909	2.030879	1.4250891
33.19345163961947	2.124269	1.4574872
33.211740747915215	2.094248	1.4471517
33.23003072676643	2.061195	1.4356862
33.248321576763466	2.010461	1.4179072
33.266613298496885	1.9200081	1.3856436
33.28490589255747	1.874219	1.3690212
33.30319935953626	1.964437	1.4015838
33.32149370002451	1.922227	1.386444
33.339788914613706	1.9002477	1.3784947
33.358085003895575	1.8946698	1.3764701
33.376381968462034	1.9051981	1.3802891
33.39467980890529	1.9355372	1.3912358
33.41297852581774	1.9963052	1.4129066
33.43127811979204	2.0422819	1.4290843
33.44957859142105	2.0110545	1.4181166
33.467879941297866	1.9234569	1.3868874
33.486182170015844	1.817365	1.3480968
33.50448527816853	1.7992638	1.3413664
33.522789266349754	1.861314	1.3642999
33.541094135153514	1.8967104	1.3772111
33.55939988517411	1.9304781	1.3894165
33.57770651700602	2.0052967	1.416085
33.59601403124398	1.985657	1.4091334
33.61432242848296	1.9719697	1.4042684
33.632631709318154	1.9391516	1.3925343
33.650941874344994	1.9063097	1.3806918
33.66925292415916	1.9041946	1.3799256
33.68756485935654	1.8129318	1.3464515
33.70587768053328	1.7605553	1.3268591
33.724191388285746	1.9017938	1.3790554
33.74250598321054	1.9416727	1.3934392
33.760821465904506	1.843456	1.3577393
33.77913783696474	1.7973921	1.3406686
33.79745509698852	1.7539189	1.3243561
33.815773246573414	1.7866232	1.3366463
33.8340922863172	1.8385661	1.3559374
33.852412216817896	1.8519405	1.3608602
33.87073303867377	1.7781258	1.3334638
33.889054752483304	1.7919056	1.3386208
33.907377358845245	1.9056346	1.3804473
33.92570085835853	1.9171962	1.3846285
33.94402525162239	1.8417741	1.3571198
33.96235053923627	1.8948784	1.3765458
33.980676721799824	1.9782848	1.4065151
33.999003799912984	1.9504726	1.3965932
34.01733177417592	1.933057	1.3903441
34.03566064518901	2.0798187	1.4421576
34.0539904135529	2.137902	1.4621567
34.07232107986846	2.0083392	1.4171588
34.090652644736785	1.8644911	1.3654637
34.108985108759235	1.8465186	1.3588667
34.12731847253742	1.9792631	1.4068629
34.14565273667313	2.0537786	1.433101
34.16398790176847	2.1229355	1.4570297
34.18232396842574	2.0175688	1.4204115
34.20066093724749	1.8865409	1.373514
34.21899880883651	1.8564858	1.3625292
34.23733758379583	1.977456	1.4062204
34.25567726272874	1.8796307	1.3709962
34.27401784623872	1.845968	1.358664
34.29235933492957	1.890337	1.3748952
34.31070172940526	1.9307209	1.3895038
34.32904503027003	1.9754268	1.4054987
34.347389238128386	2.026472	1.4235421
34.36573435358502	2.025259	1.423116
34.38408037724492	2.0008457	1.4145125
34.402427309713296	2.0021718	1.4149811
34.42077515159559	1.968903	1.4031761
34.43912390349752	2.01915	1.4209679
34.45747356602499	2.1095278	1.4524213
34.47582413978423	2.0073295	1.4168025
34.49417562538163	1.8654017	1.3657972
34.51252802342388	1.847946	1.3593918
34.53088133451789	1.8689057	1.3670793
34.54923555927084	1.9957731	1.4127183
34.567590698290104	1.9464258	1.3951436
34.58594675218336	1.8964385	1.3771124
34.6043037215585	1.9616944	1.400605
34.62266160702365	1.9800957	1.4071587
34.641020409187234	1.9447646	1.3945482
34.65938012865785	2.0015538	1.4147629
34.677740766044394	2.0531416	1.4328787
34.69610232195598	2.0000174	1.4142197
34.714464797002016	1.780893	1.334501
34.73282819179208	1.8772794	1.3701384
34.751192506936064	2.0500643	1.4318045
34.76955774304408	1.8672352	1.3664682
34.7879239007265	1.6558983	1.2868171
34.80629098059391	1.8147349	1.347121
34.824658983257194	2.0435927	1.4295428
34.843027909327446	2.029599	1.4246399
34.86139775941603	1.8035989	1.3429813
34.879768534134534	1.7529181	1.3239782
34.89814023409483	1.9269501	1.3881463
34.91651285990901	1.9556355	1.3984404
34.93488641218944	1.9785538	1.4066107
34.95326089154871	2.0704591	1.438909
34.97163629859967	2.123645	1.4572731
34.99001263395542	2.1428585	1.4638506
35.00838989822934	1.8782811	1.370504
35.02676809203499	1.587065	1.2597877
35.04514721598624	1.6565886	1.2870853
35.063527270697215	1.7262537	1.3138697
35.081908256782256	1.7546347	1.3246262
35.10029017485597	1.9442377	1.3943592
35.11867302553321	1.9701828	1.403632
35.137056809429104	1.817018	1.3479681
35.155441527159006	1.8782648	1.3704981
35.173827179338524	2.159557	1.4695432
35.19221376658354	2.0526388	1.4327033
35.21060128951017	1.7212632	1.3119692
35.2289897487348	1.4987516	1.2242352
35.24737914487405	1.6591318	1.288073
35.26576947854479	2.084269	1.4436998
35.28416075036418	2.4287295	1.5584382
35.30255296094958	2.2212687	1.4903921
35.32094611091867	1.946555	1.39519
35.33934020088932	1.9849972	1.4088993
35.35773523147969	2.0651972	1.4370794
35.3761312033082	2.208801	1.4862036
35.394528116993506	2.473067	1.5725988
35.41292597315452	2.5148735	1.5858352
35.431324772410434	2.477566	1.5740286
35.449724515380666	2.3450367	1.5313513
35.46812520268491	2.1444016	1.4643775
35.486526834943106	1.8898267	1.3747096
35.504929412775454	1.6716735	1.2929322
35.52333293680242	1.4955966	1.2229459
35.54173740764471	1.5179733	1.2320606
35.560142825923286	1.8167863	1.3478822
35.5785491922594	1.922478	1.3865346
35.59695650727454	1.9993163	1.4139718
35.61536477159042	2.0597806	1.4351935
