0.008763373481513119	0.0	0.0
0.026290120649546365	0.0	0.0
0.043816868432600686	0.0	0.0
0.06134361724069026	0.01719954	0.13114701
0.07887036748382949	0.07350938	0.27112612
0.0963971195720331	0.06077644	0.24652877
0.11392387391531617	0.0757027	0.27514124
0.1314506309236943	0.0477716	0.21856715
0.1489773910071836	0.18495066	0.4300589
0.16650415457580078	0.20463826	0.4523696
0.18403092203956356	0.25463834	0.50461704
0.20155769380849	0.2430466	0.49299756
0.2190844702925996	0.25484622	0.50482297
0.2366112519019124	0.23741087	0.48724827
0.2541380390464497	0.2303697	0.47996843
0.27166483213623416	0.19776893	0.4447122
0.28919163158128947	0.13680287	0.36986873
0.3067184377916406	0.09544111	0.30893543
0.324245251177314	0.07732968	0.27808213
0.34177207214833777	0.10731636	0.32759175
0.3592989011147415	0.124492586	0.35283506
0.37682573848655654	0.15562539	0.39449385
0.39435258467381573	0.17902812	0.42311716
0.41187944008655414	0.20783733	0.4558918
0.42940630513480854	0.18700679	0.4324428
0.446933180228618	0.20556276	0.4533903
0.4644600657780234	0.187084	0.43253207
0.48198696219306775	0.19215475	0.43835458
0.49951386988379676	0.17132118	0.41390964
0.5170407892602581	0.15548994	0.39432213
0.5345677207325025	0.14554228	0.38150004
0.5520946647105822	0.1308766	0.36176872
0.5696216216045534	0.1135024	0.33690116
0.5871485918244737	0.12201765	0.34931025
0.6046755757804043	0.093494006	0.3057679
0.6222025738824094	0.11280839	0.3358696
0.6397295865405557	0.105787225	0.3252495
0.6572566141649129	0.15009154	0.3874165
0.6747836571655547	0.18462	0.4296743
0.6923107159525568	0.20139197	0.44876716
0.7098377909359992	0.20802592	0.4560986
0.7273648825259653	0.16731179	0.40903765
0.7448919911325411	0.15035573	0.3877573
0.762419117165817	0.14012201	0.37432876
0.7799462610358868	0.16141167	0.40176073
0.7974734231528482	0.22140034	0.47053197
0.8150006039268024	0.21349166	0.46205157
0.8325278037678551	0.19494386	0.44152448
0.8500550230861152	0.20516694	0.45295358
0.8675822622916969	0.21691984	0.46574655
0.8851095217947171	0.22944526	0.47900444
0.9026368020052984	0.18526	0.4304184
0.9201641033335665	0.18269597	0.4274295
0.9376914261896523	0.19813158	0.44511974
0.9552187709836915	0.23078777	0.48040375
0.9727461381258234	0.2536582	0.50364494
0.990273528026193	0.24415772	0.4941232
1.0078009410949496	0.22857015	0.4780901
1.0253283777422473	0.23598471	0.48578256
1.0428558383782454	0.26425746	0.5140598
1.0603833234131086	0.31108958	0.55775404
1.0779108332570058	0.3460299	0.58824307
1.0954383683201119	0.33881864	0.5820813
1.112965929012607	0.3789895	0.6156212
1.1304935157446763	0.5109547	0.71481097
1.1480211289265108	0.601327	0.7754528
1.1655487689683062	1.5147389	1.2307473
1.1830764362802655	1.8118767	1.3460597
1.200604131272596	2.1891992	1.4795942
1.2181318543555117	2.4966795	1.5800885
1.235659605939232	2.5105903	1.5844842
1.253187386433982	4.10605	2.026339
1.270715196249994	6.342348	2.5184019
1.2882430357975057	11.418389	3.3791108
1.3057709054867608	15.865436	3.983144
1.3232988057280106	21.766937	4.665505
1.3408267369315112	26.936695	5.1900573
1.358354699507526	31.119177	5.5784564
1.3758826938663256	35.194527	5.9324975
1.3934107204181858	37.432884	6.118242
1.410938779573391	37.80358	6.148462
1.4284668717422309	38.451576	6.2009335
1.4459949973350033	37.77018	6.145745
1.4635231567620117	37.36163	6.112416
1.4810513504335687	36.290333	6.0241456
1.4985795787599925	35.432034	5.9524813
1.5161078421516088	35.195496	5.932579
1.5336361410187505	34.68631	5.8895082
1.5511644757717598	35.03658	5.9191704
1.5686928468209842	36.5293	6.043947
1.58622125457678	36.92481	6.0765786
1.6037496994495108	37.845623	6.15188
1.621278181849548	36.89123	6.0738153
1.6388067021872719	37.339817	6.1106315
1.6563352608730693	37.074657	6.0888963
1.673863858317336	36.381725	6.0317264
1.6913924949304753	35.867737	5.988968
1.7089211711228998	34.7344	5.89359
1.7264498873050296	34.208473	5.848801
1.7439786438872935	33.359806	5.775795
1.7615074412801288	32.34563	5.687322
1.779036279893981	31.384172	5.602158
1.796565160139305	30.577257	5.5296707
1.814094082426564	30.08355	5.484847
1.8316230471662298	29.464262	5.428099
1.849152054768784	28.696743	5.356934
1.8666811056447168	27.712975	5.2643113
1.8842102002045273	26.887865	5.185351
1.901739338858724	26.250328	5.1235075
1.9192685220178245	25.8079	5.0801477
1.9367977500923557	25.087208	5.0087132
1.9543270234928547	24.455673	4.9452677
1.971856342629867	23.733074	4.87166
1.9893857079139496	23.257816	4.8226357
2.006915119755667	22.666237	4.760907
2.0244445785655945	22.115334	4.7026944
2.0419740847543175	21.85325	4.674746
2.0595036387324317	21.418623	4.628026
2.0770332409105414	21.207048	4.605111
2.094562891699263	20.83505	4.564543
2.1120925915092217	20.222612	4.496956
2.129622340751053	19.704445	4.438969
2.1471521398354043	187.73064	13.701483
2.1646819891729323	444.15527	21.074991
2.182211889174303	440.62842	20.991152
2.1997418402501974	453.13425	21.286951
2.2172718428113023	433.03793	20.809563
2.234801897268317	321.04044	17.9176
2.2523320040319548	17.451748	4.177529
2.269862163512935	16.983236	4.1210723
2.287392376121992	16.682125	4.084376
2.304922642269869	16.558245	4.0691824
2.322452962367322	16.408436	4.0507326
2.3399833368251164	15.978445	3.9973047
2.357513766054032	15.729824	3.9660842
2.3750442504648586	15.479927	3.934454
2.3925747904683963	15.2232895	3.9017034
2.410105386475459	14.827477	3.8506463
2.4276360388968707	14.330594	3.785577
2.445166748143469	14.324016	3.784708
2.4626975146261025	14.045758	3.7477672
2.4802283387556323	13.789113	3.7133696
2.4977592209429305	13.583053	3.6855192
2.5152901615988825	13.257462	3.6410797
2.5328211611343865	12.912888	3.5934505
2.5503522199603523	12.419127	3.5240781
2.5678833384877024	12.0037775	3.4646468
2.5854145171273712	11.944607	3.4560971
2.6029457562903064	11.8955555	3.4489934
2.620477056387469	11.744485	3.4270227
2.6380084178298326	11.551534	3.3987548
2.655539841028383	11.3371525	3.3670688
2.673071326394119	11.313206	3.3635108
2.6906028743380523	11.328627	3.3658025
2.708134485271211	11.137689	3.3373175
2.7256661596046325	11.077885	3.3283455
2.743197897749369	10.809182	3.2877321
2.760729700116486	10.635521	3.2612147
2.778261567117063	10.284824	3.2069962
2.795793499162193	10.157201	3.1870363
2.8133254966629817	9.976779	3.158604
2.830857560030551	9.874826	3.1424236
2.8483896896760337	9.811251	3.1322916
2.865921886010578	9.740277	3.1209416
2.883454149445347	9.601136	3.09857
2.9009864803915177	9.371974	3.061368
2.91851887926028	9.176216	3.029227
2.9360513464628384	9.110755	3.0184028
2.953583882410413	9.113053	3.0187833
2.9711164875142373	8.972594	2.9954288
2.9886491621855606	8.923523	2.9872267
3.0061819068356455	8.75985	2.9597044
3.023714721875769	8.611716	2.9345727
3.041247607717225	8.492966	2.9142692
3.0587805647713213	8.259217	2.8738854
3.0763135934493806	8.08744	2.8438425
3.0938466941627407	7.9655786	2.8223357
3.1113798673227544	7.9777675	2.8244941
3.1289131133407904	7.931299	2.8162563
3.1464464326282315	7.78219	2.7896576
3.1639798255964786	7.8073363	2.794161
3.1815132926569443	7.859067	2.8034027
3.1990468342210603	7.7986326	2.7926033
3.216580450700272	7.606607	2.7580078
3.2341141425060416	7.4635224	2.7319448
3.251647910049847	7.337879	2.708852
3.2691817537431813	7.1832285	2.6801546
3.286715673997555	7.141439	2.672347
3.3042496712244938	7.046795	2.6545799
3.32178374583554	6.9821506	2.642376
3.339317898242251	6.9383955	2.6340835
3.3568521288562034	6.87438	2.621904
3.3743864380889876	6.805054	2.60865
3.3919208263522127	6.6817183	2.584902
3.4094552940575023	6.562673	2.5617714
3.4269898416164972	6.566995	2.562615
3.444524469440858	6.5729423	2.563775
3.4620591779422587	6.522614	2.5539408
3.479593967532391	6.467296	2.543088
3.4971288386229658	6.362523	2.5224042
3.5146637916257086	6.3718405	2.5242505
3.5321988269523628	6.3729935	2.524479
3.5497339450146903	6.386635	2.5271792
3.5672691462244708	6.415953	2.5329733
3.5848044309934988	6.4850082	2.546568
3.60233979973359	6.476844	2.5449643
3.619875252856575	6.5121794	2.5518973
3.6374107907743034	6.4881053	2.547176
3.6549464138986427	6.5118303	2.5518289
3.6724821226414788	6.4641266	2.5424647
3.690017917414714	6.4170523	2.5331903
3.7075537986302702	6.2819853	2.506389
3.7250897667000857	6.3114104	2.512252
3.7426258220361235	6.457234	2.5411088
3.7601619650503553	6.9199977	2.6305888
3.777698196154779	7.5465856	2.747105
3.7952345157614067	8.613484	2.9348738
3.8127709242822716	9.354555	3.0585217
3.830307422129425	11.635028	3.4110157
3.847844009714936	30.351515	5.509221
3.8653806874508954	97.808205	9.889803
3.882917455749409	97.03272	9.850519
3.900454315022606	96.69625	9.8334255
3.917991265682631	41.28136	6.4250574
3.9355283081416506	10.89114	3.3001728
3.9530654428118495	8.742095	2.9567034
3.970602670105433	7.575112	2.7522922
3.9881399904346244	6.622926	2.5735047
4.005677404211669	6.495229	2.548574
4.023214911848827	6.404792	2.530769
4.0407525137583855	6.502284	2.5499578
4.058290210352644	6.5212126	2.5536666
4.075828002043927	6.481697	2.5459177
4.0933658892445814	6.3493075	2.5197833
4.110903872366966	6.2199883	2.4939904
4.128441951823468	6.205666	2.4911175
4.145980128026488	6.29148	2.5082822
4.163518401388452	6.2898397	2.5079553
4.181056772321807	6.295851	2.5091536
4.1985952412390155	6.239926	2.4979844
4.216133808552567	6.2465906	2.4993181
4.233672474674966	6.322626	2.5144832
4.251211240018741	6.429644	2.5356743
4.268750104996445	6.6991363	2.588269
4.286289070020643	7.647517	2.7654145
4.303828135503928	9.348981	3.0576103
4.3213673018589125	29.568012	5.437648
4.3389065694982305	90.72945	9.525201
4.356445938834537	165.90347	12.880352
4.3739854102805085	171.25377	13.086396
4.391524984248844	172.20544	13.122707
4.409064661152262	136.2345	11.671953
4.426604441403504	96.43788	9.820279
4.444144325415337	75.59764	8.694691
4.461684313600543	21.632147	4.651037
4.47922440637193	22.206194	4.7123446
4.496764604142329	20.577538	4.5362473
4.5143049073245916	18.766142	4.3319907
4.531845316331589	16.76422	4.0944133
4.5493858315762195	13.860416	3.722958
4.566926453471405	11.408674	3.377673
4.584467182430081	9.295748	3.048893
4.602008018865218	8.152426	2.8552454
4.619548963189798	7.455097	2.7304025
4.637090015816834	6.9685316	2.6397977
4.654631177159353	6.706199	2.589633
4.672172447630417	6.522096	2.5538394
4.689713827643102	6.3751807	2.524912
4.7072553176105085	6.078785	2.4655192
4.724796917945764	5.8884964	2.4266224
4.742338629062015	5.7692704	2.4019306
4.759880451372434	5.719659	2.3915808
4.777422385290215	5.6857085	2.3844724
4.794964431228581	5.7719054	2.402479
4.812506589600768	5.747229	2.397338
4.830048860820047	5.684559	2.3842313
4.847591245299709	5.64926	2.3768172
4.8651337434530655	5.621992	2.371074
4.882676355693457	5.584623	2.3631806
4.900219082434242	5.575493	2.3612483
4.917761924088813	5.5411615	2.3539672
4.935304881070575	5.4398413	2.3323467
4.952847953792969	5.398317	2.323428
4.970391142669449	5.39778	2.3233123
4.9879344481135055	5.4060893	2.3251
5.005477870538642	5.362943	2.3158028
5.023021410358394	5.3319855	2.3091092
5.040565067986324	5.274119	2.296545
5.05810884383601	5.277807	2.2973478
5.075652738321066	5.3476872	2.3125067
5.09319675185512	5.384088	2.3203638
5.110740884851836	5.407512	2.3254058
5.128285137724894	5.356353	2.3143795
5.145829510888007	5.337563	2.3103166
5.163374004754908	5.2980967	2.3017595
5.1809186197393595	5.28693	2.2993326
5.198463356255145	5.2730207	2.296306
5.216008214716077	5.288155	2.299599
5.233553195535998	5.339847	2.3108108
5.251098299128764	5.3609085	2.3153636
5.268643525908272	5.3223433	2.3070204
5.286188876288432	5.218887	2.2844882
5.3037343506831895	5.1522164	2.2698495
5.32127994950651	5.122071	2.2631993
5.3388256731723915	5.1041183	2.2592297
5.356371522094851	5.176976	2.275297
5.373917496687938	5.1840067	2.2768414
5.391463597365729	5.2220464	2.2851796
5.40900982454232	5.199236	2.2801833
5.426556178631843	5.1770687	2.2753172
5.444102660048449	5.2040653	2.2812421
5.4616492692063225	5.2258377	2.286009
5.479196006519669	5.2313704	2.287219
5.496742872402727	5.2085166	2.2822175
5.514289867269756	5.1598806	2.271537
5.531836991535049	5.1182237	2.2623491
5.549384245612924	5.1745887	2.2747722
5.566931629917724	5.161834	2.271967
5.584479144863822	5.1469483	2.2686887
5.6020267908656205	5.1702433	2.2738168
5.619574568337545	5.189795	2.2781122
5.637122477694054	5.2022696	2.2808485
5.654670519349629	5.188629	2.2778563
5.672218693718784	5.1907125	2.2783134
5.689767001216059	5.1563263	2.2707546
5.707315442256021	5.1812644	2.2762392
5.724864017253266	5.1531177	2.270048
5.7424127266224225	5.1682067	2.273369
5.75996157077814	5.1168127	2.2620373
5.777510550135105	5.1625624	2.2721274
5.795059665108022	5.1752315	2.2749135
5.812608916111639	5.3005934	2.3023016
5.830158303560715	5.415773	2.3271813
5.847707827870055	5.429691	2.3301697
5.86525748945448	5.4980865	2.3447998
5.8828072887288485	5.5648594	2.3589954
5.900357226108044	5.5263076	2.35081
5.917907302006979	5.623879	2.371472
5.9354575168406	6.2782426	2.5056422
5.9530078710238765	6.963921	2.6389241
5.970558364971812	7.5150766	2.741364
5.988108999099438	7.80339	2.793455
6.005659773821818	8.3459215	2.8889308
6.023210689554039	8.069668	2.8407161
6.040761746711227	8.528805	2.9204118
6.058312945708531	7.860664	2.8036876
6.075864286961132	7.407717	2.721712
6.093415770884244	6.687668	2.5860527
6.1109673978931065	6.1775436	2.4854665
6.128519168402993	5.5764375	2.3614483
6.146071082829204	5.4209175	2.3282864
6.163623141587075	5.3086586	2.3040526
6.181175345091969	5.2621737	2.293943
6.198727693759281	5.2528253	2.2919042
6.216280188004435	5.23863	2.2888052
6.233832828242885	5.181704	2.2763357
6.251385614890126	5.166694	2.2730362
6.268938548361669	5.1203785	2.2628253
6.286491629073067	5.0644336	2.2504296
6.304044857439898	5.085444	2.2550929
6.321598233877777	5.044946	2.2460957
6.339151758802344	5.0635962	2.2502437
6.356705432629277	5.014242	2.2392504
6.37425925577428	4.9346013	2.2213962
6.391813228653095	4.899626	2.2135098
6.409367351681486	4.8746843	2.2078688
6.426921625275259	4.931139	2.2206168
6.44447604985025	4.9725323	2.2299175
6.46203062582232	5.0343466	2.243735
6.47958535360737	5.0486217	2.246914
6.497140233621328	5.020648	2.2406802
6.514695266280161	5.0092993	2.2381463
6.532250451999859	4.9924583	2.234381
6.549805791196454	4.99589	2.235149
6.567361284286002	4.993909	2.2347054
6.584916931684597	5.01943	2.2404084
6.602472733808367	4.9624457	2.2276547
6.6200286910734665	4.981576	2.2319443
6.637584803896092	5.047492	2.2466624
6.655141072692462	5.1010942	2.2585602
6.672697497878842	5.125465	2.263949
6.690254079871514	5.126117	2.264093
6.707810819086808	5.0622234	2.2499385
6.725367715941078	4.976495	2.2308059
6.742924770850719	4.9407225	2.2227736
6.760481984232151	4.941029	2.2228425
6.778039356501836	4.9328094	2.2209928
6.795596888076266	4.950277	2.2249217
6.813154579371963	4.9440207	2.2235155
6.830712430805492	4.9528666	2.2255037
6.84827044279344	5.029387	2.2426295
6.865828615752445	4.9841285	2.2325163
6.883386950099159	5.0215836	2.240889
6.900945446250287	4.9865446	2.2330573
6.918504104622553	4.9775577	2.231044
6.936062925632727	5.0334177	2.243528
6.953621909697607	5.1070495	2.2598782
6.971181057234028	5.1438293	2.268001
6.988740368658859	5.136985	2.2664917
7.006299844389007	5.1415	2.2674875
7.023859484841407	5.2524986	2.291833
7.041419290433036	5.338595	2.31054
7.058979261580902	5.458666	2.3363788
7.0765393987020495	5.6833844	2.383985
7.094099702213559	6.0616007	2.4620318
7.111660172532549	6.4428463	2.5382762
7.129220810076164	6.7842274	2.604655
7.146781615261595	7.3551264	2.7120335
7.16434258850606	7.5814915	2.7534509
7.181903730226821	8.021084	2.832152
7.1994650408411704	8.117094	2.8490515
7.217026520766437	8.230798	2.8689368
7.234588170419983	8.504888	2.9163141
7.252149990219215	8.532638	2.921068
7.269711980581568	8.464442	2.9093714
7.2872741419245175	8.230339	2.8688567
7.304836474665574	7.7967553	2.792267
7.322398979222286	7.4343505	2.7266006
7.339961656012233	7.207613	2.6846998
7.357524505453039	6.8474283	2.616759
7.375087527962357	6.6275973	2.574412
7.392650723957886	6.3790803	2.525684
7.410214093857353	6.076012	2.4649568
7.427777638078528	5.8118873	2.4107857
7.445341357039213	5.574582	2.3610554
7.4629052511572525	5.379282	2.3193278
7.480469320850524	5.3293753	2.308544
7.498033566536948	5.316429	2.3057382
7.5155979886344735	5.2789493	2.2975965
7.5331625875610975	5.2195544	2.2846344
7.550727363734844	5.165655	2.2728078
7.568292317573788	5.1366763	2.2664237
7.585857449496025	5.189722	2.2780962
7.603422759919705	5.2104325	2.2826371
7.620988249263007	5.2709785	2.2958612
7.638553917944147	5.3262525	2.3078675
7.656119766381391	5.330864	2.3088663
7.673685794993023	5.3130937	2.3050148
7.691252004197388	5.23937	2.288967
7.70881839441285	5.1933703	2.2788968
7.726384966057826	5.2045035	2.2813382
7.743951719550762	5.2332573	2.2876313
7.761518655310149	5.2401457	2.2891364
7.779085773754511	5.263144	2.2941544
7.796653075302419	5.256618	2.2927315
7.814220560372475	5.309224	2.3041754
7.831788229383323	5.300166	2.302209
7.8493560827536495	5.287816	2.2995253
7.866924120902174	5.2804856	2.2979307
7.884492344247663	5.3008633	2.3023603
7.9020607532089135	5.323448	2.3072598
7.919629348204771	5.317278	2.3059223
7.937198129654115	5.3712997	2.3176064
7.954767097975865	5.358804	2.3149092
7.972336253588986	5.3345428	2.3096628
7.989905596912472	5.3523865	2.3135226
8.007475128365371	5.472863	2.339415
8.025044848366756	5.585037	2.3632684
8.042614757335754	5.766847	2.401426
8.060184855691523	5.7379217	2.395396
8.07775514385327	5.795234	2.4073293
8.095325622240228	5.7455006	2.3969774
8.112896291271687	5.790067	2.406256
8.130467151366968	5.8743873	2.4237134
8.148038202945436	5.985752	2.4465797
8.165609446426497	6.000092	2.4495084
8.183180882229594	6.0114455	2.451825
8.200752510774217	5.9496436	2.4391892
8.218324332479893	5.9110384	2.4312627
8.235896347766193	5.918248	2.432745
8.253468557052724	5.9609294	2.4415014
8.27104096075914	6.031107	2.4558313
8.288613559305137	6.061832	2.4620788
8.306186353110448	6.0704083	2.46382
8.32375934259485	6.167617	2.4834688
8.341332528178162	6.214623	2.4929144
8.358905910280246	6.2432957	2.4986587
8.376479489321003	6.166716	2.4832873
8.394053265720377	6.182178	2.4863987
8.411627239898356	6.2390485	2.4978087
8.42920141227497	6.3218474	2.5143285
8.44677578327029	6.377195	2.5253108
8.464350353304427	6.3063197	2.5112386
8.48192512279754	6.2462234	2.4992447
8.499500092169827	6.1948886	2.4889534
8.51707526184153	6.1266193	2.475201
8.534650632232934	6.072489	2.464242
8.552226203764365	6.088756	2.4675405
8.569801976856192	6.109136	2.4716666
8.587377951928834	6.161397	2.4822161
8.60495412940274	6.2714195	2.5042803
8.622530509698416	6.373499	2.524579
8.6401070932364	6.5629015	2.561816
8.657683880437283	6.699172	2.588276
8.675260871721695	6.7698975	2.6019027
8.692838067510303	6.9045906	2.6276588
8.710415468223834	7.072548	2.6594262
8.727993074283043	7.233752	2.6895635
8.745570886108737	7.1347485	2.671095
8.763148904121765	7.1493573	2.6738281
8.78072712874302	7.1378684	2.671679
8.798305560393441	7.4310355	2.7259927
8.815884199494006	7.6020527	2.7571821
8.833463046465745	7.7454863	2.7830713
8.851042101729728	7.869835	2.8053226
8.86862136570707	8.096711	2.845472
8.886200838818924	8.233609	2.8694267
8.903780521486505	8.245745	2.8715405
8.921360414131055	8.361604	2.8916438
8.938940517173874	8.5610895	2.9259338
8.956520831036297	8.809046	2.9680037
8.97410135613971	9.155393	3.0257878
8.99168209290554	9.335296	3.0553715
9.009263041755265	9.569884	3.093523
9.026844203110405	9.80815	3.1317966
9.044425577392525	9.927596	3.1508088
9.062007165023239	9.955795	3.1552806
9.079588966424197	10.124506	3.181903
9.097170982017108	10.289404	3.20771
9.11475321222372	11.402527	3.3767629
9.132335657465825	12.356084	3.5151222
9.149918318165264	12.400014	3.5213654
9.167501194743924	12.836059	3.5827446
9.18508428762374	12.471944	3.531564
9.202667597226693	12.518446	3.5381415
9.220251123974803	12.285919	3.5051277
9.237834868290143	12.040749	3.469978
9.255418830594836	11.837892	3.4406238
9.273003011311046	11.212312	3.348479
9.290587410860985	10.926745	3.3055627
9.308172029666911	10.274728	3.2054217
9.32575686815113	9.983968	3.1597416
9.343341926735997	8.721142	2.953158
9.360927205843916	8.482521	2.9124768
9.378512705897327	8.292492	2.8796687
9.396098427318728	8.167959	2.8579643
9.413684370530664	8.083536	2.843156
9.431270535955722	7.960273	2.8213956
9.448856924016539	7.832745	2.7987041
9.466443535135806	7.7238984	2.7791903
9.484030369736251	7.705575	2.7758918
9.501617428240658	7.8285823	2.7979603
9.519204711071852	7.8720145	2.805711
9.536792218652714	7.8996234	2.810627
9.55437995140617	7.914805	2.8133264
9.571967909755191	7.8617287	2.8038774
9.589556094122802	7.852305	2.8021965
9.60714450493207	7.904092	2.8114216
9.624733142606116	8.013061	2.830735
9.642322007568108	8.086145	2.8436148
9.659911100241267	8.074822	2.8416233
9.677500421048851	8.085761	2.8435473
9.695089970414175	8.106741	2.847234
9.712679748760609	8.17995	2.8600612
9.730269756511557	8.220707	2.8671775
9.747859994090492	8.18861	2.8615746
9.765450461920915	8.230031	2.868803
9.78304116042639	8.251554	2.8725517
9.800632090030527	8.266562	2.875163
9.81822325115699	8.299928	2.8809595
9.835814644229481	8.30412	2.881687
9.853406269671762	8.322691	2.8849075
9.870998127907646	8.293404	2.879827
9.888590219360985	8.302332	2.8813767
9.906182544455698	8.293561	2.8798544
9.923775103615734	8.291138	2.8794336
9.941367897265108	8.19477	2.8626509
9.958960925827878	8.228907	2.868607
9.97655418972816	8.331694	2.8864672
9.994147689390106	8.356803	2.8908136
10.011741425237934	8.328704	2.8859494
10.029335397695904	8.312556	2.8831503
10.04692960718833	8.326567	2.885579
10.06452405413958	8.324252	2.885178
10.082118738974064	8.310746	2.8828366
10.099713662116246	8.29552	2.8801944
10.117308823990651	8.262174	2.8743997
10.134904225021844	8.211378	2.8655503
10.152499865634445	8.185464	2.8610249
10.170095746253125	8.188436	2.8615444
10.18769186730261	8.196953	2.863032
10.205288229207675	8.196248	2.862909
10.222884832393145	8.198629	2.8633249
10.2404816772839	8.151385	2.8550632
10.258078764304868	8.118074	2.8492234
10.275676093881035	8.070004	2.8407753
10.293273666437438	8.133633	2.8519523
10.310871482399158	8.208722	2.8650868
10.32846954219134	8.167954	2.8579633
10.346067846239173	8.146893	2.8542762
10.363666394967908	8.081131	2.842733
10.38126518880283	8.099496	2.8459613
10.398864228169298	8.126875	2.8507674
10.416463513492713	8.176392	2.8594391
10.434063045198531	8.1701	2.8583388
10.451662823712262	8.11253	2.8482504
10.469262849459467	8.11337	2.8483977
10.486863122865758	8.104681	2.846872
10.504463644356806	8.10707	2.8472917
10.522064414358338	8.11649	2.8489454
10.539665433296118	8.104993	2.846927
10.557266701595987	8.059073	2.8388507
10.574868219683818	7.9251747	2.8151686
10.592469987985552	7.7667675	2.7868922
10.610072006927185	7.5421042	2.7462893
10.627674276934751	7.4303346	2.725864
10.64527679843435	7.3115087	2.7039802
10.662879571852143	7.2628794	2.694973
10.680482597614331	7.1630344	2.6763847
10.698085876147173	7.112497	2.6669264
10.715689407876988	7.077338	2.6603267
10.733293193230146	6.9853683	2.6429846
10.750897232633072	6.820387	2.611587
10.76850152651225	6.686374	2.5858023
10.786106075294207	6.556093	2.5604868
10.803710879405534	6.4897666	2.547502
10.821315939272877	6.402105	2.5302382
10.83892125532294	6.318878	2.513738
10.856526827982472	6.2282867	2.4956536
10.874132657678285	6.1626196	2.4824624
10.891738744837243	6.1742744	2.4848087
10.909345089886271	6.1376786	2.477434
10.926951693252343	6.216437	2.4932783
10.944558555362494	6.152215	2.480366
10.96216567664381	6.033856	2.4563909
10.979773057523436	5.91692	2.432472
10.997380698428573	5.8276024	2.4140427
11.014988599786477	5.804556	2.4092646
11.032596762024461	5.735136	2.3948145
11.050205185569892	5.6480794	2.3765688
11.067813870850198	5.5919166	2.3647234
11.085422818292859	5.5638347	2.3587782
11.10303202832541	5.434499	2.331201
11.120641501375454	5.33508	2.3097792
11.138251237870636	5.233737	2.2877362
11.155861238238671	5.2353907	2.2880976
11.173471502907317	5.255092	2.2923987
11.191082032304402	5.2573094	2.2928824
11.208692826857805	5.257115	2.29284
11.226303886995465	5.170517	2.2738771
11.243915213145371	5.0595975	2.2493548
11.261526805735578	4.9872866	2.2332234
11.279138665194196	4.9552836	2.2260466
11.296750791949393	4.8981338	2.2131727
11.314363186429393	4.830338	2.197803
11.331975849062479	4.7551184	2.1806233
11.34958878027699	4.7441664	2.1781108
11.36720198050133	4.671617	2.1613925
11.384815450163948	4.60245	2.145332
11.402429189693366	4.5142	2.1246648
11.420043199518153	4.4467854	2.1087403
11.437657480066942	63.412952	7.963225
11.455272031768422	85.12954	9.226567
11.472886855051353	107.53406	10.369863
11.490501950344528	99.118416	9.955823
11.508117318076819	84.50751	9.192797
11.52573295867715	45.916676	6.7761846
11.543348872574514	4.2156787	2.0532117
11.560965060197946	4.143119	2.0354652
11.57858152197655	4.088519	2.0220087
11.59619825833949	4.042893	2.0106947
11.613815269715985	4.037192	2.0092764
11.631432556535323	38.550056	6.208869
11.649050119226837	83.08543	9.115121
11.666667958219929	93.455315	9.667229
11.68428607394406	107.65853	10.375863
11.701904466828756	82.431366	9.079172
11.719523137303586	65.28783	8.080089
11.737142085798196	4.5582895	2.135015
11.754761312742286	3.6972268	1.9228173
11.772380818565619	3.6227262	1.9033461
11.790000603698015	3.5769062	1.8912711
11.80762066856935	3.559889	1.8867668
11.825241013609572	3.537909	1.880933
11.842861639248683	3.5088456	1.8731912
11.860482545916748	3.5137703	1.8745054
11.878103734043883	3.5134075	1.8744086
11.895725204060282	3.4888601	1.8678491
11.91334695639619	3.4230428	1.8501467
11.930968991481919	3.3747709	1.837055
11.948591309747824	3.366144	1.8347054
11.966213911624347	3.3693345	1.8355747
11.98383679754198	3.329698	1.824746
12.001459967931268	3.289367	1.8136612
12.019083423222835	3.2731276	1.8091787
12.036707163847352	3.2636425	1.8065554
12.05433119023556	3.2302558	1.7972913
12.071955502818259	3.2517345	1.8032566
12.089580102026313	3.2527864	1.8035483
12.107204988290643	3.2617188	1.8060229
12.12483016204224	3.205023	1.7902578
12.142455623712152	3.1781285	1.7827306
12.16008137373149	3.1782358	1.7827607
12.177707412531431	3.1524317	1.7755089
12.19533374054321	3.1146731	1.7648437
12.212960358198126	3.0441866	1.7447598
12.230587265927545	3.0369666	1.7426895
12.248214464162889	3.0335467	1.7417079
12.265841953335649	3.0023437	1.7327273
12.283469733877375	2.973984	1.7245243
12.301097806219685	2.930934	1.711997
12.31872617079425	2.9317896	1.712247
12.336354828032825	2.9031947	1.7038764
12.353983778367205	2.9019423	1.7035089
12.371613022229262	2.8928654	1.7008426
12.389242560050928	2.9227526	1.7096059
12.406872392264201	2.922161	1.709433
12.424502519301143	2.897363	1.7021642
12.442132941593874	2.8457325	1.68693
12.459763659574586	2.8606956	1.691359
12.477394673675532	2.8827527	1.697867
12.49502598432903	2.9145775	1.7072134
12.51265759196746	2.8663018	1.6930156
12.530289497023267	2.8265533	1.6812357
12.547921699928967	2.7944248	1.6716533
12.565554201117134	2.7896664	1.6702294
12.583187001020404	2.7951994	1.671885
12.600820100071486	2.771872	1.664894
12.618453498703152	2.7610884	1.6616523
12.636087197348235	2.7796805	1.6672374
12.65372119643964	2.7972722	1.6725048
12.671355496410326	2.811008	1.676606
12.68899009769333	2.8555691	1.6898429
12.706625000721749	2.9193711	1.7086167
12.724260205928752	2.9766226	1.7252891
12.741895713747551	2.9631097	1.7213686
12.759531524611454	2.9632676	1.7214144
12.777167638953818	2.9415755	1.7151022
12.794804057208072	2.9581459	1.7199261
12.812440779807702	3.0658035	1.7509437
12.830077807186271	3.2359548	1.7988759
12.847715139777405	3.3209348	1.8223432
12.865352778014795	3.4986978	1.8704807
12.882990722332197	3.577213	1.8913522
12.90062897316344	3.608353	1.8995665
12.918267530942412	3.713489	1.9270415
12.935906396103071	3.5734084	1.890346
12.953545569079449	3.7840219	1.9452562
12.971185050305628	3.5823696	1.8927149
12.988824840215775	3.6009724	1.8976228
13.006464939244115	3.5905237	1.8948678
13.024105347824943	3.458475	1.8596976
13.041746066392617	3.523451	1.8770858
13.05938709538157	3.3444223	1.8287762
13.077028435226296	3.3845515	1.8397151
13.094670086361363	3.3239846	1.8231798
13.112312049221401	3.210443	1.7917709
13.129954324241112	3.0766938	1.7540507
13.147596911855258	2.8718598	1.6946563
13.165239812498685	2.8256125	1.6809559
13.182883026606293	2.788271	1.6698116
13.200526554613058	2.732911	1.6531519
13.218170396954017	2.7200212	1.6492487
13.235814554064284	2.684778	1.6385292
13.253459026379034	2.6992583	1.642942
13.271103814333523	2.7201438	1.6492858
13.288748918363058	2.7643714	1.6626399
13.306394338903031	2.735055	1.6538001
13.32404007638889	2.6883082	1.6396061
13.341686131256164	2.7080452	1.6456139
13.359332503940449	2.7516766	1.6588178
13.376979194877402	2.7466242	1.6572943
13.394626204502751	2.7490237	1.658018
13.412273533252307	2.7506597	1.6585113
13.429921181561937	2.7128065	1.6470599
13.447569149867581	2.7062292	1.6450621
13.465217438605247	2.672111	1.6346593
13.482866048211022	2.6525824	1.6286751
13.500514979121052	2.6699967	1.6340125
13.518164231771568	2.6969974	1.6422538
13.535813806598844	2.6918466	1.6406848
13.553463704039254	2.678975	1.6367575
13.571113924529229	2.6385572	1.6243637
13.588764468505275	2.6353528	1.623377
13.606415336403956	2.681461	1.6375167
13.624066528661917	2.732219	1.6529425
13.641718045715882	2.821054	1.6795994
13.659369888002635	2.871086	1.6944278
13.67702205595903	2.9218557	1.7093437
13.694674550021993	2.9788077	1.7259222
13.712327370628532	3.0151665	1.7364235
13.729980518215713	3.1080172	1.762957
13.747633993220681	3.1862066	1.7849948
13.765287796080647	3.2541547	1.8039275
13.7829419272329	3.3393466	1.8273879
13.800596387114801	3.3884854	1.840784
13.818251176163775	3.3801239	1.8385113
13.835906294817324	3.389105	1.8409523
13.853561743513023	3.3537002	1.8313111
13.871217522688525	3.3999102	1.8438846
13.888873632781538	3.4487119	1.8570708
13.906530074229858	3.5016088	1.8712586
13.92418684747135	3.5179627	1.8756232
13.941843952943948	3.5004444	1.8709475
13.959501391085665	3.4969134	1.8700036
13.977159162334578	3.4553044	1.8588449
13.994817267128846	3.441712	1.8551852
14.012475705906693	3.348509	1.8298932
14.030134479106424	3.2728128	1.8090917
14.047793587166414	3.2271738	1.7964337
14.065453030525108	3.151564	1.7752645
14.083112809621026	3.0659633	1.7509892
14.100772924892766	2.9764645	1.7252433
14.118433376778997	2.9479287	1.7169533
14.136094165718458	2.8764513	1.6960104
14.153755292149969	2.8279111	1.6816394
14.171416756512416	2.7883668	1.6698403
14.189078559244768	2.715248	1.647801
14.20674070078606	2.6238635	1.6198344
14.224403181575408	2.5539029	1.5980935
14.242066002051999	2.519888	1.5874155
14.259729162655093	2.5077932	1.5836014
14.277392663824022	2.5060556	1.5830526
14.295056505998208	2.4544547	1.56667
14.312720689617128	2.41854	1.5551655
14.330385215120348	2.3788269	1.5423446
14.348050082947497	2.3872294	1.5450661
14.3657152935383	2.3934293	1.5470712
14.383380847332528	2.4179296	1.5549693
14.401046744770051	2.4048092	1.5507448
14.418712986290798	2.407506	1.551614
14.436379572334793	2.375983	1.5414224
14.454046503342123	2.363704	1.5374342
14.471713779752946	2.3399198	1.5296797
14.489381402007504	2.3737462	1.5406966
14.507049370546113	2.4017656	1.5497631
14.524717685809168	2.4444804	1.5634835
14.542386348237134	2.438602	1.5616024
14.560055358270553	2.413352	1.5534967
14.577724716350051	2.4432526	1.5630907
14.595394422916325	2.4397411	1.561967
14.61306447841015	2.4868453	1.5769734
14.63073488327237	2.5020483	1.5817864
14.648405637943917	2.5124505	1.5850711
14.6660767428658	2.4767747	1.5737772
14.683748198479094	2.4934888	1.5790784
14.701420005224954	2.5663197	1.6019737
14.719092163544628	2.6543455	1.6292162
14.73676467387942	2.6952744	1.6417291
14.754437536670727	2.7330985	1.6532085
14.772110752360014	2.6922503	1.6408077
14.78978432138882	2.6389966	1.6244988
14.807458244198777	2.6236148	1.6197577
14.82513252123159	2.6301317	1.6217681
14.842807152929028	2.6608896	1.6312233
14.860482139732962	2.6164615	1.617548
14.87815748208531	2.6243875	1.6199962
14.8958331804281	2.6866007	1.6390853
14.91350923520342	2.71342	1.6472461
14.931185646853438	2.72239	1.6499666
14.948862415820408	2.667836	1.6333511
14.966539542546656	2.6742816	1.635323
14.98421702747459	2.6580882	1.6303644
15.001894871046696	2.6884065	1.639636
15.019573073705542	2.6811914	1.6374344
15.037251635893766	2.6916564	1.6406268
15.054930558054092	2.6970663	1.6422747
15.072609840629323	2.7570944	1.6604501
15.090289484062351	2.8649418	1.692614
15.107969488796124	3.1700997	1.7804774
15.125649855273691	3.5831718	1.8929268
15.14333058393817	4.1160145	2.0287962
15.161011675232768	5.0406036	2.2451289
15.17869312960076	6.376471	2.5251675
15.196374947485506	8.194677	2.8626347
15.214057129330447	11.225669	3.350473
15.231739675579114	15.858533	3.9822774
15.249422586675102	20.976048	4.5799613
15.267105863062092	24.18067	4.9173846
15.284789505183847	24.559347	4.955739
15.302473513484218	22.52481	4.7460313
15.320157888407127	18.953629	4.3535767
15.337842630396578	14.760638	3.8419576
15.355527739896656	11.453198	3.3842576
15.37321321735153	8.909129	2.9848166
15.39089906320545	6.550945	2.5594814
15.408585277902748	4.919618	2.2180212
15.42627186188783	3.7834177	1.9451009
15.443958815605198	3.223584	1.7954342
15.461646139499424	2.9069107	1.7049664
15.479333834015168	2.752793	1.6591543
15.497021899597165	2.6929421	1.6410186
15.514710336690234	2.6588504	1.6305982
15.53239914573928	2.620658	1.6188446
15.550088327189297	2.571006	1.6034358
15.567777881485336	2.518544	1.5869921
15.58546780907256	2.489134	1.577699
15.6031581103962	2.458495	1.5679588
15.620848785901568	2.4420671	1.5627115
15.638539836034063	2.4630857	1.5694221
15.656231261239173	2.442559	1.5628688
15.673923061962451	2.4231927	1.5566608
15.691615238649552	2.4109678	1.5527291
15.709307791746202	2.411934	1.5530403
15.727000721698221	2.4301348	1.5588889
15.744694028951498	2.4217825	1.5562078
15.76238771395202	2.4064221	1.5512646
15.780081777145844	2.3502688	1.5330586
15.797776218979125	2.35203	1.533633
15.815471039898094	2.326951	1.5254347
15.833166240349064	2.3472123	1.5320615
15.850861820778437	2.3778675	1.5420336
15.868557781632699	2.4277616	1.5581275
15.886254123358412	2.425947	1.5575452
15.903950846402232	2.4056852	1.5510272
15.921647951210897	2.3831744	1.5437534
15.939345438231225	2.3929172	1.5469056
15.957043307910133	2.3902843	1.5460545
15.974741560694602	2.3889291	1.5456161
15.992440197031714	2.3994148	1.5490044
16.01013921736862	2.383808	1.5439585
16.02783862215259	2.392662	1.5468233
16.045538411830933	2.3790367	1.5424126
16.06323858685107	2.412213	1.5531301
16.080939147660512	2.4036188	1.5503609
16.09864009470684	2.3985913	1.5487386
16.11634142843774	2.394947	1.5475616
16.134043149300954	2.422501	1.5564386
16.15174525774433	2.4334478	1.5599512
16.169447754215817	2.4603405	1.5685472
16.18715063916342	2.4711518	1.5719898
16.204853913035244	2.4644237	1.5698483
16.222557576279478	2.438529	1.561579
16.240261629344403	22.407118	4.733616
16.257966072678386	42.954277	6.5539513
16.275670906729868	38.10682	6.1730723
16.293376131947387	2.5550876	1.5984641
16.31108174877957	2.5618095	1.6005654
16.328787757675133	2.553543	1.597981
16.34649415908287	2.5497932	1.5968072
16.364200953451657	2.572722	1.6039706
16.38190814123048	2.6068158	1.6145637
16.39961572286839	2.6494696	1.6277192
16.41732369881455	2.6499085	1.627854
16.43503206951817	2.672154	1.6346724
16.45274083542859	2.723693	1.6503614
16.47044999699522	2.808161	1.6757568
16.488159554667558	2.898969	1.7026359
16.505869508895184	2.91003	1.705881
16.523579860127786	2.9209259	1.7090716
16.541290608815117	2.972496	1.7240928
16.559001755407035	3.0536928	1.7474818
16.57671330035348	3.095503	1.7594042
16.59442524410448	3.1580505	1.7770904
16.61213758711015	3.249066	1.8025166
16.629850329820705	3.305902	1.8182139
16.647563472686436	3.383443	1.8394138
16.665277016157724	3.4003477	1.8440032
16.682990960685053	3.4459527	1.8563278
16.70070530671898	3.471341	1.8631535
16.718420054710155	3.501879	1.8713309
16.736135205109335	3.5492518	1.8839458
16.753850758367335	3.6266835	1.9043853
16.771566714935087	3.6848345	1.9195923
16.789283075263597	3.7080781	1.9256371
16.80699983980398	3.7429006	1.9346577
16.82471700900741	3.809232	1.9517254
16.84243458332518	3.8812761	1.9700955
16.860152563208665	3.9992723	1.9998181
16.87787094910932	4.1018853	2.0253112
16.89558974147871	4.1239114	2.0307417
16.913308940768466	4.0546117	2.0136065
16.931028547430333	4.0994105	2.0247002
16.94874856191613	4.1991987	2.0491946
16.966468984677785	4.339824	2.0832245
16.98418981616729	4.415503	2.1013098
17.00191105683676	4.493887	2.119879
17.019632707138374	4.4939923	2.1199038
17.03735476752442	4.459076	2.1116524
17.05507723844728	4.497156	2.12065
17.072800120359403	4.539114	2.1305196
17.090523413713353	4.6308684	2.1519454
17.108247118961785	4.692056	2.1661155
17.125971236557437	4.752134	2.179939
17.143695766953133	4.736213	2.1762843
17.161420710601806	4.7142925	2.1712422
17.179146067956477	4.736062	2.1762495
17.19687183947025	4.709575	2.1701555
17.21459802559634	4.6726546	2.1616323
17.232324626788028	4.6663704	2.1601784
17.25005164349871	4.6565638	2.1579072
17.267779076181863	4.647375	2.1557772
17.285506925291074	4.6191273	2.1492155
17.30323519127999	4.612556	2.1476862
17.320963874602384	4.551229	2.1333609
17.33869297571211	4.6245337	2.1504729
17.356422495063114	4.6324906	2.152322
17.37415243310944	4.665711	2.1600256
17.391882790305218	4.6058264	2.1461189
17.40961356710468	4.553201	2.1338232
17.42734476396215	4.5238194	2.1269271
17.445076381332044	4.499157	2.1211216
17.462808419668868	4.548236	2.1326594
17.48054087942723	4.6810393	2.163571
17.498273761061835	4.980786	2.2317674
17.51600706502747	5.426372	2.3294575
17.533740791779024	6.13728	2.4773533
17.551474941771485	7.54582	2.7469656
17.56920951545993	8.687402	2.94744
17.586944513299528	10.852026	3.2942414
17.60467993574556	12.57472	3.5460851
17.622415783253373	14.294719	3.7808356
17.64015205627843	15.779091	3.9722903
17.657888755276293	16.888493	4.109561
17.675625880702604	17.357378	4.1662188
17.69336343301311	17.07598	4.132309
17.71110141266366	16.332851	4.0413923
17.728839820110178	15.452108	3.930917
17.746578655808705	14.54593	3.8139126
17.764317920215372	13.045908	3.611912
17.7820576137864	11.60793	3.4070413
17.79979773697811	9.576544	3.0945992
17.81753829024692	7.639512	2.7639668
17.835279274049356	5.874843	2.4238076
17.85302068884201	4.8084397	2.1928155
17.870762535081607	4.1482525	2.036726
17.888504813224934	3.8602724	1.9647576
17.90624752372891	3.7199056	1.9287057
17.923990667050536	3.6274126	1.9045768
17.941734243646895	3.562651	1.8874986
17.959478253975185	3.4913743	1.8685219
17.9772226984927	3.4684474	1.8623768
17.994967577656833	3.4366798	1.8538284
18.01271289192506	3.4316983	1.8524843
18.030458641754965	3.3813608	1.8388476
18.04820482760425	3.3497748	1.830239
18.06595144993067	3.3411603	1.8278841
18.083698509192125	3.3349822	1.8261933
18.101446005846576	3.2883134	1.8133707
18.119193940352105	3.2379484	1.79943
18.136942313166887	3.2257426	1.7960353
18.1546911247492	3.2506747	1.8029628
18.1724403755574	3.2551837	1.8042128
18.19019006604997	3.2152297	1.7931062
18.207940196685467	3.1752934	1.7819353
18.225690767922575	3.11354	1.7645226
18.243441780220046	3.086587	1.7568685
18.261193234036764	3.0868227	1.7569356
18.278945129831676	3.1083481	1.7630508
18.29669746806386	3.0725362	1.7528652
18.314450249192483	3.0516946	1.74691
18.3322034736768	3.0248475	1.7392088
18.349957141976184	3.0276616	1.7400177
18.3677112545501	3.029248	1.7404735
18.385465811858108	3.0545225	1.7477193
18.403220814359884	3.0587184	1.7489192
18.420976262515172	3.084695	1.75633
18.43873215678387	3.1306136	1.769354
18.456488497625923	3.1993048	1.78866
18.474245285501407	3.275848	1.8099303
18.492002520870486	3.3610656	1.833321
18.50976020419343	3.4013593	1.8442775
18.527518335930615	3.6707509	1.9159204
18.545276916542516	4.2203255	2.054343
18.563035946489688	4.3764496	2.0919967
18.580795426232832	4.7769184	2.1856163
18.598555356232698	4.6655917	2.1599982
18.616315736950185	4.974419	2.2303405
18.63407656884626	4.6325297	2.152331
18.65183785238201	4.8182454	2.1950502
18.669599588018617	4.653058	2.1570947
18.68736177621737	4.661477	2.1590455
18.705124417439652	4.6418357	2.154492
18.72288751214696	4.430998	2.1049936
18.740651060800886	4.547445	2.132474
18.758415063863115	4.304806	2.0748026
18.77617952179546	4.4879885	2.1184874
18.793944435059814	4.217131	2.0535655
18.811709804118184	4.210312	2.0519044
18.829475629432675	4.1698704	2.042026
18.8472419114655	3.9804742	1.9951125
18.86500865067897	4.068804	2.0171275
18.88277584753551	3.7544672	1.9376447
18.90054350249763	3.7950826	1.9480971
18.918311616027957	3.5161738	1.8751464
18.936080188589226	3.375837	1.8373451
18.953849220644265	3.048707	1.7460546
18.971618712656007	2.8837538	1.6981618
18.9893886650875	2.8617287	1.6916645
19.007159078401887	8.042683	2.8359623
19.024929953062408	32.92157	5.737732
19.042701289532435	32.854946	5.7319236
19.060473088275405	25.351395	5.035017
19.07824534975489	2.5965178	1.6113714
19.096018074434568	2.5772128	1.60537
19.113791262778197	2.5586658	1.599583
19.13156491524966	2.5666296	1.6020705
19.149339032312945	2.5707774	1.6033643
19.167113614432136	2.605007	1.6140034
19.184888662071433	2.6029556	1.6133678
19.202664175695123	2.576601	1.6051794
19.220440155767623	2.5458696	1.5955782
19.238216602753447	2.5372634	1.5928789
19.2559935171172	2.539101	1.5934557
19.27377089932361	2.5115542	1.5847884
19.291548749837514	2.5042026	1.5824672
19.309327069123835	2.5040987	1.5824344
19.32710585764763	2.4703133	1.571723
19.344885115874032	2.4650903	1.5700606
19.362664844268313	2.4477253	1.5645208
19.380445043295822	2.4406347	1.5622531
19.39822571342203	2.4646285	1.5699135
19.41600685511252	2.5088687	1.5839409
19.43378846883297	2.5081275	1.5837069
19.451570555049173	2.509323	1.5840843
19.469353114227037	2.5216794	1.5879797
19.48713614683254	2.5244398	1.5888486
19.50491965333182	2.5060606	1.5830542
19.52270363419109	2.4766011	1.573722
19.540488089876686	2.4875038	1.5771822
19.55827302085503	2.494342	1.5793487
19.576058427592674	2.4876902	1.5772413
19.593844310556282	2.4830942	1.5757837
19.611630670212598	2.4685955	1.5711765
19.629417507028506	2.4596531	1.5683281
19.64720482147098	2.469108	1.5713396
19.6649926140071	2.4985855	1.5806915
19.682780885104084	2.4939256	1.5792167
19.70056963522921	2.5028985	1.5820551
19.718358864849908	2.4980798	1.5805315
19.7361485744337	2.5428374	1.5946276
19.753938764448215	2.5296323	1.5904818
19.771729435361202	2.5341103	1.5918889
19.789520587640506	2.5106246	1.5844951
19.807312221754092	2.5054386	1.5828577
19.825104338170043	2.443392	1.5631353
19.842896937356517	2.4225316	1.5564483
19.860690019781824	2.4587142	1.5680288
19.87848358591436	2.5247574	1.5889485
19.896277636222635	2.521202	1.5878294
19.914072171175278	2.4930656	1.5789444
19.931867191241015	2.4851654	1.5764407
19.94966269688869	2.458163	1.567853
19.967458688587264	2.4519858	1.5658818
19.985255166805807	2.458907	1.5680902
20.00305213201348	2.5107439	1.5845327
20.020849584679578	2.508282	1.5837556
20.038647525273507	2.4980385	1.5805185
20.05644595426477	2.4565203	1.567329
20.07424487212299	2.4040976	1.5505153
20.092044279317903	2.3851304	1.5443867
20.109844176319353	2.4098735	1.5523767
20.127644563597304	2.4353473	1.56056
20.145445441621817	2.4312437	1.5592446
20.16324681086307	2.4202852	1.5557266
20.181048671791373	2.4059782	1.5511216
20.198851024877122	2.3746264	1.5409822
20.216653870590836	2.3725932	1.5403224
20.234457209403146	2.3781822	1.5421356
20.252261041784802	2.375517	1.5412712
20.270065368206662	2.3699834	1.5394751
20.287870189139685	2.3515246	1.5334681
20.305675505054968	2.34247	1.5305129
20.323481316423702	2.3196216	1.5230304
20.341287623717207	2.3371506	1.5287743
20.359094427406884	2.3512728	1.5333861
20.376901727964288	2.3410192	1.530039
20.39470952586107	2.3257337	1.5250356
20.41251782156899	2.345944	1.5316474
20.430326615559935	2.3776302	1.5419567
20.448135908305886	2.403101	1.5501939
20.465945700278965	2.394676	1.547474
20.483755991951384	2.3647459	1.537773
20.50156678379548	2.330515	1.5266024
20.519378076283708	2.3075662	1.5190675
20.537189869888635	2.3208442	1.5234317
20.55500216508294	2.3335671	1.5276017
20.572814962339415	2.3405726	1.529893
20.59062826213098	2.3646524	1.5377426
20.60844206493066	2.3790839	1.5424279
20.626256371211593	2.3554873	1.5347598
20.644071181447032	2.301889	1.5171977
20.66188649611036	2.2855678	1.5118095
20.67970231567506	2.266124	1.5053651
20.697518640614742	2.3005822	1.516767
20.715335471403122	2.331343	1.5268736
20.73315280851404	2.3346512	1.5279566
20.750970652421447	2.2941635	1.5146496
20.768789003599412	2.2712977	1.5070825
20.786607862522136	2.2732923	1.5077441
20.8044272296639	2.2740982	1.5080113
20.82224710549913	2.3013406	1.517017
20.84006749050237	2.3011625	1.5169584
20.857888385148268	3.8687465	1.966913
20.8757097899116	45.941006	6.7779794
20.893531705267254	64.81247	8.050619
20.911354131690224	83.8389	9.156359
20.92917706965566	69.128815	8.314374
20.94700051963877	50.18418	7.0840793
20.96482448211493	29.459448	5.4276557
20.982648957559622	4.1889462	2.0466914
21.00047394644843	2.3098307	1.5198127
21.01829944925707	2.260392	1.50346
21.036125466461375	2.24176	1.4972508
21.053951998537297	2.2715225	1.5071571
21.071779045960906	2.2733223	1.5077541
21.089606609208378	2.2696247	1.5065274
21.10743468875603	2.2602072	1.5033985
21.12526328508028	2.2758887	1.5086049
21.143092398657675	2.262825	1.5042689
21.16092202996488	2.2634127	1.5044643
21.17875217947867	2.2328227	1.4942633
21.19658284767596	2.2191274	1.4896736
21.21441403503377	2.2015066	1.4837475
21.232245742029225	2.1845298	1.4780155
21.2500779691396	2.1346238	1.4610351
21.26791071684227	2.1557992	1.468264
21.28574398561475	2.170339	1.4732071
21.30357777593465	2.1602151	1.4697671
21.321412088279704	2.137556	1.4620383
21.339246923127792	2.1388242	1.462472
21.357082280956888	2.1338255	1.460762
21.3749181622451	2.1484954	1.4657747
21.392754567470647	2.1628501	1.4706632
21.41059149711187	2.155436	1.4681404
21.42842895164726	2.1338322	1.4607643
21.446266931555378	2.132356	1.4602588
21.464105437314945	2.1063082	1.4513125
21.481944469404798	2.083804	1.4435387
21.49978402830388	2.0831485	1.4433117
21.51762411449127	2.0749223	1.440459
21.53546472844617	2.06915	1.438454
21.553305870647876	2.0669894	1.4377028
21.571147541575865	2.0790732	1.4418992
21.58898974170967	2.0846322	1.4438255
21.60683247152899	2.0479403	1.4310626
21.62467573151363	2.0367398	1.4271439
21.642519522143523	2.0362062	1.426957
21.660363843898722	2.047831	1.4310244
21.6782086972594	2.0442507	1.429773
21.696054082705864	2.0281923	1.4241462
21.713900000718535	2.0161326	1.4199058
21.73174645177795	2.0085464	1.4172319
21.749593436364794	2.0321572	1.4255375
21.767440954959845	2.0509186	1.4321028
21.785289008044032	2.0639942	1.4366608
21.803137596098388	2.0828452	1.4432065
21.820986719604086	2.0461652	1.4304423
21.838836379042412	2.0186672	1.4207981
21.85668657489478	2.0222046	1.4220424
21.87453730764273	2.0545552	1.4333719
21.892388577767914	2.0498972	1.4317462
21.91024038575213	2.0274837	1.4238974
21.928092732077285	2.0294683	1.424594
21.945945617225426	2.03257	1.4256823
21.963799041678694	2.0158165	1.4197946
21.981653005919398	31.338465	5.598077
21.999507510429943	78.14151	8.839768
22.01736255569286	73.08996	8.549267
22.035218142190818	4.18268	2.04516
22.05307427040661	1.9940034	1.4120919
22.07093094082315	1.9990016	1.4138606
22.088788153923474	1.9990927	1.4138927
22.106645910190746	2.0222802	1.422069
22.12450421010827	2.0084426	1.4171953
22.142363054159464	2.0105622	1.4179429
22.16022244282787	2.0080876	1.41707
22.178082376597164	2.0141387	1.4192035
22.195942855951145	2.0104713	1.4179109
22.213803881373742	1.982854	1.4081385
22.231665453349002	1.976289	1.4058055
22.24952757236111	1.9461322	1.3950384
22.26739023889438	1.9867845	1.4095334
22.28525345343323	1.9993211	1.4139736
22.30311721646225	2.0103824	1.4178796
22.320981528466113	1.9678297	1.4027935
22.33884638992964	1.9583533	1.3994118
22.356711801337788	1.9109865	1.3823844
22.37457776317561	1.9336203	1.3905468
22.392444275928337	1.9345453	1.3908793
22.410311340081282	1.9245889	1.3872955
22.428178956119904	1.9510089	1.3967853
22.446047124529805	2.0198684	1.4212208
22.46391584579669	2.0528176	1.4327657
22.481785120406414	2.047581	1.430937
22.49965494884496	2.0068018	1.4166163
22.51752533159841	1.9534072	1.3976434
22.53539626915302	1.8936461	1.3760982
22.553267761995137	1.8514168	1.3606678
22.571139810611264	1.8796103	1.3709888
22.589012415488025	1.941263	1.3932922
22.60688557711216	1.9859415	1.4092344
22.624759295970566	1.9681754	1.4029168
22.642633572550263	1.9703285	1.4036839
22.660508407338362	1.9793385	1.4068897
22.67838380082217	1.9867917	1.409536
22.696259753489077	1.9542315	1.3979383
22.714136265826614	1.9239999	1.3870833
22.73201333832246	1.9338393	1.3906255
22.74989097146439	1.9514303	1.396936
22.76776916574035	1.9189819	1.3852732
22.785647921638393	1.9139502	1.3834559
22.803527239646712	1.9765041	1.405882
22.82140712025363	2.0116863	1.4183393
22.839287563947593	2.0118542	1.4183985
22.85716857121719	1.9360445	1.3914181
22.875050142551135	1.8761237	1.3697166
22.892932278438277	1.9031885	1.379561
22.910814979367604	1.9630795	1.4010993
22.928698245828222	1.9673637	1.4026275
22.946582078309387	1.9197559	1.3855525
22.96446647730047	1.9060745	1.3806065
22.98235144329098	1.9401423	1.3928899
23.000236976770562	1.9515556	1.3969809
23.018123078229	1.9472432	1.3954365
23.03600974815619	1.9353057	1.3911526
23.053896987042194	1.8959979	1.3769524
23.071784795377173	1.8754537	1.369472
23.08967317365145	1.8738025	1.3688691
23.10756212235546	1.8995508	1.3782419
23.125451641979787	1.9331276	1.3903697
23.143341733015134	1.9229884	1.3867186
23.161232395952357	1.910115	1.3820691
23.179123631282426	1.8717786	1.3681296
23.197015439496468	1.8772167	1.3701155
23.214907821085717	1.8859842	1.3733114
23.23280077654157	1.8963225	1.3770703
23.250694306355538	1.920599	1.3858567
23.268588411019277	1.9320068	1.3899665
23.28648309102458	1.9242162	1.3871611
23.304378346863356	1.8786981	1.3706561
23.322274179027676	1.8594311	1.3636096
23.340170588009723	1.8445587	1.3581454
23.358067574301852	1.8866134	1.3735404
23.37596513839651	1.9480023	1.3957086
23.39386328078629	1.9951563	1.4125
23.411762001963947	1.966201	1.4022129
23.429661302422353	1.9512123	1.396858
23.4475611826545	1.9553883	1.398352
23.46546164315356	1.9198345	1.3855809
23.48336268441279	1.9131497	1.3831666
23.501264306925638	1.9258913	1.3877648
23.51916651118564	1.9463351	1.3951111
23.537069297686497	1.9132923	1.383218
23.554972666922037	1.899743	1.3783116
23.57287661938623	1.8930705	1.375889
23.59078115557318	1.8917168	1.375397
23.608686275977128	1.8853176	1.3730687
23.62659198109246	1.8879516	1.3740275
23.6444982714137	1.8552376	1.362071
23.66240514743549	1.8498775	1.360102
23.68031260965263	1.8764294	1.3698282
23.698220658560068	1.9018362	1.3790708
23.716129294652845	1.9335868	1.3905348
23.7340385184262	1.9401313	1.3928859
23.75194833037546	1.9296643	1.3891236
23.769858730996123	1.8869077	1.3736476
23.78776972078382	1.8813787	1.3716335
23.80568130023431	1.8781484	1.3704555
23.823593469843495	1.8858262	1.373254
23.841506230107424	1.8979919	1.3776762
23.859419581522275	1.9202485	1.3857303
23.87733352458438	1.9173049	1.3846678
23.89524805979019	1.9111986	1.3824611
23.913163187636318	1.8934114	1.3760129
23.931078908619508	1.8870897	1.3737139
23.948995223236633	1.8934275	1.3760188
23.966912131984735	1.9076267	1.3811686
23.98482963536096	1.9642847	1.4015294
24.002747733862616	2.022482	1.4221399
24.020666427987155	2.0244179	1.4228204
24.038585718232156	2.0106096	1.4179597
24.056505605095353	2.0359223	1.4268575
24.074426089074617	2.0589702	1.4349113
24.092347170667946	2.0508115	1.4320655
24.110268850373515	2.048324	1.4311967
24.128191128689586	2.088486	1.4451594
24.146114006114626	2.0904646	1.4458439
24.164037483147187	2.0882952	1.4450935
24.181961560286005	2.1424675	1.463717
24.199886238029926	2.126395	1.4582164
24.21781151687797	2.0985017	1.4486206
24.235737397329274	2.0654933	1.4371824
24.253663879883135	2.0627103	1.4362139
24.271590965038975	2.0643935	1.4367998
24.289518653296376	2.0689957	1.4384004
24.30744694515505	2.1137109	1.4538606
24.32537584111486	2.108093	1.4519273
24.34330534167581	2.0773447	1.4412997
24.361235447338046	2.0080059	1.4170412
24.379166158601876	1.9818223	1.4077721
24.39709747596772	1.9983562	1.4136323
24.41502939993615	2.0335212	1.4260159
24.432961931007917	2.0438483	1.4296322
24.450895069683856	2.0312183	1.4252082
24.468828816465	1.9933197	1.4118497
24.4867631718525	1.9706069	1.4037831
24.504698136347656	1.9685308	1.4030434
24.52263371045192	1.981222	1.4075589
24.540569894666874	2.012927	1.4187766
24.558506689494266	1.9736918	1.4048815
24.57644409543597	1.9576705	1.3991678
24.594382112994012	1.9560621	1.398593
24.61232074267057	1.9488277	1.3960042
24.630259984967953	1.92866	1.388762
24.64819984038863	1.9326028	1.3901808
24.66614030943522	1.91702	1.3845649
24.684081392610462	1.9150153	1.3838408
24.702023090417274	1.9023741	1.3792658
24.7199654033587	1.9132535	1.3832041
24.737908331937927	1.9454703	1.3948011
24.755851876658305	1.9973998	1.413294
24.773796038023324	2.0137553	1.4190685
24.79174081653661	2.0390077	1.4279382
24.809686212701962	2.0503335	1.4318986
24.827632227023294	2.0895007	1.4455105
24.8455788600047	2.0828145	1.4431959
24.8635261121504	2.090136	1.4457303
24.88147398396475	2.0565002	1.4340503
24.899422475952303	2.0599124	1.4352396
24.917371588617698	2.0211911	1.421686
24.935321322465768	2.121553	1.4565551
24.953271678001478	2.2530181	1.5010058
24.97122265572994	2.5266306	1.5895379
24.989174256156414	2.8159134	1.6780684
25.00712647978632	3.251987	1.8033266
25.02507932712521	3.7449968	1.9351994
25.043032798678798	4.277796	2.0682833
25.060986894952933	4.925254	2.2192912
25.078941616453637	5.728128	2.3933508
25.096896963687055	6.6771364	2.5840156
25.114852937159508	7.7959604	2.7921247
25.132809537377444	8.26917	2.8756163
25.150766764847468	8.326633	2.8855906
25.168724620076347	7.750781	2.7840226
25.186683103570985	6.7040925	2.5892262
25.204642215838426	5.630557	2.3728795
25.222601957385894	4.2623677	2.0645502
25.24056232872074	3.265928	1.8071879
25.25852333035048	2.6319969	1.6223431
25.276484962782778	2.2853997	1.5117538
25.294447226525435	2.083511	1.4434372
25.312410122086423	2.028055	1.4240979
25.330373649973843	1.9473662	1.3954806
25.348337810695988	1.9319884	1.3899598
25.366302604761245	1.9159575	1.3841811
25.384268032678207	1.8767697	1.3699524
25.40223409495558	1.8428884	1.3575302
25.420200792102257	1.8781383	1.3704518
25.438168124627246	1.9138427	1.383417
25.45613609303974	1.9269006	1.3881285
25.474104697849057	1.9336205	1.3905468
25.492073939564698	1.9316238	1.3898287
25.510043818696285	1.9594901	1.3998178
25.528014335753614	1.9314944	1.3897821
25.54598549124664	1.8993443	1.378167
25.56395728568544	1.8655133	1.3658379
25.58192971958028	1.8703554	1.3676094
25.59990279344156	1.8715316	1.3680394
25.617876507779833	1.8668706	1.3663348
25.635850863105826	1.893012	1.3758677
25.653825859930386	1.913631	1.3833405
25.671801498764548	1.9465157	1.3951758
25.68977778011949	1.939912	1.3928072
25.707754704506524	1.8859955	1.3733156
25.725732272437153	1.8668258	1.3663183
25.743710484423012	1.8151088	1.3472598
25.761689340975888	1.8004667	1.3418146
25.77966884260774	1.8162999	1.3477017
25.797648989830662	1.849325	1.3598989
25.815629783156922	1.8775243	1.3702278
25.83361122309895	1.8638464	1.3652276
25.85159331016929	1.8109467	1.3457142
25.869576044880695	1.7886513	1.3374047
25.887559427746034	1.8204931	1.3492565
25.90554345927836	1.8755164	1.3694949
25.92352813999086	1.8894083	1.3745575
25.94151347039689	1.8563672	1.3624856
25.959499451009965	1.8654832	1.365827
25.97748608234374	1.898513	1.3778653
25.995473364912062	1.8972771	1.3774168
26.013461299228904	1.8954273	1.3767452
26.03144988580839	1.8550119	1.3619882
26.04943912516483	1.8294868	1.3525852
26.067429017812675	1.8142271	1.3469325
26.085419564266537	1.7945126	1.3395942
26.103410765041186	1.7974371	1.3406852
26.12140262065155	1.7958071	1.3400773
26.139395131612723	1.826052	1.3513149
26.157388298439948	1.8455607	1.3585142
26.17538212164861	1.8235697	1.3503962
26.193376601754295	1.8436217	1.3578004
26.211371739272714	1.8856968	1.3732067
26.229367534719746	1.8561157	1.3623934
26.247363988611433	1.8066778	1.3441272
26.26536110146397	1.7613803	1.32717
26.283358873793727	1.779997	1.3341653
26.301357306117204	1.7959335	1.3401245
26.319356398951104	1.8418417	1.3571447
26.33735615281224	1.8819916	1.371857
26.35535656821762	1.8789848	1.3707607
26.373357645684404	1.8298477	1.3527186
26.39135938572991	1.8200874	1.3491062
26.409361788871614	1.8167073	1.3478528
26.427364855627165	1.8840345	1.3726014
26.445368586514352	1.8933449	1.3759887
26.46337298205115	1.8534565	1.361417
26.48137804275568	1.8127525	1.346385
26.499383769146217	1.8154453	1.3473846
26.517390161741215	1.8129365	1.3464533
26.53539722105928	1.8084983	1.3448042
26.553404947619182	1.8191835	1.3487711
26.571413341939856	1.8056421	1.3437419
26.589422404540397	1.7782272	1.3335018
26.60743213594006	1.8268478	1.3516093
26.62544253665827	1.839626	1.3563281
26.64345360721459	1.8139753	1.3468391
26.66146534812879	1.7915031	1.3384705
26.679477759920758	1.7954099	1.3399291
26.69749084311057	1.8270419	1.3516811
26.71550459821847	1.8316884	1.3533988
26.733519025764842	1.7803013	1.3342793
26.751534126270258	1.7548269	1.3246988
26.769549900255434	1.7687408	1.3299401
26.787566348241267	1.7755822	1.3325098
26.80558347074881	1.777184	1.3331107
26.823601268299267	1.7886938	1.3374206
26.841619741414036	1.8311177	1.353188
26.85963889061465	1.8312796	1.3532478
26.877658716422832	1.7833682	1.3354281
26.89567921936045	1.7610258	1.3270365
26.913700399949544	1.7857864	1.3363332
26.93172225871233	1.7678274	1.3295968
26.949744796171174	1.7500557	1.3228967
26.967768012848605	1.8004706	1.3418162
26.98579190926733	1.7883226	1.3372818
27.003816485950225	1.7345438	1.3170208
27.021841743420318	1.7451348	1.3210355
27.039867682200814	1.7948116	1.3397058
27.057894302815072	1.8289719	1.3523948
27.07592160578664	1.8129379	1.3464538
27.0939495916392	1.8111278	1.3457814
27.111978260896635	1.7855517	1.3362454
27.13000761408296	1.7760582	1.3326883
27.148037651722397	1.7455457	1.3211911
27.166068374339304	1.7578504	1.3258395
27.184099782458215	1.7859362	1.3363893
27.20213187660384	1.8061302	1.3439234
27.22016465730105	1.8170903	1.3479949
27.23819812507487	1.8802803	1.3712331
27.256232280450533	1.8780566	1.3704221
27.274267123953383	1.8464673	1.3588477
27.292302656108987	1.8009925	1.3420106
27.31033887744306	1.7967966	1.3404464
27.32837578848146	1.8022993	1.3424973
27.34641338975026	1.7634394	1.3279456
27.364451681775673	1.7348874	1.3171512
27.382490665084074	1.7192401	1.311198
27.400530340202046	1.7627662	1.327692
27.41857070765629	1.7621481	1.3274593
27.436611767973726	1.8121835	1.3461736
27.454653521681404	1.8491913	1.3598497
27.472695969306564	1.8816485	1.371732
27.490739111376627	1.8856219	1.3731794
27.508782948419153	1.8402276	1.3565499
27.526827480961902	1.7762198	1.332749
27.54487270953279	1.7730093	1.3315439
27.562918634659898	1.7901369	1.33796
27.580965256871508	1.8159581	1.347575
27.599012576696026	1.8083968	1.3447665
27.617060594662068	1.7981777	1.3409615
27.63510931129842	1.8010802	1.3420433
27.65315872713401	1.8347722	1.3545376
27.67120884269797	1.8235728	1.3503972
27.68925965851958	1.8065099	1.3440647
27.707311175128307	1.752589	1.3238539
27.725363393053787	1.7713987	1.330939
27.74341631282583	1.877341	1.3701609
27.7614699349744	1.9695271	1.4033984
27.77952426002968	2.147652	1.4654869
27.797579288521973	2.1460898	1.4649539
27.815635020981784	2.4957852	1.5798055
27.83369145793979	2.4985428	1.580678
27.85174859992682	2.3655348	1.5380296
27.869806447473923	2.2511895	1.5003965
27.887865001112267	1.9538176	1.3977903
27.905924261373233	1.8343316	1.354375
27.92398422878836	1.8263918	1.3514407
27.94204490388936	1.8643086	1.3653969
27.96010628720813	1.8714257	1.3680006
27.978168379276728	1.8973775	1.3774532
27.9962311806274	1.888332	1.3741659
28.014294691792568	1.8416783	1.3570845
28.0323589133048	1.8009592	1.3419982
28.050423845696887	1.8342317	1.3543382
28.068489489501758	1.8246994	1.3508143
28.086555845252523	1.8234869	1.3503655
28.104622913482487	1.8855858	1.3731663
28.122690694725115	1.9275013	1.3883448
28.14075918951405	1.9270742	1.388191
28.15882839838312	1.8973116	1.3774294
28.176898321866304	1.9438375	1.3942157
28.1949689604978	1.9704924	1.4037423
28.213040314811945	1.9873965	1.4097505
28.23111238534327	1.943843	1.3942177
28.249185172626493	1.9452474	1.3947213
28.267258677196473	1.961186	1.4004235
28.285332899588294	1.9721926	1.4043478
28.303407840337172	1.949028	1.396076
28.321483499978545	1.9678508	1.402801
28.33955987904799	1.9588488	1.3995888
28.357636978081285	1.976529	1.4058908
28.37571479761439	1.9789202	1.406741
28.393793338183425	1.9687972	1.4031384
28.41187260032469	1.9125988	1.3829674
28.429952584574686	1.8826754	1.3721062
28.448033291470065	1.9239845	1.3870777
28.46611472154769	1.957262	1.3990219
28.484196875344566	1.9567223	1.3988289
28.502279753397914	1.9371948	1.3918315
28.52036335624511	1.929517	1.3890705
28.538447684423716	1.9547598	1.3981273
28.556532738471482	1.9592863	1.3997451
28.574618518926325	1.9543406	1.3979774
28.59270502632635	2.034242	1.4262686
28.61079226120985	2.0605333	1.4354558
28.628880224115274	2.0048366	1.4159225
28.646968915581287	1.9460173	1.3949972
28.66505833614671	1.9794216	1.4069192
28.68314848635055	1.9880885	1.4099959
28.701239366732004	2.0184236	1.4207124
28.71933097783044	2.0329711	1.425823
28.737423320185403	2.084421	1.4437524
28.75551639433665	2.1137164	1.4538625
28.773610200824074	2.140863	1.4631689
28.791704740187793	2.134199	1.4608898
28.80980001296809	2.162202	1.4704428
28.827896019705413	2.2070901	1.4856279
28.845992760940433	2.1875656	1.479042
28.86409023721397	2.189219	1.4796009
28.88218844906704	2.203153	1.4843022
28.900287397040845	2.2157292	1.4885325
28.918387081676755	2.2143621	1.4880733
28.936487503516343	2.1973665	1.4823517
28.954588663101365	2.2215672	1.4904922
28.97269056097374	2.2684004	1.506121
28.990793197675597	2.328967	1.5260954
29.00889657374923	2.3732996	1.5405517
29.027000689737125	2.4014785	1.5496705
29.04510554618196	2.4661846	1.570409
29.06321114362659	2.4742174	1.5729645
29.08131748261405	2.5105615	1.5844752
29.099424563687567	2.5277703	1.5898963
29.11753238739057	2.516033	1.5862008
29.13564095426663	2.493419	1.5790564
29.15375026485954	2.5703866	1.6032425
29.171860319713275	2.6505182	1.6280413
29.18997111937199	2.6820686	1.6377022
29.20808266438002	2.6533287	1.6289041
29.226194955281898	2.7036157	1.6442676
29.244307992622335	2.7529824	1.6592114
29.26242177694624	2.7777047	1.6666447
29.2805363087987	2.8216953	1.6797903
29.29865158872498	2.8795688	1.6969292
29.316767617270557	2.8782306	1.6965349
29.334884394981064	2.8908012	1.7002356
29.353001922402367	2.9262137	1.7106179
29.37112020008047	3.0337594	1.7417691
29.389239228561596	3.1087713	1.7631708
29.407359008392152	3.319198	1.8218666
29.42547954011872	3.69143	1.9213095
29.44360082428809	4.2341847	2.0577135
29.46172286144722	5.236057	2.288243
29.479845652143283	6.9081564	2.6283371
29.497969196923606	9.028195	3.0046957
29.516093496335728	11.601397	3.4060824
29.5342185509274	14.480486	3.8053234
29.55234436124651	16.940252	4.115854
29.570470927841175	18.251936	4.2722282
29.588598251259686	18.029875	4.24616
29.60672633205055	16.74289	4.0918074
29.624855170762405	14.550927	3.8145678
29.642984767944146	11.803007	3.4355505
29.66111512414481	8.981143	2.9968555
29.67924623991366	6.6011605	2.5692723
29.697378115800138	5.079895	2.2538621
29.71551075235387	4.191186	2.0472386
29.733644150124675	3.7594903	1.9389405
29.751778309662576	3.4892335	1.867949
29.769913231517766	3.2995567	1.8164682
29.78804891624066	3.2361107	1.7989193
29.806185364381818	3.236417	1.7990044
29.82432257649206	3.327385	1.824112
29.842460553122333	3.355003	1.8316667
29.86059929482382	3.409507	1.846485
29.878738802147872	3.377581	1.8378196
29.896879075646048	3.296546	1.8156393
29.915020115870114	3.1932998	1.7869806
29.933161923371976	3.2342925	1.7984139
29.951304498703777	3.210533	1.791796
29.969447842417857	3.1726375	1.7811899
29.987591955066733	3.1791165	1.7830077
30.005736837203123	3.212765	1.7924187
30.023882489379943	3.2129986	1.7924839
30.04202891215028	3.207569	1.7909687
30.060176106067455	3.2449176	1.8013655
30.078324071684946	3.2373805	1.7992722
30.09647280955646	3.2470613	1.8019603
30.114622320235863	3.2140884	1.7927879
30.132772604277257	3.1534111	1.7757846
30.1509236622349	3.0856416	1.7565994
30.16907549466328	3.0160453	1.7366766
30.18722810211705	2.990462	1.7292953
30.205381485151097	2.9974122	1.7313036
30.22353564432045	2.979162	1.7260249
30.241690580180403	3.0101826	1.7349877
30.25984629328638	2.99956	1.7319238
30.278002784194037	3.0445328	1.744859
30.296160053459246	3.070319	1.7522326
30.314318101638033	3.0019329	1.7326087
30.332476929286646	2.9422696	1.7153045
30.35063653696153	2.9404902	1.7147858
30.368796925219307	2.9450736	1.7161217
30.386958094616844	2.904342	1.704213
30.40512004571115	2.7937784	1.6714599
30.423282779059463	2.8214192	1.6797081
30.441446295219233	2.84438	1.6865289
30.459610594748067	2.9326544	1.7124995
30.47777567820382	2.8966181	1.7019454
30.495941546144504	2.8018017	1.6738583
30.51410819912835	2.823839	1.6804281
30.532275637713795	2.8589551	1.6908445
30.55044386245946	2.7946284	1.6717142
30.56861287392416	2.6951363	1.641687
30.586782672666956	2.7304907	1.6524197
30.604953259247047	2.7917168	1.6708431
30.623124634223885	2.7969303	1.6724025
30.641296798157075	2.7611501	1.6616709
30.659469751606462	2.7376432	1.6545825
30.677643495132074	2.7949543	1.6718117
30.695818029294152	2.8115227	1.6767596
30.713993354653116	2.7270856	1.651389
30.73216947176962	2.6221464	1.6193043
30.75034638120448	2.6517246	1.6284117
30.768524083518756	2.7507348	1.6585339
30.786702579273673	2.8113918	1.6767205
30.80488186903069	2.8395908	1.6851085
30.82306195335144	2.9461427	1.7164332
30.841242832797782	3.1387253	1.7716448
30.85942450793176	3.3900168	1.8411999
30.877606979315637	3.708942	1.9258614
30.895790247511883	4.091728	2.022802
30.913974313083134	4.573311	2.13853
30.932159176592283	4.9100986	2.2158742
30.95034483860237	4.9863753	2.2330194
30.968531299676698	4.708654	2.1699433
30.98671856037873	4.276999	2.0680907
31.00490662127215	3.7901886	1.9468406
31.023095482920848	3.4561424	1.8590703
31.04128514588892	3.0739956	1.7532814
31.059475610740662	2.6763992	1.6359705
31.07766687804056	2.4957778	1.5798031
31.09585894835335	2.3912954	1.5463814
31.11405182224393	2.405277	1.5508956
31.132245500277417	2.4334235	1.5599434
31.15043998301914	2.4553	1.5669397
31.168635271034628	2.4473205	1.5643914
31.18683136488964	2.4305918	1.5590355
31.20502826515008	2.4589674	1.5681095
31.223225972382135	2.4598749	1.5683988
31.241424487152155	2.4389367	1.5617095
31.259623810026692	2.441009	1.5623729
31.27782394157253	2.4749875	1.5732093
31.296024882356644	2.4736948	1.5727984
31.314226632946237	2.4515455	1.5657412
31.332429193908684	2.430786	1.5590978
31.350632565811598	2.4247942	1.557175
31.368836749222787	2.391995	1.5466076
31.387041744710295	2.4643686	1.5698308
31.40524755284232	2.5683968	1.6026219
31.423454174187317	2.6162927	1.6174958
31.441661609313922	2.5259895	1.5893362
31.459869858791002	2.5097973	1.584234
31.478078923187628	2.4620228	1.5690835
31.496288803073064	2.4259975	1.5575614
31.514499499016807	2.436474	1.560921
31.532711011588546	2.4370043	1.5610907
31.550923341358178	2.396625	1.5481037
31.56913648889584	2.3588023	1.5358393
31.587350454771844	2.322929	1.5241158
31.605565239556732	2.315102	1.521546
31.62378084382127	2.3118799	1.5204867
31.641997268136382	2.2866962	1.5121826
31.660214513073274	2.3427904	1.5306176
31.67843257920331	2.364163	1.5375835
31.6966514670981	2.3711112	1.5398413
31.71487117732944	2.369509	1.539321
31.733091710469346	2.340415	1.5298415
31.751313067090052	2.2617483	1.503911
31.769535247764008	2.2677026	1.5058893
31.787758253063878	2.2957149	1.5151616
31.805982083562526	2.3218436	1.5237597
31.824206739833024	2.3181195	1.5225372
31.84243222244869	2.3399363	1.529685
31.860658531983013	2.3558152	1.5348665
31.878885669009737	2.3468268	1.5319357
31.897113634102784	2.3905382	1.5461365
31.91534242783632	2.4212027	1.5560215
31.933572050784694	2.3458018	1.5316011
31.951802503522508	2.2631032	1.5043614
31.970033786624548	2.3091867	1.5196009
31.988265900665834	2.2893631	1.5130641
32.006498846221575	2.2198923	1.4899303
32.02473262386724	2.180769	1.4767427
32.04296723417845	2.1246002	1.4576008
32.0612026777311	2.116367	1.4547739
32.07943895510129	2.1814334	1.4769677
32.097676066865304	2.1688802	1.4727118
32.115914013599685	2.124633	1.4576122
32.13415279588115	2.112997	1.4536152
32.152392414286666	2.1135378	1.4538012
32.1706328693934	2.1448815	1.4645414
32.18887416177875	2.1096773	1.4524728
32.20711629202032	2.0623853	1.4361007
32.225359260695924	2.0180395	1.4205772
32.243603068383614	2.083737	1.4435154
32.26184771566166	2.1829164	1.4774696
32.28009320310852	2.1325088	1.4603112
32.2983395313029	2.0717897	1.4393713
32.31658670082372	2.0966175	1.4479702
32.33483471225012	2.1592894	1.469452
32.35308356616143	2.1828432	1.4774448
32.371333263137245	2.1107187	1.4528313
32.38958380375734	1.9588722	1.3995972
32.407835188601744	1.9635663	1.4012731
32.42608741825067	2.0073578	1.4168125
32.444340493284585	2.0818582	1.4428645
32.46259441428416	2.1467538	1.4651805
32.48084918183028	2.108865	1.4521931
32.49910479650405	2.0569246	1.4341983
32.51736125888683	2.0457823	1.4303085
32.53561856956014	2.0723014	1.439549
32.5538767291058	2.1266978	1.4583201
32.572135738105764	2.122472	1.4568707
32.59039559714228	2.0707936	1.4390253
32.608656306797776	2.0131476	1.4188544
32.62691786765491	1.961961	1.4007002
32.645180280296586	1.9532824	1.3975987
32.663443545305896	1.9409351	1.3931745
32.68170766326619	1.9884769	1.4101336
32.69997263476099	1.9712771	1.4040217
32.7182384603741	2.0277152	1.4239787
32.7365051406895	2.091113	1.4460682
32.75477267629144	2.0452685	1.4301288
32.77304106776434	1.9722747	1.404377
32.79131031569289	1.9687653	1.403127
32.809580420661966	1.9524063	1.3972853
32.827851383256714	1.9546882	1.3981017
32.84612320406245	1.9983648	1.4136354
32.86439588366476	1.9741619	1.4050487
32.88266942264945	1.9159341	1.3841727
32.9009438216025	1.9759396	1.4056813
32.9192190811102	1.932	1.389964
32.937495201758985	1.8510143	1.3605199
32.95577218413556	1.8774537	1.3702021
32.974050028826866	1.9506315	1.3966501
32.992328736420035	1.9436531	1.3941495
33.010608307502444	1.9903513	1.4107981
33.02888874266169	1.9557581	1.3984842
33.047170042485604	1.9302956	1.3893508
33.06545220756225	1.894002	1.3762274
33.083735238479896	1.8639746	1.3652745
33.10201913582707	1.9332354	1.3904084
33.12030390019248	2.0141304	1.4192007
33.138589532165135	1.9912224	1.4111068
33.15687603233419	1.9845794	1.408751
33.17516340128909	1.932568	1.3901683
33.19345163961947	1.9007822	1.3786886
33.211740747915215	1.9037907	1.3797792
33.23003072676643	1.8848763	1.372908
33.248321576763466	1.936306	1.3915122
33.266613298496885	1.9681612	1.4029117
33.28490589255747	1.9486622	1.395945
33.30319935953626	1.8583201	1.3632022
33.32149370002451	1.8007808	1.3419317
33.339788914613706	1.7575227	1.3257159
33.358085003895575	1.7437081	1.3204954
33.376381968462034	1.7579358	1.3258717
33.39467980890529	1.9145939	1.3836886
33.41297852581774	1.9374992	1.3919408
33.43127811979204	1.8617507	1.3644599
33.44957859142105	1.8777118	1.3702962
33.467879941297866	1.9653807	1.4019203
33.486182170015844	1.9944327	1.4122438
33.50448527816853	2.0435197	1.4295173
33.522789266349754	2.0570345	1.4342365
33.541094135153514	2.0453324	1.4301512
33.55939988517411	2.0068238	1.4166241
33.57770651700602	1.9762346	1.4057862
33.59601403124398	1.9753083	1.4054567
33.61432242848296	1.9645895	1.4016382
33.632631709318154	1.8752123	1.3693839
33.650941874344994	1.8198633	1.3490231
33.66925292415916	1.8263354	1.3514198
33.68756485935654	1.8022687	1.342486
33.70587768053328	1.8363587	1.3551232
33.724191388285746	1.9225807	1.3865715
33.74250598321054	1.8614365	1.3643447
33.760821465904506	1.7264363	1.3139392
33.77913783696474	1.6579564	1.2876165
33.79745509698852	1.6850854	1.2981085
33.815773246573414	1.7678943	1.3296219
33.8340922863172	1.870803	1.367773
33.852412216817896	1.8574319	1.3628763
33.87073303867377	1.8864893	1.3734952
33.889054752483304	1.9448297	1.3945715
33.907377358845245	1.888999	1.3744086
33.92570085835853	1.8936427	1.3760968
33.94402525162239	1.9885103	1.4101455
33.96235053923627	2.095467	1.4475728
33.980676721799824	2.1895308	1.4797063
33.999003799912984	2.1861756	1.4785721
34.01733177417592	2.1146677	1.4541897
34.03566064518901	2.099519	1.4489717
34.0539904135529	2.1093552	1.452362
34.07232107986846	2.0710704	1.4391214
34.090652644736785	1.975655	1.4055799
34.108985108759235	2.000345	1.4143355
34.12731847253742	2.0503385	1.4319003
34.14565273667313	2.0243065	1.4227812
34.16398790176847	2.0580442	1.4345886
34.18232396842574	2.0144498	1.4193132
34.20066093724749	1.9691833	1.403276
34.21899880883651	2.027954	1.4240625
34.23733758379583	2.0386722	1.4278208
34.25567726272874	1.8714889	1.3680238
34.27401784623872	1.7591351	1.3263239
34.29235933492957	1.7776349	1.3332797
34.31070172940526	1.8021532	1.342443
34.32904503027003	1.8045323	1.3433288
34.347389238128386	1.8137897	1.3467702
34.36573435358502	1.8472432	1.3591332
34.38408037724492	1.9458249	1.3949282
34.402427309713296	1.987753	1.409877
34.42077515159559	1.9403653	1.39297
34.43912390349752	1.8900436	1.3747885
34.45747356602499	1.7581023	1.3259345
34.47582413978423	1.7245785	1.3132321
34.49417562538163	1.7240828	1.3130434
34.51252802342388	1.8495212	1.359971
34.53088133451789	1.9345807	1.390892
34.54923555927084	1.9054708	1.3803879
34.567590698290104	1.9719155	1.4042491
34.58594675218336	1.9854143	1.4090472
34.6043037215585	1.8686546	1.3669875
34.62266160702365	1.8852394	1.3730402
34.641020409187234	2.018148	1.4206153
34.65938012865785	1.9797257	1.4070272
34.677740766044394	1.9041214	1.379899
34.69610232195598	1.8818897	1.3718199
34.714464797002016	1.9537567	1.3977685
34.73282819179208	2.0596676	1.4351542
34.751192506936064	2.0734816	1.4399589
34.76955774304408	2.0610094	1.4356216
34.7879239007265	1.821388	1.349588
34.80629098059391	1.7881951	1.3372341
34.824658983257194	2.0486033	1.4312943
34.843027909327446	1.9913255	1.4111433
34.86139775941603	1.8206271	1.3493061
34.879768534134534	1.9166392	1.3844274
34.89814023409483	2.108842	1.4521853
34.91651285990901	2.1333616	1.4606031
34.93488641218944	2.0007353	1.4144735
34.95326089154871	1.9901706	1.410734
34.97163629859967	2.0055258	1.416166
34.99001263395542	1.9769899	1.4060547
35.00838989822934	2.0604274	1.4354188
35.02676809203499	2.010356	1.4178702
35.04514721598624	2.0329757	1.4258245
35.063527270697215	2.2792313	1.5097123
35.081908256782256	2.243085	1.4976932
35.10029017485597	1.9542875	1.3979584
35.11867302553321	1.9797167	1.407024
35.137056809429104	1.8655798	1.3658623
35.155441527159006	1.6816913	1.2968004
35.173827179338524	1.6968968	1.3026499
35.19221376658354	1.8998368	1.3783456
35.21060128951017	1.8475041	1.3592292
35.2289897487348	1.7369167	1.3179214
35.24737914487405	2.0319138	1.4254521
35.26576947854479	2.3980386	1.5485601
35.28416075036418	2.3404286	1.529846
35.30255296094958	2.1125028	1.4534452
35.32094611091867	2.1333823	1.4606103
35.33934020088932	2.29024	1.513354
35.35773523147969	2.4557703	1.5670898
35.3761312033082	2.212056	1.4872983
35.394528116993506	2.044393	1.4298227
35.41292597315452	2.2726457	1.5075296
35.431324772410434	2.5721996	1.6038078
35.449724515380666	2.2653904	1.5051214
35.46812520268491	1.7376161	1.3181866
35.486526834943106	1.6685255	1.2917142
35.504929412775454	1.8857943	1.3732423
35.52333293680242	1.643925	1.2821563
35.54173740764471	1.3437095	1.1591848
35.560142825923286	1.5598235	1.2489289
35.5785491922594	1.6397653	1.2805332
35.59695650727454	1.3602374	1.1662922
35.61536477159042	1.1140177	1.0554703
