0.008763373481513119	0.0	0.0
0.026290120649546365	0.0	0.0
0.043816868432600686	0.060138714	0.24523196
0.06134361724069026	0.08291717	0.2879534
0.07887036748382949	0.06477313	0.25450566
0.0963971195720331	0.053553443	0.23141617
0.11392387391531617	0.067280605	0.25938505
0.1314506309236943	0.12432124	0.35259217
0.1489773910071836	0.1371107	0.37028462
0.16650415457580078	0.099894814	0.3160614
0.18403092203956356	0.11369487	0.3371867
0.20155769380849	0.12661979	0.35583675
0.2190844702925996	0.20495422	0.4527187
0.2366112519019124	0.22852205	0.4780398
0.2541380390464497	0.2473911	0.49738425
0.27166483213623416	0.21305436	0.46157813
0.28919163158128947	0.13580512	0.36851746
0.3067184377916406	0.13924815	0.37315968
0.324245251177314	0.15640092	0.39547557
0.34177207214833777	0.16447873	0.40555978
0.3592989011147415	0.15543681	0.39425474
0.37682573848655654	0.11102655	0.33320647
0.39435258467381573	0.11225285	0.33504155
0.41187944008655414	0.11629835	0.34102544
0.42940630513480854	0.14158571	0.37627876
0.446933180228618	0.17178343	0.41446766
0.4644600657780234	0.19295377	0.43926504
0.48198696219306775	0.1795009	0.42367545
0.49951386988379676	0.14015086	0.37436727
0.5170407892602581	0.14556293	0.3815271
0.5345677207325025	0.12800473	0.35777748
0.5520946647105822	0.121320955	0.34831157
0.5696216216045534	0.1299853	0.36053476
0.5871485918244737	0.155013	0.3937169
0.6046755757804043	0.1856259	0.43084323
0.6222025738824094	0.22741574	0.47688127
0.6397295865405557	0.21137233	0.45975247
0.6572566141649129	0.1955187	0.44217497
0.6747836571655547	0.16197118	0.40245643
0.6923107159525568	0.16136786	0.4017062
0.7098377909359992	0.14594659	0.38202956
0.7273648825259653	0.1452641	0.38113528
0.7448919911325411	0.120987505	0.3478326
0.762419117165817	0.14660949	0.38289618
0.7799462610358868	0.17178088	0.41446456
0.7974734231528482	0.18445058	0.4294771
0.8150006039268024	0.1686742	0.41069964
0.8325278037678551	0.16295722	0.4036796
0.8500550230861152	0.17450571	0.4177388
0.8675822622916969	0.2054455	0.45326096
0.8851095217947171	0.22844099	0.477955
0.9026368020052984	0.20904708	0.45721668
0.9201641033335665	0.1765018	0.42012116
0.9376914261896523	0.14019981	0.37443265
0.9552187709836915	0.14975761	0.38698527
0.9727461381258234	0.1892029	0.4349746
0.990273528026193	0.20557936	0.4534086
1.0078009410949496	0.23928806	0.4891708
1.0253283777422473	0.23060171	0.48021007
1.0428558383782454	0.27321482	0.52269953
1.0603833234131086	0.25665817	0.5066144
1.0779108332570058	0.28499618	0.5338503
1.0954383683201119	0.2935721	0.5418229
1.112965929012607	0.33563215	0.57933766
1.1304935157446763	0.51053977	0.71452063
1.1480211289265108	0.5587609	0.7475031
1.1655487689683062	1.5132245	1.2301319
1.1830764362802655	1.8182098	1.3484101
1.200604131272596	2.1440418	1.4642547
1.2181318543555117	2.255924	1.5019734
1.235659605939232	2.2316954	1.493886
1.253187386433982	3.9766586	1.9941561
1.270715196249994	6.4181066	2.5333982
1.2882430357975057	12.050032	3.4713156
1.3057709054867608	16.799288	4.0986934
1.3232988057280106	22.40166	4.7330394
1.3408267369315112	27.19403	5.2147894
1.358354699507526	30.405937	5.514158
1.3758826938663256	35.043594	5.919763
1.3934107204181858	36.75219	6.0623584
1.410938779573391	37.434193	6.118349
1.4284668717422309	38.39487	6.1963596
1.4459949973350033	37.97538	6.162417
1.4635231567620117	37.9632	6.1614285
1.4810513504335687	37.105244	6.0914073
1.4985795787599925	36.158283	6.013176
1.5161078421516088	35.91575	5.9929748
1.5336361410187505	34.867718	5.904889
1.5511644757717598	34.77725	5.897224
1.5686928468209842	35.132034	5.9272285
1.58622125457678	35.490772	5.957413
1.6037496994495108	36.421787	6.0350466
1.621278181849548	36.5161	6.0428553
1.6388067021872719	37.527958	6.1260066
1.6563352608730693	37.219498	6.1007786
1.673863858317336	36.03168	6.0026393
1.6913924949304753	35.272453	5.9390616
1.7089211711228998	34.166023	5.845171
1.7264498873050296	33.48266	5.7864203
1.7439786438872935	32.5847	5.708301
1.7615074412801288	31.760237	5.635622
1.779036279893981	31.022158	5.5697536
1.796565160139305	29.742178	5.453639
1.814094082426564	29.00367	5.3855057
1.8316230471662298	28.157099	5.3063264
1.849152054768784	27.496616	5.2437215
1.8666811056447168	27.115631	5.2072673
1.8842102002045273	26.428705	5.140886
1.901739338858724	26.011553	5.100152
1.9192685220178245	25.597078	5.0593557
1.9367977500923557	24.873138	4.9872975
1.9543270234928547	24.042847	4.9033504
1.971856342629867	23.36808	4.834054
1.9893857079139496	22.977858	4.7935224
2.006915119755667	22.77953	4.7727904
2.0244445785655945	22.2804	4.720212
2.0419740847543175	21.505884	4.6374435
2.0595036387324317	20.696419	4.5493317
2.0770332409105414	20.165667	4.4906197
2.094562891699263	20.00463	4.4726534
2.1120925915092217	19.83748	4.4539285
2.129622340751053	19.543234	4.420773
2.1471521398354043	187.51001	13.693429
2.1646819891729323	443.72382	21.064753
2.182211889174303	439.89514	20.973677
2.1997418402501974	452.52185	21.27256
2.2172718428113023	432.79324	20.803684
2.234801897268317	320.91992	17.914238
2.2523320040319548	17.256468	4.1540904
2.269862163512935	16.849367	4.104798
2.287392376121992	16.329254	4.040947
2.304922642269869	16.017307	4.002163
2.322452962367322	15.54298	3.9424586
2.3399833368251164	15.383735	3.9222105
2.357513766054032	15.33054	3.9154234
2.3750442504648586	15.035659	3.8775842
2.3925747904683963	14.855762	3.8543172
2.410105386475459	14.6464615	3.8270695
2.4276360388968707	14.294892	3.7808588
2.445166748143469	13.999327	3.7415674
2.4626975146261025	13.604804	3.6884692
2.4802283387556323	13.35033	3.6538105
2.4977592209429305	13.284746	3.6448245
2.5152901615988825	13.089098	3.6178858
2.5328211611343865	13.105791	3.620192
2.5503522199603523	12.928252	3.595588
2.5678833384877024	12.6239805	3.553024
2.5854145171273712	12.321567	3.5102088
2.6029457562903064	12.0703	3.4742336
2.620477056387469	11.89183	3.4484534
2.6380084178298326	11.542979	3.397496
2.655539841028383	11.203273	3.347129
2.673071326394119	11.077694	3.328317
2.6906028743380523	10.911619	3.303274
2.708134485271211	10.689873	3.269537
2.7256661596046325	10.608655	3.257093
2.743197897749369	10.479672	3.2372322
2.760729700116486	10.404558	3.2256098
2.778261567117063	10.305601	3.210234
2.795793499162193	10.172225	3.1893926
2.8133254966629817	10.007868	3.1635215
2.830857560030551	9.872781	3.1420982
2.8483896896760337	9.737966	3.1205714
2.865921886010578	9.567455	3.0931304
2.883454149445347	9.304863	3.0503874
2.9009864803915177	9.230722	3.0382104
2.91851887926028	9.034057	3.0056708
2.9360513464628384	8.982419	2.9970684
2.953583882410413	8.866937	2.9777403
2.9711164875142373	8.786062	2.9641292
2.9886491621855606	8.707078	2.9507759
3.0061819068356455	8.609905	2.934264
3.023714721875769	8.495145	2.9146433
3.041247607717225	8.33845	2.8876376
3.0587805647713213	8.266714	2.8751893
3.0763135934493806	8.265757	2.875023
3.0938466941627407	8.26352	2.874634
3.1113798673227544	8.143234	2.8536353
3.1289131133407904	8.039125	2.8353353
3.1464464326282315	7.9223614	2.814669
3.1639798255964786	7.7374635	2.7816296
3.1815132926569443	7.5546184	2.7485666
3.1990468342210603	7.4977937	2.73821
3.216580450700272	7.4188857	2.7237632
3.2341141425060416	7.3384895	2.7089646
3.251647910049847	7.2476206	2.6921406
3.2691817537431813	7.1665487	2.677041
3.286715673997555	7.1410794	2.6722798
3.3042496712244938	7.072829	2.6594791
3.32178374583554	6.91856	2.6303155
3.339317898242251	6.777305	2.6033258
3.3568521288562034	6.7650175	2.6009648
3.3743864380889876	6.792485	2.6062396
3.3919208263522127	6.8749394	2.6220105
3.4094552940575023	6.7643905	2.6008441
3.4269898416164972	6.6691866	2.5824769
3.444524469440858	6.564527	2.5621333
3.4620591779422587	6.3813844	2.5261402
3.479593967532391	6.20849	2.4916842
3.4971288386229658	6.1006975	2.469959
3.5146637916257086	6.1743236	2.4848187
3.5321988269523628	6.1245427	2.4747813
3.5497339450146903	6.0994105	2.4696984
3.5672691462244708	6.0735373	2.464455
3.5848044309934988	6.1093216	2.4717042
3.60233979973359	6.1412044	2.4781454
3.619875252856575	6.220119	2.4940166
3.6374107907743034	6.225727	2.4951408
3.6549464138986427	6.2612996	2.502259
3.6724821226414788	6.285806	2.5071511
3.690017917414714	6.241759	2.4983513
3.7075537986302702	6.3240657	2.5147696
3.7250897667000857	6.3955145	2.5289354
3.7426258220361235	6.534859	2.556337
3.7601619650503553	6.774037	2.602698
3.777698196154779	7.235526	2.6898932
3.7952345157614067	8.26939	2.8756547
3.8127709242822716	9.045795	3.007623
3.830307422129425	11.134739	3.3368757
3.847844009714936	29.835157	5.462157
3.8653806874508954	97.25843	9.861969
3.882917455749409	96.64185	9.830659
3.900454315022606	96.512085	9.824057
3.917991265682631	41.13822	6.4139085
3.9355283081416506	10.769903	3.281753
3.9530654428118495	8.590044	2.9308777
3.970602670105433	7.404961	2.7212057
3.9881399904346244	6.519279	2.553288
4.005677404211669	6.4734287	2.5442934
4.023214911848827	6.3962293	2.5290768
4.0407525137583855	6.313883	2.5127442
4.058290210352644	6.3344054	2.5168245
4.075828002043927	6.358612	2.5216289
4.0933658892445814	6.30653	2.5112805
4.110903872366966	6.25628	2.5012558
4.128441951823468	6.1046453	2.470758
4.145980128026488	6.1242294	2.474718
4.163518401388452	6.1168284	2.4732223
4.181056772321807	6.0503945	2.459755
4.1985952412390155	6.1499705	2.4799135
4.216133808552567	6.1639237	2.4827251
4.233672474674966	6.230533	2.4961035
4.251211240018741	6.3613944	2.5221806
4.268750104996445	6.601004	2.569242
4.286289070020643	7.605674	2.7578387
4.303828135503928	9.375687	3.0619743
4.3213673018589125	29.637093	5.443996
4.3389065694982305	90.77058	9.527359
4.356445938834537	165.75603	12.874627
4.3739854102805085	171.2917	13.087846
4.391524984248844	172.17987	13.121733
4.409064661152262	136.16113	11.66881
4.426604441403504	96.51177	9.82404
4.444144325415337	75.41459	8.684157
4.461684313600543	21.54336	4.6414824
4.47922440637193	22.135786	4.7048683
4.496764604142329	20.527662	4.5307465
4.5143049073245916	18.520555	4.3035517
4.531845316331589	16.218586	4.0272307
4.5493858315762195	13.216173	3.6354055
4.566926453471405	10.952585	3.309469
4.584467182430081	9.035887	3.0059752
4.602008018865218	7.9283814	2.8157382
4.619548963189798	7.282109	2.6985383
4.637090015816834	6.9208765	2.630756
4.654631177159353	6.6527333	2.5792892
4.672172447630417	6.329242	2.5157986
4.689713827643102	6.1028423	2.4703932
4.7072553176105085	5.8467417	2.4180036
4.724796917945764	5.77028	2.4021406
4.742338629062015	5.7141953	2.3904383
4.759880451372434	5.702005	2.3878872
4.777422385290215	5.652734	2.3775477
4.794964431228581	5.6602154	2.3791208
4.812506589600768	5.7774515	2.4036329
4.830048860820047	5.7636127	2.4007525
4.847591245299709	5.712299	2.3900416
4.8651337434530655	5.624506	2.3716042
4.882676355693457	5.5436788	2.3545017
4.900219082434242	5.5044036	2.3461466
4.917761924088813	5.4106827	2.3260875
4.935304881070575	5.3851347	2.3205893
4.952847953792969	5.384878	2.320534
4.970391142669449	5.3161144	2.30567
4.9879344481135055	5.2769647	2.2971644
5.005477870538642	5.2166114	2.2839901
5.023021410358394	5.259633	2.293389
5.040565067986324	5.3180933	2.3060992
5.05810884383601	5.3477497	2.3125203
5.075652738321066	5.2832932	2.2985415
5.09319675185512	5.2615037	2.2937968
5.110740884851836	5.2595243	2.2933652
5.128285137724894	5.3151164	2.3054535
5.145829510888007	5.3121767	2.304816
5.163374004754908	5.2606425	2.2936091
5.1809186197393595	5.1706777	2.2739124
5.198463356255145	5.1356997	2.2662082
5.216008214716077	5.14635	2.2685568
5.233553195535998	5.2022653	2.2808475
5.251098299128764	5.282504	2.29837
5.268643525908272	5.314023	2.3052166
5.286188876288432	5.2705975	2.2957783
5.3037343506831895	5.227334	2.2863364
5.32127994950651	5.1795764	2.2758682
5.3388256731723915	5.1996207	2.2802677
5.356371522094851	5.1889286	2.277922
5.373917496687938	5.2361135	2.2882555
5.391463597365729	5.23379	2.2877479
5.40900982454232	5.221745	2.2851138
5.426556178631843	5.1740985	2.2746644
5.444102660048449	5.101869	2.2587318
5.4616492692063225	5.1423707	2.2676797
5.479196006519669	5.146516	2.2685933
5.496742872402727	5.2296276	2.2868378
5.514289867269756	5.280006	2.2978263
5.531836991535049	5.2123814	2.2830641
5.549384245612924	5.1361523	2.266308
5.566931629917724	5.1496267	2.269279
5.584479144863822	5.161661	2.271929
5.6020267908656205	5.1676073	2.2732372
5.619574568337545	5.106437	2.2597427
5.637122477694054	5.1078663	2.2600589
5.654670519349629	5.125272	2.2639062
5.672218693718784	5.1053534	2.259503
5.689767001216059	5.164265	2.272502
5.707315442256021	5.1379976	2.266715
5.724864017253266	5.0812	2.2541518
5.7424127266224225	5.0657663	2.2507257
5.75996157077814	5.092613	2.256682
5.777510550135105	5.149988	2.2693586
5.795059665108022	5.144554	2.268161
5.812608916111639	5.158906	2.2713225
5.830158303560715	5.21331	2.2832673
5.847707827870055	5.1829867	2.2766173
5.86525748945448	5.269547	2.2955494
5.8828072887288485	5.358547	2.3148537
5.900357226108044	5.472934	2.3394303
5.917907302006979	5.5307097	2.351746
5.9354575168406	6.1231318	2.4744964
5.9530078710238765	6.6901517	2.5865328
5.970558364971812	7.1978545	2.6828818
5.988108999099438	7.571767	2.7516844
6.005659773821818	8.127538	2.8508837
6.023210689554039	7.926116	2.8153358
6.040761746711227	8.366478	2.8924866
6.058312945708531	7.80881	2.7944248
6.075864286961132	7.3703027	2.7148302
6.093415770884244	6.68769	2.5860567
6.1109673978931065	6.0587554	2.461454
6.128519168402993	5.4210615	2.3283174
6.146071082829204	5.2363763	2.288313
6.163623141587075	5.1241717	2.2636633
6.181175345091969	5.0723243	2.252182
6.198727693759281	5.09664	2.2575738
6.216280188004435	5.128385	2.2645938
6.233832828242885	5.0646048	2.2504678
6.251385614890126	5.1083164	2.2601585
6.268938548361669	5.1326084	2.265526
6.286491629073067	5.1465955	2.268611
6.304044857439898	5.1326346	2.2655318
6.321598233877777	4.949592	2.224768
6.339151758802344	4.8881955	2.2109263
6.356705432629277	4.892836	2.2119756
6.37425925577428	4.921373	2.2184167
6.391813228653095	4.977744	2.2310858
6.409367351681486	4.9046903	2.2146535
6.426921625275259	4.885176	2.2102435
6.44447604985025	4.8505034	2.202386
6.46203062582232	4.881595	2.2094333
6.47958535360737	4.857786	2.2040386
6.497140233621328	4.8624253	2.2050908
6.514695266280161	4.852597	2.202861
6.532250451999859	4.894179	2.212279
6.549805791196454	4.9815087	2.2319293
6.567361284286002	5.0613537	2.2497451
6.584916931684597	5.1050315	2.2594316
6.602472733808367	5.08428	2.254835
6.6200286910734665	4.9764795	2.2308025
6.637584803896092	4.9005075	2.2137089
6.655141072692462	4.859666	2.204465
6.672697497878842	4.8680573	2.2063675
6.690254079871514	4.8063736	2.1923444
6.707810819086808	4.8298283	2.197687
6.725367715941078	4.833021	2.1984134
6.742924770850719	4.8283854	2.1973586
6.760481984232151	4.932072	2.2208269
6.778039356501836	5.015795	2.239597
6.795596888076266	5.073249	2.2523873
6.813154579371963	5.040952	2.2452066
6.830712430805492	4.9368043	2.221892
6.84827044279344	4.893372	2.2120967
6.865828615752445	4.867989	2.206352
6.883386950099159	4.8853884	2.2102914
6.900945446250287	4.902745	2.2142143
6.918504104622553	4.9032154	2.2143204
6.936062925632727	4.92342	2.218878
6.953621909697607	4.930663	2.2205098
6.971181057234028	4.974404	2.2303371
6.988740368658859	5.025332	2.2417252
7.006299844389007	5.080339	2.2539606
7.023859484841407	5.1348524	2.2660213
7.041419290433036	5.2030096	2.2810106
7.058979261580902	5.389442	2.3215172
7.0765393987020495	5.642051	2.3753002
7.094099702213559	6.0780034	2.4653606
7.111660172532549	6.4006114	2.529943
7.129220810076164	6.7205553	2.5924034
7.146781615261595	7.282402	2.6985927
7.16434258850606	7.5133743	2.7410536
7.181903730226821	7.92218	2.8146367
7.1994650408411704	7.965846	2.8223832
7.217026520766437	8.131062	2.8515017
7.234588170419983	8.330579	2.886274
7.252149990219215	8.463044	2.9091313
7.269711980581568	8.409287	2.899877
7.2872741419245175	8.220336	2.8671129
7.304836474665574	7.813481	2.7952604
7.322398979222286	7.464629	2.7321475
7.339961656012233	7.2341084	2.6896298
7.357524505453039	6.8649483	2.6201046
7.375087527962357	6.565828	2.5623872
7.392650723957886	6.2226567	2.4945254
7.410214093857353	5.9243746	2.4340038
7.427777638078528	5.722169	2.3921056
7.445341357039213	5.5142617	2.3482466
7.4629052511572525	5.3697863	2.3172798
7.480469320850524	5.2244196	2.285699
7.498033566536948	5.168103	2.2733462
7.5155979886344735	5.156423	2.2707758
7.5331625875610975	5.16009	2.271583
7.550727363734844	5.126952	2.2642775
7.568292317573788	5.0621533	2.249923
7.585857449496025	5.089824	2.256064
7.603422759919705	5.135587	2.2661834
7.620988249263007	5.1893554	2.2780156
7.638553917944147	5.1847553	2.2770057
7.656119766381391	5.1978765	2.2798853
7.673685794993023	5.2019844	2.280786
7.691252004197388	5.1746397	2.2747834
7.70881839441285	5.19497	2.2792478
7.726384966057826	5.196579	2.2796006
7.743951719550762	5.212391	2.283066
7.761518655310149	5.219426	2.2846065
7.779085773754511	5.223262	2.2854457
7.796653075302419	5.267286	2.2950568
7.814220560372475	5.2727	2.296236
7.831788229383323	5.2970276	2.3015273
7.8493560827536495	5.3332095	2.3093743
7.866924120902174	5.357095	2.31454
7.884492344247663	5.396946	2.3231328
7.9020607532089135	5.3463373	2.3122149
7.919629348204771	5.2779293	2.2973745
7.937198129654115	5.2272396	2.2863157
7.954767097975865	5.221332	2.2850235
7.972336253588986	5.301896	2.3025846
7.989905596912472	5.4151583	2.3270493
8.007475128365371	5.452162	2.3349864
8.025044848366756	5.469282	2.3386497
8.042614757335754	5.5606356	2.3581
8.060184855691523	5.6273355	2.3722005
8.07775514385327	5.702653	2.388023
8.095325622240228	5.713085	2.390206
8.112896291271687	5.74908	2.397724
8.130467151366968	5.789879	2.4062166
8.148038202945436	5.8513017	2.4189465
8.165609446426497	5.8314853	2.414847
8.183180882229594	5.8685117	2.422501
8.200752510774217	5.839796	2.416567
8.218324332479893	5.8552523	2.4197628
8.235896347766193	5.89381	2.427717
8.253468557052724	5.966628	2.4426682
8.27104096075914	6.0022936	2.4499578
8.288613559305137	6.01151	2.451838
8.306186353110448	6.0488224	2.4594355
8.32375934259485	6.076148	2.4649844
8.341332528178162	6.0935693	2.4685156
8.358905910280246	6.1122975	2.472306
8.376479489321003	6.140814	2.4780664
8.394053265720377	6.228849	2.4957662
8.411627239898356	6.2650986	2.503018
8.42920141227497	6.2674656	2.5034907
8.44677578327029	6.233712	2.4967403
8.464350353304427	6.236002	2.4971988
8.48192512279754	6.220753	2.4941437
8.499500092169827	6.1774864	2.485455
8.51707526184153	6.1134086	2.4725308
8.534650632232934	6.099692	2.4697554
8.552226203764365	6.0882316	2.4674342
8.569801976856192	6.1253676	2.474948
8.587377951928834	6.1371994	2.4773371
8.60495412940274	6.220135	2.49402
8.622530509698416	6.2378645	2.4975717
8.6401070932364	6.3573613	2.521381
8.657683880437283	6.435388	2.5368066
8.675260871721695	6.606641	2.5703387
8.692838067510303	6.7174	2.5917947
8.710415468223834	6.88452	2.623837
8.727993074283043	7.0608873	2.657233
8.745570886108737	7.0260053	2.6506612
8.763148904121765	7.019585	2.64945
8.78072712874302	6.9971595	2.6452146
8.798305560393441	7.312335	2.704133
8.815884199494006	7.519169	2.7421103
8.833463046465745	7.758681	2.785441
8.851042101729728	7.877569	2.8067007
8.86862136570707	8.176436	2.8594468
8.886200838818924	8.37424	2.893828
8.903780521486505	8.372655	2.893554
8.921360414131055	8.52638	2.9199965
8.938940517173874	8.605457	2.933506
8.956520831036297	8.752286	2.9584262
8.97410135613971	8.952116	2.9920087
8.99168209290554	9.130586	3.0216858
9.009263041755265	9.465828	3.0766585
9.026844203110405	9.677424	3.1108558
9.044425577392525	9.846636	3.137935
9.062007165023239	9.926809	3.1506839
9.079588966424197	10.165015	3.188262
9.097170982017108	10.233955	3.1990554
9.11475321222372	11.223938	3.3502147
9.132335657465825	12.156846	3.486667
9.149918318165264	12.263539	3.5019336
9.167501194743924	12.738863	3.5691543
9.18508428762374	12.404054	3.5219388
9.202667597226693	12.443735	3.5275679
9.220251123974803	12.171357	3.4887471
9.237834868290143	11.890141	3.4482083
9.255418830594836	11.673259	3.416615
9.273003011311046	11.13526	3.3369536
9.290587410860985	10.926247	3.3054874
9.308172029666911	10.328898	3.2138603
9.32575686815113	10.110312	3.1796718
9.343341926735997	8.832022	2.9718719
9.360927205843916	8.557704	2.9253554
9.378512705897327	8.287383	2.8787816
9.396098427318728	8.096614	2.845455
9.413684370530664	8.011588	2.8304749
9.431270535955722	7.872089	2.8057244
9.448856924016539	7.8306704	2.7983334
9.466443535135806	7.700906	2.7750506
9.484030369736251	7.7115355	2.7769651
9.501617428240658	7.7158265	2.7777376
9.519204711071852	7.776871	2.7887042
9.536792218652714	7.8252487	2.7973647
9.55437995140617	7.8521357	2.8021662
9.571967909755191	7.827208	2.7977147
9.589556094122802	7.851811	2.8021083
9.60714450493207	7.807224	2.794141
9.624733142606116	7.877994	2.8067765
9.642322007568108	7.926296	2.815368
9.659911100241267	7.9218574	2.8145795
9.677500421048851	7.8393292	2.7998803
9.695089970414175	7.812297	2.7950487
9.712679748760609	7.862084	2.8039408
9.730269756511557	8.002264	2.8288274
9.747859994090492	8.156159	2.855899
9.765450461920915	8.206225	2.864651
9.78304116042639	8.239336	2.8704243
9.800632090030527	8.223884	2.8677313
9.81822325115699	8.3229685	2.8849556
9.835814644229481	8.295293	2.880155
9.853406269671762	8.286691	2.8786612
9.870998127907646	8.2205715	2.867154
9.888590219360985	8.21925	2.8669233
9.906182544455698	8.2547035	2.8731
9.923775103615734	8.314237	2.8834417
9.941367897265108	8.271385	2.8760016
9.958960925827878	8.268619	2.8755205
9.97655418972816	8.251841	2.8726017
9.994147689390106	8.254455	2.8730567
10.011741425237934	8.261449	2.8742735
10.029335397695904	8.169183	2.8581781
10.04692960718833	8.2197	2.867002
10.06452405413958	8.223271	2.8676248
10.082118738974064	8.273355	2.876344
10.099713662116246	8.238592	2.8702948
10.117308823990651	8.176552	2.859467
10.134904225021844	8.129092	2.8511562
10.152499865634445	8.098292	2.8457499
10.170095746253125	8.086992	2.8437638
10.18769186730261	7.9939685	2.8273606
10.205288229207675	7.936113	2.8171108
10.222884832393145	7.971856	2.8234475
10.2404816772839	8.009822	2.8301628
10.258078764304868	8.009045	2.8300257
10.275676093881035	8.030392	2.8337946
10.293273666437438	8.0237	2.8326137
10.310871482399158	8.057436	2.8385623
10.32846954219134	8.102488	2.8464868
10.346067846239173	8.08674	2.8437192
10.363666394967908	8.033047	2.834263
10.38126518880283	8.017055	2.8314404
10.398864228169298	8.106737	2.8472333
10.416463513492713	8.21089	2.865465
10.434063045198531	8.218255	2.86675
10.451662823712262	8.159198	2.856431
10.469262849459467	8.160544	2.8566666
10.486863122865758	8.106611	2.8472111
10.504463644356806	8.114603	2.8486142
10.522064414358338	8.033697	2.8343778
10.539665433296118	7.8691134	2.805194
10.557266701595987	7.8159466	2.7957015
10.574868219683818	7.7242303	2.77925
10.592469987985552	7.687095	2.772561
10.610072006927185	7.575665	2.7523925
10.627674276934751	7.4254417	2.7249663
10.64527679843435	7.3023686	2.7022896
10.662879571852143	7.213429	2.6857827
10.680482597614331	7.128941	2.6700077
10.698085876147173	7.042102	2.6536958
10.715689407876988	6.9269733	2.6319144
10.733293193230146	6.8058453	2.6088016
10.750897232633072	6.769434	2.6018136
10.76850152651225	6.6845326	2.5854464
10.786106075294207	6.6267414	2.5742457
10.803710879405534	6.5089927	2.5512729
10.821315939272877	6.404982	2.5308065
10.83892125532294	6.3058586	2.5111468
10.856526827982472	6.260628	2.5021248
10.874132657678285	6.254243	2.5008485
10.891738744837243	6.2227607	2.4945462
10.909345089886271	6.112538	2.4723547
10.926951693252343	6.052169	2.4601157
10.944558555362494	6.0104055	2.451613
10.96216567664381	5.8805084	2.4249759
10.979773057523436	5.752825	2.3985047
10.997380698428573	5.6383486	2.3745208
11.014988599786477	5.6451564	2.3759537
11.032596762024461	5.6809597	2.3834765
11.050205185569892	5.7272086	2.3931587
11.067813870850198	5.6788235	2.3830283
11.085422818292859	5.6060805	2.3677163
11.10303202832541	5.441284	2.3326561
11.120641501375454	5.333401	2.3094158
11.138251237870636	5.2967997	2.3014777
11.155861238238671	5.272887	2.2962768
11.173471502907317	5.1975994	2.2798245
11.191082032304402	5.154266	2.2703009
11.208692826857805	5.078806	2.2536206
11.226303886995465	5.0278153	2.242279
11.243915213145371	4.971739	2.2297397
11.261526805735578	4.9515357	2.2252047
11.279138665194196	4.9336247	2.2211764
11.296750791949393	4.9267035	2.2196178
11.314363186429393	4.8349433	2.1988504
11.331975849062479	4.7533593	2.1802201
11.34958878027699	4.6425643	2.1546612
11.36720198050133	4.6095343	2.1469827
11.384815450163948	4.546216	2.1321857
11.402429189693366	4.505804	2.1226878
11.420043199518153	4.424414	2.103429
11.437657480066942	63.425133	7.9639897
11.455272031768422	85.144806	9.227394
11.472886855051353	107.56714	10.371458
11.490501950344528	99.20479	9.96016
11.508117318076819	84.54022	9.194575
11.52573295867715	45.91864	6.7763295
11.543348872574514	4.1674843	2.0414417
11.560965060197946	4.103679	2.025754
11.57858152197655	4.076189	2.0189574
11.59619825833949	4.014082	2.0035174
11.613815269715985	3.9783452	1.994579
11.631432556535323	38.50201	6.204999
11.649050119226837	83.037735	9.112504
11.666667958219929	93.40339	9.664543
11.68428607394406	107.673515	10.376585
11.701904466828756	82.522804	9.084207
11.719523137303586	65.39932	8.086985
11.737142085798196	4.599545	2.144655
11.754761312742286	3.721431	1.9291011
11.772380818565619	3.6831899	1.9191638
11.790000603698015	3.6665578	1.9148258
11.80762066856935	3.5983572	1.8969337
11.825241013609572	3.5512521	1.8844767
11.842861639248683	3.4978125	1.870244
11.860482545916748	3.4768138	1.8646216
11.878103734043883	3.4739301	1.8638482
11.895725204060282	3.446781	1.8565508
11.91334695639619	3.4444714	1.8559287
11.930968991481919	3.3891428	1.8409624
11.948591309747824	3.3624177	1.8336897
11.966213911624347	3.3194919	1.8219472
11.98383679754198	3.318221	1.8215985
12.001459967931268	3.2947772	1.815152
12.019083423222835	3.24689	1.8019129
12.036707163847352	3.2355952	1.798776
12.05433119023556	3.2466352	1.8018422
12.071955502818259	3.258439	1.8051147
12.089580102026313	3.20113	1.7891701
12.107204988290643	3.1364138	1.7709923
12.12483016204224	3.1153917	1.7650472
12.142455623712152	3.1259816	1.7680446
12.16008137373149	3.1379054	1.7714133
12.177707412531431	3.1065307	1.7625353
12.19533374054321	3.072567	1.7528739
12.212960358198126	3.0819366	1.7555445
12.230587265927545	3.1053405	1.7621976
12.248214464162889	3.0843456	1.7562305
12.265841953335649	3.057973	1.7487061
12.283469733877375	3.02448	1.7391032
12.301097806219685	3.0023146	1.7327188
12.31872617079425	2.9629898	1.7213337
12.336354828032825	2.9217937	1.7093256
12.353983778367205	2.9170165	1.7079276
12.371613022229262	2.9137864	1.7069817
12.389242560050928	2.934521	1.7130444
12.406872392264201	2.917335	1.7080208
12.424502519301143	2.89504	1.7014817
12.442132941593874	2.821837	1.6798325
12.459763659574586	2.7732236	1.6652999
12.477394673675532	2.7667208	1.6633463
12.49502598432903	2.7832692	1.6683133
12.51265759196746	2.779703	1.6672441
12.530289497023267	2.7525702	1.6590872
12.547921699928967	2.7643194	1.6626242
12.565554201117134	2.7549548	1.6598057
12.583187001020404	2.7894638	1.6701688
12.600820100071486	2.7888126	1.6699739
12.618453498703152	2.7796535	1.6672293
12.636087197348235	2.7326102	1.6530609
12.65372119643964	2.7464836	1.6572518
12.671355496410326	2.7567074	1.6603335
12.68899009769333	2.7852442	1.6689051
12.706625000721749	2.8387034	1.6848452
12.724260205928752	2.895563	1.7016354
12.741895713747551	2.9598186	1.7204124
12.759531524611454	2.9873512	1.7283956
12.777167638953818	2.9662135	1.7222699
12.794804057208072	2.9572928	1.7196782
12.812440779807702	3.0008798	1.7323048
12.830077807186271	3.1650753	1.7790658
12.847715139777405	3.2135777	1.7926455
12.865352778014795	3.3966763	1.8430074
12.882990722332197	3.5345929	1.8800513
12.90062897316344	3.6251445	1.9039812
12.918267530942412	3.7749474	1.9429224
12.935906396103071	3.645609	1.9093478
12.953545569079449	3.7622502	1.9396521
12.971185050305628	3.5282264	1.8783574
12.988824840215775	3.539255	1.8812908
13.006464939244115	3.583967	1.8931369
13.024105347824943	3.4481435	1.8569177
13.041746066392617	3.5327163	1.8795521
13.05938709538157	3.3233185	1.8229971
13.077028435226296	3.3162327	1.8210527
13.094670086361363	3.1881332	1.7855344
13.112312049221401	3.0866442	1.7568848
13.129954324241112	3.0320804	1.741287
13.147596911855258	2.889419	1.6998291
13.165239812498685	2.8994906	1.7027891
13.182883026606293	2.7988582	1.6729789
13.200526554613058	2.740456	1.6554323
13.218170396954017	2.7389762	1.6549853
13.235814554064284	2.7683403	1.663833
13.253459026379034	2.7622652	1.6620064
13.271103814333523	2.7039404	1.6443663
13.288748918363058	2.672469	1.6347687
13.306394338903031	2.635422	1.6233983
13.32404007638889	2.6237144	1.6197884
13.341686131256164	2.6319044	1.6223145
13.359332503940449	2.6256058	1.6203722
13.376979194877402	2.64217	1.6254753
13.394626204502751	2.717385	1.6484493
13.412273533252307	2.759195	1.6610825
13.429921181561937	2.7520413	1.6589278
13.447569149867581	2.7359648	1.6540751
13.465217438605247	2.7575257	1.6605799
13.482866048211022	2.7818093	1.6678756
13.500514979121052	2.7642007	1.6625886
13.518164231771568	2.6848452	1.6385497
13.535813806598844	2.6127245	1.6163925
13.553463704039254	2.5764909	1.6051451
13.571113924529229	2.6198514	1.6185955
13.588764468505275	2.6538384	1.6290606
13.606415336403956	2.701195	1.6435312
13.624066528661917	2.7115703	1.6466846
13.641718045715882	2.7896655	1.6702292
13.659369888002635	2.846135	1.6870492
13.67702205595903	2.9088655	1.7055396
13.694674550021993	2.9879696	1.7285744
13.712327370628532	3.0449247	1.7449713
13.729980518215713	3.0998294	1.7606332
13.747633993220681	3.1825972	1.7839835
13.765287796080647	3.2493997	1.8026091
13.7829419272329	3.372177	1.8363488
13.800596387114801	3.352877	1.8310863
13.818251176163775	3.3515954	1.8307363
13.835906294817324	3.3679607	1.8352004
13.853561743513023	3.4050748	1.8452845
13.871217522688525	3.3858318	1.840063
13.888873632781538	3.3733623	1.8366715
13.906530074229858	3.4179595	1.8487724
13.92418684747135	3.497964	1.8702844
13.941843952943948	3.5032094	1.8716862
13.959501391085665	3.4865894	1.8672411
13.977159162334578	3.415212	1.8480293
13.994817267128846	3.385133	1.8398731
14.012475705906693	3.3034422	1.8175374
14.030134479106424	3.2350643	1.7986284
14.047793587166414	3.1001961	1.7607374
14.065453030525108	3.036626	1.7425917
14.083112809621026	2.935996	1.7134749
14.100772924892766	2.8821435	1.6976877
14.118433376778997	2.8453295	1.6868105
14.136094165718458	2.8503432	1.688296
14.153755292149969	2.8153174	1.6778908
14.171416756512416	2.7600634	1.6613438
14.189078559244768	2.676691	1.6360596
14.20674070078606	2.577	1.6053036
14.224403181575408	2.4878263	1.5772845
14.242066002051999	2.4204898	1.5557923
14.259729162655093	2.3958385	1.5478497
14.277392663824022	2.40238	1.5499613
14.295056505998208	2.4309905	1.5591633
14.312720689617128	2.4526587	1.5660967
14.330385215120348	2.459412	1.5682513
14.348050082947497	2.4534574	1.5663517
14.3657152935383	2.4134843	1.5535393
14.383380847332528	2.3903663	1.546081
14.401046744770051	2.3848248	1.5442878
14.418712986290798	2.3943613	1.5473723
14.436379572334793	2.3692367	1.5392325
14.454046503342123	2.355219	1.5346723
14.471713779752946	2.396649	1.5481114
14.489381402007504	2.4415202	1.5625365
14.507049370546113	2.4357343	1.560684
14.524717685809168	2.3803484	1.5428377
14.542386348237134	2.3583195	1.5356821
14.560055358270553	2.373144	1.5405012
14.577724716350051	2.4049773	1.5507989
14.595394422916325	2.3758109	1.5413666
14.61306447841015	2.3815203	1.5432175
14.63073488327237	2.364866	1.5378121
14.648405637943917	2.420084	1.5556619
14.6660767428658	2.4656596	1.5702419
14.683748198479094	2.5174587	1.5866501
14.701420005224954	2.551483	1.5973362
14.719092163544628	2.611293	1.6159496
14.73676467387942	2.6759202	1.6358241
14.754437536670727	2.7415233	1.6557546
14.772110752360014	2.725665	1.6509589
14.78978432138882	2.7079968	1.6455992
14.807458244198777	2.6744044	1.6353606
14.82513252123159	2.6475098	1.627117
14.842807152929028	2.6769097	1.6361264
14.860482139732962	2.69429	1.6414292
14.87815748208531	2.711577	1.6466867
14.8958331804281	2.6757572	1.6357741
14.91350923520342	2.6061125	1.6143458
14.931185646853438	2.616922	1.6176903
14.948862415820408	2.6271684	1.6208543
14.966539542546656	2.6654105	1.6326085
14.98421702747459	2.6553888	1.6295364
15.001894871046696	2.682693	1.6378928
15.019573073705542	2.6792586	1.636844
15.037251635893766	2.6635046	1.6320246
15.054930558054092	2.6518857	1.6284611
15.072609840629323	2.6611109	1.6312912
15.090289484062351	2.7556353	1.6600106
15.107969488796124	2.9143777	1.7071549
15.125649855273691	3.0943263	1.7590697
15.14333058393817	3.4401743	1.8547707
15.161011675232768	4.023757	2.0059304
15.17869312960076	4.6520605	2.1568637
15.196374947485506	5.3639936	2.3160298
15.214057129330447	6.7438674	2.5968957
15.231739675579114	8.930372	2.9883728
15.249422586675102	13.556491	3.681914
15.267105863062092	18.08729	4.2529154
15.284789505183847	25.277039	5.0276275
15.302473513484218	30.139456	5.489941
15.320157888407127	34.325535	5.8588
15.337842630396578	33.13663	5.7564425
15.355527739896656	30.275925	5.502356
15.37321321735153	23.489622	4.846609
15.39089906320545	15.975283	3.9969091
15.408585277902748	10.236566	3.1994634
15.42627186188783	6.3595333	2.5218115
15.443958815605198	4.6395426	2.1539598
15.461646139499424	3.8107898	1.9521245
15.479333834015168	3.39126	1.8415374
15.497021899597165	3.053741	1.7474957
15.514710336690234	2.8063781	1.6752248
15.53239914573928	2.6531131	1.628838
15.550088327189297	2.5996084	1.6123301
15.567777881485336	2.5634172	1.6010675
15.58546780907256	2.5431511	1.5947261
15.6031581103962	2.5305738	1.5907778
15.620848785901568	2.5319245	1.5912023
15.638539836034063	2.521793	1.5880154
15.656231261239173	2.4696805	1.5715218
15.673923061962451	2.4522417	1.5659635
15.691615238649552	2.4464722	1.5641203
15.709307791746202	2.4452531	1.5637305
15.727000721698221	2.4110012	1.5527399
15.744694028951498	2.384137	1.5440651
15.76238771395202	2.3574898	1.535412
15.780081777145844	2.377461	1.5419017
15.797776218979125	2.414758	1.5539491
15.815471039898094	2.434155	1.5601779
15.833166240349064	2.44144	1.5625108
15.850861820778437	2.4471545	1.5643383
15.868557781632699	2.4543135	1.5666249
15.886254123358412	2.4836545	1.5759615
15.903950846402232	2.5100803	1.5843233
15.921647951210897	2.5458558	1.5955738
15.939345438231225	2.534157	1.5919036
15.957043307910133	2.5526495	1.5977013
15.974741560694602	2.551001	1.5971854
15.992440197031714	2.5510461	1.5971994
16.01013921736862	2.5356271	1.5923653
16.02783862215259	2.560557	1.6001741
16.045538411830933	2.5280082	1.5899712
16.06323858685107	2.5138109	1.5855002
16.080939147660512	2.4465044	1.5641305
16.09864009470684	2.425443	1.5573834
16.11634142843774	2.3904052	1.5460935
16.134043149300954	2.3623018	1.5369781
16.15174525774433	2.3561244	1.5349672
16.169447754215817	2.3614364	1.5366966
16.18715063916342	2.3795688	1.5425851
16.204853913035244	2.4076495	1.5516603
16.222557576279478	2.412092	1.553091
16.240261629344403	22.417791	4.734743
16.257966072678386	42.965134	6.5547795
16.275670906729868	38.133682	6.1752477
16.293376131947387	2.5745163	1.60453
16.31108174877957	2.5875132	1.6085749
16.328787757675133	2.5665414	1.6020429
16.34649415908287	2.5658252	1.6018194
16.364200953451657	2.5827835	1.6071041
16.38190814123048	2.6469789	1.6269538
16.39961572286839	2.6725233	1.6347854
16.41732369881455	2.7121685	1.6468662
16.43503206951817	2.7538745	1.6594802
16.45274083542859	2.7703142	1.6644261
16.47044999699522	2.8246796	1.6806784
16.488159554667558	2.8545556	1.689543
16.505869508895184	2.9253404	1.7103627
16.523579860127786	2.9798708	1.7262303
16.541290608815117	3.075805	1.7537973
16.559001755407035	3.149039	1.7745532
16.57671330035348	3.2268434	1.7963417
16.59442524410448	3.3101947	1.8193941
16.61213758711015	3.4978058	1.8702422
16.629850329820705	3.5442128	1.8826079
16.647563472686436	3.5914567	1.895114
16.665277016157724	3.48791	1.8675947
16.682990960685053	3.4371343	1.853951
16.70070530671898	3.3905423	1.8413426
16.718420054710155	3.443838	1.8557581
16.736135205109335	3.517457	1.8754885
16.753850758367335	3.6299002	1.9052297
16.771566714935087	3.6912348	1.9212587
16.789283075263597	3.7711	1.9419321
16.80699983980398	3.791352	1.9471395
16.82471700900741	3.8223834	1.9550917
16.84243458332518	3.9036582	1.9757677
16.860152563208665	4.0136104	2.0033996
16.87787094910932	4.0727024	2.0180938
16.89558974147871	4.1000295	2.024853
16.913308940768466	4.1595945	2.0395083
16.931028547430333	4.240591	2.0592694
16.94874856191613	4.3094516	2.0759218
16.966468984677785	4.3517947	2.0860956
16.98418981616729	4.3806796	2.0930073
17.00191105683676	4.413519	2.1008377
17.019632707138374	4.4335003	2.105588
17.03735476752442	4.4489136	2.1092448
17.05507723844728	4.523527	2.1268585
17.072800120359403	4.586261	2.1415558
17.090523413713353	4.617515	2.1488404
17.108247118961785	4.6269245	2.1510286
17.125971236557437	4.662188	2.15921
17.143695766953133	4.699371	2.1678033
17.161420710601806	4.6801786	2.163372
17.179146067956477	4.694772	2.166742
17.19687183947025	4.6308603	2.1519434
17.21459802559634	4.642115	2.1545568
17.232324626788028	4.611841	2.1475198
17.25005164349871	4.603976	2.1456878
17.267779076181863	4.613714	2.147956
17.285506925291074	4.61782	2.1489112
17.30323519127999	4.564165	2.1363907
17.320963874602384	4.5251107	2.127231
17.33869297571211	4.538455	2.130365
17.356422495063114	4.552776	2.1337235
17.37415243310944	4.432412	2.1053295
17.391882790305218	4.4075093	2.099407
17.40961356710468	4.491334	2.1192768
17.42734476396215	4.6185837	2.149089
17.445076381332044	4.6349382	2.1528907
17.462808419668868	4.5961843	2.1438713
17.48054087942723	4.704956	2.169091
17.498273761061835	4.8840613	2.2099912
17.51600706502747	5.2932253	2.3007011
17.533740791779024	5.881457	2.4251716
17.551474941771485	6.815924	2.6107326
17.56920951545993	8.698748	2.949364
17.586944513299528	9.927096	3.1507294
17.60467993574556	12.796	3.5771496
17.622415783253373	15.453982	3.9311554
17.64015205627843	18.321726	4.2803884
17.657888755276293	20.72961	4.552978
17.675625880702604	22.342283	4.7267623
17.69336343301311	20.774939	4.5579534
17.71110141266366	18.630472	4.3163033
17.728839820110178	15.833219	3.9790976
17.746578655808705	12.628662	3.5536828
17.764317920215372	10.43633	3.230531
17.7820576137864	8.740532	2.956439
17.79979773697811	7.4227347	2.7244697
17.81753829024692	6.073858	2.4645197
17.835279274049356	5.244398	2.290065
17.85302068884201	4.502415	2.1218896
17.870762535081607	4.081398	2.020247
17.888504813224934	3.8902943	1.9723829
17.90624752372891	3.7504096	1.9365975
17.923990667050536	3.6765513	1.9174335
17.941734243646895	3.5899186	1.894708
17.959478253975185	3.557125	1.8860343
17.9772226984927	3.4800549	1.8654906
17.994967577656833	3.413727	1.8476274
18.01271289192506	3.3448555	1.8288946
18.030458641754965	3.3188787	1.821779
18.04820482760425	3.3358107	1.8264202
18.06595144993067	3.3733184	1.8366596
18.083698509192125	3.3360627	1.8264892
18.101446005846576	3.2567532	1.8046477
18.119193940352105	3.2177167	1.7937995
18.136942313166887	3.2137187	1.7926848
18.1546911247492	3.193608	1.7870669
18.1724403755574	3.1599574	1.7776269
18.19019006604997	3.114098	1.7646807
18.207940196685467	3.1206331	1.7665313
18.225690767922575	3.1566918	1.7767081
18.243441780220046	3.1697726	1.7803855
18.261193234036764	3.103563	1.7616932
18.278945129831676	3.0497484	1.7463529
18.29669746806386	3.0412161	1.7439083
18.314450249192483	3.0230143	1.7386818
18.3322034736768	3.0582142	1.748775
18.349957141976184	3.0554	1.7479702
18.3677112545501	3.0898304	1.7577914
18.385465811858108	3.0696082	1.7520298
18.403220814359884	3.0434618	1.744552
18.420976262515172	3.0857494	1.7566301
18.43873215678387	3.1426415	1.7727497
18.456488497625923	3.149429	1.7746631
18.474245285501407	3.2283256	1.7967542
18.492002520870486	3.3129244	1.820144
18.50976020419343	3.3989346	1.84362
18.527518335930615	3.6310625	1.9055347
18.545276916542516	4.1575403	2.0390048
18.563035946489688	4.330987	2.0811024
18.580795426232832	4.7857003	2.1876245
18.598555356232698	4.6991105	2.1677432
18.616315736950185	5.01423	2.2392476
18.63407656884626	4.7008576	2.1681461
18.65183785238201	4.8416862	2.2003832
18.669599588018617	4.6329618	2.1524315
18.68736177621737	4.6204815	2.1495304
18.705124417439652	4.6095347	2.1469827
18.72288751214696	4.3854923	2.0941567
18.740651060800886	4.567436	2.137156
18.758415063863115	4.3434615	2.0840974
18.77617952179546	4.547485	2.1324832
18.793944435059814	4.3070407	2.075341
18.811709804118184	4.2634535	2.0648131
18.829475629432675	4.209331	2.0516655
18.8472419114655	3.991066	1.9977653
18.86500865067897	4.0821424	2.0204313
18.88277584753551	3.760224	1.9391297
18.90054350249763	3.7579858	1.9385525
18.918311616027957	3.4328878	1.8528054
18.936080188589226	3.351799	1.830792
18.953849220644265	3.0860503	1.7567158
18.971618712656007	2.8977232	1.70227
18.9893886650875	2.8522	1.6888458
19.007159078401887	8.026733	2.833149
19.024929953062408	32.90501	5.736289
19.042701289532435	32.861263	5.7324743
19.060473088275405	25.441153	5.0439224
19.07824534975489	2.6921027	1.6407628
19.096018074434568	2.606292	1.6144015
19.113791262778197	2.6042497	1.6137688
19.13156491524966	2.6082304	1.6150017
19.149339032312945	2.6036472	1.6135821
19.167113614432136	2.5702336	1.6031948
19.184888662071433	2.5231507	1.5884428
19.202664175695123	2.5304167	1.5907284
19.220440155767623	2.539868	1.5936964
19.238216602753447	2.5221748	1.5881356
19.2559935171172	2.4932868	1.5790145
19.27377089932361	2.4522722	1.5659733
19.291548749837514	2.4800732	1.5748248
19.309327069123835	2.463923	1.5696888
19.32710585764763	2.4992688	1.5809076
19.344885115874032	2.4857576	1.5766286
19.362664844268313	2.4708164	1.5718831
19.380445043295822	2.4525352	1.5660572
19.39822571342203	2.4698913	1.5715888
19.41600685511252	2.4978726	1.5804659
19.43378846883297	2.5068216	1.5832945
19.451570555049173	2.4758036	1.5734687
19.469353114227037	2.4708567	1.5718958
19.48713614683254	2.4802916	1.5748942
19.50491965333182	2.502606	1.5819627
19.52270363419109	2.5222974	1.5881742
19.540488089876686	2.5017474	1.5816913
19.55827302085503	2.4528627	1.5661618
19.576058427592674	2.4588196	1.5680624
19.593844310556282	2.4938824	1.5792031
19.611630670212598	2.5266008	1.5895284
19.629417507028506	2.529189	1.5903424
19.64720482147098	2.5489671	1.5965486
19.6649926140071	2.5684474	1.6026376
19.682780885104084	2.525032	1.5890349
19.70056963522921	2.4882102	1.5774062
19.718358864849908	2.4663641	1.5704662
19.7361485744337	2.5216782	1.5879793
19.753938764448215	2.5400848	1.5937643
19.771729435361202	2.5482848	1.5963348
19.789520587640506	2.483532	1.5759226
19.807312221754092	2.4840841	1.5760977
19.825104338170043	2.4677339	1.5709022
19.842896937356517	2.4684985	1.5711455
19.860690019781824	2.4667869	1.5706007
19.87848358591436	2.5310483	1.5909269
19.896277636222635	2.5920725	1.6099914
19.914072171175278	2.5655937	1.601747
19.931867191241015	2.5001502	1.5811863
19.94966269688869	2.4313362	1.5592742
19.967458688587264	2.4244406	1.5570616
19.985255166805807	2.4370544	1.5611068
20.00305213201348	2.471561	1.57212
20.020849584679578	2.4711003	1.5719734
20.038647525273507	2.4603422	1.5685478
20.05644595426477	2.4356031	1.5606419
20.07424487212299	2.4129276	1.5533601
20.092044279317903	2.4236426	1.5568053
20.109844176319353	2.4304676	1.5589957
20.127644563597304	2.4511073	1.5656012
20.145445441621817	2.3996837	1.5490912
20.16324681086307	2.3921168	1.546647
20.181048671791373	2.402398	1.5499672
20.198851024877122	2.4066243	1.5513299
20.216653870590836	2.3614993	1.536717
20.234457209403146	2.3609428	1.536536
20.252261041784802	2.3713593	1.5399219
20.270065368206662	2.4061968	1.551192
20.287870189139685	2.4313767	1.5592872
20.305675505054968	2.4409251	1.562346
20.323481316423702	2.4089787	1.5520885
20.341287623717207	2.3864098	1.5448009
20.359094427406884	2.3784473	1.5422215
20.376901727964288	2.3666873	1.5384041
20.39470952586107	2.337661	1.5289412
20.41251782156899	2.3556628	1.5348169
20.430326615559935	2.390683	1.5461833
20.448135908305886	2.392556	1.5467889
20.465945700278965	2.3686662	1.5390471
20.483755991951384	2.2967222	1.515494
20.50156678379548	2.3033433	1.517677
20.519378076283708	2.3177433	1.5224136
20.537189869888635	2.3550408	1.5346142
20.55500216508294	2.3385875	1.5292441
20.572814962339415	2.344908	1.5313092
20.59062826213098	2.3621287	1.5369219
20.60844206493066	2.3497198	1.5328796
20.626256371211593	2.3753467	1.541216
20.644071181447032	2.3431473	1.5307342
20.66188649611036	2.329894	1.526399
20.67970231567506	2.2949898	1.5149224
20.697518640614742	2.3265164	1.5252923
20.715335471403122	2.3456786	1.5315608
20.73315280851404	2.3365858	1.5285895
20.750970652421447	2.2726858	1.507543
20.768789003599412	2.2734098	1.507783
20.786607862522136	2.2745578	1.5081637
20.8044272296639	2.269559	1.5065055
20.82224710549913	2.259043	1.5030113
20.84006749050237	2.285469	1.5117768
20.857888385148268	3.8558836	1.9636405
20.8757097899116	45.97554	6.7805266
20.893531705267254	64.81991	8.051081
20.911354131690224	83.8393	9.156381
20.92917706965566	69.07859	8.311353
20.94700051963877	50.131176	7.080337
20.96482448211493	29.379808	5.4203143
20.982648957559622	4.1062393	2.0263858
21.00047394644843	2.2319493	1.493971
21.01829944925707	2.2199209	1.4899399
21.036125466461375	2.2083893	1.486065
21.053951998537297	2.2200544	1.4899848
21.071779045960906	2.258237	1.5027431
21.089606609208378	2.277129	1.5090159
21.10743468875603	2.2533805	1.5011264
21.12526328508028	2.2454975	1.4984984
21.143092398657675	2.2209806	1.4902955
21.16092202996488	2.2122674	1.4873693
21.17875217947867	2.181973	1.4771503
21.19658284767596	2.167362	1.4721963
21.21441403503377	2.1692247	1.4728289
21.232245742029225	2.1601562	1.469747
21.2500779691396	2.181064	1.4768425
21.26791071684227	2.1683235	1.4725229
21.28574398561475	2.1760514	1.4751445
21.30357777593465	2.1571248	1.4687153
21.321412088279704	2.1466367	1.4651405
21.339246923127792	2.1311483	1.4598453
21.357082280956888	2.1302383	1.4595336
21.3749181622451	2.1385849	1.4623901
21.392754567470647	2.1270611	1.4584447
21.41059149711187	2.102191	1.4498935
21.42842895164726	2.1015668	1.4496782
21.446266931555378	2.1430874	1.4639287
21.464105437314945	2.1631763	1.470774
21.481944469404798	2.1449804	1.4645752
21.49978402830388	2.1300159	1.4594574
21.51762411449127	2.11939	1.4558125
21.53546472844617	2.0934134	1.4468633
21.553305870647876	2.069113	1.4384412
21.571147541575865	2.0628784	1.4362724
21.58898974170967	2.068203	1.4381248
21.60683247152899	2.1033914	1.4503074
21.62467573151363	2.09256	1.4465684
21.642519522143523	2.0719278	1.4394193
21.660363843898722	2.0488684	1.4313868
21.6782086972594	2.0483923	1.4312205
21.696054082705864	2.0443819	1.4298189
21.713900000718535	2.0419605	1.4289718
21.73174645177795	2.057612	1.4344379
21.749593436364794	2.0400937	1.4283185
21.767440954959845	2.0189023	1.4208808
21.785289008044032	2.012986	1.4187974
21.803137596098388	2.0177374	1.4204708
21.820986719604086	2.01317	1.4188622
21.838836379042412	1.9922729	1.411479
21.85668657489478	2.009122	1.4174349
21.87453730764273	2.0378954	1.4275488
21.892388577767914	2.043436	1.4294881
21.91024038575213	2.05679	1.4341514
21.928092732077285	2.0513031	1.4322371
21.945945617225426	2.0539603	1.4331645
21.963799041678694	2.023107	1.4223597
21.981653005919398	31.333225	5.597609
21.999507510429943	78.14966	8.84023
22.01736255569286	73.1142	8.550684
22.035218142190818	4.2307835	2.056887
22.05307427040661	2.0313065	1.4252391
22.07093094082315	2.0003247	1.4143283
22.088788153923474	1.9956748	1.4126836
22.106645910190746	2.0314791	1.4252996
22.12450421010827	2.0108798	1.4180549
22.142363054159464	2.015913	1.4198285
22.16022244282787	1.9766597	1.4059373
22.178082376597164	1.9672059	1.4025712
22.195942855951145	1.9722244	1.4043591
22.213803881373742	1.9549088	1.3981806
22.231665453349002	1.9493556	1.3961933
22.24952757236111	1.9140159	1.3834796
22.26739023889438	1.881202	1.3715692
22.28525345343323	1.8766698	1.369916
22.30311721646225	1.8875781	1.3738916
22.320981528466113	1.9173303	1.3846769
22.33884638992964	1.9134449	1.3832732
22.356711801337788	1.9109844	1.3823836
22.37457776317561	1.9043223	1.3799719
22.392444275928337	1.9298841	1.3892027
22.410311340081282	1.9472865	1.395452
22.428178956119904	1.9638475	1.4013734
22.446047124529805	1.9320345	1.3899764
22.46391584579669	1.925713	1.3877006
22.481785120406414	1.9442859	1.3943765
22.49965494884496	1.9688203	1.4031466
22.51752533159841	1.9437602	1.394188
22.53539626915302	1.8866342	1.373548
22.553267761995137	1.8839806	1.3725817
22.571139810611264	1.9078677	1.3812559
22.589012415488025	1.9355673	1.3912467
22.60688557711216	1.9471886	1.395417
22.624759295970566	1.971449	1.404083
22.642633572550263	1.9766538	1.4059352
22.660508407338362	1.9375602	1.3919628
22.67838380082217	1.9028955	1.3794547
22.696259753489077	1.9303106	1.3893561
22.714136265826614	1.9304231	1.3893967
22.73201333832246	1.9046313	1.3800838
22.74989097146439	1.9063041	1.3806897
22.76776916574035	1.9033707	1.379627
22.785647921638393	1.9110692	1.3824142
22.803527239646712	1.9200635	1.3856635
22.82140712025363	1.9563274	1.3986877
22.839287563947593	1.9395587	1.3926804
22.85716857121719	1.916826	1.3844949
22.875050142551135	1.9044337	1.3800123
22.892932278438277	1.9025129	1.3793161
22.910814979367604	1.884794	1.372878
22.928698245828222	1.8876828	1.3739297
22.946582078309387	1.935017	1.3910489
22.96446647730047	1.9456685	1.3948722
22.98235144329098	1.9259926	1.3878014
23.000236976770562	1.896214	1.3770308
23.018123078229	1.8867273	1.3735819
23.03600974815619	1.9262549	1.3878958
23.053896987042194	1.9176863	1.3848056
23.071784795377173	1.9345026	1.390864
23.08967317365145	1.9641097	1.401467
23.10756212235546	2.0014186	1.414715
23.125451641979787	1.9728225	1.404572
23.143341733015134	1.9609396	1.4003356
23.161232395952357	1.9521556	1.3971956
23.179123631282426	1.9516082	1.3969997
23.197015439496468	1.9472889	1.395453
23.214907821085717	1.977894	1.4063761
23.23280077654157	1.988397	1.4101053
23.250694306355538	1.9982982	1.4136118
23.268588411019277	1.9695532	1.4034077
23.28648309102458	1.9254588	1.387609
23.304378346863356	1.9243354	1.3872042
23.322274179027676	1.9374541	1.3919246
23.340170588009723	1.9558194	1.3985062
23.358067574301852	1.9205179	1.3858275
23.37596513839651	1.9143013	1.3835827
23.39386328078629	1.9324517	1.3901265
23.411762001963947	1.9466796	1.3952346
23.429661302422353	1.9353421	1.3911657
23.4475611826545	1.9336201	1.3905467
23.46546164315356	1.9460107	1.3949949
23.48336268441279	1.9329381	1.3903015
23.501264306925638	1.9232317	1.3868062
23.51916651118564	1.9104669	1.3821964
23.537069297686497	1.9049696	1.3802063
23.554972666922037	1.8740342	1.3689537
23.57287661938623	1.9023556	1.3792591
23.59078115557318	1.9341614	1.3907413
23.608686275977128	1.9503137	1.3965364
23.62659198109246	1.935947	1.391383
23.6444982714137	1.9337922	1.3906085
23.66240514743549	1.9473265	1.3954664
23.68031260965263	1.9404103	1.392986
23.698220658560068	1.9279174	1.3884946
23.716129294652845	1.9204414	1.3857999
23.7340385184262	1.8814713	1.3716674
23.75194833037546	1.9023843	1.3792695
23.769858730996123	1.9245634	1.3872863
23.78776972078382	1.9505776	1.3966308
23.80568130023431	1.9270328	1.3881761
23.823593469843495	1.8959278	1.3769269
23.841506230107424	1.9000291	1.3784155
23.859419581522275	1.930475	1.3894154
23.87733352458438	1.9766284	1.4059262
23.89524805979019	1.9608591	1.4003068
23.913163187636318	1.9185115	1.3851035
23.931078908619508	1.914566	1.3836784
23.948995223236633	1.9663006	1.4022484
23.966912131984735	2.000676	1.4144526
23.98482963536096	2.0380054	1.4275873
24.002747733862616	2.0064578	1.4164948
24.020666427987155	2.0421138	1.4290254
24.038585718232156	2.0778167	1.4414634
24.056505605095353	2.0570047	1.4342262
24.074426089074617	2.0625029	1.4361416
24.092347170667946	2.0439548	1.4296695
24.110268850373515	2.0473318	1.43085
24.128191128689586	2.0863907	1.4444344
24.146114006114626	2.1008375	1.4494267
24.164037483147187	2.0739274	1.4401137
24.181961560286005	2.0548139	1.4334621
24.199886238029926	2.0126429	1.4186765
24.21781151687797	1.9786437	1.4066427
24.235737397329274	1.971419	1.4040723
24.253663879883135	2.0183213	1.4206764
24.271590965038975	2.0412853	1.4287355
24.289518653296376	2.0296826	1.4246693
24.30744694515505	2.036927	1.4272095
24.32537584111486	2.0397186	1.4281871
24.34330534167581	2.0764673	1.4409952
24.361235447338046	2.1289413	1.4590892
24.379166158601876	2.1163971	1.4547843
24.39709747596772	2.080739	1.4424767
24.41502939993615	2.047743	1.4309938
24.432961931007917	2.0048845	1.4159395
24.450895069683856	1.976486	1.4058756
24.468828816465	2.0206637	1.4215006
24.4867631718525	2.040105	1.4283224
24.504698136347656	2.0134647	1.418966
24.52263371045192	1.9797341	1.4070302
24.540569894666874	1.9784528	1.4065748
24.558506689494266	1.9898971	1.4106371
24.57644409543597	1.9977828	1.4134295
24.594382112994012	1.9787898	1.4066947
24.61232074267057	1.9773259	1.4061742
24.630259984967953	1.9787242	1.4066713
24.64819984038863	1.9719487	1.4042609
24.66614030943522	2.00534	1.4161003
24.684081392610462	2.009105	1.417429
24.702023090417274	2.0160425	1.4198741
24.7199654033587	2.0029857	1.4152688
24.737908331937927	2.014199	1.4192247
24.755851876658305	2.0426874	1.4292262
24.773796038023324	2.0760605	1.4408541
24.79174081653661	2.1079943	1.4518933
24.809686212701962	2.121137	1.4564123
24.827632227023294	2.1273384	1.4585398
24.8455788600047	2.131815	1.4600736
24.8635261121504	2.134805	1.4610971
24.88147398396475	2.1274576	1.4585807
24.899422475952303	2.106975	1.4515423
24.917371588617698	2.111302	1.453032
24.935321322465768	2.152827	1.4672515
24.953271678001478	2.2719958	1.5073141
24.97122265572994	2.435492	1.5606064
24.989174256156414	2.8083138	1.6758025
25.00712647978632	3.5026796	1.8715447
25.02507932712521	4.484264	2.117608
25.043032798678798	6.016592	2.4528742
25.060986894952933	7.615649	2.7596467
25.078941616453637	9.068637	3.0114179
25.096896963687055	9.97863	3.158897
25.114852937159508	10.649562	3.2633667
25.132809537377444	10.367927	3.2199266
25.150766764847468	9.734307	3.119985
25.168724620076347	8.462335	2.9090092
25.186683103570985	7.289477	2.699903
25.204642215838426	5.853209	2.4193406
25.222601957385894	4.6973505	2.1673372
25.24056232872074	3.5697844	1.8893872
25.25852333035048	2.8579533	1.6905482
25.276484962782778	2.4048111	1.5507454
25.294447226525435	2.189291	1.4796253
25.312410122086423	2.0436678	1.4295691
25.330373649973843	2.0016387	1.4147928
25.348337810695988	1.9811851	1.4075458
25.366302604761245	1.9403714	1.3929721
25.384268032678207	1.9055476	1.3804158
25.40223409495558	1.9072003	1.3810142
25.420200792102257	1.8935125	1.3760496
25.438168124627246	1.9053308	1.3803372
25.45613609303974	1.8769124	1.3700045
25.474104697849057	1.9175694	1.3847634
25.492073939564698	1.9259025	1.3877689
25.510043818696285	1.9052125	1.3802943
25.528014335753614	1.8464488	1.358841
25.54598549124664	1.868123	1.366793
25.56395728568544	1.8900055	1.3747747
25.58192971958028	1.8689805	1.3671067
25.59990279344156	1.8538747	1.3615707
25.617876507779833	1.8988959	1.3780043
25.635850863105826	1.9007587	1.3786801
25.653825859930386	1.8623618	1.3646837
25.671801498764548	1.8841531	1.3726445
25.68977778011949	1.9027171	1.3793901
25.707754704506524	1.9009819	1.378761
25.725732272437153	1.8350289	1.3546324
25.743710484423012	1.8357652	1.3549042
25.761689340975888	1.8486565	1.3596531
25.77966884260774	1.8728902	1.3685358
25.797648989830662	1.8774158	1.3701882
25.815629783156922	1.8958355	1.3768934
25.83361122309895	1.9624916	1.4008896
25.85159331016929	1.903954	1.3798383
25.869576044880695	1.8495092	1.3599666
25.887559427746034	1.846063	1.358699
25.90554345927836	1.82297	1.3501741
25.92352813999086	1.8236121	1.3504118
25.94151347039689	1.9008878	1.3787268
25.959499451009965	1.9237092	1.3869784
25.97748608234374	1.9012154	1.3788457
25.995473364912062	1.832274	1.3536152
26.013461299228904	1.8055043	1.3436905
26.03144988580839	1.8167536	1.34787
26.04943912516483	1.8285154	1.3522261
26.067429017812675	1.8179209	1.348303
26.085419564266537	1.8120943	1.3461405
26.103410765041186	1.7902503	1.3380023
26.12140262065155	1.7759458	1.3326461
26.139395131612723	1.8069046	1.3442115
26.157388298439948	1.8073851	1.3443903
26.17538212164861	1.8208582	1.3493918
26.193376601754295	1.8771827	1.3701031
26.211371739272714	1.8294269	1.352563
26.229367534719746	1.8152401	1.3473085
26.247363988611433	1.7939109	1.3393695
26.26536110146397	1.8202811	1.349178
26.283358873793727	1.8299856	1.3527696
26.301357306117204	1.8558929	1.3623116
26.319356398951104	1.8392993	1.3562077
26.33735615281224	1.8318839	1.353471
26.35535656821762	1.8347162	1.354517
26.373357645684404	1.7947067	1.3396666
26.39135938572991	1.8061475	1.3439299
26.409361788871614	1.8379978	1.3557278
26.427364855627165	1.8606039	1.3640395
26.445368586514352	1.8729212	1.3685471
26.46337298205115	1.8673348	1.3665045
26.48137804275568	1.8698305	1.3674175
26.499383769146217	1.8827245	1.3721241
26.517390161741215	1.8959109	1.3769208
26.53539722105928	1.9210125	1.386006
26.553404947619182	1.9268575	1.3881129
26.571413341939856	1.8817258	1.3717601
26.589422404540397	1.8727394	1.3684807
26.60743213594006	1.878811	1.3706973
26.62544253665827	1.8357954	1.3549153
26.64345360721459	1.7721523	1.331222
26.66146534812879	1.7821093	1.3349566
26.679477759920758	1.8019457	1.3423657
26.69749084311057	1.8472189	1.3591243
26.71550459821847	1.8453318	1.3584299
26.733519025764842	1.8117645	1.346018
26.751534126270258	1.800404	1.3417913
26.769549900255434	1.7884461	1.337328
26.787566348241267	1.7987437	1.3411726
26.80558347074881	1.8302963	1.3528844
26.823601268299267	1.8158462	1.3475333
26.841619741414036	1.8503546	1.3602774
26.85963889061465	1.8994642	1.3782105
26.877658716422832	1.8953687	1.3767239
26.89567921936045	1.8389016	1.3560611
26.913700399949544	1.8649693	1.3656387
26.93172225871233	1.8804829	1.371307
26.949744796171174	1.8368319	1.3552977
26.967768012848605	1.803664	1.3430055
26.98579190926733	1.7975498	1.3407273
27.003816485950225	1.8123842	1.3462483
27.021841743420318	1.8106939	1.3456203
27.039867682200814	1.8363762	1.3551296
27.057894302815072	1.8927221	1.3757623
27.07592160578664	1.9130011	1.3831128
27.0939495916392	1.8421439	1.357256
27.111978260896635	1.7962652	1.3402482
27.13000761408296	1.7897962	1.3378327
27.148037651722397	1.7921187	1.3387004
27.166068374339304	1.8365706	1.3552014
27.184099782458215	1.8864543	1.3734826
27.20213187660384	1.8664906	1.3661957
27.22016465730105	1.8547575	1.3618948
27.23819812507487	1.8290393	1.3524199
27.256232280450533	1.8219016	1.3497783
27.274267123953383	1.7709141	1.3307569
27.292302656108987	1.7538947	1.3243469
27.31033887744306	1.7403829	1.3192357
27.32837578848146	1.7422745	1.3199525
27.34641338975026	1.7564917	1.325327
27.364451681775673	1.7897705	1.337823
27.382490665084074	1.8229718	1.3501748
27.400530340202046	1.8235629	1.3503937
27.41857070765629	1.8192775	1.3488059
27.436611767973726	1.8690705	1.3671396
27.454653521681404	1.8898973	1.3747354
27.472695969306564	1.8342718	1.354353
27.490739111376627	1.8551154	1.3620262
27.508782948419153	1.8583438	1.3632108
27.526827480961902	1.8799387	1.3711085
27.54487270953279	1.8634123	1.3650686
27.562918634659898	1.8198395	1.3490143
27.580965256871508	1.8583794	1.3632239
27.599012576696026	1.8805735	1.37134
27.617060594662068	1.8640339	1.3652962
27.63510931129842	1.8387254	1.3559961
27.65315872713401	1.8205111	1.3492632
27.67120884269797	1.7941548	1.3394606
27.68925965851958	1.7852798	1.3361436
27.707311175128307	1.8822069	1.3719355
27.725363393053787	1.9528651	1.3974495
27.74341631282583	1.92953	1.3890753
27.7614699349744	1.9191434	1.3853315
27.77952426002968	2.0993004	1.4488963
27.797579288521973	2.1737494	1.474364
27.815635020981784	2.656235	1.629796
27.83369145793979	2.8003361	1.6734204
27.85174859992682	2.6154702	1.6172415
27.869806447473923	2.4168246	1.554614
27.887865001112267	2.0747762	1.4404083
27.905924261373233	1.9943769	1.412224
27.92398422878836	1.9182308	1.3850021
27.94204490388936	1.8423992	1.3573501
27.96010628720813	1.8078834	1.3445755
27.978168379276728	1.8466998	1.3589333
27.9962311806274	1.8793669	1.3709
28.014294691792568	1.8740646	1.3689648
28.0323589133048	1.8908914	1.3750969
28.050423845696887	1.8928609	1.3758128
28.068489489501758	1.8879426	1.3740243
28.086555845252523	1.8800763	1.3711587
28.104622913482487	1.9447992	1.3945606
28.122690694725115	1.9369748	1.3917524
28.14075918951405	1.9021081	1.3791693
28.15882839838312	1.9086559	1.3815411
28.176898321866304	1.9670289	1.402508
28.1949689604978	2.0212348	1.4217013
28.213040314811945	2.0390973	1.4279697
28.23111238534327	1.9949305	1.41242
28.249185172626493	1.9733037	1.4047433
28.267258677196473	1.9430559	1.3939354
28.285332899588294	1.9337233	1.3905838
28.303407840337172	1.8975878	1.3775296
28.321483499978545	1.9094502	1.3818285
28.33955987904799	1.960948	1.4003385
28.357636978081285	2.0184004	1.4207042
28.37571479761439	2.052388	1.4326158
28.393793338183425	2.0523515	1.432603
28.41187260032469	2.0464318	1.4305354
28.429952584574686	2.0669835	1.4377007
28.448033291470065	2.095945	1.4477378
28.46611472154769	2.0397007	1.4281809
28.484196875344566	2.0109963	1.4180961
28.502279753397914	2.0309718	1.4251217
28.52036335624511	2.0182836	1.4206631
28.538447684423716	2.0424557	1.4291451
28.556532738471482	2.0637596	1.4365791
28.574618518926325	2.0589654	1.4349096
28.59270502632635	2.0253708	1.4231552
28.61079226120985	1.967872	1.4028087
28.628880224115274	1.9995332	1.4140486
28.646968915581287	2.0724869	1.4396135
28.66505833614671	2.0764601	1.4409927
28.68314848635055	2.0715034	1.4392718
28.701239366732004	2.119157	1.4557325
28.71933097783044	2.116609	1.4548571
28.737423320185403	2.1283476	1.4588858
28.75551639433665	2.1166198	1.4548608
28.773610200824074	2.1138024	1.4538921
28.791704740187793	2.1147223	1.4542085
28.80980001296809	2.1218636	1.4566618
28.827896019705413	2.1443758	1.4643687
28.845992760940433	2.160511	1.4698677
28.86409023721397	2.2176523	1.4891784
28.88218844906704	2.2482934	1.499431
28.900287397040845	2.2521534	1.5007176
28.918387081676755	2.2620482	1.5040107
28.936487503516343	2.2982814	1.5160084
28.954588663101365	2.299926	1.5165507
28.97269056097374	2.3001044	1.5166095
28.990793197675597	2.3008435	1.5168531
29.00889657374923	2.3199592	1.5231413
29.027000689737125	2.3401031	1.5297396
29.04510554618196	2.3987582	1.5487925
29.06321114362659	2.4532788	1.5662946
29.08131748261405	2.5453944	1.5954292
29.099424563687567	2.5631948	1.600998
29.11753238739057	2.6237733	1.6198065
29.13564095426663	2.616762	1.6176409
29.15375026485954	2.6092334	1.6153122
29.171860319713275	2.6250262	1.6201932
29.18997111937199	2.6693482	1.633814
29.20808266438002	2.7509031	1.6585847
29.226194955281898	2.7923186	1.6710232
29.244307992622335	2.8193066	1.679079
29.26242177694624	2.8794	1.6968795
29.2805363087987	2.901615	1.7034128
29.29865158872498	2.9006178	1.70312
29.316767617270557	2.9273846	1.7109601
29.334884394981064	2.9398534	1.7146001
29.353001922402367	2.9334943	1.7127447
29.37112020008047	2.9724743	1.7240865
29.389239228561596	3.086984	1.7569815
29.407359008392152	3.2845366	1.812329
29.42547954011872	3.5493882	1.883982
29.44360082428809	4.0762424	2.0189707
29.46172286144722	5.063184	2.2501519
29.479845652143283	6.7405043	2.5962481
29.497969196923606	9.495762	3.0815194
29.516093496335728	13.274836	3.6434648
29.5342185509274	16.904211	4.111473
29.55234436124651	20.032059	4.475719
29.570470927841175	21.37272	4.623064
29.588598251259686	20.968536	4.5791416
29.60672633205055	19.186497	4.3802395
29.624855170762405	16.21616	4.0269294
29.642984767944146	12.859561	3.586023
29.66111512414481	9.57976	3.0951188
29.67924623991366	7.0973115	2.664078
29.697378115800138	5.344395	2.3117948
29.71551075235387	4.426065	2.1038215
29.733644150124675	3.9907045	1.9976748
29.751778309662576	3.6892302	1.9207369
29.769913231517766	3.4974434	1.8701453
29.78804891624066	3.3966138	1.8429905
29.806185364381818	3.324925	1.8234377
29.82432257649206	3.2775474	1.8103998
29.842460553122333	3.31335	1.820261
29.86059929482382	3.3260996	1.8237598
29.878738802147872	3.3061585	1.8182845
29.896879075646048	3.281727	1.8115537
29.915020115870114	3.27468	1.8096076
29.933161923371976	3.2607217	1.8057468
29.951304498703777	3.2848058	1.8124033
29.969447842417857	3.3553128	1.8317513
29.987591955066733	3.3447006	1.8288523
30.005736837203123	3.2896948	1.8137516
30.023882489379943	3.2068882	1.7907786
30.04202891215028	3.1575944	1.7769622
30.060176106067455	3.2270157	1.7963896
30.078324071684946	3.239988	1.7999967
30.09647280955646	3.2305126	1.7973627
30.114622320235863	3.1563354	1.7766079
30.132772604277257	3.1040792	1.7618397
30.1509236622349	3.0940497	1.7589911
30.16907549466328	3.0899837	1.7578349
30.18722810211705	3.138422	1.7715592
30.205381485151097	3.1390617	1.7717397
30.22353564432045	3.169697	1.7803643
30.241690580180403	3.1683686	1.7799911
30.25984629328638	3.0665722	1.7511631
30.278002784194037	3.0132256	1.7358645
30.296160053459246	3.0356925	1.7423239
30.314318101638033	3.0176804	1.7371472
30.332476929286646	2.9824958	1.7269903
30.35063653696153	2.8993144	1.7027373
30.368796925219307	2.9401112	1.7146752
30.386958094616844	2.893648	1.7010726
30.40512004571115	2.888741	1.6996297
30.423282779059463	2.906712	1.7049083
30.441446295219233	2.9563498	1.719404
30.459610594748067	2.8523479	1.6888895
30.47777567820382	2.7937903	1.6714635
30.495941546144504	2.8467042	1.687218
30.51410819912835	2.922875	1.7096417
30.532275637713795	2.8632698	1.69212
30.55044386245946	2.8330972	1.6831807
30.56861287392416	2.7988293	1.6729702
30.586782672666956	2.750594	1.6584915
30.604953259247047	2.7910523	1.6706443
30.623124634223885	2.8505328	1.6883521
30.641296798157075	2.8545527	1.6895422
30.659469751606462	2.8392994	1.6850221
30.677643495132074	2.810978	1.6765971
30.695818029294152	2.8271465	1.6814121
30.713993354653116	2.8090055	1.6760088
30.73216947176962	2.7231605	1.6502001
30.75034638120448	2.7163105	1.6481234
30.768524083518756	2.8038344	1.6744654
30.786702579273673	2.8167326	1.6783124
30.80488186903069	2.8500533	1.6882101
30.82306195335144	3.0306172	1.7408668
30.841242832797782	3.3711295	1.8360636
30.85942450793176	3.70354	1.9244584
30.877606979315637	4.007361	2.0018394
30.895790247511883	4.3359847	2.0823028
30.913974313083134	4.753709	2.1803002
30.932159176592283	5.319486	2.306401
30.95034483860237	5.779659	2.404092
30.968531299676698	5.85374	2.4194503
30.98671856037873	5.4763727	2.3401651
31.00490662127215	5.033264	2.2434938
31.023095482920848	4.526888	2.1276484
31.04128514588892	3.8429298	1.9603392
31.059475610740662	3.2640615	1.8066714
31.07766687804056	2.8656104	1.6928114
31.09585894835335	2.661205	1.63132
31.11405182224393	2.5268044	1.5895926
31.132245500277417	2.532558	1.5914012
31.15043998301914	2.5373285	1.5928994
31.168635271034628	2.5308325	1.590859
31.18683136488964	2.444052	1.5633464
31.20502826515008	2.447287	1.5643808
31.223225972382135	2.4370499	1.5611054
31.241424487152155	2.3613882	1.5366809
31.259623810026692	2.3521376	1.533668
31.27782394157253	2.4555655	1.5670244
31.296024882356644	2.5560756	1.5987731
31.314226632946237	2.5441163	1.5950286
31.332429193908684	2.5092633	1.5840654
31.350632565811598	2.4713004	1.572037
31.368836749222787	2.438463	1.5615579
31.387041744710295	2.441386	1.5624936
31.40524755284232	2.4339116	1.5600998
31.423454174187317	2.4353666	1.5605661
31.441661609313922	2.4713361	1.5720484
31.459869858791002	2.481331	1.5752242
31.478078923187628	2.433306	1.5599058
31.496288803073064	2.4616477	1.5689639
31.514499499016807	2.4030256	1.5501696
31.532711011588546	2.3623734	1.5370014
31.550923341358178	2.3099203	1.5198421
31.56913648889584	2.3375993	1.528921
31.587350454771844	2.3537018	1.5341779
31.605565239556732	2.3072329	1.5189579
31.62378084382127	2.2723897	1.5074447
31.641997268136382	2.3441017	1.5310459
31.660214513073274	2.3581674	1.5356326
31.67843257920331	2.2964306	1.5153978
31.6966514670981	2.2937598	1.5145164
31.71487117732944	2.2681558	1.5060397
31.733091710469346	2.3198948	1.52312
31.751313067090052	2.3499305	1.5329483
31.769535247764008	2.3721495	1.5401784
31.787758253063878	2.375194	1.5411664
31.805982083562526	2.3315136	1.5269295
31.824206739833024	2.2859335	1.5119303
31.84243222244869	2.2616146	1.5038666
31.860658531983013	2.2718287	1.5072587
31.878885669009737	2.3142014	1.5212499
31.897113634102784	2.373346	1.5405668
31.91534242783632	2.3481581	1.5323701
31.933572050784694	2.2819848	1.5106239
31.951802503522508	2.2068212	1.4855373
31.970033786624548	2.1904993	1.4800335
31.988265900665834	2.1470463	1.4652803
32.006498846221575	2.1856341	1.478389
32.02473262386724	2.2093132	1.4863758
32.04296723417845	2.227241	1.4923944
32.0612026777311	2.191558	1.4803911
32.07943895510129	2.1909773	1.480195
32.097676066865304	2.2189658	1.4896194
32.115914013599685	2.172446	1.473922
32.13415279588115	2.0834386	1.4434122
32.152392414286666	2.1216025	1.4565722
32.1706328693934	2.1565905	1.4685334
32.18887416177875	2.1386971	1.4624285
32.20711629202032	2.1293194	1.4592187
32.225359260695924	2.1904593	1.48002
32.243603068383614	2.2467606	1.4989198
32.26184771566166	2.2471974	1.4990655
32.28009320310852	2.2376785	1.4958872
32.2983395313029	2.19611	1.4819278
32.31658670082372	2.1694615	1.4729092
32.33483471225012	2.1559138	1.4683031
32.35308356616143	2.2202349	1.4900453
32.371333263137245	2.2007995	1.4835092
32.38958380375734	2.2262785	1.4920719
32.407835188601744	2.2181666	1.489351
32.42608741825067	2.1033726	1.4503008
32.444340493284585	2.0876412	1.4448673
32.46259441428416	2.2232609	1.4910604
32.48084918183028	2.2627728	1.5042516
32.49910479650405	2.2223852	1.4907666
32.51736125888683	2.0914009	1.4461676
32.53561856956014	2.0673916	1.4378427
32.5538767291058	2.0545144	1.4333577
32.572135738105764	2.012159	1.4185059
32.59039559714228	2.0591056	1.4349585
32.608656306797776	2.1342509	1.4609076
32.62691786765491	2.1222267	1.4567864
32.645180280296586	2.1095543	1.4524305
32.663443545305896	2.0959241	1.4477307
32.68170766326619	2.0566828	1.434114
32.69997263476099	2.0419443	1.4289662
32.7182384603741	2.091712	1.4462752
32.7365051406895	2.092198	1.4464432
32.75477267629144	2.0363333	1.4270015
32.77304106776434	2.049682	1.431671
32.79131031569289	2.0518503	1.4324281
32.809580420661966	1.9755399	1.405539
32.827851383256714	1.9506574	1.3966594
32.84612320406245	1.9576925	1.3991756
32.86439588366476	1.9036926	1.3797437
32.88266942264945	1.8955626	1.3767943
32.9009438216025	1.942538	1.3937496
32.9192190811102	2.0318875	1.4254429
32.937495201758985	2.0620327	1.4359779
32.95577218413556	2.0293653	1.4245579
32.974050028826866	2.027408	1.4238707
32.992328736420035	2.0596728	1.435156
33.010608307502444	2.0226965	1.4222153
33.02888874266169	1.9578475	1.3992311
33.047170042485604	1.9765714	1.405906
33.06545220756225	1.9536572	1.3977329
33.083735238479896	1.9277382	1.3884301
33.10201913582707	1.9858712	1.4092094
33.12030390019248	2.0185604	1.4207605
33.138589532165135	2.0706756	1.4389843
33.15687603233419	2.1096652	1.4524686
33.17516340128909	2.0016944	1.4148126
33.19345163961947	1.9428599	1.3938651
33.211740747915215	1.9957995	1.4127277
33.23003072676643	1.9724475	1.4044385
33.248321576763466	1.9781907	1.4064816
33.266613298496885	1.9939685	1.4120795
33.28490589255747	2.0611084	1.4356561
33.30319935953626	2.039174	1.4279965
33.32149370002451	2.0473022	1.4308397
33.339788914613706	1.98733	1.4097269
33.358085003895575	1.8540568	1.3616376
33.376381968462034	1.823815	1.350487
33.39467980890529	1.9245605	1.3872854
33.41297852581774	1.8930031	1.3758645
33.43127811979204	1.9554069	1.3983587
33.44957859142105	2.038107	1.4276228
33.467879941297866	2.0241942	1.4227418
33.486182170015844	2.000803	1.4144974
33.50448527816853	2.054902	1.433493
33.522789266349754	1.9697846	1.4034902
33.541094135153514	1.8792443	1.3708553
33.55939988517411	1.8928193	1.3757977
33.57770651700602	1.915741	1.384103
33.59601403124398	1.8301545	1.3528321
33.61432242848296	1.7971541	1.3405797
33.632631709318154	1.8150793	1.3472488
33.650941874344994	1.877676	1.3702831
33.66925292415916	1.9422722	1.3936542
33.68756485935654	1.9102818	1.3821294
33.70587768053328	1.9500823	1.3964535
33.724191388285746	2.0193455	1.4210367
33.74250598321054	2.0017865	1.414845
33.760821465904506	2.043372	1.4294657
33.77913783696474	2.0562065	1.4339478
33.79745509698852	2.0126326	1.4186728
33.815773246573414	1.8783908	1.370544
33.8340922863172	1.9533432	1.3976206
33.852412216817896	2.1077068	1.4517944
33.87073303867377	2.1014428	1.4496354
33.889054752483304	2.0624082	1.4361087
33.907377358845245	1.9562813	1.3986713
33.92570085835853	1.9120318	1.3827623
33.94402525162239	1.9101747	1.3820907
33.96235053923627	1.981245	1.407567
33.980676721799824	2.046981	1.4307275
33.999003799912984	2.020142	1.421317
34.01733177417592	1.9044187	1.3800068
34.03566064518901	1.8103943	1.3455089
34.0539904135529	1.7284648	1.314711
34.07232107986846	1.8969588	1.3773013
34.090652644736785	2.0211356	1.4216665
34.108985108759235	2.034283	1.4262829
34.12731847253742	2.0764315	1.4409828
34.14565273667313	2.0890386	1.4453506
34.16398790176847	1.9633597	1.4011993
34.18232396842574	1.8429985	1.3575708
34.20066093724749	1.9153852	1.3839744
34.21899880883651	1.9672489	1.4025865
34.23733758379583	1.962067	1.400738
34.25567726272874	1.8894825	1.3745844
34.27401784623872	1.8783914	1.3705442
34.29235933492957	1.9516534	1.3970159
34.31070172940526	1.8951614	1.3766487
34.32904503027003	1.8090434	1.3450068
34.347389238128386	1.8945622	1.376431
34.36573435358502	1.9732949	1.4047401
34.38408037724492	1.9963497	1.4129224
34.402427309713296	1.9238375	1.3870248
34.42077515159559	1.9579201	1.399257
34.43912390349752	2.082166	1.4429712
34.45747356602499	2.06193	1.4359422
34.47582413978423	2.0559442	1.4338564
34.49417562538163	2.0416005	1.4288459
34.51252802342388	1.9446224	1.3944972
34.53088133451789	1.893995	1.3762249
34.54923555927084	2.0130134	1.418807
34.567590698290104	1.9685267	1.403042
34.58594675218336	2.0310674	1.4251552
34.6043037215585	2.1253462	1.4578567
34.62266160702365	2.1883128	1.4792947
34.641020409187234	2.0966544	1.4479829
34.65938012865785	2.026328	1.4234915
34.677740766044394	2.0740504	1.4401563
34.69610232195598	2.0426862	1.4292258
34.714464797002016	1.90541	1.380366
34.73282819179208	1.9233657	1.3868546
34.751192506936064	1.9847655	1.408817
34.76955774304408	2.094563	1.4472605
34.7879239007265	2.200097	1.4832724
34.80629098059391	2.034981	1.4265276
34.824658983257194	1.945693	1.394881
34.843027909327446	2.0243099	1.4227824
34.86139775941603	1.9388193	1.3924149
34.879768534134534	1.8950355	1.3766029
34.89814023409483	1.9305235	1.3894328
34.91651285990901	1.8619484	1.3645322
34.93488641218944	1.7752893	1.3323998
34.95326089154871	1.758446	1.3260641
34.97163629859967	1.692632	1.3010119
34.99001263395542	1.7840717	1.3356915
35.00838989822934	1.7964927	1.3403331
35.02676809203499	1.8024168	1.3425412
35.04514721598624	1.9509794	1.3967746
35.063527270697215	2.0112307	1.4181787
35.081908256782256	1.904497	1.3800352
35.10029017485597	1.8945287	1.3764188
35.11867302553321	2.0858655	1.4442526
35.137056809429104	2.2785323	1.5094808
35.155441527159006	2.1342008	1.4608904
35.173827179338524	1.9830099	1.4081938
35.19221376658354	2.0759957	1.4408315
35.21060128951017	2.0574527	1.4343823
35.2289897487348	1.9935645	1.4119364
35.24737914487405	2.0516534	1.4323593
35.26576947854479	1.9076651	1.3811826
35.28416075036418	2.095345	1.4475306
35.30255296094958	2.4446301	1.5635313
35.32094611091867	2.4087136	1.5520031
35.33934020088932	2.1261687	1.4581388
35.35773523147969	2.0236502	1.4225506
35.3761312033082	2.2374525	1.4958117
35.394528116993506	2.2384694	1.4961516
35.41292597315452	1.8309281	1.353118
35.431324772410434	2.156449	1.4684854
35.449724515380666	2.402737	1.5500764
35.46812520268491	2.178362	1.4759275
35.486526834943106	2.18643	1.4786582
35.504929412775454	1.9843969	1.4086863
35.52333293680242	1.7202604	1.311587
35.54173740764471	1.7149352	1.3095553
35.560142825923286	1.6154034	1.2709852
35.5785491922594	1.3301734	1.1533314
35.59695650727454	1.4251115	1.1937803
35.61536477159042	1.4327071	1.1969575
