0.008763373481513119	0.0	0.0
0.026290120649546365	0.17179282	0.414479
0.043816868432600686	0.12467752	0.35309702
0.06134361724069026	0.23798528	0.48783734
0.07887036748382949	0.16898838	0.41108197
0.0963971195720331	0.1076946	0.32816857
0.11392387391531617	0.12416556	0.35237134
0.1314506309236943	0.10078413	0.31746516
0.1489773910071836	0.12714401	0.3565726
0.16650415457580078	0.11546935	0.3398078
0.18403092203956356	0.13970578	0.37377235
0.20155769380849	0.16114728	0.40143153
0.2190844702925996	0.19920395	0.4463227
0.2366112519019124	0.14852981	0.38539565
0.2541380390464497	0.14081259	0.37525004
0.27166483213623416	0.081233785	0.2850154
0.28919163158128947	0.09685163	0.31120995
0.3067184377916406	0.0858263	0.29296127
0.324245251177314	0.0824801	0.2871935
0.34177207214833777	0.08756561	0.29591486
0.3592989011147415	0.110527605	0.33245692
0.37682573848655654	0.15918298	0.39897743
0.39435258467381573	0.21570317	0.46443856
0.41187944008655414	0.160493	0.40061578
0.42940630513480854	0.14281188	0.3779046
0.446933180228618	0.13082458	0.3616968
0.4644600657780234	0.15965141	0.39956403
0.48198696219306775	0.22947372	0.47903416
0.49951386988379676	0.21313459	0.461665
0.5170407892602581	0.19036691	0.43631056
0.5345677207325025	0.13221064	0.36360782
0.5520946647105822	0.10481282	0.32374808
0.5696216216045534	0.1553414	0.39413375
0.5871485918244737	0.16257088	0.4032008
0.6046755757804043	0.15965563	0.3995693
0.6222025738824094	0.14709783	0.38353336
0.6397295865405557	0.16337417	0.4041957
0.6572566141649129	0.20551893	0.45334196
0.6747836571655547	0.22876053	0.47828916
0.6923107159525568	0.23877144	0.48864245
0.7098377909359992	0.20877372	0.4569176
0.7273648825259653	0.1867161	0.43210658
0.7448919911325411	0.16017663	0.40022072
0.762419117165817	0.16531074	0.40658423
0.7799462610358868	0.1957508	0.44243735
0.7974734231528482	0.22288857	0.47211078
0.8150006039268024	0.23579113	0.48558328
0.8325278037678551	0.21920252	0.4681907
0.8500550230861152	0.22954579	0.47910938
0.8675822622916969	0.21742831	0.46629208
0.8851095217947171	0.19386159	0.44029716
0.9026368020052984	0.15676218	0.39593205
0.9201641033335665	0.1587496	0.39843392
0.9376914261896523	0.19235888	0.43858737
0.9552187709836915	0.22189507	0.4710574
0.9727461381258234	0.25088072	0.50087994
0.990273528026193	0.24490394	0.4948777
1.0078009410949496	0.24668851	0.4966775
1.0253283777422473	0.2498282	0.4998282
1.0428558383782454	0.3082641	0.55521536
1.0603833234131086	0.32296035	0.568296
1.0779108332570058	0.34248766	0.58522445
1.0954383683201119	0.28612116	0.53490293
1.112965929012607	0.30267256	0.55015683
1.1304935157446763	0.4494249	0.6703916
1.1480211289265108	0.52137315	0.72206175
1.1655487689683062	1.4719791	1.2132515
1.1830764362802655	1.7765121	1.3328587
1.200604131272596	2.1787915	1.476073
1.2181318543555117	2.4870696	1.5770446
1.235659605939232	2.507766	1.5835928
1.253187386433982	4.2139397	2.0527883
1.270715196249994	6.463359	2.5423136
1.2882430357975057	12.355809	3.515083
1.3057709054867608	17.140408	4.1400976
1.3232988057280106	22.878744	4.783173
1.3408267369315112	27.667027	5.2599454
1.358354699507526	31.364502	5.600402
1.3758826938663256	35.975193	5.9979324
1.3934107204181858	38.252567	6.184866
1.410938779573391	38.35781	6.1933684
1.4284668717422309	38.972775	6.242818
1.4459949973350033	38.014812	6.1656156
1.4635231567620117	38.060825	6.169346
1.4810513504335687	37.35827	6.112141
1.4985795787599925	36.595753	6.0494423
1.5161078421516088	36.265965	6.022123
1.5336361410187505	35.41397	5.950964
1.5511644757717598	35.5147	5.959421
1.5686928468209842	35.788284	5.982331
1.58622125457678	36.3556	6.0295606
1.6037496994495108	38.032196	6.167025
1.621278181849548	38.09912	6.1724486
1.6388067021872719	38.865944	6.234256
1.6563352608730693	38.245	6.184254
1.673863858317336	37.153053	6.09533
1.6913924949304753	36.313503	6.0260687
1.7089211711228998	34.951122	5.9119473
1.7264498873050296	34.18238	5.84657
1.7439786438872935	33.192368	5.761282
1.7615074412801288	32.28521	5.6820073
1.779036279893981	31.51371	5.6137075
1.796565160139305	30.429213	5.516268
1.814094082426564	29.97643	5.475074
1.8316230471662298	29.331137	5.415823
1.849152054768784	28.58156	5.3461723
1.8666811056447168	27.882235	5.280363
1.8842102002045273	27.024158	5.198477
1.901739338858724	26.661146	5.163443
1.9192685220178245	26.212563	5.1198206
1.9367977500923557	25.529984	5.0527205
1.9543270234928547	24.620989	4.961954
1.971856342629867	23.826166	4.8812056
1.9893857079139496	23.530869	4.8508625
2.006915119755667	23.027468	4.7986946
2.0244445785655945	22.475723	4.7408566
2.0419740847543175	21.900087	4.679753
2.0595036387324317	21.514233	4.638344
2.0770332409105414	21.092077	4.5926113
2.094562891699263	20.73851	4.5539556
2.1120925915092217	20.229963	4.497773
2.129622340751053	19.905617	4.461571
2.1471521398354043	187.82356	13.704874
2.1646819891729323	444.13092	21.074413
2.182211889174303	440.34912	20.984497
2.1997418402501974	452.9418	21.282429
2.2172718428113023	433.1299	20.811773
2.234801897268317	321.03848	17.917547
2.2523320040319548	17.474482	4.180249
2.269862163512935	16.995197	4.1225233
2.287392376121992	16.591639	4.0732837
2.304922642269869	16.220497	4.0274677
2.322452962367322	16.003311	4.000414
2.3399833368251164	15.692407	3.9613643
2.357513766054032	15.55988	3.9446013
2.3750442504648586	15.150042	3.8923054
2.3925747904683963	14.920455	3.8627005
2.410105386475459	14.655345	3.82823
2.4276360388968707	14.46271	3.802987
2.445166748143469	14.250239	3.7749488
2.4626975146261025	14.022899	3.7447162
2.4802283387556323	13.980454	3.7390447
2.4977592209429305	13.912985	3.7300115
2.5152901615988825	13.663188	3.696375
2.5328211611343865	13.438479	3.6658533
2.5503522199603523	13.173543	3.6295376
2.5678833384877024	12.775223	3.5742443
2.5854145171273712	12.438193	3.5267823
2.6029457562903064	12.1039295	3.4790702
2.620477056387469	12.060636	3.4728427
2.6380084178298326	11.863085	3.444283
2.655539841028383	11.630291	3.4103212
2.673071326394119	11.458774	3.385081
2.6906028743380523	11.188919	3.344984
2.708134485271211	11.042381	3.3230078
2.7256661596046325	10.932804	3.3064792
2.743197897749369	10.909633	3.3029733
2.760729700116486	10.760466	3.280315
2.778261567117063	10.48402	3.2379036
2.795793499162193	10.221239	3.1970673
2.8133254966629817	9.940765	3.1528978
2.830857560030551	9.767984	3.1253774
2.8483896896760337	9.718943	3.1175218
2.865921886010578	9.665585	3.1089523
2.883454149445347	9.515703	3.0847533
2.9009864803915177	9.38533	3.0635486
2.91851887926028	9.212348	3.035185
2.9360513464628384	9.233337	3.0386407
2.953583882410413	9.17911	3.0297046
2.9711164875142373	9.0552	3.0091858
2.9886491621855606	8.904764	2.984085
3.0061819068356455	8.644696	2.9401865
3.023714721875769	8.462677	2.909068
3.041247607717225	8.456258	2.9079645
3.0587805647713213	8.382289	2.8952184
3.0763135934493806	8.27644	2.8768802
3.0938466941627407	8.063295	2.8395941
3.1113798673227544	7.8512464	2.8020077
3.1289131133407904	7.789375	2.790945
3.1464464326282315	7.6418357	2.7643871
3.1639798255964786	7.566793	2.7507803
3.1815132926569443	7.4835124	2.735601
3.1990468342210603	7.4694247	2.7330248
3.216580450700272	7.432642	2.7262871
3.2341141425060416	7.3305335	2.7074957
3.251647910049847	7.3015604	2.7021399
3.2691817537431813	7.2935047	2.700649
3.286715673997555	7.3145256	2.7045379
3.3042496712244938	7.3019443	2.702211
3.32178374583554	7.2459693	2.6918337
3.339317898242251	6.965372	2.639199
3.3568521288562034	6.913135	2.6292841
3.3743864380889876	6.856716	2.6185331
3.3919208263522127	6.8196607	2.611448
3.4094552940575023	6.842479	2.6158133
3.4269898416164972	6.837285	2.6148202
3.444524469440858	6.783688	2.6045513
3.4620591779422587	6.625981	2.574098
3.479593967532391	6.5607934	2.5614045
3.4971288386229658	6.546285	2.5585709
3.5146637916257086	6.573364	2.5638573
3.5321988269523628	6.4509587	2.5398738
3.5497339450146903	6.4454846	2.538796
3.5672691462244708	6.3350153	2.5169456
3.5848044309934988	6.3975787	2.5293436
3.60233979973359	6.3827257	2.5264056
3.619875252856575	6.373035	2.524487
3.6374107907743034	6.39246	2.5283315
3.6549464138986427	6.407765	2.5313563
3.6724821226414788	6.4447002	2.5386415
3.690017917414714	6.461579	2.5419636
3.7075537986302702	6.492249	2.5479891
3.7250897667000857	6.4638963	2.5424194
3.7426258220361235	6.5545287	2.5601814
3.7601619650503553	6.7951703	2.6067548
3.777698196154779	7.303568	2.7025113
3.7952345157614067	8.308371	2.8824244
3.8127709242822716	9.044785	3.0074549
3.830307422129425	11.19365	3.3456912
3.847844009714936	30.08769	5.4852247
3.8653806874508954	97.622246	9.880397
3.882917455749409	96.90364	9.843965
3.900454315022606	96.576355	9.827327
3.917991265682631	41.217525	6.420088
3.9355283081416506	10.88368	3.2990422
3.9530654428118495	8.827305	2.9710782
3.970602670105433	7.6036267	2.7574675
3.9881399904346244	6.6040883	2.569842
4.005677404211669	6.489765	2.5475018
4.023214911848827	6.410462	2.531889
4.0407525137583855	6.362293	2.5223587
4.058290210352644	6.428377	2.5354245
4.075828002043927	6.4239674	2.5345547
4.0933658892445814	6.400686	2.5299578
4.110903872366966	6.2420754	2.4984145
4.128441951823468	6.166094	2.4831622
4.145980128026488	6.1580224	2.4815364
4.163518401388452	6.2288566	2.4957678
4.181056772321807	6.204985	2.4909809
4.1985952412390155	6.2734184	2.5046792
4.216133808552567	6.289836	2.5079546
4.233672474674966	6.382842	2.5264287
4.251211240018741	6.5422893	2.5577898
4.268750104996445	6.792851	2.60631
4.286289070020643	7.7202744	2.7785382
4.303828135503928	9.305594	3.0505073
4.3213673018589125	29.524988	5.43369
4.3389065694982305	90.735695	9.525529
4.356445938834537	165.93025	12.881392
4.3739854102805085	171.81569	13.107848
4.391524984248844	172.56158	13.13627
4.409064661152262	136.67273	11.690711
4.426604441403504	96.95224	9.846433
4.444144325415337	76.01026	8.718387
4.461684313600543	22.069073	4.697773
4.47922440637193	22.312054	4.7235637
4.496764604142329	20.543962	4.5325446
4.5143049073245916	18.81016	4.337068
4.531845316331589	16.77202	4.0953655
4.5493858315762195	14.041207	3.74716
4.566926453471405	11.642532	3.4121156
4.584467182430081	9.678692	3.1110597
4.602008018865218	8.309846	2.8826804
4.619548963189798	7.576827	2.7526038
4.637090015816834	7.0558925	2.656293
4.654631177159353	6.860123	2.6191838
4.672172447630417	6.586844	2.5664847
4.689713827643102	6.462596	2.5421636
4.7072553176105085	6.176175	2.485191
4.724796917945764	5.938207	2.4368436
4.742338629062015	5.840176	2.4166455
4.759880451372434	5.7784066	2.4038317
4.777422385290215	5.7255464	2.3928113
4.794964431228581	5.660506	2.3791819
4.812506589600768	5.637144	2.374267
4.830048860820047	5.6782928	2.382917
4.847591245299709	5.669771	2.381128
4.8651337434530655	5.5920086	2.3647428
4.882676355693457	5.608878	2.368307
4.900219082434242	5.631397	2.3730564
4.917761924088813	5.686308	2.384598
4.935304881070575	5.6758738	2.3824093
4.952847953792969	5.6912947	2.3856435
4.970391142669449	5.6228976	2.371265
4.9879344481135055	5.612723	2.3691187
5.005477870538642	5.568471	2.3597608
5.023021410358394	5.4310813	2.330468
5.040565067986324	5.455475	2.3356957
5.05810884383601	5.376632	2.3187566
5.075652738321066	5.4021964	2.3242626
5.09319675185512	5.328625	2.3083816
5.110740884851836	5.4149766	2.3270102
5.128285137724894	5.4235597	2.3288536
5.145829510888007	5.425725	2.3293185
5.163374004754908	5.3750663	2.318419
5.1809186197393595	5.3406863	2.3109925
5.198463356255145	5.3693166	2.3171785
5.216008214716077	5.3964753	2.3230314
5.233553195535998	5.418775	2.3278263
5.251098299128764	5.43738	2.331819
5.268643525908272	5.4295883	2.3301477
5.286188876288432	5.389913	2.3216186
5.3037343506831895	5.3482533	2.312629
5.32127994950651	5.321419	2.3068202
5.3388256731723915	5.2851048	2.2989357
5.356371522094851	5.1985035	2.2800226
5.373917496687938	5.2665033	2.2948864
5.391463597365729	5.319673	2.3064415
5.40900982454232	5.355386	2.3141706
5.426556178631843	5.2584586	2.293133
5.444102660048449	5.1718817	2.274177
5.4616492692063225	5.163733	2.272385
5.479196006519669	5.1874676	2.2776012
5.496742872402727	5.239321	2.2889564
5.514289867269756	5.2857256	2.2990706
5.531836991535049	5.2795753	2.2977326
5.549384245612924	5.293274	2.3007116
5.566931629917724	5.249402	2.2911572
5.584479144863822	5.1886015	2.2778502
5.6020267908656205	5.2274127	2.2863536
5.619574568337545	5.2819476	2.2982488
5.637122477694054	5.322237	2.3069973
5.654670519349629	5.281473	2.2981455
5.672218693718784	5.239587	2.2890143
5.689767001216059	5.232971	2.2875688
5.707315442256021	5.2479606	2.2908428
5.724864017253266	5.2885785	2.299691
5.7424127266224225	5.3141375	2.3052413
5.75996157077814	5.35244	2.313534
5.777510550135105	5.2803416	2.2978995
5.795059665108022	5.324469	2.307481
5.812608916111639	5.271771	2.2960339
5.830158303560715	5.3382673	2.3104692
5.847707827870055	5.354482	2.3139753
5.86525748945448	5.4403486	2.3324554
5.8828072887288485	5.5406985	2.353869
5.900357226108044	5.6573105	2.3785102
5.917907302006979	5.75624	2.3992164
5.9354575168406	6.3811703	2.5260978
5.9530078710238765	6.9477262	2.635854
5.970558364971812	7.471189	2.7333477
5.988108999099438	7.6984844	2.7746143
6.005659773821818	8.182761	2.8605525
6.023210689554039	7.8911657	2.8091218
6.040761746711227	8.317514	2.88401
6.058312945708531	7.6923738	2.7735128
6.075864286961132	7.2341895	2.6896448
6.093415770884244	6.6365395	2.5761483
6.1109673978931065	6.2250705	2.4950092
6.128519168402993	5.6617117	2.379435
6.146071082829204	5.564039	2.3588216
6.163623141587075	5.4114723	2.3262572
6.181175345091969	5.3371334	2.3102236
6.198727693759281	5.2559137	2.292578
6.216280188004435	5.2041416	2.2812588
6.233832828242885	5.1806655	2.2761075
6.251385614890126	5.275517	2.2968493
6.268938548361669	5.2397327	2.2890463
6.286491629073067	5.1654005	2.2727518
6.304044857439898	5.1494417	2.2692382
6.321598233877777	5.122586	2.263313
6.339151758802344	5.119067	2.2625356
6.356705432629277	5.127447	2.2643867
6.37425925577428	5.060955	2.2496567
6.391813228653095	5.0901256	2.2561307
6.409367351681486	5.063214	2.2501585
6.426921625275259	5.077377	2.2533035
6.44447604985025	5.06208	2.2499065
6.46203062582232	5.0345054	2.2437704
6.47958535360737	4.9893255	2.2336798
6.497140233621328	5.0369754	2.2443206
6.514695266280161	5.1043363	2.2592778
6.532250451999859	5.183705	2.2767751
6.549805791196454	5.124644	2.2637677
6.567361284286002	5.0782995	2.2535083
6.584916931684597	5.0798945	2.2538621
6.602472733808367	5.0676293	2.2511396
6.6200286910734665	5.1048155	2.259384
6.637584803896092	5.130141	2.2649815
6.655141072692462	5.1703024	2.27383
6.672697497878842	5.169609	2.2736773
6.690254079871514	5.1294336	2.2648253
6.707810819086808	5.115434	2.2617326
6.725367715941078	5.104578	2.2593312
6.742924770850719	5.132776	2.265563
6.760481984232151	5.101742	2.2587035
6.778039356501836	5.023654	2.241351
6.795596888076266	5.0571046	2.2488008
6.813154579371963	5.121341	2.2630382
6.830712430805492	5.1332536	2.2656684
6.84827044279344	5.115447	2.2617354
6.865828615752445	5.0426164	2.245577
6.883386950099159	5.0672307	2.251051
6.900945446250287	5.120339	2.2628167
6.918504104622553	5.1235614	2.2635286
6.936062925632727	5.103395	2.2590694
6.953621909697607	5.015534	2.2395387
6.971181057234028	4.982981	2.2322593
6.988740368658859	5.011959	2.2387404
7.006299844389007	5.039108	2.2447958
7.023859484841407	5.112967	2.261187
7.041419290433036	5.276998	2.2971718
7.058979261580902	5.5199013	2.349447
7.0765393987020495	5.7673063	2.4015217
7.094099702213559	6.1962867	2.4892342
7.111660172532549	6.56314	2.5618625
7.129220810076164	6.905817	2.627892
7.146781615261595	7.507914	2.7400572
7.16434258850606	7.6433992	2.76467
7.181903730226821	8.084158	2.8432653
7.1994650408411704	8.192779	2.862303
7.217026520766437	8.327831	2.8857982
7.234588170419983	8.605521	2.933517
7.252149990219215	8.519932	2.9188921
7.269711980581568	8.440343	2.9052267
7.2872741419245175	8.195469	2.862773
7.304836474665574	7.727431	2.7798257
7.322398979222286	7.500141	2.7386386
7.339961656012233	7.2772837	2.697644
7.357524505453039	7.0079746	2.647258
7.375087527962357	6.7153654	2.5914023
7.392650723957886	6.3509784	2.5201147
7.410214093857353	6.0003834	2.449568
7.427777638078528	5.7557793	2.3991206
7.445341357039213	5.621085	2.3708827
7.4629052511572525	5.5062304	2.346536
7.480469320850524	5.475287	2.3399332
7.498033566536948	5.377296	2.3188996
7.5155979886344735	5.30732	2.3037622
7.5331625875610975	5.231995	2.2873554
7.550727363734844	5.238097	2.288689
7.568292317573788	5.243603	2.2898915
7.585857449496025	5.241991	2.2895396
7.603422759919705	5.2220063	2.285171
7.620988249263007	5.2057743	2.2816167
7.638553917944147	5.2205796	2.2848587
7.656119766381391	5.19968	2.2802806
7.673685794993023	5.2504606	2.2913883
7.691252004197388	5.2743773	2.2966013
7.70881839441285	5.339831	2.3108075
7.726384966057826	5.3724384	2.317852
7.743951719550762	5.312329	2.304849
7.761518655310149	5.2893405	2.2998567
7.779085773754511	5.23735	2.2885258
7.796653075302419	5.257812	2.2929919
7.814220560372475	5.257942	2.2930202
7.831788229383323	5.314343	2.305286
7.8493560827536495	5.389154	2.3214552
7.866924120902174	5.409367	2.3258047
7.884492344247663	5.4282417	2.3298588
7.9020607532089135	5.4283395	2.3298798
7.919629348204771	5.428208	2.3298514
7.937198129654115	5.420989	2.3283017
7.954767097975865	5.434164	2.3311293
7.972336253588986	5.392873	2.322256
7.989905596912472	5.41259	2.3264973
8.007475128365371	5.385181	2.3205993
8.025044848366756	5.451781	2.334905
8.042614757335754	5.6000676	2.3664463
8.060184855691523	5.7062697	2.3887799
8.07775514385327	5.8626647	2.421294
8.095325622240228	5.929699	2.4350972
8.112896291271687	5.987801	2.4469984
8.130467151366968	6.005296	2.4505706
8.148038202945436	6.0686727	2.4634676
8.165609446426497	6.0234604	2.454274
8.183180882229594	6.081716	2.4661136
8.200752510774217	6.1697636	2.4839008
8.218324332479893	6.2200346	2.4939997
8.235896347766193	6.182617	2.486487
8.253468557052724	6.1675196	2.4834492
8.27104096075914	6.107742	2.4713845
8.288613559305137	6.135139	2.4769213
8.306186353110448	6.1891766	2.4878056
8.32375934259485	6.307723	2.511518
8.341332528178162	6.3419437	2.5183215
8.358905910280246	6.401682	2.5301545
8.376479489321003	6.4010415	2.5300279
8.394053265720377	6.415091	2.532803
8.411627239898356	6.3450317	2.5189347
8.42920141227497	6.3242755	2.5148113
8.44677578327029	6.3348885	2.5169203
8.464350353304427	6.3139524	2.512758
8.48192512279754	6.299889	2.509958
8.499500092169827	6.201152	2.4902112
8.51707526184153	6.2446733	2.4989345
8.534650632232934	6.2412496	2.4982493
8.552226203764365	6.241409	2.4982812
8.569801976856192	6.248214	2.4996426
8.587377951928834	6.3126984	2.5125084
8.60495412940274	6.369581	2.523803
8.622530509698416	6.412671	2.5323253
8.6401070932364	6.5010686	2.5497193
8.657683880437283	6.562865	2.5618088
8.675260871721695	6.6985836	2.5881622
8.692838067510303	6.8558855	2.6183746
8.710415468223834	7.04005	2.6533093
8.727993074283043	7.1746984	2.6785626
8.745570886108737	7.1298914	2.6701856
8.763148904121765	7.219261	2.6868682
8.78072712874302	7.271112	2.6965
8.798305560393441	7.5596995	2.7494907
8.815884199494006	7.7355275	2.7812817
8.833463046465745	7.952775	2.8200665
8.851042101729728	8.119236	2.8494272
8.86862136570707	8.394617	2.8973465
8.886200838818924	8.490369	2.9138238
8.903780521486505	8.491892	2.9140851
8.921360414131055	8.600503	2.9326613
8.938940517173874	8.74345	2.9569325
8.956520831036297	8.8785095	2.9796827
8.97410135613971	9.159337	3.0264397
8.99168209290554	9.219349	3.036338
9.009263041755265	9.489317	3.0804734
9.026844203110405	9.764283	3.1247852
9.044425577392525	9.91618	3.1489966
9.062007165023239	10.00763	3.1634839
9.079588966424197	10.251471	3.2017918
9.097170982017108	10.419914	3.2279892
9.11475321222372	11.333663	3.3665507
9.132335657465825	12.225494	3.4964974
9.149918318165264	12.307335	3.508181
9.167501194743924	12.839045	3.5831614
9.18508428762374	12.5165615	3.5378752
9.202667597226693	12.542815	3.5415838
9.220251123974803	12.20599	3.4937072
9.237834868290143	11.937109	3.455012
9.255418830594836	11.66509	3.4154193
9.273003011311046	11.148791	3.3389807
9.290587410860985	11.016805	3.3191571
9.308172029666911	10.379978	3.2217975
9.32575686815113	10.11077	3.1797438
9.343341926735997	8.875713	2.9792135
9.360927205843916	8.707617	2.9508672
9.378512705897327	8.475252	2.9112287
9.396098427318728	8.229306	2.8686767
9.413684370530664	8.088992	2.8441153
9.431270535955722	7.9763937	2.824251
9.448856924016539	7.9580665	2.8210046
9.466443535135806	7.8665214	2.8047318
9.484030369736251	7.849774	2.8017447
9.501617428240658	7.8743362	2.8061247
9.519204711071852	7.8657713	2.8045983
9.536792218652714	7.8284874	2.7979434
9.55437995140617	7.8291087	2.7980545
9.571967909755191	7.867039	2.8048244
9.589556094122802	7.9046783	2.811526
9.60714450493207	7.931287	2.8162541
9.624733142606116	7.9197116	2.8141983
9.642322007568108	7.9871826	2.8261604
9.659911100241267	8.033106	2.8342733
9.677500421048851	8.084495	2.8433247
9.695089970414175	8.100113	2.8460698
9.712679748760609	8.092189	2.8446772
9.730269756511557	8.130503	2.8514037
9.747859994090492	8.212225	2.865698
9.765450461920915	8.268866	2.8755636
9.78304116042639	8.350566	2.8897345
9.800632090030527	8.4092655	2.8998733
9.81822325115699	8.442273	2.905559
9.835814644229481	8.43334	2.9040213
9.853406269671762	8.486245	2.913116
9.870998127907646	8.481977	2.9123836
9.888590219360985	8.504094	2.916178
9.906182544455698	8.442031	2.9055173
9.923775103615734	8.384973	2.8956816
9.941367897265108	8.388657	2.8963177
9.958960925827878	8.43089	2.9035995
9.97655418972816	8.439523	2.9050856
9.994147689390106	8.401389	2.898515
10.011741425237934	8.381689	2.8951147
10.029335397695904	8.388334	2.8962622
10.04692960718833	8.349444	2.8895404
10.06452405413958	8.41033	2.9000568
10.082118738974064	8.305931	2.8820012
10.099713662116246	8.297296	2.8805027
10.117308823990651	8.268531	2.8755052
10.134904225021844	8.264345	2.8747773
10.152499865634445	8.284276	2.8782418
10.170095746253125	8.315646	2.8836863
10.18769186730261	8.362427	2.891786
10.205288229207675	8.366503	2.8924909
10.222884832393145	8.340242	2.8879478
10.2404816772839	8.34791	2.889275
10.258078764304868	8.284277	2.878242
10.275676093881035	8.267524	2.8753302
10.293273666437438	8.21577	2.8663163
10.310871482399158	8.319555	2.884364
10.32846954219134	8.243353	2.871124
10.346067846239173	8.219176	2.8669107
10.363666394967908	8.222008	2.8674045
10.38126518880283	8.288609	2.8789945
10.398864228169298	8.43375	2.904092
10.416463513492713	8.404839	2.89911
10.434063045198531	8.312398	2.883123
10.451662823712262	8.234139	2.869519
10.469262849459467	8.198026	2.8632195
10.486863122865758	8.174281	2.85907
10.504463644356806	8.163583	2.8571985
10.522064414358338	8.15671	2.8559954
10.539665433296118	8.086498	2.8436768
10.557266701595987	8.052371	2.83767
10.574868219683818	7.9469495	2.8190334
10.592469987985552	7.925507	2.8152277
10.610072006927185	7.744887	2.7829638
10.627674276934751	7.641776	2.7643762
10.64527679843435	7.4367056	2.7270324
10.662879571852143	7.32333	2.706165
10.680482597614331	7.29742	2.7013738
10.698085876147173	7.23675	2.690121
10.715689407876988	7.1484427	2.6736572
10.733293193230146	6.990588	2.6439722
10.750897232633072	6.8183117	2.6111896
10.76850152651225	6.70242	2.5889032
10.786106075294207	6.6151733	2.571998
10.803710879405534	6.5565424	2.5605745
10.821315939272877	6.4532204	2.540319
10.83892125532294	6.38121	2.5261056
10.856526827982472	6.3728914	2.5244586
10.874132657678285	6.3636403	2.5226257
10.891738744837243	6.308488	2.5116704
10.909345089886271	6.2680745	2.5036123
10.926951693252343	6.158863	2.4817057
10.944558555362494	6.1163445	2.4731245
10.96216567664381	6.03975	2.4575903
10.979773057523436	6.0057564	2.4506645
10.997380698428573	5.911275	2.4313114
11.014988599786477	5.8591294	2.420564
11.032596762024461	5.838396	2.4162774
11.050205185569892	5.808053	2.4099903
11.067813870850198	5.6343226	2.3736727
11.085422818292859	5.4863925	2.342305
11.10303202832541	5.4439616	2.3332298
11.120641501375454	5.4202814	2.3281498
11.138251237870636	5.398157	2.3233933
11.155861238238671	5.398266	2.323417
11.173471502907317	5.347763	2.3125231
11.191082032304402	5.2755594	2.2968585
11.208692826857805	5.1961675	2.2795103
11.226303886995465	5.1112885	2.2608159
11.243915213145371	5.0381727	2.2445874
11.261526805735578	4.973258	2.2300804
11.279138665194196	4.927069	2.2197003
11.296750791949393	4.8999147	2.2135751
11.314363186429393	4.906143	2.2149816
11.331975849062479	4.918636	2.2177997
11.34958878027699	4.8583455	2.2041655
11.36720198050133	4.7599154	2.181723
11.384815450163948	4.6242995	2.1504185
11.402429189693366	4.553649	2.133928
11.420043199518153	4.4742584	2.1152444
11.437657480066942	63.469944	7.9668026
11.455272031768422	85.19494	9.23011
11.472886855051353	107.57064	10.371627
11.490501950344528	99.170685	9.958447
11.508117318076819	84.50646	9.1927395
11.52573295867715	45.881134	6.7735615
11.543348872574514	4.166966	2.0413148
11.560965060197946	4.1317654	2.0326746
11.57858152197655	4.1459374	2.0361576
11.59619825833949	4.112096	2.0278304
11.613815269715985	4.056612	2.0141032
11.631432556535323	38.561623	6.2098007
11.649050119226837	83.098404	9.115832
11.666667958219929	93.5123	9.670176
11.68428607394406	107.76645	10.3810625
11.701904466828756	82.55574	9.086019
11.719523137303586	65.395744	8.086763
11.737142085798196	4.615943	2.1484745
11.754761312742286	3.7104716	1.9262584
11.772380818565619	3.6702027	1.9157773
11.790000603698015	3.6590564	1.912866
11.80762066856935	3.6227024	1.9033397
11.825241013609572	3.5479622	1.8836035
11.842861639248683	3.489352	1.8679807
11.860482545916748	3.4697292	1.862721
11.878103734043883	3.4817653	1.8659489
11.895725204060282	3.4840896	1.8665717
11.91334695639619	3.416491	1.8483752
11.930968991481919	3.3402176	1.8276262
11.948591309747824	3.3168511	1.8212224
11.966213911624347	3.3658292	1.8346196
11.98383679754198	3.4058385	1.8454914
12.001459967931268	3.3676174	1.835107
12.019083423222835	3.30058	1.8167498
12.036707163847352	3.2636263	1.806551
12.05433119023556	3.2447975	1.8013321
12.071955502818259	3.2017174	1.7893343
12.089580102026313	3.173104	1.7813209
12.107204988290643	3.156709	1.776713
12.12483016204224	3.1487472	1.7744709
12.142455623712152	3.1551287	1.7762682
12.16008137373149	3.0993125	1.7604865
12.177707412531431	3.1055746	1.762264
12.19533374054321	3.098624	1.7602909
12.212960358198126	3.1384137	1.7715569
12.230587265927545	3.1217196	1.7668389
12.248214464162889	3.1167614	1.7654352
12.265841953335649	3.0528688	1.747246
12.283469733877375	3.0141501	1.7361308
12.301097806219685	3.0287883	1.7403414
12.31872617079425	3.0527303	1.7472064
12.336354828032825	3.0600762	1.7493074
12.353983778367205	3.04669	1.745477
12.371613022229262	3.0103605	1.735039
12.389242560050928	3.002495	1.7327709
12.406872392264201	2.9516687	1.7180421
12.424502519301143	2.9489772	1.7172587
12.442132941593874	2.9411354	1.7149739
12.459763659574586	2.9660103	1.7222109
12.477394673675532	2.9517179	1.7180564
12.49502598432903	2.8707178	1.6943192
12.51265759196746	2.797404	1.6725442
12.530289497023267	2.7951386	1.6718668
12.547921699928967	2.835833	1.6839932
12.565554201117134	2.8833447	1.6980414
12.583187001020404	2.8783817	1.6965795
12.600820100071486	2.821825	1.6798289
12.618453498703152	2.7803192	1.667429
12.636087197348235	2.7813125	1.6677268
12.65372119643964	2.8098323	1.6762555
12.671355496410326	2.8211641	1.6796322
12.68899009769333	2.8519223	1.6887635
12.706625000721749	2.8833237	1.6980352
12.724260205928752	3.0028255	1.7328663
12.741895713747551	3.0691328	1.7518941
12.759531524611454	3.0857153	1.7566204
12.777167638953818	3.0395095	1.7434189
12.794804057208072	3.0194004	1.7376422
12.812440779807702	3.0803306	1.755087
12.830077807186271	3.2902458	1.8139035
12.847715139777405	3.3602276	1.8330923
12.865352778014795	3.5624018	1.8874326
12.882990722332197	3.6165562	1.9017246
12.90062897316344	3.68899	1.9206744
12.918267530942412	3.7817101	1.944662
12.935906396103071	3.6771128	1.9175799
12.953545569079449	3.8408952	1.9598202
12.971185050305628	3.6540897	1.9115673
12.988824840215775	3.6558728	1.9120337
13.006464939244115	3.6216545	1.9030645
13.024105347824943	3.4982305	1.8703557
13.041746066392617	3.574247	1.8905679
13.05938709538157	3.3773322	1.837752
13.077028435226296	3.405679	1.8454481
13.094670086361363	3.2589269	1.8052498
13.112312049221401	3.1603358	1.7777333
13.129954324241112	3.0766048	1.7540253
13.147596911855258	2.9247446	1.7101885
13.165239812498685	2.9372306	1.713835
13.182883026606293	2.861012	1.6914526
13.200526554613058	2.7856781	1.6690351
13.218170396954017	2.7286158	1.6518523
13.235814554064284	2.7074738	1.6454403
13.253459026379034	2.7078342	1.6455498
13.271103814333523	2.7190926	1.6489671
13.288748918363058	2.720318	1.6493387
13.306394338903031	2.69302	1.6410424
13.32404007638889	2.665061	1.6325015
13.341686131256164	2.6709762	1.6343122
13.359332503940449	2.6769466	1.6361377
13.376979194877402	2.6844876	1.6384406
13.394626204502751	2.70948	1.6460499
13.412273533252307	2.7283013	1.651757
13.429921181561937	2.746383	1.6572214
13.447569149867581	2.7887228	1.6699469
13.465217438605247	2.7997894	1.6732571
13.482866048211022	2.8302546	1.6823361
13.500514979121052	2.8503969	1.6883118
13.518164231771568	2.7798452	1.6672868
13.535813806598844	2.710331	1.6463083
13.553463704039254	2.6514304	1.6283213
13.571113924529229	2.6726112	1.6348122
13.588764468505275	2.6891887	1.6398746
13.606415336403956	2.7256477	1.6509535
13.624066528661917	2.7686794	1.663935
13.641718045715882	2.7893841	1.6701449
13.659369888002635	2.8621995	1.6918037
13.67702205595903	2.8986964	1.7025559
13.694674550021993	3.0123107	1.735601
13.712327370628532	3.077832	1.7543751
13.729980518215713	3.1725981	1.7811788
13.747633993220681	3.2440858	1.8011346
13.765287796080647	3.2955267	1.8153585
13.7829419272329	3.363437	1.8339676
13.800596387114801	3.3977442	1.8432971
13.818251176163775	3.429064	1.8517733
13.835906294817324	3.4898162	1.8681049
13.853561743513023	3.4911482	1.8684615
13.871217522688525	3.485268	1.8668873
13.888873632781538	3.4725027	1.8634652
13.906530074229858	3.47959	1.8653659
13.92418684747135	3.519189	1.8759501
13.941843952943948	3.505966	1.8724225
13.959501391085665	3.5129728	1.8742926
13.977159162334578	3.4869945	1.8673496
13.994817267128846	3.4477315	1.8568068
14.012475705906693	3.3378487	1.826978
14.030134479106424	3.2208786	1.7946806
14.047793587166414	3.1478434	1.7742163
14.065453030525108	3.0526514	1.7471838
14.083112809621026	2.9506593	1.7177483
14.100772924892766	2.8750405	1.6955944
14.118433376778997	2.8701746	1.694159
14.136094165718458	2.857178	1.690319
14.153755292149969	2.7766197	1.6663193
14.171416756512416	2.6768262	1.6361009
14.189078559244768	2.6261933	1.6205534
14.20674070078606	2.5606737	1.6002105
14.224403181575408	2.5511096	1.5972193
14.242066002051999	2.5421941	1.5944259
14.259729162655093	2.498382	1.5806271
14.277392663824022	2.4668837	1.5706316
14.295056505998208	2.4186442	1.555199
14.312720689617128	2.4509716	1.565558
14.330385215120348	2.4373157	1.5611905
14.348050082947497	2.43291	1.5597788
14.3657152935383	2.3986099	1.5487446
14.383380847332528	2.3881037	1.5453491
14.401046744770051	2.3711195	1.539844
14.418712986290798	2.3836908	1.5439206
14.436379572334793	2.403528	1.5503316
14.454046503342123	2.4304276	1.5589828
14.471713779752946	2.4256883	1.5574621
14.489381402007504	2.3985517	1.5487258
14.507049370546113	2.3932114	1.5470008
14.524717685809168	2.381398	1.5431778
14.542386348237134	2.4023266	1.549944
14.560055358270553	2.3926187	1.5468092
14.577724716350051	2.4627404	1.5693121
14.595394422916325	2.458768	1.5680459
14.61306447841015	2.4766562	1.5737395
14.63073488327237	2.4696743	1.5715197
14.648405637943917	2.4910624	1.57831
14.6660767428658	2.4951293	1.5795978
14.683748198479094	2.52154	1.5879357
14.701420005224954	2.5890222	1.6090438
14.719092163544628	2.6639223	1.6321527
14.73676467387942	2.7029288	1.6440586
14.754437536670727	2.7394612	1.6551318
14.772110752360014	2.7615755	1.6617988
14.78978432138882	2.7545054	1.6596702
14.807458244198777	2.7542145	1.6595826
14.82513252123159	2.6967468	1.6421775
14.842807152929028	2.703918	1.6443595
14.860482139732962	2.6981509	1.642605
14.87815748208531	2.708349	1.6457062
14.8958331804281	2.7267802	1.6512965
14.91350923520342	2.6816294	1.6375681
14.931185646853438	2.697718	1.6424731
14.948862415820408	2.7030375	1.6440917
14.966539542546656	2.7252414	1.6508305
14.98421702747459	2.6901164	1.6401575
15.001894871046696	2.6726983	1.6348389
15.019573073705542	2.6546664	1.6293147
15.037251635893766	2.6276426	1.6210005
15.054930558054092	2.6727633	1.6348588
15.072609840629323	2.746791	1.6573446
15.090289484062351	2.9031963	1.7038769
15.107969488796124	3.2078257	1.7910404
15.125649855273691	3.63354	1.9061847
15.14333058393817	4.127689	2.0316715
15.161011675232768	5.065897	2.2507548
15.17869312960076	6.3726673	2.5244143
15.196374947485506	8.166801	2.8577616
15.214057129330447	11.237671	3.3522635
15.231739675579114	15.826773	3.9782877
15.249422586675102	20.73445	4.5535097
15.267105863062092	23.723083	4.870635
15.284789505183847	24.008682	4.8998656
15.302473513484218	21.982904	4.688593
15.320157888407127	18.48332	4.2992234
15.337842630396578	14.487503	3.8062453
15.355527739896656	11.24142	3.3528225
15.37321321735153	8.822052	2.9701939
15.39089906320545	6.513645	2.5521843
15.408585277902748	4.989062	2.233621
15.42627186188783	3.8560064	1.9636717
15.443958815605198	3.2797496	1.8110079
15.461646139499424	2.972501	1.7240943
15.479333834015168	2.8367732	1.6842723
15.497021899597165	2.7694948	1.6641799
15.514710336690234	2.742139	1.6559405
15.53239914573928	2.7017856	1.643711
15.550088327189297	2.6856227	1.6387869
15.567777881485336	2.6174977	1.6178683
15.58546780907256	2.5777376	1.6055335
15.6031581103962	2.5219967	1.5880796
15.620848785901568	2.4838648	1.5760281
15.638539836034063	2.4471164	1.5643262
15.656231261239173	2.4764526	1.5736749
15.673923061962451	2.4629323	1.5693733
15.691615238649552	2.4579005	1.5677693
15.709307791746202	2.434389	1.5602529
15.727000721698221	2.4273686	1.5580015
15.744694028951498	2.4084973	1.5519334
15.76238771395202	2.3910925	1.5463158
15.780081777145844	2.3900898	1.5459915
15.797776218979125	2.405793	1.5510619
15.815471039898094	2.3918338	1.5465554
15.833166240349064	2.3934984	1.5470935
15.850861820778437	2.3971093	1.5482601
15.868557781632699	2.398497	1.5487082
15.886254123358412	2.3830621	1.543717
15.903950846402232	2.3699677	1.53947
15.921647951210897	2.393738	1.547171
15.939345438231225	2.4045444	1.5506593
15.957043307910133	2.407758	1.5516952
15.974741560694602	2.3830142	1.5437014
15.992440197031714	2.3986883	1.54877
16.01013921736862	2.432884	1.5597705
16.02783862215259	2.433279	1.5598971
16.045538411830933	2.380214	1.5427942
16.06323858685107	2.3429332	1.5306643
16.080939147660512	2.343535	1.5308609
16.09864009470684	2.3831382	1.5437416
16.11634142843774	2.3997371	1.5491085
16.134043149300954	2.414185	1.5537648
16.15174525774433	2.4192095	1.5553808
16.169447754215817	2.419772	1.5555617
16.18715063916342	2.4405994	1.5622418
16.204853913035244	2.473296	1.5726715
16.222557576279478	2.4648814	1.5699941
16.240261629344403	22.433708	4.7364235
16.257966072678386	42.98226	6.556086
16.275670906729868	38.092552	6.1719165
16.293376131947387	2.5288954	1.5902501
16.31108174877957	2.582062	1.6068796
16.328787757675133	2.5900714	1.6093699
16.34649415908287	2.5725923	1.6039302
16.364200953451657	2.5928495	1.6102327
16.38190814123048	2.6706903	1.6342247
16.39961572286839	2.7438354	1.6564527
16.41732369881455	2.7569828	1.6604165
16.43503206951817	2.7638965	1.662497
16.45274083542859	2.7558334	1.6600703
16.47044999699522	2.790694	1.670537
16.488159554667558	2.832292	1.6829414
16.505869508895184	2.8968072	1.702001
16.523579860127786	2.9329028	1.712572
16.541290608815117	3.0008829	1.7323056
16.559001755407035	3.074692	1.75348
16.57671330035348	3.1575987	1.7769634
16.59442524410448	3.1993787	1.7886807
16.61213758711015	3.234077	1.7983539
16.629850329820705	3.249948	1.8027612
16.647563472686436	3.333443	1.8257719
16.665277016157724	3.4180741	1.8488034
16.682990960685053	3.4587998	1.8597848
16.70070530671898	3.4791462	1.865247
16.718420054710155	3.5062463	1.8724973
16.736135205109335	3.5491283	1.883913
16.753850758367335	3.6194465	1.9024843
16.771566714935087	3.7073407	1.9254456
16.789283075263597	3.7478392	1.9359337
16.80699983980398	3.7920206	1.9473112
16.82471700900741	3.863177	1.9654967
16.84243458332518	3.9835603	1.9958858
16.860152563208665	4.006543	2.001635
16.87787094910932	4.03224	2.0080438
16.89558974147871	4.0547085	2.0136306
16.913308940768466	4.109357	2.027155
16.931028547430333	4.162164	2.0401382
16.94874856191613	4.1830163	2.0452423
16.966468984677785	4.2889667	2.070982
16.98418981616729	4.356652	2.0872593
17.00191105683676	4.4921374	2.1194663
17.019632707138374	4.5532064	2.1338243
17.03735476752442	4.5972443	2.1441185
17.05507723844728	4.6276913	2.151207
17.072800120359403	4.6143	2.148092
17.090523413713353	4.618789	2.1491368
17.108247118961785	4.6494455	2.1562574
17.125971236557437	4.667624	2.1604686
17.143695766953133	4.6979604	2.1674778
17.161420710601806	4.7528462	2.1801023
17.179146067956477	4.780156	2.1863568
17.19687183947025	4.745616	2.1784434
17.21459802559634	4.719679	2.1724823
17.232324626788028	4.7019215	2.1683915
17.25005164349871	4.6977005	2.167418
17.267779076181863	4.6541686	2.1573522
17.285506925291074	4.6455617	2.1553564
17.30323519127999	4.658095	2.158262
17.320963874602384	4.695372	2.1668808
17.33869297571211	4.6530232	2.1570868
17.356422495063114	4.5771413	2.1394255
17.37415243310944	4.559164	2.1352198
17.391882790305218	4.5022874	2.1218593
17.40961356710468	4.4936714	2.1198282
17.42734476396215	4.4526944	2.1101408
17.445076381332044	4.510836	2.123873
17.462808419668868	4.616407	2.1485825
17.48054087942723	4.7230926	2.1732676
17.498273761061835	4.9912596	2.2341127
17.51600706502747	5.4985523	2.3448992
17.533740791779024	6.2378154	2.497562
17.551474941771485	7.6432242	2.7646382
17.56920951545993	8.654786	2.9419017
17.586944513299528	10.756919	3.2797742
17.60467993574556	12.245146	3.4993064
17.622415783253373	13.858998	3.7227676
17.64015205627843	15.202676	3.899061
17.657888755276293	16.280933	4.034964
17.675625880702604	16.755888	4.0933957
17.69336343301311	16.599964	4.0743055
17.71110141266366	15.872573	3.9840398
17.728839820110178	15.006127	3.8737743
17.746578655808705	14.165948	3.7637677
17.764317920215372	12.800797	3.5778203
17.7820576137864	11.331896	3.3662882
17.79979773697811	9.39376	3.064924
17.81753829024692	7.572718	2.7518573
17.835279274049356	5.946257	2.438495
17.85302068884201	4.8871374	2.2106872
17.870762535081607	4.234853	2.0578759
17.888504813224934	3.9356449	1.983846
17.90624752372891	3.7640812	1.940124
17.923990667050536	3.6506178	1.910659
17.941734243646895	3.5475614	1.8834971
17.959478253975185	3.5151787	1.874881
17.9772226984927	3.4965794	1.8699143
17.994967577656833	3.4701169	1.8628249
18.01271289192506	3.459925	1.8600874
18.030458641754965	3.3896325	1.8410954
18.04820482760425	3.3375013	1.826883
18.06595144993067	3.2651138	1.8069626
18.083698509192125	3.2720497	1.8088808
18.101446005846576	3.2659433	1.8071921
18.119193940352105	3.257821	1.8049436
18.136942313166887	3.2503011	1.8028592
18.1546911247492	3.2219453	1.7949778
18.1724403755574	3.2206848	1.7946266
18.19019006604997	3.224164	1.7955958
18.207940196685467	3.236123	1.7989228
18.225690767922575	3.1832304	1.784161
18.243441780220046	3.1717029	1.7809275
18.261193234036764	3.132622	1.7699214
18.278945129831676	3.162733	1.7784075
18.29669746806386	3.1205335	1.7665032
18.314450249192483	3.1129274	1.764349
18.3322034736768	3.0749652	1.7535579
18.349957141976184	3.071903	1.7526845
18.3677112545501	3.0483937	1.745965
18.385465811858108	3.0295806	1.740569
18.403220814359884	3.020781	1.7380394
18.420976262515172	3.0505664	1.746587
18.43873215678387	3.1601832	1.7776904
18.456488497625923	3.2524302	1.8034495
18.474245285501407	3.2927473	1.8145928
18.492002520870486	3.3335917	1.8258126
18.50976020419343	3.3806186	1.8386458
18.527518335930615	3.7158504	1.9276541
18.545276916542516	4.254644	2.0626788
18.563035946489688	4.388399	2.0948505
18.580795426232832	4.8828917	2.2097266
18.598555356232698	4.8129654	2.1938472
18.616315736950185	5.183926	2.2768238
18.63407656884626	4.7731376	2.184751
18.65183785238201	5.00268	2.2366672
18.669599588018617	4.7915235	2.1889548
18.68736177621737	4.8022094	2.1913943
18.705124417439652	4.7606225	2.181885
18.72288751214696	4.5634046	2.1362126
18.740651060800886	4.72483	2.1736674
18.758415063863115	4.392405	2.0958066
18.77617952179546	4.563927	2.136335
18.793944435059814	4.3019924	2.0741246
18.811709804118184	4.3614936	2.088419
18.829475629432675	4.336696	2.0824735
18.8472419114655	4.130907	2.0324633
18.86500865067897	4.213802	2.0527546
18.88277584753551	3.8868008	1.971497
18.90054350249763	3.9402723	1.9850119
18.918311616027957	3.55814	1.8863033
18.936080188589226	3.391627	1.841637
18.953849220644265	3.0562246	1.7482061
18.971618712656007	2.9255366	1.71042
18.9893886650875	2.871508	1.6945524
19.007159078401887	8.026466	2.833102
19.024929953062408	32.889004	5.7348933
19.042701289532435	32.862595	5.7325907
19.060473088275405	25.419622	5.0417876
19.07824534975489	2.6637228	1.6320915
19.096018074434568	2.6342912	1.62305
19.113791262778197	2.6055317	1.6141659
19.13156491524966	2.5952806	1.6109874
19.149339032312945	2.5921962	1.6100299
19.167113614432136	2.611104	1.6158911
19.184888662071433	2.6109247	1.6158357
19.202664175695123	2.5994208	1.6122719
19.220440155767623	2.564687	1.601464
19.238216602753447	2.520778	1.5876958
19.2559935171172	2.520774	1.5876945
19.27377089932361	2.529296	1.590376
19.291548749837514	2.562332	1.6007285
19.309327069123835	2.5431886	1.5947378
19.32710585764763	2.5375054	1.5929549
19.344885115874032	2.528199	1.5900311
19.362664844268313	2.5475981	1.5961198
19.380445043295822	2.5340512	1.5918703
19.39822571342203	2.490045	1.5779877
19.41600685511252	2.4545157	1.5666894
19.43378846883297	2.4482458	1.5646871
19.451570555049173	2.4774654	1.5739967
19.469353114227037	2.4737878	1.5728279
19.48713614683254	2.5119367	1.5849091
19.50491965333182	2.5434117	1.5948077
19.52270363419109	2.5536032	1.5979997
19.540488089876686	2.541151	1.5940988
19.55827302085503	2.5250623	1.5890445
19.576058427592674	2.5075858	1.5835358
19.593844310556282	2.517034	1.5865164
19.611630670212598	2.5209224	1.5877413
19.629417507028506	2.5386238	1.593306
19.64720482147098	2.536585	1.592666
19.6649926140071	2.5619078	1.6005961
19.682780885104084	2.5432193	1.5947474
19.70056963522921	2.50969	1.5842001
19.718358864849908	2.4497006	1.5651519
19.7361485744337	2.4377825	1.56134
19.753938764448215	2.4647353	1.5699475
19.771729435361202	2.5138736	1.58552
19.789520587640506	2.5406618	1.5939454
19.807312221754092	2.5393975	1.5935487
19.825104338170043	2.536983	1.592791
19.842896937356517	2.4994016	1.5809495
19.860690019781824	2.4864626	1.5768521
19.87848358591436	2.4657176	1.5702604
19.896277636222635	2.4727924	1.5725114
19.914072171175278	2.5298717	1.5905571
19.931867191241015	2.5400062	1.5937396
19.94966269688869	2.5306902	1.5908144
19.967458688587264	2.5134003	1.5853707
19.985255166805807	2.5302691	1.590682
20.00305213201348	2.5074987	1.5835084
20.020849584679578	2.5084925	1.5838221
20.038647525273507	2.4828022	1.575691
20.05644595426477	2.4803958	1.5749272
20.07424487212299	2.4482677	1.5646942
20.092044279317903	2.3999991	1.549193
20.109844176319353	2.3995042	1.5490333
20.127644563597304	2.3997273	1.5491053
20.145445441621817	2.4147215	1.5539374
20.16324681086307	2.4011548	1.549566
20.181048671791373	2.3884254	1.5454531
20.198851024877122	2.3945196	1.5474235
20.216653870590836	2.384574	1.5442066
20.234457209403146	2.4106874	1.5526389
20.252261041784802	2.426006	1.5575641
20.270065368206662	2.4124372	1.5532023
20.287870189139685	2.387003	1.5449928
20.305675505054968	2.381288	1.5431423
20.323481316423702	2.4078717	1.5517318
20.341287623717207	2.3970747	1.5482489
20.359094427406884	2.3957362	1.5478166
20.376901727964288	2.3664114	1.5383145
20.39470952586107	2.3339744	1.527735
20.41251782156899	2.3300667	1.5264556
20.430326615559935	2.344688	1.5312374
20.448135908305886	2.3763604	1.5415448
20.465945700278965	2.3674695	1.5386584
20.483755991951384	2.3533635	1.5340676
20.50156678379548	2.383704	1.5439248
20.519378076283708	2.4116752	1.5529569
20.537189869888635	2.4123118	1.5531619
20.55500216508294	2.3767674	1.5416768
20.572814962339415	2.366752	1.5384251
20.59062826213098	2.3790152	1.5424056
20.60844206493066	2.3482244	1.5323917
20.626256371211593	2.3357325	1.5283103
20.644071181447032	2.3246784	1.5246896
20.66188649611036	2.3367672	1.5286489
20.67970231567506	2.3338685	1.5277004
20.697518640614742	2.3190873	1.5228549
20.715335471403122	2.3266723	1.5253433
20.73315280851404	2.3463354	1.5317752
20.750970652421447	2.3471894	1.532054
20.768789003599412	2.3182168	1.5225692
20.786607862522136	2.3227017	1.5240413
20.8044272296639	2.3284936	1.5259402
20.82224710549913	2.3184004	1.5226294
20.84006749050237	2.297295	1.515683
20.857888385148268	3.8532758	1.9629762
20.8757097899116	45.955738	6.779066
20.893531705267254	64.82235	8.051232
20.911354131690224	83.836716	9.1562395
20.92917706965566	69.083565	8.311652
20.94700051963877	50.146824	7.0814424
20.96482448211493	29.400137	5.422189
20.982648957559622	4.131037	2.0324953
21.00047394644843	2.2310507	1.4936702
21.01829944925707	2.2409017	1.4969642
21.036125466461375	2.261191	1.5037256
21.053951998537297	2.2765005	1.5088077
21.071779045960906	2.2343915	1.494788
21.089606609208378	2.1750922	1.4748194
21.10743468875603	2.1666076	1.47194
21.12526328508028	2.1963086	1.4819949
21.143092398657675	2.2309852	1.4936483
21.16092202996488	2.2498605	1.4999535
21.17875217947867	2.2532105	1.5010698
21.19658284767596	2.2418954	1.4972961
21.21441403503377	2.1976492	1.482447
21.232245742029225	2.1718328	1.473714
21.2500779691396	2.1616948	1.4702703
21.26791071684227	2.167363	1.4721966
21.28574398561475	2.164066	1.4710765
21.30357777593465	2.160844	1.469981
21.321412088279704	2.1613002	1.4701362
21.339246923127792	2.1711886	1.4734954
21.357082280956888	2.170932	1.4734083
21.3749181622451	2.169772	1.4730146
21.392754567470647	2.1839166	1.477808
21.41059149711187	2.1731358	1.4741559
21.42842895164726	2.1261961	1.4581482
21.446266931555378	2.1003888	1.4492718
21.464105437314945	2.1128697	1.4535713
21.481944469404798	2.1125207	1.4534513
21.49978402830388	2.1167119	1.4548924
21.51762411449127	2.1144319	1.4541086
21.53546472844617	2.1101155	1.4526237
21.553305870647876	2.0738223	1.4400772
21.571147541575865	2.044832	1.4299762
21.58898974170967	2.026347	1.4234982
21.60683247152899	2.0286167	1.4242952
21.62467573151363	2.039757	1.4282006
21.642519522143523	2.042715	1.4292358
21.660363843898722	2.0737154	1.4400401
21.6782086972594	2.1149473	1.4542859
21.696054082705864	2.1441886	1.4643048
21.713900000718535	2.11161	1.453138
21.73174645177795	2.096051	1.4477745
21.749593436364794	2.084409	1.4437482
21.767440954959845	2.0437074	1.429583
21.785289008044032	1.9878583	1.4099143
21.803137596098388	1.9896265	1.4105412
21.820986719604086	2.033318	1.4259446
21.838836379042412	2.0591812	1.4349847
21.85668657489478	2.0785477	1.4417169
21.87453730764273	2.0724905	1.4396147
21.892388577767914	2.0571241	1.4342678
21.91024038575213	2.0536034	1.4330399
21.928092732077285	2.0381608	1.4276417
21.945945617225426	2.016215	1.4199349
21.963799041678694	2.0043619	1.4157549
21.981653005919398	31.349989	5.5991063
21.999507510429943	78.13146	8.8392
22.01736255569286	73.06827	8.547997
22.035218142190818	4.169297	2.0418856
22.05307427040661	2.034735	1.4264413
22.07093094082315	2.0170305	1.4202219
22.088788153923474	1.9746104	1.4052083
22.106645910190746	1.9636714	1.4013106
22.12450421010827	1.9970793	1.4131806
22.142363054159464	2.047466	1.4308969
22.16022244282787	1.9887296	1.4102232
22.178082376597164	1.9836578	1.4084239
22.195942855951145	2.002968	1.4152626
22.213803881373742	2.0170436	1.4202266
22.231665453349002	2.0063365	1.416452
22.24952757236111	1.975688	1.4055917
22.26739023889438	1.9802397	1.4072099
22.28525345343323	1.9750934	1.4053801
22.30311721646225	1.9682982	1.4029605
22.320981528466113	1.9648355	1.4017259
22.33884638992964	1.9904146	1.4108206
22.356711801337788	2.0192077	1.4209883
22.37457776317561	2.0480957	1.4311169
22.392444275928337	2.0207388	1.4215269
22.410311340081282	2.0070555	1.4167058
22.428178956119904	1.9464194	1.3951414
22.446047124529805	1.9542786	1.3979552
22.46391584579669	1.9309523	1.389587
22.481785120406414	1.9472198	1.3954282
22.49965494884496	1.9539527	1.3978386
22.51752533159841	1.9924552	1.4115436
22.53539626915302	2.0042992	1.4157327
22.553267761995137	2.0480952	1.4311168
22.571139810611264	2.0207045	1.4215149
22.589012415488025	1.9886844	1.4102073
22.60688557711216	1.8833249	1.3723428
22.624759295970566	1.8550093	1.3619872
22.642633572550263	1.8684251	1.3669034
22.660508407338362	1.9241209	1.3871268
22.67838380082217	1.9499807	1.3964171
22.696259753489077	1.9778132	1.4063475
22.714136265826614	1.9743468	1.4051145
22.73201333832246	1.9696693	1.403449
22.74989097146439	1.9078382	1.3812451
22.76776916574035	1.8773913	1.3701793
22.785647921638393	1.8444573	1.3581079
22.803527239646712	1.868694	1.3670018
22.82140712025363	1.9058939	1.3805412
22.839287563947593	1.9366033	1.391619
22.85716857121719	1.9189782	1.3852719
22.875050142551135	1.8713455	1.3679713
22.892932278438277	1.8735847	1.3687896
22.910814979367604	1.9377241	1.3920215
22.928698245828222	1.9658918	1.4021026
22.946582078309387	1.9562304	1.398653
22.96446647730047	1.9492266	1.396147
22.98235144329098	1.9641161	1.4014692
23.000236976770562	1.9354	1.3911866
23.018123078229	1.885217	1.373032
23.03600974815619	1.8394183	1.3562516
23.053896987042194	1.8302418	1.3528643
23.071784795377173	1.838125	1.3557746
23.08967317365145	1.8687524	1.3670232
23.10756212235546	1.874461	1.3691096
23.125451641979787	1.9167215	1.3844571
23.143341733015134	1.9563088	1.3986812
23.161232395952357	1.971601	1.4041371
23.179123631282426	1.9843737	1.4086779
23.197015439496468	1.9772117	1.4061337
23.214907821085717	1.9715983	1.4041362
23.23280077654157	1.9342158	1.3907609
23.250694306355538	1.9231955	1.3867933
23.268588411019277	1.9400963	1.3928734
23.28648309102458	1.9528039	1.3974276
23.304378346863356	1.9662364	1.4022255
23.322274179027676	1.9644729	1.4015965
23.340170588009723	1.9861759	1.4093175
23.358067574301852	1.9647032	1.4016787
23.37596513839651	1.9438076	1.394205
23.39386328078629	1.9647937	1.401711
23.411762001963947	1.9475776	1.3955563
23.429661302422353	1.9405122	1.3930227
23.4475611826545	1.918791	1.3852043
23.46546164315356	1.9355034	1.3912237
23.48336268441279	1.9454867	1.394807
23.501264306925638	1.9339744	1.3906741
23.51916651118564	1.9864864	1.4094276
23.537069297686497	2.0012596	1.4146588
23.554972666922037	1.9823059	1.4079438
23.57287661938623	1.9423176	1.3936706
23.59078115557318	1.9101595	1.3820852
23.608686275977128	1.9242103	1.3871591
23.62659198109246	1.9126236	1.3829764
23.6444982714137	1.9008889	1.3787273
23.66240514743549	1.8838534	1.3725353
23.68031260965263	1.8943459	1.3763524
23.698220658560068	1.8920109	1.3755039
23.716129294652845	1.9118097	1.3826821
23.7340385184262	1.9001464	1.378458
23.75194833037546	1.9235057	1.3869051
23.769858730996123	1.9577923	1.3992113
23.78776972078382	1.9882883	1.4100667
23.80568130023431	1.9969186	1.4131237
23.823593469843495	1.9807086	1.4073765
23.841506230107424	1.9362332	1.3914859
23.859419581522275	1.9017437	1.3790373
23.87733352458438	1.9145778	1.3836827
23.89524805979019	1.9368669	1.3917136
23.913163187636318	1.9477451	1.3956164
23.931078908619508	1.9411918	1.3932666
23.948995223236633	1.9834595	1.4083534
23.966912131984735	2.0421515	1.4290386
23.98482963536096	2.0948668	1.4473654
24.002747733862616	2.0432193	1.4294122
24.020666427987155	2.0378437	1.4275306
24.038585718232156	2.0706933	1.4389904
24.056505605095353	2.070641	1.4389722
24.074426089074617	2.0634818	1.4364824
24.092347170667946	2.0388198	1.4278724
24.110268850373515	2.046531	1.4305701
24.128191128689586	2.0547318	1.4334335
24.146114006114626	2.0324225	1.4256306
24.164037483147187	2.0445302	1.4298707
24.181961560286005	2.122527	1.4568895
24.199886238029926	2.1131973	1.4536841
24.21781151687797	2.0597878	1.435196
24.235737397329274	2.0046387	1.4158527
24.253663879883135	2.0814636	1.4427278
24.271590965038975	2.1134524	1.4537718
24.289518653296376	2.0801718	1.44228
24.30744694515505	2.0010815	1.4145958
24.32537584111486	1.9953119	1.4125551
24.34330534167581	2.0082898	1.4171414
24.361235447338046	2.0345573	1.4263791
24.379166158601876	2.060402	1.43541
24.39709747596772	2.039662	1.4281673
24.41502939993615	2.0095499	1.417586
24.432961931007917	2.0154686	1.419672
24.450895069683856	2.0143492	1.4192777
24.468828816465	2.0088289	1.4173316
24.4867631718525	1.9653561	1.4019116
24.504698136347656	2.0007405	1.4144753
24.52263371045192	2.0497384	1.4316907
24.540569894666874	2.0383153	1.4276958
24.558506689494266	1.993713	1.411989
24.57644409543597	1.9361179	1.3914446
24.594382112994012	1.8971148	1.3773578
24.61232074267057	1.8927191	1.3757613
24.630259984967953	1.9221171	1.3864044
24.64819984038863	1.9576286	1.3991529
24.66614030943522	1.9486985	1.395958
24.684081392610462	1.9449766	1.3946241
24.702023090417274	1.9366686	1.3916425
24.7199654033587	1.9638788	1.4013846
24.737908331937927	1.9620165	1.40072
24.755851876658305	1.9747372	1.4052534
24.773796038023324	1.9940529	1.4121094
24.79174081653661	2.046276	1.4304811
24.809686212701962	2.0621147	1.4360065
24.827632227023294	2.0584414	1.434727
24.8455788600047	2.0398095	1.428219
24.8635261121504	2.0622652	1.4360589
24.88147398396475	2.0993197	1.448903
24.899422475952303	2.0725586	1.4396384
24.917371588617698	2.082125	1.442957
24.935321322465768	2.1541276	1.4676946
24.953271678001478	2.273498	1.5078124
24.97122265572994	2.4805982	1.5749915
24.989174256156414	2.8018203	1.6738639
25.00712647978632	3.2540488	1.8038982
25.02507932712521	3.805392	1.9507414
25.043032798678798	4.3343368	2.081907
25.060986894952933	4.8980713	2.2131586
25.078941616453637	5.540487	2.353824
25.096896963687055	6.4645143	2.5425408
25.114852937159508	7.557748	2.7491357
25.132809537377444	7.9700584	2.8231292
25.150766764847468	7.9785423	2.8246315
25.168724620076347	7.506898	2.739872
25.186683103570985	6.5890083	2.5669065
25.204642215838426	5.4387965	2.3321228
25.222601957385894	4.1417575	2.0351307
25.24056232872074	3.170831	1.7806827
25.25852333035048	2.6096127	1.6154295
25.276484962782778	2.2247071	1.4915452
25.294447226525435	2.1227543	1.4569675
25.312410122086423	2.052544	1.4326702
25.330373649973843	1.9998883	1.4141741
25.348337810695988	1.9431925	1.3939844
25.366302604761245	1.9498641	1.3963754
25.384268032678207	1.9832075	1.408264
25.40223409495558	1.9653764	1.4019188
25.420200792102257	1.9182545	1.3850106
25.438168124627246	1.8807986	1.371422
25.45613609303974	1.8866557	1.3735559
25.474104697849057	1.8822539	1.3719525
25.492073939564698	1.853628	1.3614801
25.510043818696285	1.9008926	1.3787286
25.528014335753614	1.9134656	1.3832808
25.54598549124664	1.9275165	1.3883502
25.56395728568544	1.9086685	1.3815457
25.58192971958028	1.8791684	1.3708277
25.59990279344156	1.9086214	1.3815286
25.617876507779833	1.904734	1.380121
25.635850863105826	1.8856394	1.3731859
25.653825859930386	1.8755429	1.3695046
25.671801498764548	1.8824421	1.3720212
25.68977778011949	1.9010221	1.3787756
25.707754704506524	1.8912977	1.3752446
25.725732272437153	1.8866913	1.3735688
25.743710484423012	1.8791455	1.3708193
25.761689340975888	1.86501	1.3656538
25.77966884260774	1.8550646	1.3620076
25.797648989830662	1.8799036	1.3710958
25.815629783156922	1.9005089	1.3785895
25.83361122309895	1.8811826	1.3715621
25.85159331016929	1.8198434	1.3490157
25.869576044880695	1.8224404	1.349978
25.887559427746034	1.8450769	1.3583361
25.90554345927836	1.8364458	1.3551552
25.92352813999086	1.8175234	1.3481555
25.94151347039689	1.821085	1.3494759
25.959499451009965	1.8566155	1.3625768
25.97748608234374	1.8705711	1.3676883
25.995473364912062	1.836148	1.3550454
26.013461299228904	1.8427714	1.3574872
26.03144988580839	1.8738074	1.3688709
26.04943912516483	1.8905174	1.3749609
26.067429017812675	1.8788595	1.370715
26.085419564266537	1.8516356	1.3607482
26.103410765041186	1.824139	1.3506069
26.12140262065155	1.8174244	1.3481189
26.139395131612723	1.8479569	1.3593957
26.157388298439948	1.8531826	1.3613164
26.17538212164861	1.8534911	1.3614298
26.193376601754295	1.815163	1.3472799
26.211371739272714	1.8136786	1.3467288
26.229367534719746	1.7929676	1.3390174
26.247363988611433	1.8281852	1.352104
26.26536110146397	1.837012	1.3553642
26.283358873793727	1.8569803	1.3627106
26.301357306117204	1.8782746	1.3705015
26.319356398951104	1.8611604	1.3642435
26.33735615281224	1.8672094	1.3664588
26.35535656821762	1.8768953	1.3699983
26.373357645684404	1.8538468	1.3615605
26.39135938572991	1.8120272	1.3461156
26.409361788871614	1.7846682	1.3359147
26.427364855627165	1.8202418	1.3491634
26.445368586514352	1.8379492	1.3557098
26.46337298205115	1.7995651	1.3414787
26.48137804275568	1.7608162	1.3269575
26.499383769146217	1.8092033	1.3450663
26.517390161741215	1.8390367	1.3561109
26.53539722105928	1.8376558	1.3556017
26.553404947619182	1.8637705	1.3651998
26.571413341939856	1.855487	1.3621626
26.589422404540397	1.8134979	1.3466618
26.60743213594006	1.7771709	1.3331057
26.62544253665827	1.760087	1.3266827
26.64345360721459	1.7761015	1.3327045
26.66146534812879	1.7912403	1.3383722
26.679477759920758	1.8466713	1.3589228
26.69749084311057	1.8683954	1.3668926
26.71550459821847	1.8512987	1.3606244
26.733519025764842	1.8353446	1.3547488
26.751534126270258	1.864061	1.3653061
26.769549900255434	1.8820386	1.3718741
26.787566348241267	1.8591594	1.3635099
26.80558347074881	1.8178242	1.3482671
26.823601268299267	1.8061577	1.3439337
26.841619741414036	1.8052418	1.3435929
26.85963889061465	1.8104455	1.345528
26.877658716422832	1.8355786	1.3548353
26.89567921936045	1.8785553	1.370604
26.913700399949544	1.8721623	1.3682698
26.93172225871233	1.8502008	1.3602209
26.949744796171174	1.839548	1.3562994
26.967768012848605	1.8445226	1.358132
26.98579190926733	1.853715	1.3615121
27.003816485950225	1.8665519	1.3662181
27.021841743420318	1.9296416	1.3891155
27.039867682200814	1.9051582	1.3802747
27.057894302815072	1.8262988	1.3514062
27.07592160578664	1.7449455	1.3209639
27.0939495916392	1.7587624	1.3261834
27.111978260896635	1.7769066	1.3330066
27.13000761408296	1.7896419	1.337775
27.148037651722397	1.7687534	1.3299448
27.166068374339304	1.772663	1.3314139
27.184099782458215	1.8140237	1.346857
27.20213187660384	1.8176206	1.3481916
27.22016465730105	1.797297	1.340633
27.23819812507487	1.7995569	1.3414756
27.256232280450533	1.8508035	1.3604424
27.274267123953383	1.8613898	1.3643275
27.292302656108987	1.8492887	1.3598856
27.31033887744306	1.8177644	1.3482449
27.32837578848146	1.8266485	1.3515356
27.34641338975026	1.8091629	1.3450513
27.364451681775673	1.8034481	1.3429252
27.382490665084074	1.8384224	1.3558843
27.400530340202046	1.8405547	1.3566705
27.41857070765629	1.7923712	1.3387947
27.436611767973726	1.787687	1.3370441
27.454653521681404	1.7851174	1.3360828
27.472695969306564	1.7986822	1.3411496
27.490739111376627	1.8044603	1.343302
27.508782948419153	1.7861937	1.3364856
27.526827480961902	1.7448226	1.3209174
27.54487270953279	1.7328728	1.3163862
27.562918634659898	1.7529364	1.323985
27.580965256871508	1.7796919	1.3340509
27.599012576696026	1.795888	1.3401074
27.617060594662068	1.7944605	1.3395748
27.63510931129842	1.8128742	1.3464302
27.65315872713401	1.830753	1.3530532
27.67120884269797	1.8584158	1.3632373
27.68925965851958	1.8670478	1.3663995
27.707311175128307	1.887249	1.3737718
27.725363393053787	1.8416661	1.35708
27.74341631282583	1.7834324	1.3354521
27.7614699349744	1.7974777	1.3407005
27.77952426002968	2.0272558	1.4238173
27.797579288521973	2.1123695	1.4533993
27.815635020981784	2.6001859	1.6125091
27.83369145793979	2.6866786	1.6391091
27.85174859992682	2.4757612	1.5734552
27.869806447473923	2.3157723	1.5217662
27.887865001112267	1.9836713	1.4084287
27.905924261373233	1.90203	1.3791411
27.92398422878836	1.9211984	1.386073
27.94204490388936	1.8993102	1.3781546
27.96010628720813	1.8526125	1.3611071
27.978168379276728	1.8214386	1.3496069
27.9962311806274	1.8534192	1.3614033
28.014294691792568	1.941185	1.3932642
28.0323589133048	1.9594046	1.3997873
28.050423845696887	1.860757	1.3640957
28.068489489501758	1.8216681	1.3496919
28.086555845252523	1.8377978	1.355654
28.104622913482487	1.8448296	1.358245
28.122690694725115	1.8667233	1.3662808
28.14075918951405	1.9507648	1.3966978
28.15882839838312	1.9986736	1.4137446
28.176898321866304	1.9576343	1.3991549
28.1949689604978	1.9302677	1.3893408
28.213040314811945	1.9654744	1.4019538
28.23111238534327	1.9595631	1.3998439
28.249185172626493	1.9575725	1.3991327
28.267258677196473	1.9667985	1.402426
28.285332899588294	1.9434506	1.394077
28.303407840337172	1.9558442	1.398515
28.321483499978545	1.9758513	1.4056498
28.33955987904799	1.9657042	1.4020357
28.357636978081285	1.9549912	1.39821
28.37571479761439	1.9397912	1.3927639
28.393793338183425	1.9507923	1.3967077
28.41187260032469	1.9909827	1.4110218
28.429952584574686	2.0447414	1.4299445
28.448033291470065	2.0668068	1.4376394
28.46611472154769	2.0351534	1.426588
28.484196875344566	1.9906237	1.4108946
28.502279753397914	1.9851671	1.4089596
28.52036335624511	1.9768655	1.4060105
28.538447684423716	2.0142438	1.4192406
28.556532738471482	2.0174305	1.4203628
28.574618518926325	2.0075667	1.4168862
28.59270502632635	2.0021245	1.4149646
28.61079226120985	2.004968	1.4159689
28.628880224115274	1.981172	1.4075412
28.646968915581287	2.0118494	1.4183968
28.66505833614671	2.034599	1.4263937
28.68314848635055	2.0420535	1.4290043
28.701239366732004	2.0230014	1.4223225
28.71933097783044	2.0495844	1.4316369
28.737423320185403	2.06764	1.437929
28.75551639433665	2.0797186	1.4421229
28.773610200824074	2.1392505	1.4626176
28.791704740187793	2.1676314	1.4722878
28.80980001296809	2.1704154	1.473233
28.827896019705413	2.173522	1.4742869
28.845992760940433	2.2054453	1.4850742
28.86409023721397	2.2124522	1.4874314
28.88218844906704	2.1862903	1.4786109
28.900287397040845	2.2079654	1.4859225
28.918387081676755	2.1841779	1.4778965
28.936487503516343	2.1939943	1.4812138
28.954588663101365	2.2382464	1.4960771
28.97269056097374	2.3276174	1.5256531
28.990793197675597	2.3826158	1.5435724
29.00889657374923	2.3722465	1.5402099
29.027000689737125	2.3868682	1.5449493
29.04510554618196	2.3980708	1.5485705
29.06321114362659	2.4120471	1.5530766
29.08131748261405	2.4618104	1.5690157
29.099424563687567	2.494335	1.5793464
29.11753238739057	2.5216913	1.5879834
29.13564095426663	2.5297759	1.5905269
29.15375026485954	2.5747771	1.6046112
29.171860319713275	2.6051562	1.6140497
29.18997111937199	2.6050587	1.6140194
29.20808266438002	2.6671963	1.6331553
29.226194955281898	2.7738178	1.6654782
29.244307992622335	2.806747	1.6753349
29.26242177694624	2.7846859	1.6687378
29.2805363087987	2.8790789	1.6967849
29.29865158872498	2.937781	1.7139957
29.316767617270557	2.938226	1.7141254
29.334884394981064	2.9156091	1.7075155
29.353001922402367	2.9807146	1.7264746
29.37112020008047	3.0665896	1.751168
29.389239228561596	3.178172	1.7827429
29.407359008392152	3.3190067	1.8218141
29.42547954011872	3.6258197	1.9041585
29.44360082428809	4.276855	2.0680559
29.46172286144722	5.2630544	2.2941349
29.479845652143283	6.7440286	2.5969267
29.497969196923606	8.740425	2.956421
29.516093496335728	11.066951	3.3267026
29.5342185509274	13.7014675	3.7015493
29.55234436124651	15.883387	3.9853966
29.570470927841175	17.292305	4.158402
29.588598251259686	17.25535	4.153956
29.60672633205055	16.002813	4.0003514
29.624855170762405	13.917133	3.7305675
29.642984767944146	11.3932495	3.3753889
29.66111512414481	8.732582	2.9550943
29.67924623991366	6.5465064	2.5586143
29.697378115800138	5.069037	2.2514522
29.71551075235387	4.179379	2.044353
29.733644150124675	3.817361	1.9538069
29.751778309662576	3.631304	1.905598
29.769913231517766	3.503975	1.8718908
29.78804891624066	3.4809458	1.8657293
29.806185364381818	3.4243903	1.8505108
29.82432257649206	3.3469384	1.829464
29.842460553122333	3.2985153	1.8161815
29.86059929482382	3.2643313	1.806746
29.878738802147872	3.222018	1.794998
29.896879075646048	3.2616918	1.8060155
29.915020115870114	3.316408	1.8211007
29.933161923371976	3.25123	1.8031168
29.951304498703777	3.245889	1.801635
29.969447842417857	3.2295856	1.7971048
29.987591955066733	3.2686381	1.8079375
30.005736837203123	3.319448	1.8219352
30.023882489379943	3.3219433	1.8226199
30.04202891215028	3.17917	1.7830226
30.060176106067455	3.1191201	1.7661031
30.078324071684946	3.1963768	1.7878414
30.09647280955646	3.2551124	1.804193
30.114622320235863	3.213747	1.7926927
30.132772604277257	3.1288357	1.7688515
30.1509236622349	3.1471632	1.7740246
30.16907549466328	3.1084032	1.7630664
30.18722810211705	3.1068945	1.7626384
30.205381485151097	3.081648	1.7554624
30.22353564432045	3.0577714	1.7486484
30.241690580180403	3.070436	1.7522659
30.25984629328638	3.0581129	1.748746
30.278002784194037	3.0395863	1.743441
30.296160053459246	2.9942956	1.7304033
30.314318101638033	2.950992	1.7178452
30.332476929286646	2.9228492	1.7096342
30.35063653696153	2.938672	1.7142556
30.368796925219307	2.8874204	1.6992412
30.386958094616844	2.7979393	1.6727042
30.40512004571115	2.806675	1.6753134
30.423282779059463	2.8222413	1.6799527
30.441446295219233	2.8839362	1.6982156
30.459610594748067	2.8478327	1.6875523
30.47777567820382	2.7984781	1.6728653
30.495941546144504	2.8365803	1.6842151
30.51410819912835	2.8412962	1.6856145
30.532275637713795	2.8272846	1.6814531
30.55044386245946	2.7967443	1.672347
30.56861287392416	2.8087525	1.6759334
30.586782672666956	2.8304367	1.6823902
30.604953259247047	2.825018	1.680779
30.623124634223885	2.8098226	1.6762525
30.641296798157075	2.7832572	1.6683097
30.659469751606462	2.7917268	1.6708461
30.677643495132074	2.7438812	1.6564665
30.695818029294152	2.7560413	1.6601329
30.713993354653116	2.7353482	1.6538888
30.73216947176962	2.7120838	1.6468406
30.75034638120448	2.6838667	1.6382511
30.768524083518756	2.7153368	1.6478279
30.786702579273673	2.7463298	1.6572055
30.80488186903069	2.799225	1.6730884
30.82306195335144	2.94075	1.7148615
30.841242832797782	3.1320233	1.7697524
30.85942450793176	3.3798892	1.8384475
30.877606979315637	3.655147	1.9118439
30.895790247511883	3.9736755	1.993408
30.913974313083134	4.3788733	2.0925758
30.932159176592283	4.7226267	2.1731606
30.95034483860237	4.771482	2.1843722
30.968531299676698	4.5734353	2.138559
30.98671856037873	4.2904463	2.0713391
31.00490662127215	3.9473612	1.9867967
31.023095482920848	3.5292437	1.8786281
31.04128514588892	3.1072526	1.7627401
31.059475610740662	2.7369585	1.6543756
31.07766687804056	2.5520496	1.5975136
31.09585894835335	2.506167	1.5830878
31.11405182224393	2.5173695	1.586622
31.132245500277417	2.5198965	1.5874182
31.15043998301914	2.4834623	1.5759004
31.168635271034628	2.4966962	1.5800937
31.18683136488964	2.5080333	1.5836772
31.20502826515008	2.4897807	1.5779039
31.223225972382135	2.493341	1.5790317
31.241424487152155	2.4941704	1.5792943
31.259623810026692	2.4639432	1.5696952
31.27782394157253	2.4443939	1.5634557
31.296024882356644	2.3998966	1.54916
31.314226632946237	2.327882	1.5257398
31.332429193908684	2.3328016	1.5273511
31.350632565811598	2.4335082	1.5599706
31.368836749222787	2.4860735	1.5767287
31.387041744710295	2.4861012	1.5767375
31.40524755284232	2.5077915	1.5836008
31.423454174187317	2.508387	1.5837889
31.441661609313922	2.5433862	1.5947998
31.459869858791002	2.5515096	1.5973445
31.478078923187628	2.4568741	1.5674419
31.496288803073064	2.3733382	1.5405643
31.514499499016807	2.3491156	1.5326825
31.532711011588546	2.3782604	1.542161
31.550923341358178	2.363226	1.5372788
31.56913648889584	2.3807144	1.5429564
31.587350454771844	2.3974695	1.5483764
31.605565239556732	2.4288993	1.5584927
31.62378084382127	2.4063132	1.5512296
31.641997268136382	2.350283	1.5330633
31.660214513073274	2.2902746	1.5133654
31.67843257920331	2.347627	1.5321968
31.6966514670981	2.405801	1.5510645
31.71487117732944	2.3335118	1.5275836
31.733091710469346	2.2610724	1.5036863
31.751313067090052	2.2440667	1.4980209
31.769535247764008	2.2699215	1.5066259
31.787758253063878	2.2727838	1.5075755
31.805982083562526	2.2344165	1.4947965
31.824206739833024	2.23512	1.4950318
31.84243222244869	2.2856314	1.5118304
31.860658531983013	2.246542	1.4988469
31.878885669009737	2.2066758	1.4854884
31.897113634102784	2.217049	1.4889758
31.91534242783632	2.1965714	1.4820834
31.933572050784694	2.2118604	1.4872324
31.951802503522508	2.319127	1.522868
31.970033786624548	2.2980552	1.5159338
31.988265900665834	2.322595	1.5240062
32.006498846221575	2.2876127	1.5124856
32.02473262386724	2.1169791	1.4549842
32.04296723417845	2.027941	1.424058
32.0612026777311	2.0545464	1.4333689
32.07943895510129	2.1609554	1.4700189
32.097676066865304	2.1999562	1.4832249
32.115914013599685	2.1532886	1.4674088
32.13415279588115	2.1147065	1.454203
32.152392414286666	2.1036017	1.4503798
32.1706328693934	2.0767088	1.441079
32.18887416177875	2.147123	1.4653065
32.20711629202032	2.1656349	1.4716096
32.225359260695924	2.1033711	1.4503003
32.243603068383614	2.080975	1.4425585
32.26184771566166	2.114977	1.454296
32.28009320310852	2.1930242	1.4808862
32.2983395313029	2.1990645	1.4829243
32.31658670082372	2.137358	1.4619706
32.33483471225012	2.0739186	1.4401106
32.35308356616143	2.067302	1.4378115
32.371333263137245	2.053615	1.433044
32.38958380375734	2.042945	1.4293163
32.407835188601744	2.052395	1.4326183
32.42608741825067	2.0677664	1.437973
32.444340493284585	2.084181	1.4436693
32.46259441428416	2.0125823	1.4186552
32.48084918183028	1.9825948	1.4080465
32.49910479650405	1.9939399	1.4120693
32.51736125888683	2.0172517	1.4202999
32.53561856956014	2.0562067	1.4339479
32.5538767291058	2.0878937	1.4449546
32.572135738105764	2.0989487	1.4487749
32.59039559714228	2.0833955	1.4433972
32.608656306797776	2.0199206	1.4212391
32.62691786765491	1.9480928	1.395741
32.645180280296586	1.9570006	1.3989284
32.663443545305896	2.0232296	1.4224027
32.68170766326619	2.0106056	1.4179583
32.69997263476099	2.0036383	1.4154993
32.7182384603741	1.9509745	1.3967729
32.7365051406895	2.0057077	1.4162301
32.75477267629144	2.0512347	1.4322132
32.77304106776434	2.102725	1.4500777
32.79131031569289	2.137786	1.462117
32.809580420661966	2.1060972	1.45124
32.827851383256714	2.0631564	1.4363692
32.84612320406245	2.086798	1.4445753
32.86439588366476	2.1029232	1.450146
32.88266942264945	2.154937	1.4679704
32.9009438216025	2.1192322	1.4557583
32.9192190811102	1.9714972	1.4041002
32.937495201758985	1.8782812	1.370504
32.95577218413556	1.9099298	1.3820021
32.974050028826866	1.9024036	1.3792765
32.992328736420035	1.8881807	1.3741109
33.010608307502444	1.8827581	1.3721364
33.02888874266169	1.9279274	1.3884982
33.047170042485604	2.003938	1.4156052
33.06545220756225	2.0497127	1.4316818
33.083735238479896	2.0564332	1.434027
33.10201913582707	2.0734122	1.4399347
33.12030390019248	2.074285	1.4402379
33.138589532165135	2.0310776	1.4251589
33.15687603233419	1.964183	1.4014931
33.17516340128909	1.9919122	1.4113512
33.19345163961947	2.1169784	1.454984
33.211740747915215	2.1197262	1.455928
33.23003072676643	2.0342605	1.426275
33.248321576763466	1.955464	1.3983791
33.266613298496885	1.9082954	1.3814106
33.28490589255747	1.8954366	1.3767486
33.30319935953626	1.8954571	1.3767561
33.32149370002451	1.8982452	1.3777682
33.339788914613706	1.9582773	1.3993846
33.358085003895575	1.9365191	1.3915887
33.376381968462034	2.063832	1.4366044
33.39467980890529	2.0863628	1.4444247
33.41297852581774	2.0484757	1.4312497
33.43127811979204	1.9906693	1.4109108
33.44957859142105	1.8996681	1.3782845
33.467879941297866	1.8319666	1.3535017
33.486182170015844	1.8746775	1.3691887
33.50448527816853	1.9481683	1.395768
33.522789266349754	1.9066081	1.3807998
33.541094135153514	1.9268792	1.3881208
33.55939988517411	1.8997697	1.3783213
33.57770651700602	1.9141766	1.3835377
33.59601403124398	1.9415166	1.3933831
33.61432242848296	1.9245963	1.3872982
33.632631709318154	1.8855721	1.3731613
33.650941874344994	1.9231244	1.3867676
33.66925292415916	1.932377	1.3900996
33.68756485935654	1.9178824	1.3848764
33.70587768053328	1.9687829	1.4031333
33.724191388285746	2.0322573	1.4255726
33.74250598321054	2.1000996	1.449172
33.760821465904506	2.1341157	1.4608613
33.77913783696474	2.1466622	1.4651492
33.79745509698852	2.0460334	1.4303962
33.815773246573414	1.9406029	1.3930552
33.8340922863172	1.9612614	1.4004505
33.852412216817896	1.9550705	1.3982383
33.87073303867377	1.9418699	1.3935099
33.889054752483304	1.9400257	1.392848
33.907377358845245	2.02292	1.4222939
33.92570085835853	1.9697376	1.4034734
33.94402525162239	2.03361	1.426047
33.96235053923627	2.1192374	1.4557601
33.980676721799824	2.131491	1.4599626
33.999003799912984	2.0478456	1.4310296
34.01733177417592	1.9917253	1.411285
34.03566064518901	1.9517319	1.397044
34.0539904135529	1.8909312	1.3751113
34.07232107986846	2.039827	1.4282252
34.090652644736785	2.0121841	1.4185147
34.108985108759235	1.9353712	1.3911762
34.12731847253742	1.9649181	1.4017553
34.14565273667313	2.0144975	1.41933
34.16398790176847	2.0656607	1.4372406
34.18232396842574	2.1133733	1.4537445
34.20066093724749	2.0783334	1.4416426
34.21899880883651	2.0533993	1.4329687
34.23733758379583	2.0930212	1.4467278
34.25567726272874	2.2189412	1.4896111
34.27401784623872	2.1534846	1.4674755
34.29235933492957	2.0864038	1.4444389
34.31070172940526	2.0629504	1.4362974
34.32904503027003	1.9977844	1.41343
34.347389238128386	2.0020955	1.4149542
34.36573435358502	2.0311928	1.4251992
34.38408037724492	1.9101894	1.382096
34.402427309713296	1.8374872	1.3555394
34.42077515159559	1.8671558	1.3664391
34.43912390349752	1.8649942	1.3656479
34.45747356602499	1.9036374	1.3797237
34.47582413978423	1.9211128	1.3860421
34.49417562538163	1.9085052	1.3814865
34.51252802342388	1.9540595	1.3978767
34.53088133451789	1.8951424	1.3766418
34.54923555927084	1.9379479	1.392102
34.567590698290104	1.9881175	1.4100062
34.58594675218336	1.9763967	1.4058437
34.6043037215585	2.0201983	1.4213368
34.62266160702365	2.0137627	1.4190711
34.641020409187234	2.01941	1.4210594
34.65938012865785	1.9395635	1.3926821
34.677740766044394	1.863394	1.3650619
34.69610232195598	1.8710076	1.3678478
34.714464797002016	1.8620293	1.3645619
34.73282819179208	1.8921123	1.3755407
34.751192506936064	1.8360204	1.3549982
34.76955774304408	1.937038	1.3917751
34.7879239007265	1.9433805	1.3940518
34.80629098059391	1.9679589	1.4028395
34.824658983257194	2.0843449	1.4437261
34.843027909327446	2.0719855	1.4394393
34.86139775941603	2.0539994	1.4331781
34.879768534134534	2.002767	1.4151915
34.89814023409483	1.7778629	1.3333652
34.91651285990901	1.7335619	1.316648
34.93488641218944	1.920696	1.3858918
34.95326089154871	2.0919747	1.4463661
34.97163629859967	1.8946936	1.3764787
34.99001263395542	1.8026681	1.3426348
35.00838989822934	1.9069816	1.3809351
35.02676809203499	2.2300925	1.4933494
35.04514721598624	2.1883178	1.4792963
35.063527270697215	2.0999928	1.4491352
35.081908256782256	2.3365946	1.5285923
35.10029017485597	2.2205107	1.4901378
35.11867302553321	1.9109352	1.3823658
35.137056809429104	1.8167627	1.3478734
35.155441527159006	1.9871333	1.4096571
35.173827179338524	1.9892851	1.4104202
35.19221376658354	1.9685011	1.4030328
35.21060128951017	1.736673	1.3178289
35.2289897487348	1.784964	1.3360255
35.24737914487405	2.0741634	1.4401957
35.26576947854479	2.4589128	1.5680921
35.28416075036418	2.1406894	1.4631095
35.30255296094958	1.7749023	1.3322546
35.32094611091867	1.7532123	1.3240893
35.33934020088932	2.0629504	1.4362974
35.35773523147969	2.4183116	1.5550921
35.3761312033082	2.6006079	1.61264
35.394528116993506	2.1785703	1.475998
35.41292597315452	1.7307676	1.3155864
35.431324772410434	2.1097987	1.4525146
35.449724515380666	2.6645732	1.632352
35.46812520268491	2.884694	1.6984388
35.486526834943106	3.0712254	1.7524912
35.504929412775454	2.9568954	1.7195625
35.52333293680242	2.59189	1.6099348
35.54173740764471	1.9523846	1.3972776
35.560142825923286	1.9573141	1.3990405
35.5785491922594	1.7158911	1.3099203
35.59695650727454	1.3402287	1.1576824
35.61536477159042	0.8177855	0.90431494
