0.008763373481513119	0.0	0.0
0.026290120649546365	0.0	0.0
0.043816868432600686	0.0	0.0
0.06134361724069026	0.09729771	0.3119258
0.07887036748382949	0.14266461	0.3777097
0.0963971195720331	0.11795294	0.34344277
0.11392387391531617	0.118763916	0.34462142
0.1314506309236943	0.085475214	0.29236144
0.1489773910071836	0.120779164	0.34753296
0.16650415457580078	0.15506864	0.39378756
0.18403092203956356	0.12998638	0.36053625
0.20155769380849	0.17939027	0.42354488
0.2190844702925996	0.18861815	0.4343019
0.2366112519019124	0.21638982	0.46517718
0.2541380390464497	0.18871385	0.43441206
0.27166483213623416	0.15818979	0.3977308
0.28919163158128947	0.10965893	0.33114788
0.3067184377916406	0.1727224	0.41559884
0.324245251177314	0.17641018	0.42001212
0.34177207214833777	0.18539172	0.4305714
0.3592989011147415	0.17838955	0.42236188
0.37682573848655654	0.16065906	0.40082297
0.39435258467381573	0.14797002	0.3846687
0.41187944008655414	0.14897984	0.38597906
0.42940630513480854	0.13545369	0.36804032
0.446933180228618	0.13509114	0.36754748
0.4644600657780234	0.12395765	0.3520762
0.48198696219306775	0.1642777	0.40531185
0.49951386988379676	0.20436685	0.45206952
0.5170407892602581	0.24077891	0.4906923
0.5345677207325025	0.2478267	0.49782196
0.5520946647105822	0.25372142	0.50370765
0.5696216216045534	0.22696762	0.4764112
0.5871485918244737	0.17876643	0.42280778
0.6046755757804043	0.14963564	0.38682768
0.6222025738824094	0.1865038	0.43186086
0.6397295865405557	0.18932363	0.43511337
0.6572566141649129	0.21117611	0.45953903
0.6747836571655547	0.18601772	0.43129772
0.6923107159525568	0.17185481	0.41455376
0.7098377909359992	0.15452091	0.39309147
0.7273648825259653	0.19150697	0.4376151
0.7448919911325411	0.2249679	0.4743078
0.762419117165817	0.23476797	0.4845286
0.7799462610358868	0.22655189	0.47597468
0.7974734231528482	0.1823271	0.42699778
0.8150006039268024	0.14913775	0.38618356
0.8325278037678551	0.17718644	0.4209352
0.8500550230861152	0.20000958	0.44722432
0.8675822622916969	0.21900594	0.4679807
0.8851095217947171	0.18545173	0.43064106
0.9026368020052984	0.15814994	0.3976807
0.9201641033335665	0.20040794	0.44766945
0.9376914261896523	0.23458286	0.48433754
0.9552187709836915	0.24283549	0.49278343
0.9727461381258234	0.24223317	0.49217188
0.990273528026193	0.25635538	0.50631547
1.0078009410949496	0.27737036	0.5266596
1.0253283777422473	0.26037237	0.51026696
1.0428558383782454	0.25359544	0.5035826
1.0603833234131086	0.2618728	0.5117351
1.0779108332570058	0.32827735	0.57295495
1.0954383683201119	0.32696983	0.57181275
1.112965929012607	0.36612308	0.6050811
1.1304935157446763	0.44666392	0.6683292
1.1480211289265108	0.4815816	0.6939608
1.1655487689683062	1.2811514	1.1318796
1.1830764362802655	1.5804505	1.2571597
1.200604131272596	2.0364451	1.4270407
1.2181318543555117	2.41843	1.5551302
1.235659605939232	2.4255831	1.5574284
1.253187386433982	3.9713156	1.992816
1.270715196249994	6.447286	2.5391507
1.2882430357975057	12.030862	3.4685533
1.3057709054867608	16.471638	4.0585265
1.3232988057280106	22.039	4.6945715
1.3408267369315112	26.92627	5.189053
1.358354699507526	30.604433	5.5321274
1.3758826938663256	34.743908	5.8943963
1.3934107204181858	36.877045	6.072647
1.410938779573391	36.908714	6.0752544
1.4284668717422309	37.507275	6.124318
1.4459949973350033	37.0592	6.087627
1.4635231567620117	37.233215	6.1019025
1.4810513504335687	36.951233	6.0787525
1.4985795787599925	36.270306	6.0224833
1.5161078421516088	35.75703	5.979718
1.5336361410187505	34.86136	5.9043508
1.5511644757717598	34.759453	5.8957148
1.5686928468209842	35.408077	5.9504685
1.58622125457678	36.045025	6.003751
1.6037496994495108	37.26555	6.1045513
1.621278181849548	37.355976	6.1119537
1.6388067021872719	38.042995	6.1679006
1.6563352608730693	37.396244	6.115247
1.673863858317336	36.2494	6.0207477
1.6913924949304753	35.554474	5.962757
1.7089211711228998	34.668457	5.8879924
1.7264498873050296	33.904507	5.8227577
1.7439786438872935	32.900326	5.7358804
1.7615074412801288	31.908302	5.6487436
1.779036279893981	31.01476	5.5690894
1.796565160139305	30.422092	5.5156226
1.814094082426564	29.794338	5.458419
1.8316230471662298	29.093	5.3937926
1.849152054768784	28.197771	5.3101573
1.8666811056447168	27.535276	5.2474065
1.8842102002045273	26.826914	5.1794705
1.901739338858724	26.337715	5.1320286
1.9192685220178245	25.709429	5.0704465
1.9367977500923557	24.841515	4.984126
1.9543270234928547	24.266928	4.9261475
1.971856342629867	23.378988	4.835182
1.9893857079139496	23.165434	4.8130484
2.006915119755667	22.753092	4.77002
2.0244445785655945	22.27028	4.71914
2.0419740847543175	21.738602	4.6624675
2.0595036387324317	21.263542	4.611241
2.0770332409105414	20.872097	4.568599
2.094562891699263	20.603449	4.539102
2.1120925915092217	19.85359	4.4557366
2.129622340751053	19.423923	4.407258
2.1471521398354043	187.58339	13.696109
2.1646819891729323	443.97903	21.07081
2.182211889174303	440.3134	20.983646
2.1997418402501974	452.6243	21.27497
2.2172718428113023	432.68893	20.801176
2.234801897268317	320.4877	17.90217
2.2523320040319548	16.872946	4.1076694
2.269862163512935	16.43332	4.053803
2.287392376121992	16.160078	4.01996
2.304922642269869	15.924651	3.9905703
2.322452962367322	15.783001	3.9727826
2.3399833368251164	15.418954	3.9266975
2.357513766054032	15.193193	3.8978448
2.3750442504648586	14.934378	3.8645022
2.3925747904683963	14.766882	3.84277
2.410105386475459	14.665332	3.829534
2.4276360388968707	14.458918	3.8024883
2.445166748143469	14.180268	3.7656696
2.4626975146261025	13.979024	3.7388532
2.4802283387556323	13.703048	3.7017627
2.4977592209429305	13.518674	3.676775
2.5152901615988825	13.2357435	3.638096
2.5328211611343865	12.95833	3.5997682
2.5503522199603523	12.6514635	3.5568895
2.5678833384877024	12.451301	3.52864
2.5854145171273712	12.1385	3.484035
2.6029457562903064	11.930141	3.4540036
2.620477056387469	11.765959	3.4301543
2.6380084178298326	11.622305	3.4091501
2.655539841028383	11.391505	3.3751304
2.673071326394119	11.244542	3.3532882
2.6906028743380523	10.9311495	3.3062289
2.708134485271211	10.849823	3.293907
2.7256661596046325	10.760484	3.2803175
2.743197897749369	10.721423	3.2743585
2.760729700116486	10.687497	3.2691739
2.778261567117063	10.491677	3.239086
2.795793499162193	10.276505	3.205699
2.8133254966629817	10.079029	3.1747487
2.830857560030551	9.835643	3.1361828
2.8483896896760337	9.796717	3.1299708
2.865921886010578	9.599152	3.0982497
2.883454149445347	9.500857	3.082346
2.9009864803915177	9.312932	3.0517097
2.91851887926028	9.265527	3.0439327
2.9360513464628384	9.232528	3.0385075
2.953583882410413	9.1564245	3.0259585
2.9711164875142373	8.903103	2.9838068
2.9886491621855606	8.688935	2.9477
3.0061819068356455	8.402486	2.898704
3.023714721875769	8.342639	2.8883626
3.041247607717225	8.322766	2.8849206
3.0587805647713213	8.434661	2.9042487
3.0763135934493806	8.446787	2.9063356
3.0938466941627407	8.278038	2.877158
3.1113798673227544	8.067079	2.8402603
3.1289131133407904	7.7569957	2.7851384
3.1464464326282315	7.592181	2.7553914
3.1639798255964786	7.5901113	2.7550156
3.1815132926569443	7.5265727	2.74346
3.1990468342210603	7.525644	2.7432907
3.216580450700272	7.410015	2.7221344
3.2341141425060416	7.304023	2.7025955
3.251647910049847	7.232549	2.6893399
3.2691817537431813	7.0893126	2.6625762
3.286715673997555	7.0449486	2.6542323
3.3042496712244938	6.9771676	2.6414328
3.32178374583554	6.924982	2.631536
3.339317898242251	6.8962774	2.6260765
3.3568521288562034	6.8067374	2.6089725
3.3743864380889876	6.7333117	2.5948625
3.3919208263522127	6.5941725	2.567912
3.4094552940575023	6.514764	2.5524035
3.4269898416164972	6.553824	2.5600438
3.444524469440858	6.619247	2.5727897
3.4620591779422587	6.551742	2.559637
3.479593967532391	6.4539847	2.5404694
3.4971288386229658	6.2892537	2.5078385
3.5146637916257086	6.2688317	2.5037634
3.5321988269523628	6.3447824	2.5188851
3.5497339450146903	6.319078	2.5137777
3.5672691462244708	6.2922583	2.5084374
3.5848044309934988	6.2120843	2.4924054
3.60233979973359	6.1952224	2.4890203
3.619875252856575	6.2941995	2.5088243
3.6374107907743034	6.3648143	2.5228584
3.6549464138986427	6.440552	2.5378244
3.6724821226414788	6.407542	2.5313125
3.690017917414714	6.2801437	2.5060215
3.7075537986302702	6.2232833	2.4946508
3.7250897667000857	6.2842445	2.5068395
3.7426258220361235	6.566516	2.5625215
3.7601619650503553	6.905387	2.6278102
3.777698196154779	7.333157	2.7079802
3.7952345157614067	8.287696	2.878836
3.8127709242822716	8.939734	2.989939
3.830307422129425	11.272877	3.3575106
3.847844009714936	30.219236	5.4972024
3.8653806874508954	97.79832	9.889303
3.882917455749409	97.03702	9.850737
3.900454315022606	96.65714	9.831436
3.917991265682631	41.194233	6.4182734
3.9355283081416506	10.77805	3.282994
3.9530654428118495	8.714084	2.9519627
3.970602670105433	7.5320063	2.74445
3.9881399904346244	6.598048	2.5686667
4.005677404211669	6.379765	2.5258198
4.023214911848827	6.2547736	2.5009546
4.0407525137583855	6.3588552	2.521677
4.058290210352644	6.415744	2.5329318
4.075828002043927	6.375022	2.5248806
4.0933658892445814	6.2568007	2.5013597
4.110903872366966	6.1199174	2.4738467
4.128441951823468	6.055796	2.4608526
4.145980128026488	6.0207076	2.453713
4.163518401388452	5.996324	2.4487393
4.181056772321807	6.122639	2.4743967
4.1985952412390155	6.206488	2.4912825
4.216133808552567	6.2156262	2.4931157
4.233672474674966	6.193609	2.4886963
4.251211240018741	6.313807	2.512729
4.268750104996445	6.500682	2.5496435
4.286289070020643	7.502345	2.7390409
4.303828135503928	9.322759	3.0533192
4.3213673018589125	29.725029	5.4520664
4.3389065694982305	91.039116	9.541442
4.356445938834537	166.18149	12.89114
4.3739854102805085	171.6982	13.103366
4.391524984248844	172.6957	13.141374
4.409064661152262	136.76747	11.694762
4.426604441403504	97.02197	9.849974
4.444144325415337	76.05779	8.721112
4.461684313600543	21.84892	4.674283
4.47922440637193	22.155529	4.706966
4.496764604142329	20.474134	4.524835
4.5143049073245916	18.741514	4.329147
4.531845316331589	16.669386	4.082816
4.5493858315762195	13.620294	3.6905682
4.566926453471405	11.23648	3.3520858
4.584467182430081	9.14911	3.0247495
4.602008018865218	8.079416	2.8424313
4.619548963189798	7.4517746	2.7297938
4.637090015816834	6.958532	2.637903
4.654631177159353	6.808892	2.6093853
4.672172447630417	6.496879	2.5488977
4.689713827643102	6.326909	2.5153348
4.7072553176105085	6.0394526	2.4575298
4.724796917945764	5.929265	2.4350083
4.742338629062015	5.832234	2.4150019
4.759880451372434	5.8153105	2.4114954
4.777422385290215	5.804291	2.4092095
4.794964431228581	5.71076	2.3897197
4.812506589600768	5.682786	2.3838594
4.830048860820047	5.616174	2.3698468
4.847591245299709	5.613293	2.3692389
4.8651337434530655	5.6374516	2.374332
4.882676355693457	5.62973	2.3727052
4.900219082434242	5.6347313	2.3737588
4.917761924088813	5.627695	2.3722763
4.935304881070575	5.6072426	2.3679616
4.952847953792969	5.602399	2.3669388
4.970391142669449	5.5480776	2.3554358
4.9879344481135055	5.428523	2.329919
5.005477870538642	5.4449086	2.333433
5.023021410358394	5.3916125	2.3219845
5.040565067986324	5.473908	2.3396385
5.05810884383601	5.452925	2.33515
5.075652738321066	5.3790135	2.3192701
5.09319675185512	5.305338	2.3033319
5.110740884851836	5.328535	2.308362
5.128285137724894	5.3844686	2.3204458
5.145829510888007	5.401793	2.3241758
5.163374004754908	5.382254	2.3199685
5.1809186197393595	5.411681	2.326302
5.198463356255145	5.3950095	2.322716
5.216008214716077	5.3879666	2.3211994
5.233553195535998	5.3159947	2.305644
5.251098299128764	5.288855	2.299751
5.268643525908272	5.240031	2.2891114
5.286188876288432	5.303675	2.302971
5.3037343506831895	5.3269086	2.3080096
5.32127994950651	5.2856936	2.2990637
5.3388256731723915	5.2199707	2.2847254
5.356371522094851	5.227126	2.286291
5.373917496687938	5.24622	2.290463
5.391463597365729	5.2112107	2.2828076
5.40900982454232	5.1496205	2.2692776
5.426556178631843	5.141872	2.2675695
5.444102660048449	5.1193466	2.2625973
5.4616492692063225	5.1596985	2.271497
5.479196006519669	5.1476555	2.2688446
5.496742872402727	5.1444206	2.2681315
5.514289867269756	5.1567674	2.2708516
5.531836991535049	5.125494	2.2639554
5.549384245612924	5.18136	2.2762601
5.566931629917724	5.2208505	2.284918
5.584479144863822	5.223175	2.2854266
5.6020267908656205	5.131506	2.2652829
5.619574568337545	5.036433	2.2442
5.637122477694054	5.041233	2.245269
5.654670519349629	5.103605	2.259116
5.672218693718784	5.1614575	2.2718842
5.689767001216059	5.105313	2.2594938
5.707315442256021	5.1013765	2.2586226
5.724864017253266	5.1214933	2.2630718
5.7424127266224225	5.1946483	2.2791772
5.75996157077814	5.204378	2.2813106
5.777510550135105	5.1179657	2.2622921
5.795059665108022	5.102033	2.258768
5.812608916111639	5.075578	2.2529044
5.830158303560715	5.1961336	2.2795029
5.847707827870055	5.1734395	2.2745197
5.86525748945448	5.2003264	2.2804224
5.8828072887288485	5.2866464	2.2992709
5.900357226108044	5.3371773	2.310233
5.917907302006979	5.4638066	2.3374786
5.9354575168406	6.088404	2.4674692
5.9530078710238765	6.7051044	2.5894215
5.970558364971812	7.2179937	2.6866324
5.988108999099438	7.5733294	2.7519684
6.005659773821818	8.022621	2.8324232
6.023210689554039	7.893438	2.8095262
6.040761746711227	8.334523	2.8869574
6.058312945708531	7.79883	2.7926385
6.075864286961132	7.329042	2.7072203
6.093415770884244	6.6637807	2.58143
6.1109673978931065	6.0329585	2.4562082
6.128519168402993	5.4377637	2.3319013
6.146071082829204	5.2724214	2.2961755
6.163623141587075	5.1547	2.2703965
6.181175345091969	5.162629	2.272142
6.198727693759281	5.1973643	2.2797728
6.216280188004435	5.2026906	2.2809408
6.233832828242885	5.1775584	2.275425
6.251385614890126	5.1860785	2.2772963
6.268938548361669	5.2248197	2.2857864
6.286491629073067	5.1118326	2.2609363
6.304044857439898	5.037039	2.244335
6.321598233877777	4.913675	2.216681
6.339151758802344	4.851456	2.2026021
6.356705432629277	4.8406944	2.2001579
6.37425925577428	4.831563	2.1980817
6.391813228653095	4.9343896	2.2213485
6.409367351681486	4.986702	2.2330925
6.426921625275259	4.9590907	2.2269015
6.44447604985025	4.920363	2.218189
6.46203062582232	4.8912425	2.2116153
6.47958535360737	4.921821	2.2185178
6.497140233621328	4.972347	2.229876
6.514695266280161	4.951426	2.22518
6.532250451999859	4.9890447	2.2336168
6.549805791196454	4.989946	2.2338188
6.567361284286002	5.0296335	2.2426844
6.584916931684597	5.016828	2.2398276
6.602472733808367	4.995983	2.2351696
6.6200286910734665	4.9775743	2.2310479
6.637584803896092	4.9629245	2.2277622
6.655141072692462	4.9631367	2.22781
6.672697497878842	4.956172	2.226246
6.690254079871514	4.973931	2.230231
6.707810819086808	4.963781	2.2279544
6.725367715941078	4.9229255	2.2187667
6.742924770850719	4.9189963	2.217881
6.760481984232151	4.95416	2.2257943
6.778039356501836	4.95982	2.2270653
6.795596888076266	4.934634	2.2214036
6.813154579371963	4.8679094	2.2063339
6.830712430805492	4.8295875	2.1976323
6.84827044279344	4.8969116	2.2128966
6.865828615752445	4.9341617	2.2212973
6.883386950099159	4.9829473	2.2322516
6.900945446250287	5.0209193	2.2407408
6.918504104622553	5.0263844	2.24196
6.936062925632727	5.0461884	2.2463722
6.953621909697607	5.0525374	2.247785
6.971181057234028	5.041774	2.2453895
6.988740368658859	5.009051	2.238091
7.006299844389007	5.067337	2.2510746
7.023859484841407	5.125756	2.2640133
7.041419290433036	5.2083135	2.282173
7.058979261580902	5.3713574	2.3176188
7.0765393987020495	5.5999894	2.3664296
7.094099702213559	6.0063086	2.450777
7.111660172532549	6.3609514	2.5220926
7.129220810076164	6.720526	2.5923977
7.146781615261595	7.3430896	2.7098136
7.16434258850606	7.553275	2.7483222
7.181903730226821	7.9849615	2.8257675
7.1994650408411704	8.095584	2.845274
7.217026520766437	8.207125	2.864808
7.234588170419983	8.444638	2.905966
7.252149990219215	8.446458	2.906279
7.269711980581568	8.280854	2.8776474
7.2872741419245175	8.01081	2.8303375
7.304836474665574	7.604646	2.7576523
7.322398979222286	7.358865	2.7127228
7.339961656012233	7.089968	2.6626995
7.357524505453039	6.7707405	2.6020646
7.375087527962357	6.5021853	2.5499382
7.392650723957886	6.263649	2.5027282
7.410214093857353	5.9896092	2.447368
7.427777638078528	5.77754	2.4036515
7.445341357039213	5.562026	2.3583949
7.4629052511572525	5.372131	2.3177857
7.480469320850524	5.3619146	2.3155808
7.498033566536948	5.358679	2.314882
7.5155979886344735	5.2943087	2.3009365
7.5331625875610975	5.193273	2.2788754
7.550727363734844	5.057959	2.2489908
7.568292317573788	4.994804	2.2349057
7.585857449496025	5.011457	2.2386284
7.603422759919705	5.0499024	2.2471988
7.620988249263007	5.154984	2.270459
7.638553917944147	5.2088895	2.2822993
7.656119766381391	5.238227	2.2887173
7.673685794993023	5.272218	2.2961311
7.691252004197388	5.235618	2.2881472
7.70881839441285	5.1739874	2.27464
7.726384966057826	5.1260357	2.264075
7.743951719550762	5.144521	2.2681537
7.761518655310149	5.1363974	2.2663622
7.779085773754511	5.2229857	2.2853851
7.796653075302419	5.2295604	2.2868233
7.814220560372475	5.282136	2.2982898
7.831788229383323	5.2661705	2.2948139
7.8493560827536495	5.197769	2.2798617
7.866924120902174	5.196469	2.2795765
7.884492344247663	5.2659597	2.2947679
7.9020607532089135	5.335326	2.3098326
7.919629348204771	5.43595	2.3315125
7.937198129654115	5.4493556	2.3343854
7.954767097975865	5.447497	2.3339872
7.972336253588986	5.4124627	2.32647
7.989905596912472	5.396776	2.3230963
8.007475128365371	5.3941774	2.322537
8.025044848366756	5.476054	2.340097
8.042614757335754	5.6574016	2.3785293
8.060184855691523	5.8043184	2.4092152
8.07775514385327	5.9802504	2.445455
8.095325622240228	5.949323	2.4391234
8.112896291271687	5.9230504	2.4337318
8.130467151366968	5.910159	2.4310818
8.148038202945436	5.9234037	2.4338043
8.165609446426497	5.9043994	2.429897
8.183180882229594	5.9460487	2.438452
8.200752510774217	5.919451	2.4329922
8.218324332479893	5.972708	2.4439125
8.235896347766193	5.9747148	2.444323
8.253468557052724	5.969664	2.4432895
8.27104096075914	6.006744	2.450866
8.288613559305137	6.0877013	2.4673266
8.306186353110448	6.1799245	2.4859455
8.32375934259485	6.237726	2.497544
8.341332528178162	6.1565175	2.4812331
8.358905910280246	6.138742	2.4776485
8.376479489321003	6.142518	2.4784105
8.394053265720377	6.2619796	2.5023947
8.411627239898356	6.283418	2.5066748
8.42920141227497	6.227786	2.4955533
8.44677578327029	6.1732697	2.4846065
8.464350353304427	6.1333575	2.4765615
8.48192512279754	6.155056	2.4809384
8.499500092169827	6.1131654	2.4724817
8.51707526184153	5.9980183	2.4490852
8.534650632232934	5.9863963	2.4467113
8.552226203764365	5.9721017	2.4437883
8.569801976856192	6.0864215	2.4670675
8.587377951928834	6.154268	2.4807796
8.60495412940274	6.252409	2.5004818
8.622530509698416	6.322066	2.5143719
8.6401070932364	6.422007	2.534168
8.657683880437283	6.492665	2.548071
8.675260871721695	6.6312733	2.575126
8.692838067510303	6.7598033	2.5999622
8.710415468223834	6.8810062	2.6231673
8.727993074283043	7.011117	2.6478515
8.745570886108737	7.1036873	2.6652744
8.763148904121765	7.1912236	2.6816456
8.78072712874302	7.2820086	2.6985197
8.798305560393441	7.422954	2.72451
8.815884199494006	7.462215	2.7317054
8.833463046465745	7.5490007	2.7475445
8.851042101729728	7.740979	2.7822616
8.86862136570707	8.116263	2.8489056
8.886200838818924	8.3331	2.886711
8.903780521486505	8.353072	2.8901682
8.921360414131055	8.392281	2.8969433
8.938940517173874	8.498863	2.915281
8.956520831036297	8.694504	2.9486444
8.97410135613971	9.014228	3.0023704
8.99168209290554	9.31304	3.0517273
9.009263041755265	9.5919695	3.0970905
9.026844203110405	9.797848	3.1301515
9.044425577392525	9.867484	3.1412551
9.062007165023239	9.85923	3.139941
9.079588966424197	10.115409	3.180473
9.097170982017108	10.297295	3.2089398
9.11475321222372	11.34558	3.36832
9.132335657465825	12.273518	3.5033581
9.149918318165264	12.322904	3.5103993
9.167501194743924	12.851096	3.5848424
9.18508428762374	12.449229	3.5283465
9.202667597226693	12.387831	3.519635
9.220251123974803	12.041906	3.470145
9.237834868290143	11.802544	3.435483
9.255418830594836	11.700448	3.4205918
9.273003011311046	11.3062935	3.3624833
9.290587410860985	11.118779	3.3344834
9.308172029666911	10.446742	3.232142
9.32575686815113	10.116351	3.1806211
9.343341926735997	8.819247	2.9697218
9.360927205843916	8.598342	2.932293
9.378512705897327	8.412914	2.9005024
9.396098427318728	8.132508	2.8517554
9.413684370530664	7.957047	2.820824
9.431270535955722	7.8374867	2.7995512
9.448856924016539	7.8175836	2.7959943
9.466443535135806	7.768287	2.7871647
9.484030369736251	7.7426	2.7825527
9.501617428240658	7.6807933	2.7714245
9.519204711071852	7.7245398	2.7793057
9.536792218652714	7.720397	2.7785602
9.55437995140617	7.797334	2.7923708
9.571967909755191	7.8035583	2.793485
9.589556094122802	7.88221	2.8075273
9.60714450493207	7.9103107	2.8125274
9.624733142606116	7.9871063	2.8261468
9.642322007568108	7.989699	2.8266056
9.659911100241267	8.025982	2.8330164
9.677500421048851	8.0461855	2.8365798
9.695089970414175	8.060769	2.8391495
9.712679748760609	8.067334	2.8403053
9.730269756511557	8.02301	2.8324919
9.747859994090492	8.040843	2.835638
9.765450461920915	8.168705	2.8580947
9.78304116042639	8.248221	2.8719716
9.800632090030527	8.33003	2.8861792
9.81822325115699	8.263836	2.8746889
9.835814644229481	8.25295	2.8727949
9.853406269671762	8.248006	2.8719342
9.870998127907646	8.203742	2.8642175
9.888590219360985	8.223159	2.867605
9.906182544455698	8.217678	2.8666494
9.923775103615734	8.212661	2.865774
9.941367897265108	8.195721	2.8628168
9.958960925827878	8.127696	2.8509114
9.97655418972816	8.164508	2.8573604
9.994147689390106	8.200248	2.8636074
10.011741425237934	8.226508	2.868189
10.029335397695904	8.270548	2.875856
10.04692960718833	8.255055	2.8731613
10.06452405413958	8.250392	2.8723495
10.082118738974064	8.2113695	2.8655486
10.099713662116246	8.161757	2.856879
10.117308823990651	8.180031	2.8600752
10.134904225021844	8.227545	2.8683698
10.152499865634445	8.167495	2.857883
10.170095746253125	8.149343	2.8547053
10.18769186730261	8.104797	2.8468926
10.205288229207675	8.063615	2.8396504
10.222884832393145	8.073751	2.8414347
10.2404816772839	8.088493	2.8440278
10.258078764304868	8.133778	2.8519778
10.275676093881035	8.121012	2.8497388
10.293273666437438	8.01787	2.8315845
10.310871482399158	7.9952116	2.8275805
10.32846954219134	8.124063	2.850274
10.346067846239173	8.17246	2.8587513
10.363666394967908	8.120705	2.849685
10.38126518880283	8.0300455	2.8337336
10.398864228169298	8.066889	2.840227
10.416463513492713	8.136265	2.852414
10.434063045198531	8.108448	2.8475337
10.451662823712262	8.107895	2.8474367
10.469262849459467	8.099975	2.8460455
10.486863122865758	8.076869	2.8419833
10.504463644356806	8.093633	2.8449311
10.522064414358338	8.006535	2.829582
10.539665433296118	7.956634	2.8207507
10.557266701595987	7.8726497	2.8058243
10.574868219683818	7.780346	2.7893271
10.592469987985552	7.694012	2.7738082
10.610072006927185	7.5221753	2.7426584
10.627674276934751	7.384865	2.7175107
10.64527679843435	7.2506704	2.6927068
10.662879571852143	7.207146	2.6846128
10.680482597614331	7.235572	2.6899018
10.698085876147173	7.2190175	2.686823
10.715689407876988	7.0904408	2.6627882
10.733293193230146	6.943422	2.6350374
10.750897232633072	6.7439246	2.5969067
10.76850152651225	6.6234026	2.5735972
10.786106075294207	6.501647	2.5498328
10.803710879405534	6.3413324	2.5182002
10.821315939272877	6.298667	2.5097146
10.83892125532294	6.272702	2.5045364
10.856526827982472	6.2711635	2.504229
10.874132657678285	6.2962995	2.5092428
10.891738744837243	6.2827644	2.5065444
10.909345089886271	6.2091293	2.4918125
10.926951693252343	6.060537	2.4618158
10.944558555362494	5.9656534	2.4424686
10.96216567664381	5.9129343	2.4316525
10.979773057523436	5.9113665	2.4313302
10.997380698428573	5.854231	2.4195518
11.014988599786477	5.813731	2.411168
11.032596762024461	5.6952863	2.3864799
11.050205185569892	5.6215057	2.3709714
11.067813870850198	5.5712147	2.360342
11.085422818292859	5.5091267	2.347153
11.10303202832541	5.5071197	2.3467252
11.120641501375454	5.44604	2.3336751
11.138251237870636	5.3839035	2.320324
11.155861238238671	5.3677197	2.316834
11.173471502907317	5.255461	2.2924793
11.191082032304402	5.184009	2.2768419
11.208692826857805	5.1308045	2.265128
11.226303886995465	5.049523	2.2471144
11.243915213145371	5.00587	2.23738
11.261526805735578	4.9189887	2.2178793
11.279138665194196	4.8387613	2.1997185
11.296750791949393	4.7684755	2.1836839
11.314363186429393	4.70929	2.17009
11.331975849062479	4.663578	2.1595318
11.34958878027699	4.5859094	2.1414735
11.36720198050133	4.5462217	2.1321871
11.384815450163948	4.5423503	2.131279
11.402429189693366	4.5620356	2.1358922
11.420043199518153	4.5504208	2.1331716
11.437657480066942	63.52688	7.970375
11.455272031768422	85.22848	9.231927
11.472886855051353	107.563675	10.371291
11.490501950344528	99.14336	9.957076
11.508117318076819	84.41016	9.1875
11.52573295867715	45.758854	6.764529
11.543348872574514	4.095661	2.023774
11.560965060197946	4.079813	2.0198548
11.57858152197655	4.1221075	2.0302973
11.59619825833949	4.064165	2.0159774
11.613815269715985	4.061945	2.0154266
11.631432556535323	38.502396	6.20503
11.649050119226837	83.036514	9.112437
11.666667958219929	93.40049	9.664392
11.68428607394406	107.67169	10.376497
11.701904466828756	82.480545	9.08188
11.719523137303586	65.3289	8.08263
11.737142085798196	4.53684	2.1299858
11.754761312742286	3.644498	1.9090569
11.772380818565619	3.6124237	1.9006377
11.790000603698015	3.613572	1.9009397
11.80762066856935	3.5708287	1.8896637
11.825241013609572	3.5350811	1.8801812
11.842861639248683	3.4872212	1.8674103
11.860482545916748	3.4595535	1.8599875
11.878103734043883	3.4619806	1.8606398
11.895725204060282	3.431064	1.8523132
11.91334695639619	3.3854227	1.8399519
11.930968991481919	3.3507323	1.8305006
11.948591309747824	3.367251	1.8350071
11.966213911624347	3.3383768	1.8271226
11.98383679754198	3.3260937	1.8237581
12.001459967931268	3.2671824	1.8075349
12.019083423222835	3.2836344	1.8120801
12.036707163847352	3.2810643	1.8113708
12.05433119023556	3.2986026	1.8162055
12.071955502818259	3.2690995	1.8080652
12.089580102026313	3.1781662	1.7827412
12.107204988290643	3.14004	1.7720158
12.12483016204224	3.1231432	1.7672417
12.142455623712152	3.1671414	1.7796464
12.16008137373149	3.134933	1.7705742
12.177707412531431	3.105076	1.7621226
12.19533374054321	3.045982	1.7452742
12.212960358198126	3.0077124	1.7342757
12.230587265927545	2.9855485	1.727874
12.248214464162889	2.973145	1.724281
12.265841953335649	2.9573896	1.7197063
12.283469733877375	2.9178798	1.7081803
12.301097806219685	2.9032426	1.7038904
12.31872617079425	2.8971431	1.7020997
12.336354828032825	2.896347	1.7018658
12.353983778367205	2.9671369	1.7225379
12.371613022229262	2.9592423	1.7202449
12.389242560050928	2.9185555	1.7083781
12.406872392264201	2.8405344	1.6853886
12.424502519301143	2.8449817	1.6867074
12.442132941593874	2.866059	1.6929439
12.459763659574586	2.8755608	1.6957479
12.477394673675532	2.843536	1.6862787
12.49502598432903	2.812957	1.6771872
12.51265759196746	2.7923765	1.6710405
12.530289497023267	2.779879	1.6672969
12.547921699928967	2.7712114	1.6646956
12.565554201117134	2.7715487	1.664797
12.583187001020404	2.774461	1.6656713
12.600820100071486	2.7679448	1.6637142
12.618453498703152	2.7731416	1.6652752
12.636087197348235	2.7478726	1.6576709
12.65372119643964	2.7376478	1.6545838
12.671355496410326	2.7322545	1.6529533
12.68899009769333	2.7586544	1.6609198
12.706625000721749	2.8084753	1.6758506
12.724260205928752	2.868631	1.6937033
12.741895713747551	2.8923764	1.7006989
12.759531524611454	2.9544694	1.718857
12.777167638953818	2.9971633	1.7312317
12.794804057208072	2.9940612	1.7303356
12.812440779807702	2.9957566	1.7308254
12.830077807186271	3.1636739	1.778672
12.847715139777405	3.1930647	1.7869148
12.865352778014795	3.408549	1.8462256
12.882990722332197	3.491177	1.8684692
12.90062897316344	3.5971646	1.8966193
12.918267530942412	3.712439	1.926769
12.935906396103071	3.6523852	1.9111215
12.953545569079449	3.8534076	1.9630098
12.971185050305628	3.633209	1.9060979
12.988824840215775	3.5816956	1.8925368
13.006464939244115	3.5392408	1.881287
13.024105347824943	3.3684213	1.835326
13.041746066392617	3.4532232	1.8582851
13.05938709538157	3.2955852	1.8153746
13.077028435226296	3.3271182	1.824039
13.094670086361363	3.258398	1.8051033
13.112312049221401	3.1327686	1.7699629
13.129954324241112	3.0593262	1.7490929
13.147596911855258	2.858239	1.6906327
13.165239812498685	2.8413434	1.6856285
13.182883026606293	2.7547643	1.6597483
13.200526554613058	2.7100458	1.6462216
13.218170396954017	2.7068882	1.6452624
13.235814554064284	2.6964319	1.6420816
13.253459026379034	2.7205865	1.64942
13.271103814333523	2.6767216	1.6360689
13.288748918363058	2.664613	1.6323643
13.306394338903031	2.6547086	1.6293277
13.32404007638889	2.6646361	1.6323713
13.341686131256164	2.6915808	1.6406038
13.359332503940449	2.6819997	1.6376812
13.376979194877402	2.6510496	1.6282045
13.394626204502751	2.6914191	1.6405545
13.412273533252307	2.6914444	1.6405622
13.429921181561937	2.7009268	1.6434497
13.447569149867581	2.7179182	1.648611
13.465217438605247	2.7105513	1.6463752
13.482866048211022	2.709212	1.6459684
13.500514979121052	2.7374463	1.654523
13.518164231771568	2.7041311	1.6444242
13.535813806598844	2.6624975	1.6317161
13.553463704039254	2.6194887	1.6184834
13.571113924529229	2.6401665	1.624859
13.588764468505275	2.6683035	1.6334943
13.606415336403956	2.692568	1.6409047
13.624066528661917	2.7428365	1.656151
13.641718045715882	2.8139558	1.677485
13.659369888002635	2.8744447	1.6954187
13.67702205595903	2.9031076	1.7038509
13.694674550021993	2.921516	1.7092443
13.712327370628532	2.974815	1.7247652
13.729980518215713	3.0700402	1.752153
13.747633993220681	3.1401737	1.7720535
13.765287796080647	3.17272	1.781213
13.7829419272329	3.2348628	1.7985724
13.800596387114801	3.2633038	1.8064617
13.818251176163775	3.3147182	1.8206367
13.835906294817324	3.3338504	1.8258835
13.853561743513023	3.3761315	1.8374252
13.871217522688525	3.438521	1.8543249
13.888873632781538	3.5086148	1.8731297
13.906530074229858	3.5260477	1.8777773
13.92418684747135	3.5180972	1.8756591
13.941843952943948	3.506319	1.8725168
13.959501391085665	3.5000868	1.8708519
13.977159162334578	3.4500914	1.8574421
13.994817267128846	3.3721573	1.8363435
14.012475705906693	3.2718518	1.8088261
14.030134479106424	3.189645	1.7859577
14.047793587166414	3.0920036	1.7584094
14.065453030525108	3.0126722	1.7357051
14.083112809621026	2.9766655	1.7253016
14.100772924892766	2.9744337	1.7246547
14.118433376778997	2.9746432	1.7247154
14.136094165718458	2.8792505	1.6968354
14.153755292149969	2.7758837	1.6660984
14.171416756512416	2.6886094	1.6396979
14.189078559244768	2.634313	1.6230568
14.20674070078606	2.6208732	1.6189111
14.224403181575408	2.5595853	1.5998704
14.242066002051999	2.5165913	1.5863768
14.259729162655093	2.4709282	1.5719186
14.277392663824022	2.4339685	1.5601181
14.295056505998208	2.43747	1.5612398
14.312720689617128	2.4632096	1.5694616
14.330385215120348	2.5013082	1.5815525
14.348050082947497	2.474772	1.5731407
14.3657152935383	2.435062	1.5604686
14.383380847332528	2.4158266	1.5542929
14.401046744770051	2.4268646	1.5578398
14.418712986290798	2.4151678	1.554081
14.436379572334793	2.4046881	1.5507057
14.454046503342123	2.4041667	1.5505376
14.471713779752946	2.432925	1.5597836
14.489381402007504	2.432816	1.5597486
14.507049370546113	2.4276524	1.5580926
14.524717685809168	2.4119258	1.5530376
14.542386348237134	2.4136019	1.5535771
14.560055358270553	2.429651	1.5587338
14.577724716350051	2.435	1.5604486
14.595394422916325	2.4656608	1.5702423
14.61306447841015	2.4746373	1.573098
14.63073488327237	2.4834075	1.575883
14.648405637943917	2.4836767	1.5759685
14.6660767428658	2.4633095	1.5694934
14.683748198479094	2.486942	1.5770042
14.701420005224954	2.507365	1.5834662
14.719092163544628	2.612701	1.6163851
14.73676467387942	2.6626325	1.6317575
14.754437536670727	2.708123	1.6456375
14.772110752360014	2.7110322	1.6465212
14.78978432138882	2.7106993	1.6464201
14.807458244198777	2.703015	1.6440849
14.82513252123159	2.7001994	1.6432283
14.842807152929028	2.72174	1.6497697
14.860482139732962	2.6734643	1.6350732
14.87815748208531	2.6313531	1.6221446
14.8958331804281	2.611655	1.6160616
14.91350923520342	2.5916579	1.6098627
14.931185646853438	2.665393	1.6326032
14.948862415820408	2.6585336	1.630501
14.966539542546656	2.648791	1.6275107
14.98421702747459	2.609706	1.6154584
15.001894871046696	2.5914705	1.6098045
15.019573073705542	2.6498265	1.6278287
15.037251635893766	2.6332235	1.6227211
15.054930558054092	2.6543453	1.6292162
15.072609840629323	2.6999614	1.6431559
15.090289484062351	2.8047113	1.6747272
15.107969488796124	2.9538815	1.718686
15.125649855273691	3.1665826	1.7794894
15.14333058393817	3.5611744	1.8871074
15.161011675232768	4.17779	2.0439644
15.17869312960076	4.834388	2.198724
15.196374947485506	5.4927382	2.3436592
15.214057129330447	6.8547645	2.6181605
15.231739675579114	9.026819	3.0044665
15.249422586675102	13.628466	3.6916752
15.267105863062092	18.121494	4.2569346
15.284789505183847	25.295887	5.0295014
15.302473513484218	30.258404	5.500764
15.320157888407127	34.38269	5.8636756
15.337842630396578	33.279198	5.7688127
15.355527739896656	30.547192	5.5269513
15.37321321735153	23.815434	4.880106
15.39089906320545	16.233824	4.029122
15.408585277902748	10.336631	3.215063
15.42627186188783	6.4168315	2.5331466
15.443958815605198	4.609866	2.14706
15.461646139499424	3.7557952	1.9379874
15.479333834015168	3.352807	1.8310672
15.497021899597165	3.0389144	1.7432482
15.514710336690234	2.8133512	1.6773047
15.53239914573928	2.6641562	1.6322243
15.550088327189297	2.563033	1.6009476
15.567777881485336	2.5281157	1.5900049
15.58546780907256	2.5186594	1.5870285
15.6031581103962	2.5209155	1.5877391
15.620848785901568	2.491579	1.5784737
15.638539836034063	2.493583	1.5791082
15.656231261239173	2.4588597	1.5680752
15.673923061962451	2.4600308	1.5684485
15.691615238649552	2.4594488	1.5682629
15.709307791746202	2.4382236	1.5614812
15.727000721698221	2.4277606	1.5581273
15.744694028951498	2.4143555	1.5538197
15.76238771395202	2.4209256	1.5559324
15.780081777145844	2.414578	1.5538912
15.797776218979125	2.4066324	1.5513325
15.815471039898094	2.4218156	1.5562184
15.833166240349064	2.4294145	1.5586579
15.850861820778437	2.4408448	1.5623204
15.868557781632699	2.442907	1.5629802
15.886254123358412	2.4811645	1.5751712
15.903950846402232	2.4926183	1.5788028
15.921647951210897	2.5271971	1.5897161
15.939345438231225	2.5024822	1.5819236
15.957043307910133	2.501412	1.5815853
15.974741560694602	2.4851532	1.5764369
15.992440197031714	2.5220695	1.5881025
16.01013921736862	2.5471175	1.5959691
16.02783862215259	2.553888	1.5980889
16.045538411830933	2.5392134	1.593491
16.06323858685107	2.5080562	1.5836843
16.080939147660512	2.48192	1.5754111
16.09864009470684	2.4360423	1.5607826
16.11634142843774	2.408464	1.5519227
16.134043149300954	2.427524	1.5580513
16.15174525774433	2.4331849	1.5598669
16.169447754215817	2.4701593	1.571674
16.18715063916342	2.4427054	1.5629157
16.204853913035244	2.441272	1.5624571
16.222557576279478	2.4467945	1.5642233
16.240261629344403	22.44518	4.7376347
16.257966072678386	43.005383	6.557849
16.275670906729868	38.123318	6.1744084
16.293376131947387	2.5592122	1.5997537
16.31108174877957	2.5581188	1.599412
16.328787757675133	2.6072567	1.6147002
16.34649415908287	2.627911	1.6210833
16.364200953451657	2.6455479	1.6265141
16.38190814123048	2.5904217	1.6094787
16.39961572286839	2.5992668	1.6122242
16.41732369881455	2.6035042	1.6135378
16.43503206951817	2.6866865	1.6391115
16.45274083542859	2.7458768	1.6570687
16.47044999699522	2.8316083	1.6827383
16.488159554667558	2.9083326	1.7053834
16.505869508895184	2.9485087	1.7171222
16.523579860127786	2.942137	1.7152659
16.541290608815117	2.9696002	1.7232528
16.559001755407035	3.036019	1.7424176
16.57671330035348	3.1345487	1.7704656
16.59442524410448	3.2587051	1.8051884
16.61213758711015	3.4408233	1.8549457
16.629850329820705	3.519646	1.8760719
16.647563472686436	3.5516016	1.8845694
16.665277016157724	3.471461	1.8631858
16.682990960685053	3.4930634	1.8689739
16.70070530671898	3.4532335	1.8582878
16.718420054710155	3.506073	1.8724511
16.736135205109335	3.5789669	1.8918158
16.753850758367335	3.6590357	1.9128606
16.771566714935087	3.6936834	1.9218957
16.789283075263597	3.7289052	1.9310373
16.80699983980398	3.7660012	1.9406188
16.82471700900741	3.8090405	1.9516764
16.84243458332518	3.8677578	1.9666616
16.860152563208665	3.9621809	1.9905227
16.87787094910932	4.064268	2.016003
16.89558974147871	4.118748	2.02947
16.913308940768466	4.162394	2.0401945
16.931028547430333	4.2290525	2.056466
16.94874856191613	4.300907	2.0738628
16.966468984677785	4.3427672	2.0839307
16.98418981616729	4.378721	2.0925393
17.00191105683676	4.453357	2.110298
17.019632707138374	4.53765	2.130176
17.03735476752442	4.5881524	2.1419973
17.05507723844728	4.5510745	2.1333249
17.072800120359403	4.531235	2.1286697
17.090523413713353	4.553669	2.1339328
17.108247118961785	4.6091037	2.1468823
17.125971236557437	4.6683636	2.1606395
17.143695766953133	4.6559305	2.1577606
17.161420710601806	4.6922894	2.1661692
17.179146067956477	4.6822505	2.1638508
17.19687183947025	4.7040095	2.1688728
17.21459802559634	4.7057176	2.1692667
17.232324626788028	4.654603	2.1574528
17.25005164349871	4.584383	2.1411173
17.267779076181863	4.5815935	2.1404657
17.285506925291074	4.5894313	2.1422958
17.30323519127999	4.575108	2.13895
17.320963874602384	4.5393014	2.1305637
17.33869297571211	4.50897	2.1234336
17.356422495063114	4.5371466	2.1300578
17.37415243310944	4.550755	2.1332498
17.391882790305218	4.571496	2.1381056
17.40961356710468	4.5861	2.141518
17.42734476396215	4.6079273	2.1466084
17.445076381332044	4.657094	2.15803
17.462808419668868	4.6877065	2.1651113
17.48054087942723	4.765922	2.1830993
17.498273761061835	4.8910356	2.2115686
17.51600706502747	5.2225327	2.2852862
17.533740791779024	5.771008	2.4022923
17.551474941771485	6.6643577	2.5815418
17.56920951545993	8.589108	2.9307182
17.586944513299528	9.820524	3.1337717
17.60467993574556	12.6143875	3.551674
17.622415783253373	15.253796	3.9056108
17.64015205627843	18.067595	4.2505994
17.657888755276293	20.467833	4.524139
17.675625880702604	22.107183	4.7018275
17.69336343301311	20.65499	4.544776
17.71110141266366	18.442928	4.2945232
17.728839820110178	15.620982	3.952339
17.746578655808705	12.503894	3.5360847
17.764317920215372	10.440285	3.231143
17.7820576137864	8.758584	2.9594905
17.79979773697811	7.3854485	2.7176182
17.81753829024692	6.0284886	2.4552982
17.835279274049356	5.23928	2.2889473
17.85302068884201	4.4865584	2.1181498
17.870762535081607	4.113675	2.0282197
17.888504813224934	3.8869505	1.9715351
17.90624752372891	3.723281	1.9295805
17.923990667050536	3.5903153	1.8948127
17.941734243646895	3.5185697	1.8757851
17.959478253975185	3.4996974	1.8707478
17.9772226984927	3.4638	1.8611287
17.994967577656833	3.4270494	1.8512292
18.01271289192506	3.394195	1.8423342
18.030458641754965	3.3997834	1.8438501
18.04820482760425	3.4050636	1.8452815
18.06595144993067	3.3784237	1.8380489
18.083698509192125	3.3375719	1.8269023
18.101446005846576	3.3145432	1.8205887
18.119193940352105	3.3421676	1.8281596
18.136942313166887	3.2911174	1.8141438
18.1546911247492	3.2490978	1.8025254
18.1724403755574	3.1693916	1.7802786
18.19019006604997	3.13697	1.7711494
18.207940196685467	3.136507	1.7710186
18.225690767922575	3.1481059	1.7742902
18.243441780220046	3.1221876	1.7669713
18.261193234036764	3.0493405	1.7462361
18.278945129831676	3.0259383	1.7395225
18.29669746806386	3.016728	1.736873
18.314450249192483	3.0340588	1.741855
18.3322034736768	3.0272086	1.7398875
18.349957141976184	3.046545	1.7454355
18.3677112545501	3.0555756	1.7480205
18.385465811858108	3.0653737	1.7508209
18.403220814359884	3.0326264	1.7414438
18.420976262515172	3.0653746	1.7508211
18.43873215678387	3.0925481	1.7585642
18.456488497625923	3.1351974	1.7706488
18.474245285501407	3.2340918	1.7983581
18.492002520870486	3.3013968	1.8169746
18.50976020419343	3.3792348	1.8382695
18.527518335930615	3.6435664	1.9088128
18.545276916542516	4.1802893	2.0445755
18.563035946489688	4.337564	2.082682
18.580795426232832	4.7984223	2.19053
18.598555356232698	4.737456	2.1765697
18.616315736950185	5.0322456	2.2432668
18.63407656884626	4.6785245	2.1629896
18.65183785238201	4.866623	2.2060423
18.669599588018617	4.7098866	2.1702273
18.68736177621737	4.6645174	2.1597493
18.705124417439652	4.64089	2.1542726
18.72288751214696	4.4044437	2.0986767
18.740651060800886	4.579138	2.139892
18.758415063863115	4.309549	2.0759454
18.77617952179546	4.4510727	2.1097565
18.793944435059814	4.1752706	2.0433478
18.811709804118184	4.143204	2.0354862
18.829475629432675	4.1118393	2.0277672
18.8472419114655	3.9376473	1.9843506
18.86500865067897	4.04827	2.0120313
18.88277584753551	3.7562137	1.9380953
18.90054350249763	3.7677333	1.941065
18.918311616027957	3.4774952	1.8648044
18.936080188589226	3.3815806	1.8389075
18.953849220644265	3.0709472	1.7524118
18.971618712656007	2.8730114	1.694996
18.9893886650875	2.7920723	1.6709496
19.007159078401887	7.968785	2.8229036
19.024929953062408	32.84954	5.731452
19.042701289532435	32.819534	5.7288337
19.060473088275405	25.382336	5.0380883
19.07824534975489	2.6711566	1.6343673
19.096018074434568	2.652204	1.6285589
19.113791262778197	2.6293707	1.6215334
19.13156491524966	2.6205332	1.6188061
19.149339032312945	2.592194	1.6100292
19.167113614432136	2.5791297	1.6059669
19.184888662071433	2.5469565	1.5959187
19.202664175695123	2.5370958	1.5928264
19.220440155767623	2.521948	1.5880643
19.238216602753447	2.513011	1.5852479
19.2559935171172	2.4926958	1.5788274
19.27377089932361	2.5121164	1.5849657
19.291548749837514	2.538518	1.5932727
19.309327069123835	2.557613	1.5992539
19.32710585764763	2.55736	1.5991747
19.344885115874032	2.5538824	1.5980871
19.362664844268313	2.532798	1.5914767
19.380445043295822	2.4983444	1.5806152
19.39822571342203	2.4880786	1.5773644
19.41600685511252	2.4970524	1.5802064
19.43378846883297	2.4898624	1.5779299
19.451570555049173	2.4925716	1.578788
19.469353114227037	2.4485424	1.5647819
19.48713614683254	2.4277446	1.5581222
19.50491965333182	2.4231942	1.5566612
19.52270363419109	2.4824245	1.5755712
19.540488089876686	2.5027547	1.5820097
19.55827302085503	2.5143132	1.5856586
19.576058427592674	2.487839	1.5772885
19.593844310556282	2.4826934	1.5756565
19.611630670212598	2.4688625	1.5712614
19.629417507028506	2.4756293	1.5734133
19.64720482147098	2.5341399	1.5918982
19.6649926140071	2.5487945	1.5964944
19.682780885104084	2.5445664	1.5951697
19.70056963522921	2.5039177	1.5823772
19.718358864849908	2.480467	1.5749499
19.7361485744337	2.475149	1.5732605
19.753938764448215	2.485976	1.5766978
19.771729435361202	2.4890523	1.5776731
19.789520587640506	2.4932692	1.5790089
19.807312221754092	2.4924564	1.5787516
19.825104338170043	2.5001345	1.5811814
19.842896937356517	2.4933507	1.5790348
19.860690019781824	2.4824908	1.5755922
19.87848358591436	2.4982338	1.5805802
19.896277636222635	2.539658	1.5936304
19.914072171175278	2.5718646	1.6037034
19.931867191241015	2.5740354	1.60438
19.94966269688869	2.5384078	1.5932381
19.967458688587264	2.5466008	1.5958073
19.985255166805807	2.5177069	1.5867283
20.00305213201348	2.4954445	1.5796976
20.020849584679578	2.45818	1.5678583
20.038647525273507	2.4373336	1.5611962
20.05644595426477	2.4238615	1.5568756
20.07424487212299	2.411509	1.5529034
20.092044279317903	2.4057384	1.5510442
20.109844176319353	2.4159088	1.5543194
20.127644563597304	2.4473662	1.564406
20.145445441621817	2.4760993	1.5735626
20.16324681086307	2.4449668	1.5636389
20.181048671791373	2.4008377	1.5494636
20.198851024877122	2.3646395	1.5377384
20.216653870590836	2.3623688	1.537
20.234457209403146	2.381328	1.5431552
20.252261041784802	2.3534849	1.5341072
20.270065368206662	2.3571541	1.5353026
20.287870189139685	2.3890543	1.5456566
20.305675505054968	2.4215693	1.5561392
20.323481316423702	2.3846397	1.5442278
20.341287623717207	2.3382626	1.5291378
20.359094427406884	2.3045738	1.5180823
20.376901727964288	2.3328416	1.5273643
20.39470952586107	2.382769	1.543622
20.41251782156899	2.4068346	1.5513977
20.430326615559935	2.3904068	1.5460941
20.448135908305886	2.3714106	1.5399384
20.465945700278965	2.3529267	1.5339253
20.483755991951384	2.331068	1.5267836
20.50156678379548	2.3125727	1.5207145
20.519378076283708	2.2950888	1.514955
20.537189869888635	2.3064487	1.5186996
20.55500216508294	2.3410914	1.5300626
20.572814962339415	2.386486	1.5448256
20.59062826213098	2.415862	1.5543044
20.60844206493066	2.3910687	1.546308
20.626256371211593	2.324697	1.5246958
20.644071181447032	2.298875	1.5162041
20.66188649611036	2.3139222	1.5211582
20.67970231567506	2.320461	1.523306
20.697518640614742	2.2843993	1.5114229
20.715335471403122	2.311155	1.5202484
20.73315280851404	2.2882922	1.5127102
20.750970652421447	2.329568	1.5262922
20.768789003599412	2.3363805	1.5285224
20.786607862522136	2.3134527	1.5210038
20.8044272296639	2.281005	1.5102996
20.82224710549913	2.265847	1.5052731
20.84006749050237	2.2684994	1.5061538
20.857888385148268	3.8099964	1.9519212
20.8757097899116	45.92437	6.776752
20.893531705267254	64.77031	8.048
20.911354131690224	83.768005	9.152486
20.92917706965566	69.03344	8.308637
20.94700051963877	50.123344	7.0797844
20.96482448211493	29.397099	5.4219093
20.982648957559622	4.1299634	2.032231
21.00047394644843	2.2571807	1.5023917
21.01829944925707	2.2438335	1.4979432
21.036125466461375	2.2392042	1.496397
21.053951998537297	2.2453423	1.4984466
21.071779045960906	2.2542362	1.5014114
21.089606609208378	2.2371066	1.4956961
21.10743468875603	2.2385817	1.496189
21.12526328508028	2.2243848	1.4914372
21.143092398657675	2.2120137	1.4872841
21.16092202996488	2.186193	1.478578
21.17875217947867	2.169543	1.4729369
21.19658284767596	2.1476436	1.465484
21.21441403503377	2.1480706	1.4656297
21.232245742029225	2.182316	1.4772664
21.2500779691396	2.1968355	1.4821726
21.26791071684227	2.178023	1.4758127
21.28574398561475	2.1575797	1.4688702
21.30357777593465	2.1399722	1.4628644
21.321412088279704	2.1726482	1.4739906
21.339246923127792	2.175987	1.4751227
21.357082280956888	2.1467638	1.4651839
21.3749181622451	2.0891013	1.4453723
21.392754567470647	2.0662353	1.4374405
21.41059149711187	2.0752366	1.4405681
21.42842895164726	2.1124098	1.4534131
21.446266931555378	2.140583	1.4630731
21.464105437314945	2.146725	1.4651706
21.481944469404798	2.1153853	1.4544364
21.49978402830388	2.095213	1.4474851
21.51762411449127	2.118794	1.4556078
21.53546472844617	2.1325812	1.460336
21.553305870647876	2.1365325	1.4616883
21.571147541575865	2.1174421	1.4551433
21.58898974170967	2.0793066	1.4419801
21.60683247152899	2.0405288	1.4284707
21.62467573151363	2.0297303	1.4246861
21.642519522143523	2.0577512	1.4344864
21.660363843898722	2.0768328	1.441122
21.6782086972594	2.0930972	1.446754
21.696054082705864	2.0714087	1.4392389
21.713900000718535	2.0340686	1.4262078
21.73174645177795	2.036636	1.4271076
21.749593436364794	2.0255532	1.4232193
21.767440954959845	2.01554	1.4196972
21.785289008044032	1.976363	1.4058318
21.803137596098388	2.0102975	1.4178497
21.820986719604086	2.0281467	1.4241302
21.838836379042412	2.0583284	1.4346876
21.85668657489478	2.0195282	1.4211011
21.87453730764273	1.9987608	1.4137753
21.892388577767914	1.9884777	1.410134
21.91024038575213	2.0094612	1.4175546
21.928092732077285	2.024454	1.4228331
21.945945617225426	2.0464094	1.4305277
21.963799041678694	2.0037396	1.4155351
21.981653005919398	31.275162	5.59242
21.999507510429943	78.06276	8.835313
22.01736255569286	73.030876	8.545811
22.035218142190818	4.1152997	2.0286202
22.05307427040661	1.9405231	1.3930266
22.07093094082315	1.9645256	1.4016154
22.088788153923474	1.9765996	1.405916
22.106645910190746	1.9896387	1.4105455
22.12450421010827	1.9742075	1.405065
22.142363054159464	1.9667082	1.4023937
22.16022244282787	1.9351785	1.391107
22.178082376597164	1.932836	1.3902647
22.195942855951145	1.9634247	1.4012226
22.213803881373742	1.9953182	1.4125574
22.231665453349002	2.0129285	1.4187771
22.24952757236111	2.0089087	1.4173598
22.26739023889438	1.9784611	1.4065778
22.28525345343323	1.9868611	1.4095606
22.30311721646225	1.9986167	1.4137244
22.320981528466113	1.9734697	1.4048024
22.33884638992964	1.9308692	1.3895572
22.356711801337788	1.9148647	1.3837863
22.37457776317561	1.926527	1.3879939
22.392444275928337	1.938628	1.3923463
22.410311340081282	1.9347057	1.390937
22.428178956119904	1.9525504	1.3973368
22.446047124529805	1.9449668	1.3946207
22.46391584579669	1.9680331	1.402866
22.481785120406414	1.9999704	1.4142032
22.49965494884496	2.0160365	1.419872
22.51752533159841	2.038087	1.4276158
22.53539626915302	2.0207875	1.4215441
22.553267761995137	1.9815521	1.4076761
22.571139810611264	1.9565581	1.3987702
22.589012415488025	1.9687891	1.4031354
22.60688557711216	1.9751663	1.4054061
22.624759295970566	1.967049	1.4025153
22.642633572550263	1.9980468	1.4135228
22.660508407338362	2.0157862	1.4197838
22.67838380082217	1.9850343	1.4089124
22.696259753489077	1.9426457	1.3937882
22.714136265826614	1.9005076	1.378589
22.73201333832246	1.8975471	1.3775148
22.74989097146439	1.9159144	1.3841656
22.76776916574035	1.9568622	1.3988789
22.785647921638393	1.9382076	1.3921952
22.803527239646712	1.949438	1.3962227
22.82140712025363	1.9238559	1.3870313
22.839287563947593	1.9268073	1.3880948
22.85716857121719	1.932653	1.390199
22.875050142551135	1.9760494	1.4057202
22.892932278438277	1.980837	1.4074221
22.910814979367604	1.9575895	1.3991388
22.928698245828222	1.9154928	1.3840133
22.946582078309387	1.8790535	1.3707857
22.96446647730047	1.9098184	1.3819618
22.98235144329098	1.9304204	1.3893957
23.000236976770562	1.9340656	1.3907069
23.018123078229	1.9253464	1.3875685
23.03600974815619	1.8949157	1.3765594
23.053896987042194	1.8811386	1.371546
23.071784795377173	1.9118482	1.382696
23.08967317365145	1.9023167	1.3792449
23.10756212235546	1.9361082	1.3914411
23.125451641979787	1.9555746	1.3984187
23.143341733015134	1.9691119	1.4032505
23.161232395952357	1.9514062	1.3969275
23.179123631282426	1.9462161	1.3950685
23.197015439496468	1.9817375	1.407742
23.214907821085717	1.9777943	1.4063407
23.23280077654157	1.9655267	1.4019724
23.250694306355538	1.9454488	1.3947934
23.268588411019277	1.954815	1.398147
23.28648309102458	1.9485335	1.3958988
23.304378346863356	1.9102213	1.3821076
23.322274179027676	1.8883113	1.3741584
23.340170588009723	1.8657476	1.3659238
23.358067574301852	1.8783435	1.3705267
23.37596513839651	1.9145683	1.3836793
23.39386328078629	1.9931891	1.4118035
23.411762001963947	2.0089817	1.4173855
23.429661302422353	1.9535983	1.3977118
23.4475611826545	1.9391621	1.3925381
23.46546164315356	1.9755942	1.4055583
23.48336268441279	1.9821078	1.4078735
23.501264306925638	1.9638569	1.4013768
23.51916651118564	1.9298486	1.3891898
23.537069297686497	1.9008912	1.3787282
23.554972666922037	1.8658475	1.3659602
23.57287661938623	1.8713791	1.3679836
23.59078115557318	1.9312971	1.3897111
23.608686275977128	1.9449482	1.394614
23.62659198109246	1.9449258	1.394606
23.6444982714137	1.9443991	1.3944172
23.66240514743549	1.9505224	1.3966111
23.68031260965263	1.9212261	1.386083
23.698220658560068	1.9369142	1.3917307
23.716129294652845	1.9402825	1.3929402
23.7340385184262	1.9672575	1.4025896
23.75194833037546	1.9340137	1.3906882
23.769858730996123	1.9165245	1.384386
23.78776972078382	1.8965892	1.3771671
23.80568130023431	1.9210331	1.3860134
23.823593469843495	1.9703482	1.4036909
23.841506230107424	1.9840487	1.4085627
23.859419581522275	1.9806007	1.4073381
23.87733352458438	1.9633691	1.4012028
23.89524805979019	1.9603364	1.4001201
23.913163187636318	1.9350059	1.3910449
23.931078908619508	1.9605427	1.4001938
23.948995223236633	2.0370438	1.4272504
23.966912131984735	2.0825715	1.4431118
23.98482963536096	2.0976849	1.4483386
24.002747733862616	2.0612278	1.4356977
24.020666427987155	2.0679054	1.4380213
24.038585718232156	2.049684	1.4316717
24.056505605095353	2.045755	1.4302989
24.074426089074617	2.0799263	1.4421949
24.092347170667946	2.050159	1.4318377
24.110268850373515	2.0112834	1.4181973
24.128191128689586	2.0064232	1.4164827
24.146114006114626	2.0302067	1.4248532
24.164037483147187	2.0545228	1.4333607
24.181961560286005	2.0648508	1.4369589
24.199886238029926	2.0373335	1.427352
24.21781151687797	2.0658312	1.4373
24.235737397329274	2.0213308	1.4217352
24.253663879883135	2.0584059	1.4347146
24.271590965038975	2.044854	1.4299839
24.289518653296376	2.1217077	1.4566083
24.30744694515505	2.1050658	1.4508845
24.32537584111486	2.075218	1.4405617
24.34330534167581	2.027992	1.4240758
24.361235447338046	2.045749	1.4302968
24.379166158601876	2.0570157	1.43423
24.39709747596772	2.0589664	1.4349099
24.41502939993615	2.0288696	1.424384
24.432961931007917	1.9429713	1.393905
24.450895069683856	1.9280919	1.3885574
24.468828816465	1.9538987	1.3978193
24.4867631718525	1.994704	1.4123399
24.504698136347656	2.0081697	1.417099
24.52263371045192	2.022268	1.4220647
24.540569894666874	1.9881761	1.410027
24.558506689494266	1.9679157	1.4028242
24.57644409543597	1.9640695	1.4014527
24.594382112994012	1.9607345	1.4002622
24.61232074267057	1.9459468	1.394972
24.630259984967953	1.8883941	1.3741885
24.64819984038863	1.9008087	1.3786982
24.66614030943522	1.9516479	1.3970139
24.684081392610462	2.0221593	1.4220265
24.702023090417274	1.9875138	1.4097921
24.7199654033587	1.9952799	1.4125438
24.737908331937927	1.9775355	1.4062487
24.755851876658305	2.0078137	1.4169735
24.773796038023324	2.040381	1.428419
24.79174081653661	2.1343975	1.4609578
24.809686212701962	2.1973228	1.482337
24.827632227023294	2.1689203	1.4727255
24.8455788600047	2.0913773	1.4461595
24.8635261121504	2.1034822	1.4503387
24.88147398396475	2.11327	1.453709
24.899422475952303	2.1454291	1.4647284
24.917371588617698	2.1782465	1.4758884
24.935321322465768	2.197011	1.4822317
24.953271678001478	2.2780402	1.5093178
24.97122265572994	2.4747856	1.5731452
24.989174256156414	2.8637996	1.6922765
25.00712647978632	3.5088952	1.8732045
25.02507932712521	4.483635	2.1174595
25.043032798678798	6.0205865	2.4536884
25.060986894952933	7.685424	2.7722597
25.078941616453637	9.252286	3.041757
25.096896963687055	10.10009	3.1780639
25.114852937159508	10.853456	3.2944584
25.132809537377444	10.749008	3.278568
25.150766764847468	10.103864	3.1786575
25.168724620076347	8.66449	2.9435506
25.186683103570985	7.33298	2.7079475
25.204642215838426	5.868363	2.4224703
25.222601957385894	4.6569376	2.1579938
25.24056232872074	3.6408796	1.908109
25.25852333035048	2.9458344	1.7163433
25.276484962782778	2.5037081	1.582311
25.294447226525435	2.2612438	1.5037433
25.312410122086423	2.1011353	1.4495293
25.330373649973843	1.980596	1.4073365
25.348337810695988	1.9548384	1.3981553
25.366302604761245	1.999211	1.4139346
25.384268032678207	2.0148048	1.4194382
25.40223409495558	1.9781201	1.4064566
25.420200792102257	1.9611974	1.4004276
25.438168124627246	1.9371037	1.3917987
25.45613609303974	1.9063723	1.3807144
25.474104697849057	1.937314	1.3918743
25.492073939564698	1.956397	1.3987126
25.510043818696285	1.9373289	1.3918797
25.528014335753614	1.8767192	1.3699341
25.54598549124664	1.8981351	1.3777282
25.56395728568544	1.9152018	1.3839082
25.58192971958028	1.9348478	1.3909881
25.59990279344156	1.9288315	1.3888237
25.617876507779833	1.9002103	1.3784811
25.635850863105826	1.841	1.3568345
25.653825859930386	1.8336234	1.3541135
25.671801498764548	1.8603727	1.3639548
25.68977778011949	1.8646889	1.3655361
25.707754704506524	1.8489828	1.359773
25.725732272437153	1.8288391	1.3523457
25.743710484423012	1.7924731	1.3388327
25.761689340975888	1.8422737	1.3573039
25.77966884260774	1.8754019	1.3694531
25.797648989830662	1.8843694	1.3727233
25.815629783156922	1.9006323	1.3786342
25.83361122309895	1.8798836	1.3710885
25.85159331016929	1.8450798	1.3583372
25.869576044880695	1.8337839	1.3541727
25.887559427746034	1.8295532	1.3526098
25.90554345927836	1.8291544	1.3524623
25.92352813999086	1.8590382	1.3634655
25.94151347039689	1.8606057	1.3640403
25.959499451009965	1.8786384	1.3706343
25.97748608234374	1.8742673	1.3690388
25.995473364912062	1.8987423	1.3779486
26.013461299228904	1.8785366	1.3705971
26.03144988580839	1.8578166	1.3630174
26.04943912516483	1.8890897	1.3744416
26.067429017812675	1.8688707	1.3670665
26.085419564266537	1.8761387	1.3697221
26.103410765041186	1.8487878	1.3597014
26.12140262065155	1.8392676	1.356196
26.139395131612723	1.7947847	1.3396957
26.157388298439948	1.7960517	1.3401686
26.17538212164861	1.773661	1.3317887
26.193376601754295	1.8156712	1.3474685
26.211371739272714	1.8357501	1.3548986
26.229367534719746	1.8412881	1.3569407
26.247363988611433	1.8245653	1.3507648
26.26536110146397	1.8325181	1.3537053
26.283358873793727	1.8361686	1.355053
26.301357306117204	1.8363675	1.3551264
26.319356398951104	1.8543417	1.3617421
26.33735615281224	1.8183924	1.3484778
26.35535656821762	1.7919455	1.3386357
26.373357645684404	1.7689613	1.330023
26.39135938572991	1.8021027	1.3424242
26.409361788871614	1.8007392	1.3419162
26.427364855627165	1.8029143	1.3427265
26.445368586514352	1.8124417	1.3462696
26.46337298205115	1.827285	1.3517711
26.48137804275568	1.8507575	1.3604255
26.499383769146217	1.8318206	1.3534477
26.517390161741215	1.8350133	1.3546267
26.53539722105928	1.8352011	1.3546959
26.553404947619182	1.8157603	1.3475015
26.571413341939856	1.7905011	1.338096
26.589422404540397	1.7808377	1.3344803
26.60743213594006	1.7920902	1.3386897
26.62544253665827	1.8365114	1.3551794
26.64345360721459	1.8663552	1.3661461
26.66146534812879	1.8451849	1.3583758
26.679477759920758	1.8575113	1.3629055
26.69749084311057	1.8453904	1.3584515
26.71550459821847	1.8282857	1.3521411
26.733519025764842	1.7675229	1.3294822
26.751534126270258	1.8004512	1.3418089
26.769549900255434	1.8589653	1.3634387
26.787566348241267	1.8870615	1.3737036
26.80558347074881	1.860233	1.3639035
26.823601268299267	1.8604233	1.3639734
26.841619741414036	1.8806447	1.371366
26.85963889061465	1.8800145	1.3711362
26.877658716422832	1.8633217	1.3650354
26.89567921936045	1.8577162	1.3629806
26.913700399949544	1.8367774	1.3552777
26.93172225871233	1.8491701	1.359842
26.949744796171174	1.8734236	1.3687307
26.967768012848605	1.9106703	1.38227
26.98579190926733	1.8706902	1.3677318
27.003816485950225	1.8473649	1.3591781
27.021841743420318	1.8691806	1.3671798
27.039867682200814	1.8832891	1.3723298
27.057894302815072	1.8254637	1.3510972
27.07592160578664	1.833053	1.3539028
27.0939495916392	1.8576587	1.3629595
27.111978260896635	1.8393424	1.3562236
27.13000761408296	1.7968516	1.340467
27.148037651722397	1.8314723	1.3533189
27.166068374339304	1.8674543	1.3665483
27.184099782458215	1.8823386	1.3719835
27.20213187660384	1.8758547	1.3696184
27.22016465730105	1.8691331	1.3671625
27.23819812507487	1.8290434	1.3524213
27.256232280450533	1.8385705	1.3559389
27.274267123953383	1.8913438	1.3752614
27.292302656108987	1.915425	1.3839887
27.31033887744306	1.9118017	1.3826792
27.32837578848146	1.8498837	1.3601043
27.34641338975026	1.7890216	1.3375431
27.364451681775673	1.7953159	1.3398939
27.382490665084074	1.7939821	1.3393962
27.400530340202046	1.8233835	1.3503271
27.41857070765629	1.8333154	1.3539997
27.436611767973726	1.8420569	1.357224
27.454653521681404	1.8042334	1.3432176
27.472695969306564	1.7892704	1.3376361
27.490739111376627	1.7877636	1.3370727
27.508782948419153	1.8244424	1.3507192
27.526827480961902	1.870647	1.367716
27.54487270953279	1.9056325	1.3804464
27.562918634659898	1.8812736	1.3715953
27.580965256871508	1.8470783	1.3590726
27.599012576696026	1.8362601	1.3550867
27.617060594662068	1.7993126	1.3413845
27.63510931129842	1.8056961	1.3437619
27.65315872713401	1.794015	1.3394085
27.67120884269797	1.8471957	1.3591158
27.68925965851958	1.9247836	1.3873657
27.707311175128307	1.9316857	1.389851
27.725363393053787	1.9596446	1.399873
27.74341631282583	1.926293	1.3879095
27.7614699349744	1.9173136	1.384671
27.77952426002968	2.0421534	1.4290394
27.797579288521973	2.1811948	1.4768869
27.815635020981784	2.6626568	1.6317649
27.83369145793979	2.7034256	1.6442097
27.85174859992682	2.5383368	1.5932158
27.869806447473923	2.3635547	1.5373857
27.887865001112267	1.9797802	1.4070467
27.905924261373233	1.9522034	1.3972127
27.92398422878836	1.9786745	1.4066536
27.94204490388936	1.9308283	1.3895425
27.96010628720813	1.8806735	1.3713765
27.978168379276728	1.8459741	1.3586663
27.9962311806274	1.8140764	1.3468765
28.014294691792568	1.8494081	1.3599294
28.0323589133048	1.8367294	1.3552599
28.050423845696887	1.8528858	1.3612075
28.068489489501758	1.870537	1.3676758
28.086555845252523	1.8911836	1.3752031
28.104622913482487	1.8624063	1.3647001
28.122690694725115	1.8673608	1.3665141
28.14075918951405	1.8456632	1.3585519
28.15882839838312	1.8727012	1.3684667
28.176898321866304	1.9159778	1.3841885
28.1949689604978	1.9224899	1.3865389
28.213040314811945	1.9173535	1.3846854
28.23111238534327	1.9307064	1.3894986
28.249185172626493	1.9474468	1.3955095
28.267258677196473	1.9156817	1.3840816
28.285332899588294	1.9061887	1.3806479
28.303407840337172	1.9114136	1.3825388
28.321483499978545	1.9165118	1.3843814
28.33955987904799	1.9640063	1.4014301
28.357636978081285	2.0121703	1.4185098
28.37571479761439	2.0207522	1.4215317
28.393793338183425	2.018708	1.4208125
28.41187260032469	1.9810346	1.4074923
28.429952584574686	1.9657987	1.4020694
28.448033291470065	2.0358918	1.4268467
28.46611472154769	2.1352546	1.461251
28.484196875344566	2.1207948	1.4562949
28.502279753397914	2.0991046	1.4488287
28.52036335624511	1.9929744	1.4117274
28.538447684423716	1.9904283	1.4108254
28.556532738471482	1.9992545	1.41395
28.574618518926325	2.0286736	1.4243151
28.59270502632635	2.0016172	1.4147853
28.61079226120985	1.9946678	1.412327
28.628880224115274	2.0080068	1.4170415
28.646968915581287	2.052665	1.4327124
28.66505833614671	2.0865982	1.4445062
28.68314848635055	2.1386902	1.4624262
28.701239366732004	2.1442075	1.4643112
28.71933097783044	2.0982542	1.4485352
28.737423320185403	2.1194243	1.4558243
28.75551639433665	2.1904454	1.4800154
28.773610200824074	2.1849208	1.4781477
28.791704740187793	2.1671786	1.472134
28.80980001296809	2.1767457	1.4753798
28.827896019705413	2.21288	1.4875752
28.845992760940433	2.2315228	1.4938282
28.86409023721397	2.245178	1.4983917
28.88218844906704	2.240978	1.4969896
28.900287397040845	2.2949824	1.51492
28.918387081676755	2.2979758	1.5159075
28.936487503516343	2.271171	1.5070405
28.954588663101365	2.246139	1.4987124
28.97269056097374	2.2807868	1.5102274
28.990793197675597	2.3516583	1.5335118
29.00889657374923	2.3813562	1.5431644
29.027000689737125	2.432883	1.5597702
29.04510554618196	2.4425602	1.5628692
29.06321114362659	2.422511	1.5564418
29.08131748261405	2.4013464	1.5496279
29.099424563687567	2.432463	1.5596355
29.11753238739057	2.477827	1.5741115
29.13564095426663	2.5099807	1.5842918
29.15375026485954	2.5733955	1.6041806
29.171860319713275	2.6662388	1.6328621
29.18997111937199	2.727407	1.6514863
29.20808266438002	2.7409832	1.6555915
29.226194955281898	2.7265372	1.651223
29.244307992622335	2.82296	1.6801666
29.26242177694624	2.8647428	1.6925551
29.2805363087987	2.9455838	1.7162703
29.29865158872498	3.0049407	1.7334765
29.316767617270557	3.0292048	1.7404611
29.334884394981064	3.0658321	1.7509518
29.353001922402367	3.129148	1.7689399
29.37112020008047	3.1593661	1.7774606
29.389239228561596	3.226835	1.7963394
29.407359008392152	3.3515987	1.8307372
29.42547954011872	3.6439261	1.908907
29.44360082428809	4.1515274	2.0375297
29.46172286144722	5.000101	2.2360907
29.479845652143283	6.6672626	2.5821042
29.497969196923606	9.533174	3.0875838
29.516093496335728	13.417217	3.662952
29.5342185509274	17.064709	4.130945
29.55234436124651	20.412252	4.517992
29.570470927841175	21.903934	4.680164
29.588598251259686	21.814959	4.6706486
29.60672633205055	19.931065	4.464422
29.624855170762405	16.504423	4.0625634
29.642984767944146	12.9414625	3.5974245
29.66111512414481	9.682708	3.111705
29.67924623991366	7.173109	2.678266
29.697378115800138	5.390872	2.321825
29.71551075235387	4.4197025	2.1023088
29.733644150124675	3.8611858	1.96499
29.751778309662576	3.5709512	1.8896961
29.769913231517766	3.4561546	1.8590736
29.78804891624066	3.4113235	1.8469769
29.806185364381818	3.4103973	1.8467261
29.82432257649206	3.406133	1.8455712
29.842460553122333	3.3807368	1.838678
29.86059929482382	3.3837352	1.8394932
29.878738802147872	3.3814645	1.8388759
29.896879075646048	3.3658273	1.8346192
29.915020115870114	3.3678365	1.8351666
29.933161923371976	3.377561	1.8378142
29.951304498703777	3.3044813	1.8178232
29.969447842417857	3.240504	1.80014
29.987591955066733	3.242711	1.8007529
30.005736837203123	3.3103116	1.8194262
30.023882489379943	3.3198817	1.8220543
30.04202891215028	3.2696135	1.8082073
30.060176106067455	3.2580361	1.805003
30.078324071684946	3.2468967	1.8019147
30.09647280955646	3.209358	1.7914681
30.114622320235863	3.2199886	1.7944326
30.132772604277257	3.2309687	1.7974895
30.1509236622349	3.179239	1.7830421
30.16907549466328	3.0943506	1.7590766
30.18722810211705	3.038163	1.7430327
30.205381485151097	3.0330665	1.7415701
30.22353564432045	3.0333352	1.7416472
30.241690580180403	3.0248914	1.7392215
30.25984629328638	3.070395	1.7522542
30.278002784194037	3.041355	1.7439481
30.296160053459246	3.0232663	1.7387543
30.314318101638033	2.9617155	1.7209635
30.332476929286646	2.894766	1.7014012
30.35063653696153	2.8670554	1.6932381
30.368796925219307	2.8762288	1.6959448
30.386958094616844	2.8473115	1.6873978
30.40512004571115	2.9075985	1.7051681
30.423282779059463	2.954654	1.7189107
30.441446295219233	2.9616203	1.720936
30.459610594748067	2.938055	1.7140756
30.47777567820382	2.864335	1.6924347
30.495941546144504	2.7995348	1.673181
30.51410819912835	2.7988777	1.6729847
30.532275637713795	2.8329043	1.6831234
30.55044386245946	2.8545806	1.6895504
30.56861287392416	2.8005617	1.6734879
30.586782672666956	2.84179	1.685761
30.604953259247047	2.8488142	1.6878431
30.623124634223885	2.8126812	1.677105
30.641296798157075	2.7646005	1.6627088
30.659469751606462	2.7668543	1.6633863
30.677643495132074	2.8163753	1.678206
30.695818029294152	2.7975707	1.672594
30.713993354653116	2.7464867	1.6572528
30.73216947176962	2.6490436	1.6275883
30.75034638120448	2.729915	1.6522454
30.768524083518756	2.7945802	1.6716998
30.786702579273673	2.8004181	1.673445
30.80488186903069	2.872597	1.6948737
30.82306195335144	3.0468807	1.7455317
30.841242832797782	3.3121817	1.81994
30.85942450793176	3.5893285	1.8945524
30.877606979315637	3.9120839	1.9778988
30.895790247511883	4.330722	2.0810387
30.913974313083134	4.85621	2.203681
30.932159176592283	5.286357	2.299208
30.95034483860237	5.535585	2.3527825
30.968531299676698	5.500114	2.3452322
30.98671856037873	5.1830673	2.2766352
31.00490662127215	4.806327	2.1923337
31.023095482920848	4.383788	2.0937498
31.04128514588892	3.8050175	1.9506454
31.059475610740662	3.3511887	1.8306252
31.07766687804056	2.9737794	1.724465
31.09585894835335	2.719116	1.6489742
31.11405182224393	2.5903044	1.6094422
31.132245500277417	2.5703597	1.6032342
31.15043998301914	2.541092	1.5940803
31.168635271034628	2.52888	1.5902452
31.18683136488964	2.4562166	1.5672321
31.20502826515008	2.4123473	1.5531733
31.223225972382135	2.3934045	1.5470632
31.241424487152155	2.3849	1.5443121
31.259623810026692	2.4074388	1.5515924
31.27782394157253	2.465735	1.5702659
31.296024882356644	2.5076294	1.5835496
31.314226632946237	2.5169697	1.586496
31.332429193908684	2.5564392	1.5988868
31.350632565811598	2.5675945	1.6023716
31.368836749222787	2.5231047	1.5884284
31.387041744710295	2.4971228	1.5802287
31.40524755284232	2.545953	1.5956043
31.423454174187317	2.6150992	1.6171268
31.441661609313922	2.6748521	1.6354976
31.459869858791002	2.6501353	1.6279236
31.478078923187628	2.5552468	1.598514
31.496288803073064	2.403798	1.5504187
31.514499499016807	2.3507462	1.5332143
31.532711011588546	2.380251	1.5428061
31.550923341358178	2.3838396	1.5439688
31.56913648889584	2.3997438	1.5491107
31.587350454771844	2.3946192	1.5474557
31.605565239556732	2.3630865	1.5372334
31.62378084382127	2.3121834	1.5205865
31.641997268136382	2.330542	1.5266113
31.660214513073274	2.2931967	1.5143304
31.67843257920331	2.302619	1.5174383
31.6966514670981	2.3646655	1.5377469
31.71487117732944	2.37878	1.5423293
31.733091710469346	2.2924416	1.5140811
31.751313067090052	2.349207	1.5327122
31.769535247764008	2.4404545	1.5621954
31.787758253063878	2.4310825	1.5591929
31.805982083562526	2.3495553	1.532826
31.824206739833024	2.3223546	1.5239273
31.84243222244869	2.3405676	1.5298914
31.860658531983013	2.317946	1.5224802
31.878885669009737	2.3286521	1.5259922
31.897113634102784	2.3002381	1.5166535
31.91534242783632	2.2932777	1.5143572
31.933572050784694	2.3375187	1.5288945
31.951802503522508	2.2894537	1.5130941
31.970033786624548	2.1798368	1.4764271
31.988265900665834	2.1703045	1.4731953
32.006498846221575	2.2734067	1.5077821
32.02473262386724	2.2860575	1.5119714
32.04296723417845	2.3198009	1.5230893
32.0612026777311	2.2699494	1.5066352
32.07943895510129	2.2518795	1.5006263
32.097676066865304	2.2338774	1.4946162
32.115914013599685	2.3189118	1.5227973
32.13415279588115	2.2740536	1.5079966
32.152392414286666	2.191167	1.4802592
32.1706328693934	2.112949	1.4535986
32.18887416177875	2.1454318	1.4647292
32.20711629202032	2.1826987	1.4773959
32.225359260695924	2.173286	1.4742069
32.243603068383614	2.1847472	1.4780891
32.26184771566166	2.1252682	1.45783
32.28009320310852	2.0254943	1.4231986
32.2983395313029	2.1015308	1.4496658
32.31658670082372	2.2193675	1.4897542
32.33483471225012	2.1771502	1.4755169
32.35308356616143	2.1138358	1.4539037
32.371333263137245	2.1164298	1.4547955
32.38958380375734	2.187491	1.4790169
32.407835188601744	2.1691172	1.4727923
32.42608741825067	2.0533042	1.4329355
32.444340493284585	2.0172687	1.4203058
32.46259441428416	2.0750206	1.4404931
32.48084918183028	2.111398	1.453065
32.49910479650405	2.1017723	1.449749
32.51736125888683	2.0844502	1.4437625
32.53561856956014	2.004816	1.4159153
32.5538767291058	1.9980983	1.4135411
32.572135738105764	2.0575974	1.4344327
32.59039559714228	2.0693824	1.4385349
32.608656306797776	2.030921	1.4251039
32.62691786765491	1.9696022	1.4034252
32.645180280296586	1.940774	1.3931166
32.663443545305896	2.034321	1.4262962
32.68170766326619	2.0379345	1.4275625
32.69997263476099	2.0121367	1.418498
32.7182384603741	2.029259	1.4245206
32.7365051406895	2.0946386	1.4472866
32.75477267629144	2.131233	1.4598743
32.77304106776434	2.1364763	1.461669
32.79131031569289	2.0845022	1.4437805
32.809580420661966	2.058191	1.4346397
32.827851383256714	2.0629017	1.4362805
32.84612320406245	2.1006064	1.4493469
32.86439588366476	2.0902777	1.4457792
32.88266942264945	2.0803947	1.4423573
32.9009438216025	1.9888656	1.4102715
32.9192190811102	1.9827818	1.4081129
32.937495201758985	2.0365825	1.4270889
32.95577218413556	2.064816	1.4369467
32.974050028826866	2.0423086	1.4290936
32.992328736420035	2.0116267	1.4183183
33.010608307502444	1.9767581	1.4059724
33.02888874266169	2.0406315	1.4285067
33.047170042485604	2.0570629	1.4342464
33.06545220756225	1.9868797	1.4095672
33.083735238479896	1.9687505	1.4031217
33.10201913582707	2.0582895	1.434674
33.12030390019248	2.1240122	1.4573991
33.138589532165135	2.0454912	1.4302067
33.15687603233419	1.9832617	1.4082832
33.17516340128909	2.0092282	1.4174725
33.19345163961947	2.0210516	1.4216369
33.211740747915215	1.8891867	1.3744769
33.23003072676643	1.8673888	1.3665243
33.248321576763466	2.0013113	1.4146771
33.266613298496885	1.9790596	1.4067905
33.28490589255747	1.9742227	1.4050703
33.30319935953626	2.0240545	1.4226927
33.32149370002451	2.028402	1.4242198
33.339788914613706	1.9476613	1.3955864
33.358085003895575	1.9201316	1.3856881
33.376381968462034	1.9411353	1.3932463
33.39467980890529	1.9203161	1.3857547
33.41297852581774	1.9392912	1.3925843
33.43127811979204	1.9779203	1.4063855
33.44957859142105	1.9613906	1.4004966
33.467879941297866	1.9340714	1.3907089
33.486182170015844	2.0377185	1.4274868
33.50448527816853	2.0044005	1.4157685
33.522789266349754	1.9743148	1.4051031
33.541094135153514	1.9951494	1.4124975
33.55939988517411	1.9188365	1.3852208
33.57770651700602	1.8518403	1.3608234
33.59601403124398	1.9704498	1.403727
33.61432242848296	1.9712633	1.4040169
33.632631709318154	1.9056698	1.38046
33.650941874344994	1.973899	1.4049551
33.66925292415916	1.9200832	1.3856707
33.68756485935654	1.8741384	1.3689917
33.70587768053328	1.9432248	1.393996
33.724191388285746	1.960253	1.4000903
33.74250598321054	1.8583288	1.3632053
33.760821465904506	1.820068	1.3490989
33.77913783696474	1.9507552	1.3966944
33.79745509698852	1.9923633	1.4115111
33.815773246573414	1.9487205	1.3959658
33.8340922863172	2.0105178	1.4179273
33.852412216817896	2.0371318	1.4272813
33.87073303867377	1.9447623	1.3945473
33.889054752483304	1.9764272	1.4058546
33.907377358845245	2.0823925	1.4430497
33.92570085835853	2.0927851	1.4466462
33.94402525162239	1.9132224	1.3831929
33.96235053923627	1.8377821	1.3556483
33.980676721799824	1.9340112	1.3906873
33.999003799912984	1.9684418	1.4030117
34.01733177417592	2.011019	1.418104
34.03566064518901	1.9508218	1.3967183
34.0539904135529	1.9817756	1.4077555
34.07232107986846	1.9013065	1.3788787
34.090652644736785	1.8239654	1.3505427
34.108985108759235	1.7742578	1.3320127
34.12731847253742	1.9065814	1.3807901
34.14565273667313	1.8975394	1.377512
34.16398790176847	1.7876557	1.3370324
34.18232396842574	1.7759243	1.3326381
34.20066093724749	1.929333	1.3890043
34.21899880883651	2.0091925	1.4174598
34.23733758379583	1.9736328	1.4048604
34.25567726272874	2.0646791	1.4368992
34.27401784623872	2.166162	1.4717888
34.29235933492957	2.0533504	1.4329517
34.31070172940526	1.7628936	1.3277401
34.32904503027003	1.856064	1.3623744
34.347389238128386	2.0611093	1.4356564
34.36573435358502	2.1194062	1.455818
34.38408037724492	2.0992079	1.4488643
34.402427309713296	2.2322028	1.4940559
34.42077515159559	2.2756288	1.5085187
34.43912390349752	2.1373978	1.4619842
34.45747356602499	2.0580416	1.4345876
34.47582413978423	2.0958889	1.4477185
34.49417562538163	2.0022528	1.4150099
34.51252802342388	1.9785215	1.4065993
34.53088133451789	2.0403955	1.4284241
34.54923555927084	2.0333438	1.4259536
34.567590698290104	1.9788384	1.4067119
34.58594675218336	2.0025308	1.4151081
34.6043037215585	1.9988962	1.4138232
34.62266160702365	2.053729	1.4330838
34.641020409187234	2.1548083	1.4679265
34.65938012865785	2.071942	1.4394243
34.677740766044394	1.8421557	1.3572603
34.69610232195598	1.8478824	1.3593683
34.714464797002016	1.8842462	1.3726785
34.73282819179208	1.8408182	1.3567675
34.751192506936064	1.8932663	1.3759601
34.76955774304408	2.0948062	1.4473445
34.7879239007265	2.1440752	1.4642661
34.80629098059391	2.1225517	1.456898
34.824658983257194	2.1276095	1.4586327
34.843027909327446	2.03286	1.425784
34.86139775941603	2.1106746	1.4528161
34.879768534134534	2.1080499	1.4519125
34.89814023409483	1.9247544	1.3873552
34.91651285990901	1.8668048	1.3663107
34.93488641218944	2.0184786	1.4207318
34.95326089154871	1.9871663	1.4096688
34.97163629859967	1.8687273	1.367014
34.99001263395542	1.8901923	1.3748426
35.00838989822934	2.0437021	1.429581
35.02676809203499	2.04418	1.4297482
35.04514721598624	2.0446866	1.4299253
35.063527270697215	1.9672767	1.4025964
35.081908256782256	2.101884	1.4497875
35.10029017485597	2.1959329	1.481868
35.11867302553321	2.2165585	1.4888111
35.137056809429104	2.298897	1.5162114
35.155441527159006	2.281636	1.5105085
35.173827179338524	1.9472213	1.3954287
35.19221376658354	1.9747804	1.4052688
35.21060128951017	2.23753	1.4958376
35.2289897487348	2.2581165	1.5027031
35.24737914487405	2.1303856	1.4595841
35.26576947854479	1.9046918	1.3801057
35.28416075036418	1.8772717	1.3701357
35.30255296094958	2.0632558	1.4364038
35.32094611091867	2.2340438	1.4946718
35.33934020088932	2.2752182	1.5083827
35.35773523147969	2.0786483	1.4417518
35.3761312033082	1.8105649	1.3455724
35.394528116993506	2.1028452	1.450119
35.41292597315452	2.3689353	1.5391346
35.431324772410434	2.3738346	1.5407254
35.449724515380666	2.1041486	1.4505684
35.46812520268491	1.9033215	1.3796092
35.486526834943106	2.0974727	1.4482654
35.504929412775454	2.2054431	1.4850734
35.52333293680242	2.2563002	1.5020986
35.54173740764471	2.5398588	1.5936935
35.560142825923286	2.5149145	1.5858482
35.5785491922594	2.2459686	1.4986556
35.59695650727454	2.0141866	1.4192204
35.61536477159042	0.4990961	0.70646733
