0.008763373481513119	0.0	0.0
0.026290120649546365	0.0	0.0
0.043816868432600686	0.0	0.0
0.06134361724069026	0.07129023	0.2670023
0.07887036748382949	0.07179485	0.26794562
0.0963971195720331	0.10669902	0.32664815
0.11392387391531617	0.0741333	0.27227432
0.1314506309236943	0.11079695	0.33286175
0.1489773910071836	0.12383557	0.35190278
0.16650415457580078	0.13353644	0.3654264
0.18403092203956356	0.14358425	0.3789251
0.20155769380849	0.19357754	0.4399745
0.2190844702925996	0.2255745	0.47494683
0.2366112519019124	0.17631607	0.41990006
0.2541380390464497	0.17363492	0.41669524
0.27166483213623416	0.16288647	0.40359196
0.28919163158128947	0.1601486	0.4001857
0.3067184377916406	0.16615768	0.40762442
0.324245251177314	0.12317339	0.35096067
0.34177207214833777	0.11920224	0.34525678
0.3592989011147415	0.14592375	0.38199967
0.37682573848655654	0.18343346	0.42829132
0.39435258467381573	0.17095134	0.4134626
0.41187944008655414	0.13998616	0.37414724
0.42940630513480854	0.14644878	0.38268626
0.446933180228618	0.13864863	0.37235552
0.4644600657780234	0.12083515	0.3476135
0.48198696219306775	0.1170293	0.34209546
0.49951386988379676	0.16456632	0.40566775
0.5170407892602581	0.19122693	0.43729502
0.5345677207325025	0.20481512	0.45256504
0.5520946647105822	0.20476413	0.45250872
0.5696216216045534	0.22796324	0.47745496
0.5871485918244737	0.20796002	0.45602635
0.6046755757804043	0.1882178	0.43384075
0.6222025738824094	0.1821933	0.42684105
0.6397295865405557	0.17920317	0.42332396
0.6572566141649129	0.18107785	0.42553243
0.6747836571655547	0.14497404	0.38075456
0.6923107159525568	0.15258236	0.39061794
0.7098377909359992	0.18447231	0.4295024
0.7273648825259653	0.20112224	0.44846654
0.7448919911325411	0.19777158	0.44471517
0.762419117165817	0.22131194	0.47043803
0.7799462610358868	0.24381988	0.4937812
0.7974734231528482	0.24356037	0.49351835
0.8150006039268024	0.20263067	0.45014516
0.8325278037678551	0.20321216	0.45079058
0.8500550230861152	0.2073776	0.4553873
0.8675822622916969	0.19316955	0.43951058
0.8851095217947171	0.16454417	0.40564045
0.9026368020052984	0.1561837	0.39520085
0.9201641033335665	0.13353613	0.36542594
0.9376914261896523	0.17633514	0.41992277
0.9552187709836915	0.19303167	0.4393537
0.9727461381258234	0.2599697	0.50987226
0.990273528026193	0.29144195	0.53985363
1.0078009410949496	0.28717896	0.5358908
1.0253283777422473	0.2898128	0.53834265
1.0428558383782454	0.30376878	0.5511522
1.0603833234131086	0.31002203	0.5567962
1.0779108332570058	0.31020528	0.55696076
1.0954383683201119	0.29577866	0.54385537
1.112965929012607	0.36838028	0.60694337
1.1304935157446763	0.5179851	0.71971184
1.1480211289265108	0.5461332	0.73900825
1.1655487689683062	1.2689371	1.126471
1.1830764362802655	1.4969116	1.2234834
1.200604131272596	1.8890928	1.3744427
1.2181318543555117	2.1959476	1.481873
1.235659605939232	2.240926	1.4969723
1.253187386433982	3.843583	1.9605058
1.270715196249994	6.1950493	2.4889855
1.2882430357975057	11.436864	3.3818433
1.3057709054867608	16.232672	4.028979
1.3232988057280106	21.821936	4.6713953
1.3408267369315112	26.668312	5.164137
1.358354699507526	30.212732	5.496611
1.3758826938663256	34.576584	5.8801856
1.3934107204181858	36.914677	6.075745
1.410938779573391	37.242805	6.1026883
1.4284668717422309	37.22969	6.101614
1.4459949973350033	36.371513	6.03088
1.4635231567620117	36.177357	6.0147614
1.4810513504335687	35.804707	5.9837036
1.4985795787599925	35.46905	5.95559
1.5161078421516088	34.771797	5.8967614
1.5336361410187505	34.008453	5.8316765
1.5511644757717598	34.077934	5.8376307
1.5686928468209842	34.852097	5.9035664
1.58622125457678	35.52078	5.959931
1.6037496994495108	36.77104	6.063913
1.621278181849548	37.1099	6.0917897
1.6388067021872719	37.505516	6.1241746
1.6563352608730693	36.546078	6.0453353
1.673863858317336	35.744625	5.978681
1.6913924949304753	35.155075	5.9291716
1.7089211711228998	34.53404	5.876567
1.7264498873050296	33.52679	5.790232
1.7439786438872935	32.6513	5.7141314
1.7615074412801288	31.63139	5.624179
1.779036279893981	30.840672	5.5534377
1.796565160139305	29.435732	5.425471
1.814094082426564	28.592686	5.347213
1.8316230471662298	28.068663	5.2979865
1.849152054768784	27.545122	5.248345
1.8666811056447168	27.303034	5.2252307
1.8842102002045273	26.539682	5.151668
1.901739338858724	25.910093	5.0901957
1.9192685220178245	25.482706	5.04804
1.9367977500923557	24.62486	4.962344
1.9543270234928547	24.104427	4.909626
1.971856342629867	23.294535	4.8264413
1.9893857079139496	22.683691	4.7627397
2.006915119755667	22.188345	4.7104506
2.0244445785655945	21.718124	4.6602707
2.0419740847543175	21.271553	4.612109
2.0595036387324317	20.883566	4.5698543
2.0770332409105414	20.736912	4.55378
2.094562891699263	20.278328	4.5031466
2.1120925915092217	19.576847	4.424573
2.129622340751053	19.152756	4.376386
2.1471521398354043	187.48398	13.692479
2.1646819891729323	443.9885	21.071035
2.182211889174303	440.1913	20.980738
2.1997418402501974	452.44168	21.270676
2.2172718428113023	432.37445	20.793615
2.234801897268317	320.563	17.904272
2.2523320040319548	17.071632	4.131783
2.269862163512935	16.854378	4.105408
2.287392376121992	16.306591	4.038142
2.304922642269869	15.903552	3.9879258
2.322452962367322	15.729319	3.9660206
2.3399833368251164	15.418996	3.926703
2.357513766054032	15.045399	3.87884
2.3750442504648586	14.790004	3.8457775
2.3925747904683963	14.4570875	3.8022478
2.410105386475459	14.399574	3.794677
2.4276360388968707	13.974509	3.7382495
2.445166748143469	13.783546	3.7126198
2.4626975146261025	13.38435	3.6584628
2.4802283387556323	13.1919565	3.6320734
2.4977592209429305	13.060894	3.6139858
2.5152901615988825	12.868202	3.5872276
2.5328211611343865	12.790918	3.5764394
2.5503522199603523	12.4177685	3.5238855
2.5678833384877024	12.224309	3.4963279
2.5854145171273712	12.092177	3.4773808
2.6029457562903064	11.835609	3.4402921
2.620477056387469	11.626444	3.4097571
2.6380084178298326	11.4968195	3.390696
2.655539841028383	11.51081	3.3927584
2.673071326394119	11.383688	3.3739722
2.6906028743380523	10.932969	3.306504
2.708134485271211	10.557703	3.2492619
2.7256661596046325	10.371427	3.22047
2.743197897749369	10.373992	3.220868
2.760729700116486	10.366785	3.2197492
2.778261567117063	10.347694	3.2167833
2.795793499162193	10.187606	3.191803
2.8133254966629817	9.848428	3.1382205
2.830857560030551	9.67468	3.1104147
2.8483896896760337	9.492809	3.0810404
2.865921886010578	9.498881	3.0820255
2.883454149445347	9.351283	3.0579867
2.9009864803915177	9.278381	3.0460436
2.91851887926028	9.166699	3.0276558
2.9360513464628384	9.097962	3.0162828
2.953583882410413	8.90117	2.9834828
2.9711164875142373	8.711753	2.951568
2.9886491621855606	8.641932	2.9397163
3.0061819068356455	8.477676	2.911645
3.023714721875769	8.4610615	2.9087903
3.041247607717225	8.363473	2.891967
3.0587805647713213	8.173673	2.8589635
3.0763135934493806	8.021058	2.8321474
3.0938466941627407	7.942814	2.8182998
3.1113798673227544	7.8278875	2.7978363
3.1289131133407904	7.795536	2.7920487
3.1464464326282315	7.63109	2.7624428
3.1639798255964786	7.590532	2.755092
3.1815132926569443	7.4289517	2.7256103
3.1990468342210603	7.4522066	2.729873
3.216580450700272	7.514721	2.7412992
3.2341141425060416	7.48498	2.7358692
3.251647910049847	7.4345293	2.7266333
3.2691817537431813	7.25812	2.69409
3.286715673997555	7.128534	2.6699314
3.3042496712244938	7.0609474	2.6572444
3.32178374583554	6.987452	2.643379
3.339317898242251	6.9418473	2.6347387
3.3568521288562034	6.812941	2.610161
3.3743864380889876	6.7460604	2.597318
3.3919208263522127	6.6044016	2.5699031
3.4094552940575023	6.611819	2.5713458
3.4269898416164972	6.659264	2.580555
3.444524469440858	6.5878706	2.5666847
3.4620591779422587	6.5961013	2.5682876
3.479593967532391	6.5304203	2.5554688
3.4971288386229658	6.4125338	2.532298
3.5146637916257086	6.35782	2.5214717
3.5321988269523628	6.342553	2.5184426
3.5497339450146903	6.4471273	2.5391195
3.5672691462244708	6.4436426	2.538433
3.5848044309934988	6.400944	2.5300088
3.60233979973359	6.4014087	2.5301006
3.619875252856575	6.413255	2.5324407
3.6374107907743034	6.396275	2.5290859
3.6549464138986427	6.2431703	2.4986336
3.6724821226414788	6.224187	2.494832
3.690017917414714	6.1940823	2.4887912
3.7075537986302702	6.2460284	2.4992056
3.7250897667000857	6.254909	2.5009816
3.7426258220361235	6.3361087	2.5171628
3.7601619650503553	6.641392	2.5770898
3.777698196154779	7.236526	2.6900792
3.7952345157614067	8.473182	2.910873
3.8127709242822716	9.32835	3.0542347
3.830307422129425	11.364367	3.3711076
3.847844009714936	30.014435	5.4785433
3.8653806874508954	97.4388	9.871109
3.882917455749409	96.78229	9.837799
3.900454315022606	96.621475	9.829622
3.917991265682631	41.07177	6.408726
3.9355283081416506	10.712009	3.2729206
3.9530654428118495	8.621794	2.936289
3.970602670105433	7.42185	2.7243073
3.9881399904346244	6.574767	2.5641308
4.005677404211669	6.4736443	2.5443356
4.023214911848827	6.346888	2.519303
4.0407525137583855	6.253076	2.5006151
4.058290210352644	6.251588	2.5003176
4.075828002043927	6.2294483	2.4958863
4.0933658892445814	6.1115165	2.4721482
4.110903872366966	6.1262584	2.475128
4.128441951823468	6.077069	2.465171
4.145980128026488	6.164256	2.482792
4.163518401388452	6.1245875	2.4747903
4.181056772321807	6.1097593	2.4717927
4.1985952412390155	6.015001	2.45255
4.216133808552567	6.0841413	2.4666052
4.233672474674966	6.150449	2.4800098
4.251211240018741	6.321885	2.5143359
4.268750104996445	6.5283594	2.5550654
4.286289070020643	7.4424086	2.728078
4.303828135503928	9.016247	3.0027065
4.3213673018589125	29.344263	5.4170346
4.3389065694982305	90.583786	9.517551
4.356445938834537	165.78725	12.875839
4.3739854102805085	171.1187	13.081235
4.391524984248844	171.91756	13.111733
4.409064661152262	136.1303	11.667489
4.426604441403504	96.24508	9.810457
4.444144325415337	75.614	8.695631
4.461684313600543	21.506735	4.6375356
4.47922440637193	22.015003	4.6920147
4.496764604142329	20.349823	4.511078
4.5143049073245916	18.45413	4.295827
4.531845316331589	16.31225	4.0388427
4.5493858315762195	13.341671	3.6526253
4.566926453471405	11.051341	3.3243558
4.584467182430081	9.018554	3.0030906
4.602008018865218	7.912896	2.812987
4.619548963189798	7.327178	2.706876
4.637090015816834	6.849439	2.6171434
4.654631177159353	6.5895047	2.567003
4.672172447630417	6.363651	2.5226278
4.689713827643102	6.2324076	2.496479
4.7072553176105085	6.0597634	2.4616587
4.724796917945764	5.922373	2.4335926
4.742338629062015	5.801034	2.4085336
4.759880451372434	5.6788087	2.3830252
4.777422385290215	5.5993247	2.3662891
4.794964431228581	5.514774	2.3483555
4.812506589600768	5.4609404	2.3368654
4.830048860820047	5.446734	2.333824
4.847591245299709	5.468279	2.3384352
4.8651337434530655	5.54358	2.3544807
4.882676355693457	5.5734916	2.3608243
4.900219082434242	5.6419573	2.3752804
4.917761924088813	5.5771737	2.361604
4.935304881070575	5.5303445	2.3516684
4.952847953792969	5.4448094	2.3334115
4.970391142669449	5.394692	2.3226476
4.9879344481135055	5.3079042	2.303889
5.005477870538642	5.2600646	2.293483
5.023021410358394	5.348119	2.3126
5.040565067986324	5.3767414	2.3187802
5.05810884383601	5.361463	2.3154833
5.075652738321066	5.25371	2.2920973
5.09319675185512	5.268055	2.2952244
5.110740884851836	5.2707205	2.295805
5.128285137724894	5.2847824	2.2988656
5.145829510888007	5.25267	2.2918704
5.163374004754908	5.305143	2.3032897
5.1809186197393595	5.345822	2.3121033
5.198463356255145	5.2314773	2.2872422
5.216008214716077	5.0964727	2.257537
5.233553195535998	4.9338727	2.2212322
5.251098299128764	5.041524	2.245334
5.268643525908272	5.1490602	2.269154
5.286188876288432	5.236182	2.2882705
5.3037343506831895	5.2657447	2.2947211
5.32127994950651	5.2204275	2.2848256
5.3388256731723915	5.19342	2.2789075
5.356371522094851	5.1793327	2.2758148
5.373917496687938	5.2107315	2.2827027
5.391463597365729	5.1704345	2.273859
5.40900982454232	5.107072	2.2598832
5.426556178631843	5.0349736	2.2438748
5.444102660048449	5.0308957	2.242966
5.4616492692063225	5.0651445	2.2505877
5.479196006519669	5.1172814	2.262141
5.496742872402727	5.147395	2.2687871
5.514289867269756	5.1199756	2.2627363
5.531836991535049	5.0864396	2.2553136
5.549384245612924	5.03219	2.2432542
5.566931629917724	4.9914536	2.2341561
5.584479144863822	4.929534	2.2202554
5.6020267908656205	4.950612	2.224997
5.619574568337545	5.009595	2.2382123
5.637122477694054	5.0597334	2.249385
5.654670519349629	5.047913	2.246756
5.672218693718784	5.0363607	2.2441838
5.689767001216059	5.077068	2.2532349
5.707315442256021	5.1344905	2.2659414
5.724864017253266	5.1707106	2.2739196
5.7424127266224225	5.120337	2.2628162
5.75996157077814	5.131523	2.2652864
5.777510550135105	5.157467	2.2710056
5.795059665108022	5.1712594	2.2740402
5.812608916111639	5.2469883	2.2906306
5.830158303560715	5.3276987	2.3081808
5.847707827870055	5.3094907	2.3042333
5.86525748945448	5.3276916	2.3081794
5.8828072887288485	5.351548	2.3133414
5.900357226108044	5.4271226	2.3296185
5.917907302006979	5.4725137	2.3393404
5.9354575168406	6.112644	2.472376
5.9530078710238765	6.7118263	2.5907192
5.970558364971812	7.233379	2.6894941
5.988108999099438	7.584654	2.754025
6.005659773821818	8.159285	2.8564463
6.023210689554039	7.9456725	2.818807
6.040761746711227	8.471973	2.9106655
6.058312945708531	7.822904	2.7969456
6.075864286961132	7.3294673	2.707299
6.093415770884244	6.628694	2.574625
6.1109673978931065	6.069521	2.4636397
6.128519168402993	5.5614123	2.3582647
6.146071082829204	5.3996396	2.3237123
6.163623141587075	5.229414	2.286791
6.181175345091969	5.1632752	2.272284
6.198727693759281	5.154536	2.2703602
6.216280188004435	5.1598434	2.271529
6.233832828242885	5.090979	2.2563198
6.251385614890126	5.1068482	2.2598336
6.268938548361669	5.0950456	2.2572207
6.286491629073067	5.0574665	2.248881
6.304044857439898	4.961491	2.2274406
6.321598233877777	4.8688836	2.2065547
6.339151758802344	4.8340154	2.1986394
6.356705432629277	4.896001	2.2126908
6.37425925577428	4.9010844	2.2138393
6.391813228653095	4.8885584	2.2110085
6.409367351681486	4.8907948	2.2115142
6.426921625275259	4.8953924	2.2125533
6.44447604985025	4.8964014	2.2127814
6.46203062582232	4.8689556	2.206571
6.47958535360737	4.866734	2.2060676
6.497140233621328	4.894943	2.212452
6.514695266280161	4.884844	2.2101684
6.532250451999859	4.901164	2.2138572
6.549805791196454	4.8953443	2.2125425
6.567361284286002	4.913029	2.2165353
6.584916931684597	4.929299	2.2202024
6.602472733808367	4.934652	2.2214077
6.6200286910734665	4.9260926	2.2194803
6.637584803896092	4.958804	2.2268372
6.655141072692462	4.9490943	2.224656
6.672697497878842	5.0030866	2.236758
6.690254079871514	4.965918	2.228434
6.707810819086808	4.9700055	2.2293508
6.725367715941078	4.88779	2.2108347
6.742924770850719	4.877642	2.2085385
6.760481984232151	4.883351	2.2098305
6.778039356501836	4.805727	2.1921968
6.795596888076266	4.8123503	2.193707
6.813154579371963	4.884562	2.2101045
6.830712430805492	4.9111786	2.2161179
6.84827044279344	4.973754	2.2301915
6.865828615752445	4.974354	2.230326
6.883386950099159	4.9617524	2.2274992
6.900945446250287	4.941352	2.2229152
6.918504104622553	4.8770347	2.208401
6.936062925632727	4.928062	2.219924
6.953621909697607	4.9647527	2.2281725
6.971181057234028	5.0139055	2.239175
6.988740368658859	5.0508094	2.2474005
7.006299844389007	5.1050816	2.2594428
7.023859484841407	5.1864824	2.277385
7.041419290433036	5.303055	2.3028362
7.058979261580902	5.428526	2.3299198
7.0765393987020495	5.6088824	2.3683078
7.094099702213559	5.9400945	2.4372308
7.111660172532549	6.307258	2.5114255
7.129220810076164	6.6962295	2.5877073
7.146781615261595	7.2338834	2.689588
7.16434258850606	7.4414554	2.7279031
7.181903730226821	7.862703	2.8040512
7.1994650408411704	7.987147	2.826154
7.217026520766437	8.140909	2.8532279
7.234588170419983	8.388557	2.8963006
7.252149990219215	8.413242	2.900559
7.269711980581568	8.324546	2.8852289
7.2872741419245175	8.164491	2.8573573
7.304836474665574	7.7407684	2.7822237
7.322398979222286	7.423957	2.724694
7.339961656012233	7.0883417	2.662394
7.357524505453039	6.808519	2.609314
7.375087527962357	6.54231	2.557794
7.392650723957886	6.230877	2.4961724
7.410214093857353	5.852375	2.4191682
7.427777638078528	5.6469646	2.3763342
7.445341357039213	5.5113077	2.3476174
7.4629052511572525	5.376382	2.3187027
7.480469320850524	5.262034	2.2939124
7.498033566536948	5.0888796	2.2558546
7.5155979886344735	4.9905148	2.233946
7.5331625875610975	4.9524703	2.2254148
7.550727363734844	5.0168366	2.2398295
7.568292317573788	5.071132	2.2519174
7.585857449496025	5.129071	2.2647452
7.603422759919705	5.096669	2.2575803
7.620988249263007	5.0899477	2.2560914
7.638553917944147	5.069006	2.2514453
7.656119766381391	5.073384	2.2524173
7.673685794993023	5.158692	2.2712753
7.691252004197388	5.1731744	2.2744613
7.70881839441285	5.151515	2.2696948
7.726384966057826	5.0812025	2.2541523
7.743951719550762	5.0722632	2.2521687
7.761518655310149	5.0862236	2.2552657
7.779085773754511	5.1389112	2.2669168
7.796653075302419	5.176612	2.2752168
7.814220560372475	5.2632985	2.294188
7.831788229383323	5.244535	2.2900949
7.8493560827536495	5.2298474	2.286886
7.866924120902174	5.260758	2.2936342
7.884492344247663	5.292699	2.3005867
7.9020607532089135	5.306439	2.303571
7.919629348204771	5.347493	2.3124647
7.937198129654115	5.358392	2.31482
7.954767097975865	5.3269444	2.3080175
7.972336253588986	5.3165865	2.3057725
7.989905596912472	5.2732124	2.2963476
8.007475128365371	5.2977896	2.3016927
8.025044848366756	5.29445	2.3009672
8.042614757335754	5.3955927	2.3228414
8.060184855691523	5.4926534	2.343641
8.07775514385327	5.6901913	2.3854122
8.095325622240228	5.7402697	2.395886
8.112896291271687	5.8170605	2.4118583
8.130467151366968	5.825283	2.4135623
8.148038202945436	5.782351	2.4046519
8.165609446426497	5.762313	2.4004817
8.183180882229594	5.804913	2.4093387
8.200752510774217	5.8628845	2.4213395
8.218324332479893	5.8792996	2.4247267
8.235896347766193	5.8254695	2.413601
8.253468557052724	5.863591	2.4214854
8.27104096075914	5.902508	2.4295077
8.288613559305137	6.0043993	2.4503875
8.306186353110448	6.0933914	2.4684796
8.32375934259485	6.182982	2.4865603
8.341332528178162	6.218382	2.4936683
8.358905910280246	6.3026347	2.510505
8.376479489321003	6.1955824	2.4890926
8.394053265720377	6.1795874	2.4858775
8.411627239898356	6.1084747	2.4715328
8.42920141227497	6.166441	2.483232
8.44677578327029	6.174576	2.4848695
8.464350353304427	6.141639	2.478233
8.48192512279754	6.10435	2.4706984
8.499500092169827	6.082756	2.4663243
8.51707526184153	6.0039053	2.4502869
8.534650632232934	6.004506	2.4504094
8.552226203764365	6.011031	2.4517405
8.569801976856192	6.146376	2.4791887
8.587377951928834	6.212853	2.4925594
8.60495412940274	6.2745833	2.504912
8.622530509698416	6.2567463	2.501349
8.6401070932364	6.369443	2.5237756
8.657683880437283	6.4126744	2.532326
8.675260871721695	6.5017524	2.5498533
8.692838067510303	6.6495714	2.5786762
8.710415468223834	6.83255	2.6139147
8.727993074283043	7.0007477	2.6458926
8.745570886108737	6.9766026	2.641326
8.763148904121765	6.948737	2.6360457
8.78072712874302	6.972043	2.6404626
8.798305560393441	7.28289	2.698683
8.815884199494006	7.488637	2.7365375
8.833463046465745	7.61163	2.7589183
8.851042101729728	7.7308135	2.7804341
8.86862136570707	7.9838047	2.8255627
8.886200838818924	8.174623	2.8591297
8.903780521486505	8.315693	2.8836944
8.921360414131055	8.410136	2.9000235
8.938940517173874	8.554484	2.924805
8.956520831036297	8.70748	2.950844
8.97410135613971	8.921777	2.9869344
8.99168209290554	9.108116	3.0179656
9.009263041755265	9.399966	3.0659363
9.026844203110405	9.708564	3.115857
9.044425577392525	9.884228	3.1439192
9.062007165023239	9.889888	3.1448193
9.079588966424197	10.160215	3.1875093
9.097170982017108	10.252765	3.201994
9.11475321222372	11.2485485	3.3538857
9.132335657465825	12.103182	3.4789627
9.149918318165264	12.195752	3.4922416
9.167501194743924	12.936846	3.5967827
9.18508428762374	12.681942	3.5611715
9.202667597226693	12.628771	3.5536983
9.220251123974803	12.221244	3.4958897
9.237834868290143	11.883473	3.4472413
9.255418830594836	11.695122	3.4198132
9.273003011311046	11.239594	3.3525505
9.290587410860985	11.053366	3.3246603
9.308172029666911	10.40404	3.2255294
9.32575686815113	10.033388	3.1675525
9.343341926735997	8.701694	2.9498632
9.360927205843916	8.434901	2.9042902
9.378512705897327	8.232442	2.869223
9.396098427318728	7.959995	2.8213463
9.413684370530664	7.849664	2.8017251
9.431270535955722	7.7625427	2.786134
9.448856924016539	7.6913786	2.7733335
9.466443535135806	7.608384	2.7583299
9.484030369736251	7.6603546	2.7677345
9.501617428240658	7.6963186	2.774224
9.519204711071852	7.7462673	2.7832117
9.536792218652714	7.761058	2.7858675
9.55437995140617	7.752987	2.7844186
9.571967909755191	7.761599	2.7859647
9.589556094122802	7.779156	2.7891138
9.60714450493207	7.8584213	2.8032875
9.624733142606116	7.8847637	2.8079822
9.642322007568108	7.931102	2.8162212
9.659911100241267	7.9521394	2.8199537
9.677500421048851	7.98201	2.8252451
9.695089970414175	8.023816	2.8326342
9.712679748760609	8.022627	2.8324242
9.730269756511557	8.120616	2.8496695
9.747859994090492	8.104499	2.8468401
9.765450461920915	8.090393	2.8443615
9.78304116042639	8.105134	2.8469517
9.800632090030527	8.104268	2.8467996
9.81822325115699	8.168241	2.8580134
9.835814644229481	8.159537	2.8564904
9.853406269671762	8.216253	2.8664007
9.870998127907646	8.225344	2.867986
9.888590219360985	8.228273	2.8684967
9.906182544455698	8.243257	2.871107
9.923775103615734	8.241875	2.8708665
9.941367897265108	8.272025	2.876113
9.958960925827878	8.272621	2.8762164
9.97655418972816	8.225713	2.8680503
9.994147689390106	8.175178	2.8592267
10.011741425237934	8.204577	2.8643634
10.029335397695904	8.302314	2.8813736
10.04692960718833	8.347293	2.8891683
10.06452405413958	8.342182	2.8882835
10.082118738974064	8.27605	2.8768125
10.099713662116246	8.19554	2.8627853
10.117308823990651	8.153806	2.8554869
10.134904225021844	8.197965	2.8632088
10.152499865634445	8.198964	2.8633833
10.170095746253125	8.1521635	2.8551993
10.18769186730261	8.053994	2.837956
10.205288229207675	8.033795	2.8343952
10.222884832393145	8.080579	2.8426359
10.2404816772839	8.066367	2.840135
10.258078764304868	7.9937444	2.827321
10.275676093881035	7.94529	2.8187392
10.293273666437438	7.8917036	2.8092177
10.310871482399158	7.949597	2.8195028
10.32846954219134	7.9364853	2.8171768
10.346067846239173	7.9812946	2.8251185
10.363666394967908	7.998222	2.8281128
10.38126518880283	7.976718	2.8243084
10.398864228169298	8.052561	2.8377035
10.416463513492713	8.098553	2.8457956
10.434063045198531	8.143268	2.853641
10.451662823712262	8.106829	2.8472493
10.469262849459467	8.13731	2.852597
10.486863122865758	8.066686	2.8401911
10.504463644356806	7.9903274	2.8267167
10.522064414358338	7.9562488	2.8206823
10.539665433296118	7.892893	2.8094292
10.557266701595987	7.9546785	2.820404
10.574868219683818	7.867536	2.8049128
10.592469987985552	7.744026	2.782809
10.610072006927185	7.608779	2.7584016
10.627674276934751	7.489009	2.7366054
10.64527679843435	7.356208	2.712233
10.662879571852143	7.2369337	2.690155
10.680482597614331	7.1726584	2.678182
10.698085876147173	7.140089	2.6720946
10.715689407876988	6.996083	2.645011
10.733293193230146	6.8071165	2.609045
10.750897232633072	6.631243	2.57512
10.76850152651225	6.501813	2.5498652
10.786106075294207	6.514684	2.552388
10.803710879405534	6.485186	2.546603
10.821315939272877	6.4746346	2.5445304
10.83892125532294	6.373463	2.524572
10.856526827982472	6.3004184	2.5100634
10.874132657678285	6.203338	2.4906502
10.891738744837243	6.132455	2.4763794
10.909345089886271	6.0694075	2.4636168
10.926951693252343	6.0078816	2.451098
10.944558555362494	5.93793	2.436787
10.96216567664381	5.9212155	2.4333549
10.979773057523436	5.877524	2.4243605
10.997380698428573	5.792067	2.4066713
11.014988599786477	5.7095523	2.389467
11.032596762024461	5.627152	2.3721619
11.050205185569892	5.5757356	2.3612995
11.067813870850198	5.535415	2.3527462
11.085422818292859	5.4883738	2.342728
11.10303202832541	5.4030867	2.324454
11.120641501375454	5.3401628	2.3108792
11.138251237870636	5.294217	2.3009167
11.155861238238671	5.2846794	2.2988431
11.173471502907317	5.212586	2.2831087
11.191082032304402	5.1060166	2.2596498
11.208692826857805	5.082256	2.254386
11.226303886995465	5.036373	2.2441864
11.243915213145371	5.0071588	2.237668
11.261526805735578	4.898755	2.213313
11.279138665194196	4.8081965	2.19276
11.296750791949393	4.7441607	2.1781094
11.314363186429393	4.7091002	2.170046
11.331975849062479	4.654529	2.1574357
11.34958878027699	4.6015434	2.1451209
11.36720198050133	4.55495	2.134233
11.384815450163948	4.5600095	2.135418
11.402429189693366	4.5225825	2.1266365
11.420043199518153	4.4802394	2.1166575
11.437657480066942	63.412167	7.963176
11.455272031768422	85.1326	9.226733
11.472886855051353	107.47534	10.367031
11.490501950344528	99.067505	9.953266
11.508117318076819	84.43784	9.189007
11.52573295867715	45.831245	6.769878
11.543348872574514	4.1368694	2.0339296
11.560965060197946	4.1159678	2.0287848
11.57858152197655	4.0567627	2.0141406
11.59619825833949	4.014281	2.003567
11.613815269715985	3.9458573	1.9864182
11.631432556535323	38.447582	6.2006116
11.649050119226837	82.94308	9.107309
11.666667958219929	93.373055	9.662973
11.68428607394406	107.65877	10.3758745
11.701904466828756	82.50775	9.083378
11.719523137303586	65.34142	8.083405
11.737142085798196	4.584964	2.1412528
11.754761312742286	3.7354317	1.9327265
11.772380818565619	3.6801922	1.9183828
11.790000603698015	3.6869318	1.9201385
11.80762066856935	3.6087158	1.899662
11.825241013609572	3.5536532	1.8851136
11.842861639248683	3.510621	1.8736651
11.860482545916748	3.4664967	1.861853
11.878103734043883	3.4158268	1.8481956
11.895725204060282	3.3730152	1.836577
11.91334695639619	3.3496003	1.8301914
11.930968991481919	3.3350787	1.8262198
11.948591309747824	3.274712	1.8096166
11.966213911624347	3.2659745	1.8072008
11.98383679754198	3.2853563	1.8125552
12.001459967931268	3.2897863	1.8137769
12.019083423222835	3.253483	1.8037415
12.036707163847352	3.2260187	1.7961121
12.05433119023556	3.206239	1.7905974
12.071955502818259	3.1769958	1.7824129
12.089580102026313	3.1329772	1.7700218
12.107204988290643	3.13149	1.7696017
12.12483016204224	3.131307	1.76955
12.142455623712152	3.1167588	1.7654345
12.16008137373149	3.0670552	1.751301
12.177707412531431	3.0083416	1.7344571
12.19533374054321	2.9784138	1.7258081
12.212960358198126	3.004454	1.7333361
12.230587265927545	3.0663848	1.7511096
12.248214464162889	3.0876265	1.7571644
12.265841953335649	3.0614967	1.7497133
12.283469733877375	3.0141504	1.7361308
12.301097806219685	2.9822338	1.7269145
12.31872617079425	2.9385588	1.7142226
12.336354828032825	2.8829422	1.697923
12.353983778367205	2.8527856	1.6890191
12.371613022229262	2.864106	1.692367
12.389242560050928	2.8699307	1.694087
12.406872392264201	2.8469758	1.6872984
12.424502519301143	2.8668783	1.6931858
12.442132941593874	2.8241909	1.6805329
12.459763659574586	2.7904587	1.6704667
12.477394673675532	2.743534	1.6563617
12.49502598432903	2.7416866	1.6558039
12.51265759196746	2.762205	1.6619883
12.530289497023267	2.7874284	1.6695594
12.547921699928967	2.791617	1.6708132
12.565554201117134	2.7887018	1.6699406
12.583187001020404	2.809611	1.6761894
12.600820100071486	2.784446	1.6686659
12.618453498703152	2.739404	1.6551145
12.636087197348235	2.7059922	1.6449901
12.65372119643964	2.7417471	1.6558222
12.671355496410326	2.7784545	1.6668696
12.68899009769333	2.8192334	1.6790574
12.706625000721749	2.8528564	1.6890401
12.724260205928752	2.943576	1.7156854
12.741895713747551	2.9504254	1.7176802
12.759531524611454	2.973081	1.7242625
12.777167638953818	2.9806986	1.72647
12.794804057208072	3.005074	1.7335149
12.812440779807702	3.061013	1.7495751
12.830077807186271	3.2151954	1.7930965
12.847715139777405	3.2223027	1.7950773
12.865352778014795	3.4239678	1.8503966
12.882990722332197	3.5316052	1.8792566
12.90062897316344	3.5965817	1.8964655
12.918267530942412	3.6589122	1.9128283
12.935906396103071	3.5391302	1.8812577
12.953545569079449	3.6920981	1.9214833
12.971185050305628	3.5062087	1.8724873
12.988824840215775	3.5067189	1.8726236
13.006464939244115	3.5318828	1.8793304
13.024105347824943	3.4054585	1.8453884
13.041746066392617	3.5059667	1.8724227
13.05938709538157	3.3429844	1.828383
13.077028435226296	3.3803496	1.8385727
13.094670086361363	3.2879388	1.8132675
13.112312049221401	3.2018394	1.7893684
13.129954324241112	3.0790882	1.7547331
13.147596911855258	2.84756	1.6874715
13.165239812498685	2.8089151	1.6759819
13.182883026606293	2.779256	1.6671101
13.200526554613058	2.7421336	1.6559389
13.218170396954017	2.6927342	1.6409553
13.235814554064284	2.6436872	1.625942
13.253459026379034	2.6450567	1.626363
13.271103814333523	2.6497824	1.6278152
13.288748918363058	2.6620696	1.631585
13.306394338903031	2.672764	1.6348591
13.32404007638889	2.6705358	1.6341774
13.341686131256164	2.6979685	1.6425494
13.359332503940449	2.6915512	1.6405947
13.376979194877402	2.6721134	1.63466
13.394626204502751	2.6751597	1.6355915
13.412273533252307	2.7039542	1.6443704
13.429921181561937	2.6935637	1.641208
13.447569149867581	2.7093694	1.6460162
13.465217438605247	2.689953	1.6401076
13.482866048211022	2.6354725	1.6234138
13.500514979121052	2.6052043	1.6140646
13.518164231771568	2.6029882	1.6133779
13.535813806598844	2.5931392	1.6103227
13.553463704039254	2.5941532	1.6106375
13.571113924529229	2.592007	1.609971
13.588764468505275	2.6179397	1.6180048
13.606415336403956	2.6549306	1.6293957
13.624066528661917	2.6863441	1.6390071
13.641718045715882	2.7253458	1.6508621
13.659369888002635	2.7790906	1.6670605
13.67702205595903	2.8187573	1.6789155
13.694674550021993	2.9344337	1.7130189
13.712327370628532	3.0018654	1.7325892
13.729980518215713	3.0945873	1.759144
13.747633993220681	3.1336527	1.7702127
13.765287796080647	3.157337	1.7768897
13.7829419272329	3.2043426	1.7900678
13.800596387114801	3.2036927	1.7898862
13.818251176163775	3.2377913	1.7993864
13.835906294817324	3.2926698	1.8145715
13.853561743513023	3.3579533	1.832472
13.871217522688525	3.4339845	1.8531014
13.888873632781538	3.4996216	1.8707275
13.906530074229858	3.5402193	1.8815471
13.92418684747135	3.5196788	1.8760808
13.941843952943948	3.4858174	1.8670344
13.959501391085665	3.4219491	1.8498511
13.977159162334578	3.3409593	1.8278291
13.994817267128846	3.3089209	1.819044
14.012475705906693	3.2367237	1.7990897
14.030134479106424	3.1902676	1.786132
14.047793587166414	3.101086	1.76099
14.065453030525108	3.0568755	1.7483922
14.083112809621026	3.0153182	1.7364671
14.100772924892766	2.9495738	1.7174323
14.118433376778997	2.8965814	1.7019346
14.136094165718458	2.7929971	1.6712263
14.153755292149969	2.7304695	1.6524132
14.171416756512416	2.6886294	1.6397041
14.189078559244768	2.655471	1.6295617
14.20674070078606	2.5825608	1.6070348
14.224403181575408	2.5283277	1.5900716
14.242066002051999	2.5108902	1.5845789
14.259729162655093	2.474686	1.5731134
14.277392663824022	2.4524581	1.5660326
14.295056505998208	2.4399836	1.5620447
14.312720689617128	2.446122	1.5640082
14.330385215120348	2.4330652	1.5598285
14.348050082947497	2.4067028	1.5513551
14.3657152935383	2.3611758	1.5366118
14.383380847332528	2.3828633	1.5436525
14.401046744770051	2.4350514	1.5604651
14.418712986290798	2.43589	1.5607338
14.436379572334793	2.436512	1.560933
14.454046503342123	2.4202337	1.5557101
14.471713779752946	2.411944	1.5530435
14.489381402007504	2.4028378	1.5501089
14.507049370546113	2.391245	1.546365
14.524717685809168	2.4160216	1.5543557
14.542386348237134	2.440156	1.5620998
14.560055358270553	2.454847	1.5667951
14.577724716350051	2.4570801	1.5675076
14.595394422916325	2.4066195	1.5513283
14.61306447841015	2.395417	1.5477135
14.63073488327237	2.3880148	1.5453203
14.648405637943917	2.4375885	1.5612779
14.6660767428658	2.4337735	1.5600556
14.683748198479094	2.467692	1.5708889
14.701420005224954	2.4827979	1.5756897
14.719092163544628	2.5707424	1.6033535
14.73676467387942	2.6192706	1.6184161
14.754437536670727	2.6675398	1.6332605
14.772110752360014	2.6490934	1.6276035
14.78978432138882	2.6577492	1.6302605
14.807458244198777	2.6425705	1.6255985
14.82513252123159	2.6225944	1.6194426
14.842807152929028	2.642838	1.6256808
14.860482139732962	2.6514845	1.628338
14.87815748208531	2.651422	1.6283188
14.8958331804281	2.6270485	1.6208172
14.91350923520342	2.6102474	1.615626
14.931185646853438	2.6411445	1.6251599
14.948862415820408	2.6394634	1.6246426
14.966539542546656	2.6465278	1.6268152
14.98421702747459	2.6215298	1.6191139
15.001894871046696	2.6663637	1.6329004
15.019573073705542	2.673325	1.6350306
15.037251635893766	2.6381788	1.6242472
15.054930558054092	2.614652	1.6169885
15.072609840629323	2.6286235	1.621303
15.090289484062351	2.7477078	1.6576211
15.107969488796124	2.93787	1.7140216
15.125649855273691	3.153176	1.7757185
15.14333058393817	3.514502	1.8747005
15.161011675232768	4.051086	2.012731
15.17869312960076	4.6635904	2.1595347
15.196374947485506	5.337416	2.3102849
15.214057129330447	6.6383414	2.5764978
15.231739675579114	8.761389	2.9599643
15.249422586675102	13.481977	3.6717813
15.267105863062092	18.120592	4.256829
15.284789505183847	25.592405	5.0588937
15.302473513484218	30.727083	5.5432014
15.320157888407127	35.04278	5.9196944
15.337842630396578	33.82885	5.8162575
15.355527739896656	30.893389	5.5581822
15.37321321735153	24.059483	4.9050465
15.39089906320545	16.347681	4.0432267
15.408585277902748	10.407077	3.226
15.42627186188783	6.420288	2.5338287
15.443958815605198	4.5600653	2.135431
15.461646139499424	3.775505	1.9430659
15.479333834015168	3.3658605	1.8346281
15.497021899597165	3.0652268	1.7507789
15.514710336690234	2.818629	1.6788774
15.53239914573928	2.7158208	1.6479747
15.550088327189297	2.6315835	1.6222156
15.567777881485336	2.5631673	1.6009895
15.58546780907256	2.4815583	1.5752963
15.6031581103962	2.4510152	1.5655719
15.620848785901568	2.463328	1.5694993
15.638539836034063	2.492926	1.5789002
15.656231261239173	2.5081434	1.5837119
15.673923061962451	2.4981313	1.5805478
15.691615238649552	2.4783275	1.5742705
15.709307791746202	2.4676945	1.5708897
15.727000721698221	2.4509907	1.565564
15.744694028951498	2.4122589	1.5531448
15.76238771395202	2.3402367	1.5297832
15.780081777145844	2.3570797	1.5352784
15.797776218979125	2.3429065	1.5306556
15.815471039898094	2.3882005	1.5453804
15.833166240349064	2.4044845	1.55064
15.850861820778437	2.4614415	1.5688982
15.868557781632699	2.459929	1.5684161
15.886254123358412	2.4348726	1.5604079
15.903950846402232	2.460525	1.5686061
15.921647951210897	2.474153	1.572944
15.939345438231225	2.4870446	1.5770366
15.957043307910133	2.4734917	1.5727339
15.974741560694602	2.477168	1.5739021
15.992440197031714	2.4775424	1.5740211
16.01013921736862	2.4887366	1.5775731
16.02783862215259	2.489216	1.5777249
16.045538411830933	2.5270376	1.5896659
16.06323858685107	2.5337617	1.5917795
16.080939147660512	2.5131266	1.5852844
16.09864009470684	2.4775496	1.5740234
16.11634142843774	2.4306378	1.5590503
16.134043149300954	2.4168928	1.5546359
16.15174525774433	2.4088335	1.5520418
16.169447754215817	2.4706016	1.5718148
16.18715063916342	2.4504712	1.5653981
16.204853913035244	2.424031	1.55693
16.222557576279478	2.4045935	1.5506752
16.240261629344403	22.418093	4.734775
16.257966072678386	42.98241	6.556097
16.275670906729868	38.119072	6.1740646
16.293376131947387	2.5349424	1.5921502
16.31108174877957	2.547735	1.5961626
16.328787757675133	2.537913	1.5930829
16.34649415908287	2.5421472	1.5944113
16.364200953451657	2.6152453	1.617172
16.38190814123048	2.6509802	1.6281831
16.39961572286839	2.6566958	1.6299374
16.41732369881455	2.6475656	1.6271342
16.43503206951817	2.6568441	1.6299828
16.45274083542859	2.6944027	1.6414636
16.47044999699522	2.738763	1.6549208
16.488159554667558	2.7790735	1.6670554
16.505869508895184	2.8323424	1.6829565
16.523579860127786	2.9190207	1.7085142
16.541290608815117	3.0090702	1.7346672
16.559001755407035	3.1235101	1.7673455
16.57671330035348	3.2294245	1.79706
16.59442524410448	3.3300028	1.8248296
16.61213758711015	3.4546006	1.8586556
16.629850329820705	3.5213292	1.8765205
16.647563472686436	3.5300238	1.8788358
16.665277016157724	3.4538174	1.8584449
16.682990960685053	3.4227288	1.8500618
16.70070530671898	3.4085612	1.846229
16.718420054710155	3.469454	1.862647
16.736135205109335	3.5209227	1.8764122
16.753850758367335	3.614178	1.9010991
16.771566714935087	3.6762738	1.9173611
16.789283075263597	3.7188644	1.9284358
16.80699983980398	3.7227213	1.9294355
16.82471700900741	3.7698822	1.9416184
16.84243458332518	3.8502052	1.962194
16.860152563208665	3.913052	1.9781436
16.87787094910932	3.946196	1.9865035
16.89558974147871	3.9976082	1.9994019
16.913308940768466	4.0792613	2.0197182
16.931028547430333	4.1336565	2.0331395
16.94874856191613	4.1768336	2.0437303
16.966468984677785	4.2277913	2.0561593
16.98418981616729	4.2867084	2.0704367
17.00191105683676	4.3606043	2.088206
17.019632707138374	4.429043	2.1045291
17.03735476752442	4.473024	2.1149526
17.05507723844728	4.509614	2.1235852
17.072800120359403	4.564797	2.1365385
17.090523413713353	4.6215105	2.1497698
17.108247118961785	4.641393	2.1543894
17.125971236557437	4.6360493	2.1531487
17.143695766953133	4.6292715	2.1515741
17.161420710601806	4.590965	2.1426537
17.179146067956477	4.5552096	2.1342938
17.19687183947025	4.6192803	2.1492512
17.21459802559634	4.668987	2.1607838
17.232324626788028	4.700773	2.1681266
17.25005164349871	4.6922617	2.166163
17.267779076181863	4.736141	2.1762676
17.285506925291074	4.705053	2.1691134
17.30323519127999	4.6456003	2.1553655
17.320963874602384	4.567378	2.1371424
17.33869297571211	4.542103	2.131221
17.356422495063114	4.50161	2.1216998
17.37415243310944	4.501576	2.1216917
17.391882790305218	4.5273743	2.1277628
17.40961356710468	4.5152874	2.1249206
17.42734476396215	4.5192766	2.125859
17.445076381332044	4.551401	2.1334014
17.462808419668868	4.6351724	2.152945
17.48054087942723	4.750166	2.1794875
17.498273761061835	4.85443	2.203277
17.51600706502747	5.1917734	2.2785463
17.533740791779024	5.8065176	2.4096718
17.551474941771485	6.7016673	2.5887578
17.56920951545993	8.595452	2.9318001
17.586944513299528	9.878576	3.1430202
17.60467993574556	12.704124	3.5642846
17.622415783253373	15.455463	3.9313438
17.64015205627843	18.37564	4.2866817
17.657888755276293	20.999994	4.582575
17.675625880702604	22.635984	4.757729
17.69336343301311	21.07352	4.5905905
17.71110141266366	18.947136	4.352831
17.728839820110178	16.107603	4.0134277
17.746578655808705	12.930595	3.5959136
17.764317920215372	10.65843	3.2647252
17.7820576137864	8.974116	2.995683
17.79979773697811	7.5917234	2.7553082
17.81753829024692	6.2407227	2.498144
17.835279274049356	5.359762	2.315116
17.85302068884201	4.5080595	2.1232193
17.870762535081607	4.107509	2.026699
17.888504813224934	3.8957582	1.9737675
17.90624752372891	3.7389638	1.93364
17.923990667050536	3.639101	1.9076428
17.941734243646895	3.5911655	1.895037
17.959478253975185	3.536267	1.8804965
17.9772226984927	3.4349658	1.8533661
17.994967577656833	3.390907	1.8414415
18.01271289192506	3.3843963	1.8396729
18.030458641754965	3.3789058	1.8381801
18.04820482760425	3.3768656	1.837625
18.06595144993067	3.335392	1.8263055
18.083698509192125	3.3250215	1.8234642
18.101446005846576	3.2622135	1.8061599
18.119193940352105	3.242436	1.8006765
18.136942313166887	3.166749	1.7795361
18.1546911247492	3.1499267	1.7748033
18.1724403755574	3.1564927	1.7766521
18.19019006604997	3.1539788	1.7759445
18.207940196685467	3.1207178	1.7665553
18.225690767922575	3.0680122	1.7515742
18.243441780220046	3.031857	1.7412229
18.261193234036764	3.0147781	1.7363117
18.278945129831676	2.983389	1.7272489
18.29669746806386	2.966103	1.7222378
18.314450249192483	2.9567366	1.7195164
18.3322034736768	2.9876263	1.7284751
18.349957141976184	3.02201	1.738393
18.3677112545501	3.0281765	1.7401657
18.385465811858108	3.04176	1.7440642
18.403220814359884	3.0598166	1.7492331
18.420976262515172	3.0703611	1.7522446
18.43873215678387	3.099488	1.7605363
18.456488497625923	3.1073384	1.7627645
18.474245285501407	3.1534982	1.7758092
18.492002520870486	3.2118077	1.7921517
18.50976020419343	3.3262413	1.8237985
18.527518335930615	3.6245925	1.9038363
18.545276916542516	4.192925	2.0476632
18.563035946489688	4.3361416	2.0823405
18.580795426232832	4.7728844	2.184693
18.598555356232698	4.6610513	2.1589468
18.616315736950185	4.9230523	2.2187953
18.63407656884626	4.612564	2.1476882
18.65183785238201	4.786565	2.1878219
18.669599588018617	4.5825515	2.1406894
18.68736177621737	4.5509734	2.133301
18.705124417439652	4.509611	2.1235845
18.72288751214696	4.329937	2.0808501
18.740651060800886	4.460797	2.1120598
18.758415063863115	4.2101693	2.0518696
18.77617952179546	4.3707666	2.090638
18.793944435059814	4.0754023	2.0187626
18.811709804118184	4.0489097	2.0121903
18.829475629432675	4.037267	2.0092952
18.8472419114655	3.8690903	1.9670004
18.86500865067897	3.9590864	1.9897453
18.88277584753551	3.6957562	1.9224349
18.90054350249763	3.7108865	1.9263661
18.918311616027957	3.4053342	1.8453548
18.936080188589226	3.270824	1.8085419
18.953849220644265	3.0276835	1.740024
18.971618712656007	2.8512022	1.6885504
18.9893886650875	2.7766988	1.666343
19.007159078401887	7.93284	2.8165298
19.024929953062408	32.785202	5.7258363
19.042701289532435	32.775986	5.7250314
19.060473088275405	25.37963	5.03782
19.07824534975489	2.6708062	1.6342602
19.096018074434568	2.638754	1.6244242
19.113791262778197	2.6010866	1.6127884
19.13156491524966	2.607877	1.6148922
19.149339032312945	2.6065817	1.6144911
19.167113614432136	2.5953581	1.6110115
19.184888662071433	2.5788612	1.6058834
19.202664175695123	2.5446446	1.5951942
19.220440155767623	2.519783	1.5873824
19.238216602753447	2.5380108	1.5931135
19.2559935171172	2.5571108	1.5990969
19.27377089932361	2.5411272	1.5940913
19.291548749837514	2.484942	1.5763699
19.309327069123835	2.467225	1.5707403
19.32710585764763	2.4928658	1.5788811
19.344885115874032	2.5098472	1.5842497
19.362664844268313	2.5180707	1.586843
19.380445043295822	2.4986305	1.5807058
19.39822571342203	2.4874418	1.5771626
19.41600685511252	2.5043135	1.5825022
19.43378846883297	2.5216336	1.5879653
19.451570555049173	2.5076053	1.583542
19.469353114227037	2.484578	1.5762544
19.48713614683254	2.4706519	1.5718307
19.50491965333182	2.4832156	1.5758222
19.52270363419109	2.4817626	1.5753611
19.540488089876686	2.4567556	1.5674042
19.55827302085503	2.4296799	1.558743
19.576058427592674	2.415137	1.5540711
19.593844310556282	2.4292655	1.5586101
19.611630670212598	2.4570582	1.5675006
19.629417507028506	2.482387	1.5755593
19.64720482147098	2.522849	1.5883479
19.6649926140071	2.545561	1.5954815
19.682780885104084	2.5394995	1.5935807
19.70056963522921	2.52297	1.5883859
19.718358864849908	2.5404477	1.5938781
19.7361485744337	2.4922907	1.5786991
19.753938764448215	2.431951	1.5594714
19.771729435361202	2.421919	1.5562516
19.789520587640506	2.4639623	1.5697013
19.807312221754092	2.516246	1.586268
19.825104338170043	2.4966161	1.5800683
19.842896937356517	2.4857197	1.5766165
19.860690019781824	2.4567022	1.5673871
19.87848358591436	2.4744277	1.5730314
19.896277636222635	2.507945	1.5836493
19.914072171175278	2.5376492	1.593
19.931867191241015	2.5069008	1.5833195
19.94966269688869	2.4812655	1.5752033
19.967458688587264	2.482524	1.5756028
19.985255166805807	2.4819036	1.5754058
20.00305213201348	2.4769213	1.5738238
20.020849584679578	2.4859114	1.5766773
20.038647525273507	2.4770133	1.573853
20.05644595426477	2.4613912	1.5688821
20.07424487212299	2.4327786	1.5597367
20.092044279317903	2.4206917	1.5558572
20.109844176319353	2.4497294	1.5651611
20.127644563597304	2.4654043	1.5701606
20.145445441621817	2.4407113	1.5622776
20.16324681086307	2.3841062	1.5440551
20.181048671791373	2.372455	1.5402775
20.198851024877122	2.4120274	1.5530703
20.216653870590836	2.3959193	1.5478758
20.234457209403146	2.3487043	1.5325483
20.252261041784802	2.3307009	1.5266633
20.270065368206662	2.3541698	1.5343304
20.287870189139685	2.3769262	1.5417283
20.305675505054968	2.3678098	1.5387689
20.323481316423702	2.3501413	1.533017
20.341287623717207	2.350893	1.5332623
20.359094427406884	2.370405	1.5396119
20.376901727964288	2.4032407	1.550239
20.39470952586107	2.376257	1.5415113
20.41251782156899	2.3646424	1.5377394
20.430326615559935	2.3198643	1.52311
20.448135908305886	2.3124807	1.5206842
20.465945700278965	2.2930949	1.5142968
20.483755991951384	2.3224165	1.5239477
20.50156678379548	2.3403895	1.5298332
20.519378076283708	2.3390908	1.5294087
20.537189869888635	2.3510356	1.5333087
20.55500216508294	2.3479004	1.532286
20.572814962339415	2.3398879	1.5296692
20.59062826213098	2.3232791	1.5242307
20.60844206493066	2.3228798	1.5240997
20.626256371211593	2.3441162	1.5310507
20.644071181447032	2.3486185	1.5325203
20.66188649611036	2.3078604	1.5191643
20.67970231567506	2.2435088	1.4978347
20.697518640614742	2.2383647	1.4961165
20.715335471403122	2.2813478	1.510413
20.73315280851404	2.2945092	1.5147637
20.750970652421447	2.259208	1.5030662
20.768789003599412	2.2537382	1.5012455
20.786607862522136	2.2364163	1.4954653
20.8044272296639	2.2500758	1.5000253
20.82224710549913	2.3005412	1.5167534
20.84006749050237	2.321291	1.5235783
20.857888385148268	3.8312871	1.9573674
20.8757097899116	45.9083	6.775566
20.893531705267254	64.76363	8.0475855
20.911354131690224	83.836784	9.156243
20.92917706965566	69.114655	8.313522
20.94700051963877	50.18292	7.08399
20.96482448211493	29.424658	5.42445
20.982648957559622	4.1705723	2.042198
21.00047394644843	2.2911193	1.5136443
21.01829944925707	2.2891932	1.513008
21.036125466461375	2.2843316	1.5114006
21.053951998537297	2.2372239	1.4957352
21.071779045960906	2.1993587	1.4830235
21.089606609208378	2.1913383	1.480317
21.10743468875603	2.2059863	1.4852563
21.12526328508028	2.2293184	1.4930902
21.143092398657675	2.2025504	1.4840991
21.16092202996488	2.1863685	1.4786373
21.17875217947867	2.1720188	1.473777
21.19658284767596	2.1980715	1.4825895
21.21441403503377	2.203574	1.484444
21.232245742029225	2.2044866	1.4847513
21.2500779691396	2.20868	1.4861628
21.26791071684227	2.182091	1.4771903
21.28574398561475	2.1786127	1.4760125
21.30357777593465	2.1500187	1.4662942
21.321412088279704	2.1558967	1.4682972
21.339246923127792	2.1409125	1.4631858
21.357082280956888	2.1339233	1.4607954
21.3749181622451	2.1380289	1.4622
21.392754567470647	2.160213	1.4697663
21.41059149711187	2.1526897	1.4672047
21.42842895164726	2.1586688	1.4692409
21.446266931555378	2.1505015	1.4664588
21.464105437314945	2.1441863	1.464304
21.481944469404798	2.1325169	1.4603139
21.49978402830388	2.1065705	1.4514029
21.51762411449127	2.064016	1.4366684
21.53546472844617	2.068401	1.4381937
21.553305870647876	2.1039987	1.4505167
21.571147541575865	2.072567	1.4396412
21.58898974170967	2.0287054	1.4243263
21.60683247152899	2.0338466	1.4261299
21.62467573151363	2.0457416	1.4302943
21.642519522143523	2.014608	1.4193689
21.660363843898722	1.9870918	1.4096425
21.6782086972594	2.0062869	1.4164345
21.696054082705864	2.0376863	1.4274756
21.713900000718535	2.0330992	1.4258679
21.73174645177795	1.9918517	1.4113297
21.749593436364794	1.973322	1.4047499
21.767440954959845	1.9834738	1.4083586
21.785289008044032	2.0156395	1.4197322
21.803137596098388	2.0376823	1.4274741
21.820986719604086	2.0302258	1.4248599
21.838836379042412	2.032745	1.4257436
21.85668657489478	2.0270734	1.4237533
21.87453730764273	2.0296364	1.424653
21.892388577767914	2.0151498	1.4195597
21.91024038575213	2.0026064	1.4151348
21.928092732077285	1.9926535	1.4116138
21.945945617225426	2.0132718	1.4188981
21.963799041678694	2.0118384	1.4183929
21.981653005919398	31.328941	5.597226
21.999507510429943	78.1018	8.8375225
22.01736255569286	73.06335	8.54771
22.035218142190818	4.171807	2.0425
22.05307427040661	2.0084345	1.4171925
22.07093094082315	1.9749874	1.4053425
22.088788153923474	1.9654185	1.4019338
22.106645910190746	1.9790907	1.4068016
22.12450421010827	1.9699644	1.4035542
22.142363054159464	1.9817803	1.4077572
22.16022244282787	2.00821	1.4171132
22.178082376597164	2.0170364	1.4202241
22.195942855951145	2.007052	1.4167047
22.213803881373742	1.9569343	1.3989047
22.231665453349002	1.9445559	1.3944733
22.24952757236111	1.93473	1.3909458
22.26739023889438	1.937507	1.3919436
22.28525345343323	1.9155682	1.3840406
22.30311721646225	1.9159338	1.3841727
22.320981528466113	1.9185936	1.385133
22.33884638992964	1.9262165	1.387882
22.356711801337788	1.9659637	1.4021283
22.37457776317561	1.9893022	1.4104263
22.392444275928337	1.9893817	1.4104544
22.410311340081282	1.9681062	1.4028921
22.428178956119904	1.9554328	1.3983679
22.446047124529805	1.9282317	1.3886079
22.46391584579669	1.952978	1.3974899
22.481785120406414	1.9746811	1.4052335
22.49965494884496	1.9503443	1.3965473
22.51752533159841	1.9312819	1.3897057
22.53539626915302	1.9704577	1.4037299
22.553267761995137	1.981647	1.4077098
22.571139810611264	2.0188727	1.4208704
22.589012415488025	2.0348508	1.426482
22.60688557711216	2.0461407	1.4304338
22.624759295970566	2.0343246	1.4262975
22.642633572550263	2.0285969	1.4242882
22.660508407338362	1.9904335	1.4108273
22.67838380082217	1.9725239	1.4044657
22.696259753489077	1.9269742	1.388155
22.714136265826614	1.932989	1.3903197
22.73201333832246	1.9088802	1.3816223
22.74989097146439	1.9419243	1.3935294
22.76776916574035	1.9366468	1.3916346
22.785647921638393	1.9186207	1.3851428
22.803527239646712	1.8934542	1.3760284
22.82140712025363	1.9097733	1.3819455
22.839287563947593	1.9369866	1.3917567
22.85716857121719	1.9583275	1.3994026
22.875050142551135	1.9363058	1.391512
22.892932278438277	1.9381037	1.3921579
22.910814979367604	1.9166409	1.384428
22.928698245828222	1.934514	1.3908681
22.946582078309387	1.9047464	1.3801255
22.96446647730047	1.8843374	1.3727117
22.98235144329098	1.868931	1.3670886
23.000236976770562	1.892422	1.3756533
23.018123078229	1.9104677	1.3821967
23.03600974815619	1.9444425	1.3944327
23.053896987042194	1.940395	1.3929806
23.071784795377173	1.8993317	1.3781624
23.08967317365145	1.8952909	1.3766956
23.10756212235546	1.9020343	1.3791426
23.125451641979787	1.919921	1.3856121
23.143341733015134	1.9301015	1.3892809
23.161232395952357	1.9821022	1.4078715
23.179123631282426	1.9743457	1.4051142
23.197015439496468	1.9790608	1.406791
23.214907821085717	1.9715785	1.404129
23.23280077654157	1.9947997	1.4123738
23.250694306355538	1.9734502	1.4047954
23.268588411019277	1.965194	1.4018538
23.28648309102458	1.9627703	1.400989
23.304378346863356	1.9612467	1.4004452
23.322274179027676	1.9675988	1.4027113
23.340170588009723	1.923057	1.3867433
23.358067574301852	1.8860774	1.3733454
23.37596513839651	1.8968557	1.3772639
23.39386328078629	1.901427	1.3789225
23.411762001963947	1.9316928	1.3898535
23.429661302422353	1.9464188	1.3951411
23.4475611826545	1.9384373	1.3922777
23.46546164315356	1.9220738	1.3863888
23.48336268441279	1.8882818	1.3741477
23.501264306925638	1.8601208	1.3638624
23.51916651118564	1.8217582	1.3497252
23.537069297686497	1.8713051	1.3679565
23.554972666922037	1.9278929	1.3884858
23.57287661938623	1.965368	1.4019158
23.59078115557318	1.9216447	1.386234
23.608686275977128	1.9206773	1.385885
23.62659198109246	1.8970735	1.3773429
23.6444982714137	1.8776053	1.3702574
23.66240514743549	1.8760314	1.3696829
23.68031260965263	1.9127284	1.3830142
23.698220658560068	1.9605557	1.4001985
23.716129294652845	1.9741497	1.4050444
23.7340385184262	1.9417425	1.3934642
23.75194833037546	1.8931003	1.3758998
23.769858730996123	1.9073312	1.3810617
23.78776972078382	1.9670836	1.4025276
23.80568130023431	1.9750009	1.4053472
23.823593469843495	1.9384791	1.3922927
23.841506230107424	1.8670673	1.3664067
23.859419581522275	1.8656588	1.3658912
23.87733352458438	1.8904011	1.3749186
23.89524805979019	1.9071767	1.3810056
23.913163187636318	1.9049953	1.3802156
23.931078908619508	1.9485229	1.395895
23.948995223236633	1.9890611	1.4103408
23.966912131984735	1.9903398	1.410794
23.98482963536096	2.0008426	1.4145114
24.002747733862616	2.02935	1.4245526
24.020666427987155	2.0491357	1.4314803
24.038585718232156	2.0177197	1.4204646
24.056505605095353	2.027899	1.4240432
24.074426089074617	2.1268165	1.4583609
24.092347170667946	2.1117768	1.4531953
24.110268850373515	2.0932958	1.4468226
24.128191128689586	2.0808227	1.4425057
24.146114006114626	2.0712006	1.4391667
24.164037483147187	2.0616636	1.4358494
24.181961560286005	2.0660117	1.4373628
24.199886238029926	2.0840676	1.44363
24.21781151687797	2.081908	1.4428818
24.235737397329274	2.0906174	1.4458967
24.253663879883135	2.0571682	1.4342831
24.271590965038975	2.0545082	1.4333556
24.289518653296376	2.0419738	1.4289765
24.30744694515505	2.049037	1.4314457
24.32537584111486	2.0697682	1.4386688
24.34330534167581	2.0355077	1.4267122
24.361235447338046	1.9825057	1.4080148
24.379166158601876	1.9839872	1.4085408
24.39709747596772	1.9739089	1.4049587
24.41502939993615	1.9894552	1.4104805
24.432961931007917	1.9859068	1.4092221
24.450895069683856	2.0150907	1.4195389
24.468828816465	1.9587277	1.3995456
24.4867631718525	1.9570462	1.3989446
24.504698136347656	1.9852711	1.4089965
24.52263371045192	2.0240347	1.4226857
24.540569894666874	2.0035076	1.4154532
24.558506689494266	1.9600984	1.4000351
24.57644409543597	1.9611944	1.4004265
24.594382112994012	1.970934	1.4038996
24.61232074267057	2.04132	1.4287478
24.630259984967953	2.078674	1.4417608
24.64819984038863	2.0848591	1.4439042
24.66614030943522	2.0730867	1.4398217
24.684081392610462	2.0397885	1.4282117
24.702023090417274	2.0162878	1.4199605
24.7199654033587	2.0067763	1.4166074
24.737908331937927	1.9785194	1.4065986
24.755851876658305	1.9651915	1.4018528
24.773796038023324	2.005142	1.4160304
24.79174081653661	2.0716074	1.4393079
24.809686212701962	2.1090202	1.4522467
24.827632227023294	2.0858185	1.4442363
24.8455788600047	2.0690138	1.4384067
24.8635261121504	2.0894923	1.4455076
24.88147398396475	2.1229532	1.4570358
24.899422475952303	2.0819085	1.442882
24.917371588617698	2.0711737	1.4391572
24.935321322465768	2.158414	1.4691541
24.953271678001478	2.3607376	1.5364692
24.97122265572994	2.5274992	1.5898111
24.989174256156414	2.8342643	1.6835274
25.00712647978632	3.4551587	1.8588058
25.02507932712521	4.4739404	2.115169
25.043032798678798	5.9826255	2.4459405
25.060986894952933	7.6362424	2.7633753
25.078941616453637	9.175126	3.029047
25.096896963687055	10.108829	3.1794384
25.114852937159508	10.747114	3.278279
25.132809537377444	10.4992895	3.2402606
25.150766764847468	9.719226	3.1175673
25.168724620076347	8.424991	2.9025834
25.186683103570985	7.1811633	2.6797693
25.204642215838426	5.805231	2.4094048
25.222601957385894	4.575399	2.1390183
25.24056232872074	3.511967	1.8740243
25.25852333035048	2.8300786	1.6822838
25.276484962782778	2.4038653	1.5504403
25.294447226525435	2.2054305	1.4850692
25.312410122086423	2.085622	1.4441683
25.330373649973843	2.0012043	1.4146392
25.348337810695988	1.9410435	1.3932134
25.366302604761245	1.957157	1.3989843
25.384268032678207	1.9744459	1.4051498
25.40223409495558	1.9792216	1.4068481
25.420200792102257	1.947082	1.3953788
25.438168124627246	1.9322889	1.3900679
25.45613609303974	1.9261183	1.3878466
25.474104697849057	1.9208788	1.3859577
25.492073939564698	1.9067205	1.3808405
25.510043818696285	1.8898634	1.374723
25.528014335753614	1.8932254	1.3759453
25.54598549124664	1.9258162	1.3877378
25.56395728568544	1.953823	1.3977922
25.58192971958028	1.9088771	1.3816212
25.59990279344156	1.9150331	1.3838472
25.617876507779833	1.9155796	1.3840446
25.635850863105826	1.9012512	1.3788587
25.653825859930386	1.9027891	1.3794162
25.671801498764548	1.9197648	1.3855557
25.68977778011949	1.8772738	1.3701364
25.707754704506524	1.8322414	1.3536031
25.725732272437153	1.7965153	1.3403414
25.743710484423012	1.7814171	1.3346974
25.761689340975888	1.8048174	1.3434349
25.77966884260774	1.8518102	1.3608123
25.797648989830662	1.854623	1.3618454
25.815629783156922	1.8134302	1.3466367
25.83361122309895	1.8641057	1.3653226
25.85159331016929	1.8685441	1.366947
25.869576044880695	1.8596064	1.3636738
25.887559427746034	1.8920071	1.3755025
25.90554345927836	1.9030474	1.3795098
25.92352813999086	1.9000767	1.3784328
25.94151347039689	1.9007139	1.3786638
25.959499451009965	1.8536772	1.3614981
25.97748608234374	1.8453364	1.3584316
25.995473364912062	1.889596	1.3746258
26.013461299228904	1.9086183	1.3815275
26.03144988580839	1.8608104	1.3641152
26.04943912516483	1.8086886	1.344875
26.067429017812675	1.8441056	1.3579785
26.085419564266537	1.8749754	1.3692974
26.103410765041186	1.8695318	1.3673083
26.12140262065155	1.8591763	1.3635161
26.139395131612723	1.858336	1.3632079
26.157388298439948	1.8463676	1.3588111
26.17538212164861	1.8515003	1.3606985
26.193376601754295	1.8040715	1.3431573
26.211371739272714	1.7867669	1.3367
26.229367534719746	1.8071079	1.3442872
26.247363988611433	1.8256751	1.3511754
26.26536110146397	1.793666	1.3392782
26.283358873793727	1.7659521	1.3288913
26.301357306117204	1.7726339	1.331403
26.319356398951104	1.8030682	1.3427837
26.33735615281224	1.8688236	1.3670492
26.35535656821762	1.901274	1.3788669
26.373357645684404	1.8963796	1.3770909
26.39135938572991	1.9091648	1.3817253
26.409361788871614	1.9612364	1.4004415
26.427364855627165	1.9533178	1.3976115
26.445368586514352	1.8458798	1.3586316
26.46337298205115	1.8137009	1.3467371
26.48137804275568	1.8872048	1.3737557
26.499383769146217	1.924622	1.3873075
26.517390161741215	1.8235886	1.3504031
26.53539722105928	1.7866622	1.3366609
26.553404947619182	1.79459	1.3396231
26.571413341939856	1.8505785	1.3603597
26.589422404540397	1.8415295	1.3570297
26.60743213594006	1.8373264	1.3554802
26.62544253665827	1.8045872	1.3433492
26.64345360721459	1.7658097	1.3288378
26.66146534812879	1.7641332	1.3282068
26.679477759920758	1.7803073	1.3342816
26.69749084311057	1.8501488	1.3602017
26.71550459821847	1.83595	1.3549724
26.733519025764842	1.7748368	1.33223
26.751534126270258	1.7561619	1.3252026
26.769549900255434	1.8023263	1.3425075
26.787566348241267	1.7959741	1.3401396
26.80558347074881	1.7925411	1.3388581
26.823601268299267	1.7880592	1.3371834
26.841619741414036	1.7992194	1.3413498
26.85963889061465	1.8335342	1.3540806
26.877658716422832	1.8486068	1.3596348
26.89567921936045	1.8601127	1.3638595
26.913700399949544	1.8433734	1.3577089
26.93172225871233	1.8052394	1.343592
26.949744796171174	1.7626703	1.3276559
26.967768012848605	1.7436156	1.3204604
26.98579190926733	1.7418045	1.3197744
27.003816485950225	1.7550836	1.3247957
27.021841743420318	1.7751497	1.3323474
27.039867682200814	1.8164003	1.347739
27.057894302815072	1.805255	1.3435978
27.07592160578664	1.814386	1.3469914
27.0939495916392	1.8218739	1.349768
27.111978260896635	1.8392955	1.3562063
27.13000761408296	1.8535318	1.3614447
27.148037651722397	1.8453169	1.3584244
27.166068374339304	1.8043128	1.3432472
27.184099782458215	1.7924066	1.338808
27.20213187660384	1.8093767	1.3451308
27.22016465730105	1.8297749	1.3526917
27.23819812507487	1.8068265	1.3441825
27.256232280450533	1.7976995	1.3407831
27.274267123953383	1.7526137	1.3238631
27.292302656108987	1.7692926	1.3301476
27.31033887744306	1.842667	1.3574487
27.32837578848146	1.8511281	1.3605617
27.34641338975026	1.8592536	1.3635445
27.364451681775673	1.8519889	1.360878
27.382490665084074	1.866689	1.3662683
27.400530340202046	1.8569963	1.3627166
27.41857070765629	1.8394672	1.3562696
27.436611767973726	1.7896898	1.3377929
27.454653521681404	1.7588598	1.3262202
27.472695969306564	1.7767192	1.3329363
27.490739111376627	1.8146756	1.347099
27.508782948419153	1.8297808	1.3526939
27.526827480961902	1.8348334	1.3545603
27.54487270953279	1.8475718	1.3592541
27.562918634659898	1.8043644	1.3432664
27.580965256871508	1.797744	1.3407998
27.599012576696026	1.8191308	1.3487515
27.617060594662068	1.7848517	1.3359834
27.63510931129842	1.7814626	1.3347144
27.65315872713401	1.7858132	1.3363432
27.67120884269797	1.7951751	1.3398415
27.68925965851958	1.819411	1.3488555
27.707311175128307	1.8210897	1.3494775
27.725363393053787	1.8449667	1.3582954
27.74341631282583	1.9154034	1.383981
27.7614699349744	1.9615396	1.4005498
27.77952426002968	2.1625736	1.4705691
27.797579288521973	2.284723	1.51153
27.815635020981784	2.6562805	1.62981
27.83369145793979	2.6916804	1.6406342
27.85174859992682	2.4775267	1.5740161
27.869806447473923	2.2721	1.5073487
27.887865001112267	2.0319364	1.4254601
27.905924261373233	1.9844519	1.4087057
27.92398422878836	2.0218577	1.4219204
27.94204490388936	1.9835079	1.4083706
27.96010628720813	1.9294649	1.3890518
27.978168379276728	1.8708192	1.3677789
27.9962311806274	1.8621248	1.364597
28.014294691792568	1.8323704	1.3536508
28.0323589133048	1.8693084	1.3672265
28.050423845696887	1.8684249	1.3669034
28.068489489501758	1.8974519	1.3774803
28.086555845252523	1.8927312	1.3757657
28.104622913482487	1.8503696	1.3602829
28.122690694725115	1.8538665	1.3615676
28.14075918951405	1.8896053	1.3746291
28.15882839838312	1.909662	1.3819052
28.176898321866304	1.9409617	1.3931841
28.1949689604978	1.9625709	1.4009179
28.213040314811945	1.9484342	1.3958633
28.23111238534327	1.8902931	1.3748794
28.249185172626493	1.9245425	1.3872788
28.267258677196473	1.9668795	1.4024549
28.285332899588294	1.8996129	1.3782644
28.303407840337172	1.8841627	1.372648
28.321483499978545	1.9695737	1.4034151
28.33955987904799	2.023172	1.4223825
28.357636978081285	1.9834652	1.4083555
28.37571479761439	1.9747806	1.4052689
28.393793338183425	1.9801905	1.4071925
28.41187260032469	1.9785064	1.4065939
28.429952584574686	2.0183063	1.4206711
28.448033291470065	2.0726943	1.4396855
28.46611472154769	2.0712473	1.4391829
28.484196875344566	2.0494714	1.4315975
28.502279753397914	2.0642104	1.436736
28.52036335624511	2.0472195	1.4308108
28.538447684423716	2.0984957	1.4486185
28.556532738471482	2.0890257	1.4453462
28.574618518926325	2.0549664	1.4335154
28.59270502632635	2.0326905	1.4257245
28.61079226120985	2.0177898	1.4204893
28.628880224115274	2.0064151	1.4164798
28.646968915581287	2.0211732	1.4216797
28.66505833614671	2.0604377	1.4354224
28.68314848635055	2.052972	1.4328196
28.701239366732004	2.0921586	1.4464296
28.71933097783044	2.0944707	1.4472287
28.737423320185403	2.1204667	1.4561822
28.75551639433665	2.134231	1.4609008
28.773610200824074	2.1398852	1.4628346
28.791704740187793	2.140723	1.4631209
28.80980001296809	2.1339748	1.460813
28.827896019705413	2.1264482	1.4582345
28.845992760940433	2.1852396	1.4782556
28.86409023721397	2.2005877	1.4834378
28.88218844906704	2.2090294	1.4862804
28.900287397040845	2.2306163	1.4935248
28.918387081676755	2.2054505	1.485076
28.936487503516343	2.2020438	1.4839284
28.954588663101365	2.2094605	1.4864254
28.97269056097374	2.2294347	1.4931291
28.990793197675597	2.2112381	1.4870232
29.00889657374923	2.28005	1.5099834
29.027000689737125	2.3805277	1.5428959
29.04510554618196	2.3856552	1.5445566
29.06321114362659	2.472056	1.5722773
29.08131748261405	2.471954	1.5722449
29.099424563687567	2.4548016	1.5667807
29.11753238739057	2.5119207	1.584904
29.13564095426663	2.5703068	1.6032176
29.15375026485954	2.6231496	1.619614
29.171860319713275	2.644465	1.6261811
29.18997111937199	2.6023643	1.6131846
29.20808266438002	2.627726	1.6210263
29.226194955281898	2.6785617	1.6366313
29.244307992622335	2.7760613	1.6661516
29.26242177694624	2.8124957	1.6770498
29.2805363087987	2.8448427	1.6866661
29.29865158872498	2.8430812	1.6861439
29.316767617270557	2.9047613	1.704336
29.334884394981064	2.9853132	1.7278059
29.353001922402367	3.0570781	1.7484502
29.37112020008047	3.0924785	1.7585444
29.389239228561596	3.1343563	1.7704114
29.407359008392152	3.3043394	1.8177842
29.42547954011872	3.65712	1.9123598
29.44360082428809	4.076756	2.0190978
29.46172286144722	4.9466496	2.2241066
29.479845652143283	6.6770177	2.5839925
29.497969196923606	9.441	3.072621
29.516093496335728	13.205789	3.633977
29.5342185509274	16.86576	4.1067944
29.55234436124651	20.16203	4.490215
29.570470927841175	21.631908	4.6510115
29.588598251259686	21.480434	4.634699
29.60672633205055	19.767342	4.446048
29.624855170762405	16.549265	4.068079
29.642984767944146	13.114536	3.6213999
29.66111512414481	9.711669	3.1163552
29.67924623991366	7.157347	2.6753218
29.697378115800138	5.2963414	2.3013783
29.71551075235387	4.299732	2.0735795
29.733644150124675	3.8011081	1.9496431
29.751778309662576	3.5968757	1.896543
29.769913231517766	3.477233	1.864734
29.78804891624066	3.4260805	1.8509674
29.806185364381818	3.4546404	1.8586663
29.82432257649206	3.4604816	1.860237
29.842460553122333	3.3848557	1.8397977
29.86059929482382	3.297137	1.815802
29.878738802147872	3.280319	1.8111651
29.896879075646048	3.287024	1.8130152
29.915020115870114	3.3074307	1.8186343
29.933161923371976	3.2983909	1.8161472
29.951304498703777	3.2901542	1.8138782
29.969447842417857	3.2897568	1.8137686
29.987591955066733	3.294801	1.8151587
30.005736837203123	3.2018402	1.7893686
30.023882489379943	3.142621	1.7727439
30.04202891215028	3.1662471	1.7793951
30.060176106067455	3.2284656	1.7967931
30.078324071684946	3.275711	1.8098925
30.09647280955646	3.2704318	1.8084335
30.114622320235863	3.2034893	1.7898294
30.132772604277257	3.0819266	1.7555417
30.1509236622349	3.0266795	1.7397355
30.16907549466328	3.1000676	1.760701
30.18722810211705	3.1315198	1.76961
30.205381485151097	3.118172	1.7658346
30.22353564432045	3.0549028	1.747828
30.241690580180403	3.0227535	1.7386068
30.25984629328638	2.9864492	1.7281346
30.278002784194037	3.0274177	1.7399476
30.296160053459246	2.9799008	1.726239
30.314318101638033	2.9462786	1.7164727
30.332476929286646	2.972925	1.7242172
30.35063653696153	3.0094957	1.7347898
30.368796925219307	2.9734743	1.7243764
30.386958094616844	2.9334624	1.7127353
30.40512004571115	2.9720325	1.7239584
30.423282779059463	2.9943538	1.7304201
30.441446295219233	2.934604	1.7130686
30.459610594748067	2.8742993	1.6953758
30.47777567820382	2.8551462	1.6897178
30.495941546144504	2.8326485	1.6830474
30.51410819912835	2.8206546	1.6794804
30.532275637713795	2.8640823	1.69236
30.55044386245946	2.8601477	1.6911972
30.56861287392416	2.8612478	1.6915224
30.586782672666956	2.901315	1.7033247
30.604953259247047	2.8805277	1.6972117
30.623124634223885	2.8735514	1.6951553
30.641296798157075	2.9009304	1.7032118
30.659469751606462	2.8548803	1.6896391
30.677643495132074	2.7841337	1.6685723
30.695818029294152	2.7790267	1.6670413
30.713993354653116	2.7577524	1.6606482
30.73216947176962	2.6621597	1.6316127
30.75034638120448	2.684021	1.6382982
30.768524083518756	2.7470086	1.6574101
30.786702579273673	2.7334557	1.6533166
30.80488186903069	2.7884748	1.6698726
30.82306195335144	2.960497	1.7206094
30.841242832797782	3.206259	1.7906029
30.85942450793176	3.5928462	1.8954805
30.877606979315637	4.0133123	2.0033252
30.895790247511883	4.3922005	2.0957577
30.913974313083134	4.796488	2.1900885
30.932159176592283	5.2697535	2.2955945
30.95034483860237	5.5738835	2.3609073
30.968531299676698	5.586856	2.3636532
30.98671856037873	5.3118567	2.3047466
31.00490662127215	4.8431616	2.2007184
31.023095482920848	4.2495117	2.0614343
31.04128514588892	3.7009137	1.9237759
31.059475610740662	3.249605	1.8026661
31.07766687804056	2.911661	1.7063589
31.09585894835335	2.6553652	1.6295291
31.11405182224393	2.5292	1.5903459
31.132245500277417	2.474154	1.5729444
31.15043998301914	2.5091686	1.5840355
31.168635271034628	2.5072677	1.5834354
31.18683136488964	2.490851	1.578243
31.20502826515008	2.4766674	1.5737431
31.223225972382135	2.409549	1.5522722
31.241424487152155	2.3129873	1.5208509
31.259623810026692	2.3629048	1.5371743
31.27782394157253	2.4396796	1.5619473
31.296024882356644	2.4006617	1.5494069
31.314226632946237	2.3866813	1.5448887
31.332429193908684	2.5537765	1.5980539
31.350632565811598	2.6405318	1.6249713
31.368836749222787	2.6308272	1.6219825
31.387041744710295	2.568759	1.6027348
31.40524755284232	2.5596054	1.5998766
31.423454174187317	2.5918443	1.6099206
31.441661609313922	2.5329154	1.5915135
31.459869858791002	2.4965725	1.5800546
31.478078923187628	2.4757047	1.5734372
31.496288803073064	2.3706276	1.5396843
31.514499499016807	2.2834785	1.5111183
31.532711011588546	2.3823254	1.5434784
31.550923341358178	2.4525876	1.5660739
31.56913648889584	2.4309344	1.5591455
31.587350454771844	2.3416078	1.5302312
31.605565239556732	2.3388567	1.5293322
31.62378084382127	2.3020954	1.5172658
31.641997268136382	2.303854	1.5178452
31.660214513073274	2.4570012	1.5674825
31.67843257920331	2.5117033	1.5848354
31.6966514670981	2.3395593	1.5295618
31.71487117732944	2.2184126	1.4894336
31.733091710469346	2.2680547	1.5060062
31.751313067090052	2.3799562	1.5427107
31.769535247764008	2.4603179	1.5685401
31.787758253063878	2.437224	1.561161
31.805982083562526	2.3882139	1.5453846
31.824206739833024	2.3864522	1.5448146
31.84243222244869	2.3746517	1.5409905
31.860658531983013	2.3361492	1.5284467
31.878885669009737	2.299263	1.516332
31.897113634102784	2.2994764	1.5164025
31.91534242783632	2.3684525	1.5389777
31.933572050784694	2.367543	1.5386822
31.951802503522508	2.3028018	1.5174985
31.970033786624548	2.2081556	1.4859865
31.988265900665834	2.1513999	1.466765
32.006498846221575	2.1243815	1.4575258
32.02473262386724	2.1896167	1.4797354
32.04296723417845	2.2286837	1.4928776
32.0612026777311	2.1854885	1.4783398
32.07943895510129	2.1642077	1.4711246
32.097676066865304	2.1647205	1.4712989
32.115914013599685	2.1577728	1.468936
32.13415279588115	2.136622	1.4617188
32.152392414286666	2.222918	1.4909453
32.1706328693934	2.228481	1.4928098
32.18887416177875	2.20592	1.485234
32.20711629202032	2.1733956	1.4742441
32.225359260695924	2.1914442	1.4803528
32.243603068383614	2.1535923	1.4675122
32.26184771566166	2.194719	1.4814584
32.28009320310852	2.2185886	1.4894928
32.2983395313029	2.22633	1.4920892
32.31658670082372	2.1133187	1.4537258
32.33483471225012	2.007478	1.416855
32.35308356616143	2.016225	1.4199384
32.371333263137245	2.1080844	1.4519244
32.38958380375734	2.22268	1.4908656
32.407835188601744	2.1597283	1.4696014
32.42608741825067	2.1533866	1.4674422
32.444340493284585	2.1605015	1.4698645
32.46259441428416	2.129069	1.459133
32.48084918183028	2.1319597	1.4601232
32.49910479650405	2.1333683	1.4606054
32.51736125888683	2.0890217	1.4453448
32.53561856956014	2.049324	1.431546
32.5538767291058	2.0626788	1.4362029
32.572135738105764	2.056097	1.4339097
32.59039559714228	2.0192287	1.4209957
32.608656306797776	2.0795877	1.4420775
32.62691786765491	2.1030114	1.4501764
32.645180280296586	2.042805	1.4292673
32.663443545305896	2.001894	1.414883
32.68170766326619	1.9024392	1.3792894
32.69997263476099	1.9260218	1.3878119
32.7182384603741	1.9727467	1.4045451
32.7365051406895	2.1419213	1.4635304
32.75477267629144	2.1678195	1.4723517
32.77304106776434	2.037613	1.4274498
32.79131031569289	2.0478787	1.4310411
32.809580420661966	2.0739734	1.4401296
32.827851383256714	2.0896053	1.4455467
32.84612320406245	2.0351892	1.4266006
32.86439588366476	1.9844444	1.4087031
32.88266942264945	1.9633605	1.4011997
32.9009438216025	2.0007079	1.4144638
32.9192190811102	2.0452669	1.4301282
32.937495201758985	2.0507143	1.4320315
32.95577218413556	2.0999708	1.4491276
32.974050028826866	2.0867164	1.4445472
32.992328736420035	2.0894291	1.4454858
33.010608307502444	2.0039158	1.4155973
33.02888874266169	2.0248199	1.4229616
33.047170042485604	1.9907715	1.4109471
33.06545220756225	1.9625863	1.4009234
33.083735238479896	2.0677748	1.4379759
33.10201913582707	2.0824661	1.4430752
33.12030390019248	2.0137496	1.4190664
33.138589532165135	1.9513495	1.3969071
33.15687603233419	1.8411297	1.3568823
33.17516340128909	1.8598557	1.3637652
33.19345163961947	1.9192244	1.3853607
33.211740747915215	1.8996183	1.3782665
33.23003072676643	1.8793919	1.3709091
33.248321576763466	1.854003	1.3616178
33.266613298496885	1.8118577	1.3460526
33.28490589255747	1.8453773	1.3584467
33.30319935953626	1.9578422	1.3992292
33.32149370002451	2.0220706	1.4219953
33.339788914613706	2.0268145	1.4236623
33.358085003895575	1.9845378	1.4087362
33.376381968462034	1.9488175	1.3960005
33.39467980890529	2.036416	1.4270304
33.41297852581774	2.0334365	1.4259862
33.43127811979204	1.9247212	1.3873433
33.44957859142105	1.8269448	1.3516452
33.467879941297866	1.9209083	1.3859683
33.486182170015844	1.9836584	1.4084241
33.50448527816853	1.8839308	1.3725636
33.522789266349754	1.8775496	1.3702371
33.541094135153514	1.9448653	1.3945843
33.55939988517411	1.9007242	1.3786676
33.57770651700602	1.8048618	1.3434515
33.59601403124398	1.8664536	1.3661821
33.61432242848296	1.9251379	1.3874934
33.632631709318154	1.8908949	1.3750981
33.650941874344994	1.9068744	1.3808962
33.66925292415916	1.9777912	1.4063396
33.68756485935654	1.9030385	1.3795066
33.70587768053328	1.8601851	1.363886
33.724191388285746	1.8693649	1.3672472
33.74250598321054	1.8945749	1.3764355
33.760821465904506	1.92144	1.3861601
33.77913783696474	1.9835527	1.4083866
33.79745509698852	2.0069044	1.4166526
33.815773246573414	1.9401287	1.392885
33.8340922863172	1.8821089	1.3718997
33.852412216817896	1.90142	1.3789198
33.87073303867377	1.9174197	1.3847092
33.889054752483304	1.9666688	1.4023798
33.907377358845245	1.9369037	1.3917269
33.92570085835853	1.8584099	1.3632351
33.94402525162239	1.8918153	1.3754327
33.96235053923627	1.8690561	1.3671342
33.980676721799824	1.9053646	1.3803495
33.999003799912984	1.9787554	1.4066824
34.01733177417592	2.0473266	1.4308482
34.03566064518901	2.0276105	1.4239419
34.0539904135529	1.9381073	1.3921592
34.07232107986846	1.8927684	1.3757792
34.090652644736785	1.87293	1.3685503
34.108985108759235	1.8899351	1.3747491
34.12731847253742	1.9397655	1.3927547
34.14565273667313	1.956955	1.3989121
34.16398790176847	2.0916862	1.4462663
34.18232396842574	2.078806	1.4418064
34.20066093724749	1.9872584	1.4097016
34.21899880883651	2.038251	1.4276732
34.23733758379583	2.0072732	1.4167827
34.25567726272874	1.8894168	1.3745606
34.27401784623872	1.9812825	1.4075804
34.29235933492957	1.9880481	1.4099816
34.31070172940526	1.8249806	1.3509184
34.32904503027003	1.8708775	1.3678002
34.347389238128386	1.9805509	1.4073205
34.36573435358502	1.9772005	1.4061296
34.38408037724492	1.8875875	1.373895
34.402427309713296	1.9324025	1.3901088
34.42077515159559	1.9857419	1.4091635
34.43912390349752	2.0075986	1.4168975
34.45747356602499	2.0141077	1.4191927
34.47582413978423	1.9452033	1.3947054
34.49417562538163	1.8948047	1.3765191
34.51252802342388	1.9351116	1.3910829
34.53088133451789	1.9694126	1.4033576
34.54923555927084	1.986602	1.4094687
34.567590698290104	1.9653147	1.4018968
34.58594675218336	1.9940125	1.4120951
34.6043037215585	2.0016062	1.4147813
34.62266160702365	1.9160552	1.3842164
34.641020409187234	1.9303508	1.3893707
34.65938012865785	2.1312985	1.4598968
34.677740766044394	2.0624948	1.4361389
34.69610232195598	2.0489755	1.4314243
34.714464797002016	2.2686415	1.506201
34.73282819179208	2.326148	1.5251715
34.751192506936064	2.113181	1.4536785
34.76955774304408	2.0061471	1.4163853
34.7879239007265	2.0032282	1.4153545
34.80629098059391	2.051633	1.4323522
34.824658983257194	2.2190137	1.4896355
34.843027909327446	2.229775	1.4932431
34.86139775941603	2.1224406	1.4568598
34.879768534134534	2.0812268	1.4426458
34.89814023409483	2.0852942	1.4440548
34.91651285990901	2.0982785	1.4485435
34.93488641218944	1.8836541	1.3724627
34.95326089154871	1.8580526	1.363104
34.97163629859967	1.9009429	1.3787469
34.99001263395542	2.0456657	1.4302677
35.00838989822934	2.090702	1.4459261
35.02676809203499	1.9933146	1.411848
35.04514721598624	1.828619	1.3522644
35.063527270697215	1.7581264	1.3259436
35.081908256782256	1.8404266	1.3566232
35.10029017485597	2.0254157	1.423171
35.11867302553321	1.9930308	1.4117475
35.137056809429104	1.8755581	1.3695102
35.155441527159006	1.8697548	1.3673898
35.173827179338524	1.9085898	1.3815172
35.19221376658354	1.8948011	1.3765178
35.21060128951017	1.8935488	1.3760628
35.2289897487348	1.9338524	1.3906302
35.24737914487405	1.9455478	1.3948289
35.26576947854479	1.8719484	1.3681916
35.28416075036418	1.8099082	1.3453282
35.30255296094958	1.8998374	1.3783458
35.32094611091867	2.1425524	1.463746
35.33934020088932	2.1103864	1.452717
35.35773523147969	1.9947318	1.4123497
35.3761312033082	2.0148897	1.4194682
35.394528116993506	2.1224833	1.4568745
35.41292597315452	2.3334064	1.5275491
35.431324772410434	2.213415	1.487755
35.449724515380666	1.9624692	1.4008815
35.46812520268491	2.136776	1.4617715
35.486526834943106	2.336801	1.5286599
35.504929412775454	2.320294	1.523251
35.52333293680242	2.0451505	1.4300876
35.54173740764471	1.8448595	1.3582561
35.560142825923286	1.5858256	1.2592957
35.5785491922594	1.3310272	1.1537015
35.59695650727454	1.6687481	1.2918004
35.61536477159042	2.4091039	1.5521288
