0.008763373481513119	0.0	0.0
0.026290120649546365	0.11242709	0.3353015
0.043816868432600686	0.19233862	0.43856427
0.06134361724069026	0.26545718	0.51522535
0.07887036748382949	0.26147822	0.5113494
0.0963971195720331	0.22272503	0.47193754
0.11392387391531617	0.19014093	0.43605152
0.1314506309236943	0.12626076	0.3553319
0.1489773910071836	0.090477005	0.30079395
0.16650415457580078	0.07109369	0.26663402
0.18403092203956356	0.11531495	0.33958057
0.20155769380849	0.215984	0.46474078
0.2190844702925996	0.2301388	0.47972783
0.2366112519019124	0.19887277	0.44595155
0.2541380390464497	0.1516735	0.38945282
0.27166483213623416	0.13102733	0.36197698
0.28919163158128947	0.11168482	0.33419278
0.3067184377916406	0.09898665	0.31462145
0.324245251177314	0.08710388	0.29513368
0.34177207214833777	0.14181052	0.37657738
0.3592989011147415	0.1575065	0.39687088
0.37682573848655654	0.13752834	0.37084815
0.39435258467381573	0.13268383	0.3642579
0.41187944008655414	0.17281783	0.41571364
0.42940630513480854	0.17718779	0.4209368
0.446933180228618	0.1891357	0.43489733
0.4644600657780234	0.19329238	0.4396503
0.48198696219306775	0.17316341	0.41612908
0.49951386988379676	0.1208564	0.34764406
0.5170407892602581	0.09091407	0.3015196
0.5345677207325025	0.07856015	0.28028584
0.5520946647105822	0.100903794	0.31765357
0.5696216216045534	0.10342316	0.32159472
0.5871485918244737	0.13076276	0.36161134
0.6046755757804043	0.1916001	0.4377215
0.6222025738824094	0.22738077	0.4768446
0.6397295865405557	0.24046005	0.49036726
0.6572566141649129	0.19946864	0.44661912
0.6747836571655547	0.19586611	0.44256762
0.6923107159525568	0.16088663	0.40110675
0.7098377909359992	0.18832424	0.43396342
0.7273648825259653	0.20381775	0.4514618
0.7448919911325411	0.18939094	0.4351907
0.762419117165817	0.19867115	0.4457254
0.7799462610358868	0.21043497	0.45873192
0.7974734231528482	0.19959807	0.446764
0.8150006039268024	0.17322749	0.41620606
0.8325278037678551	0.18254624	0.42725432
0.8500550230861152	0.18004921	0.42432207
0.8675822622916969	0.20041175	0.4476737
0.8851095217947171	0.17643179	0.42003784
0.9026368020052984	0.20377561	0.45141512
0.9201641033335665	0.2174432	0.46630806
0.9376914261896523	0.2429075	0.49285647
0.9552187709836915	0.23369183	0.48341683
0.9727461381258234	0.21779987	0.46669033
0.990273528026193	0.21138148	0.45976242
1.0078009410949496	0.1966879	0.4434951
1.0253283777422473	0.23960939	0.48949912
1.0428558383782454	0.28260478	0.53160584
1.0603833234131086	0.3096634	0.5564741
1.0779108332570058	0.30745962	0.5544904
1.0954383683201119	0.2792203	0.528413
1.112965929012607	0.32757306	0.57234
1.1304935157446763	0.47938043	0.69237304
1.1480211289265108	0.54094195	0.7354876
1.1655487689683062	1.450562	1.2043928
1.1830764362802655	1.7380574	1.318354
1.200604131272596	2.1540003	1.4676512
1.2181318543555117	2.3849733	1.5443358
1.235659605939232	2.4582162	1.5678699
1.253187386433982	4.082663	2.02056
1.270715196249994	6.4982963	2.5491755
1.2882430357975057	11.85416	3.4429872
1.3057709054867608	16.552357	4.0684586
1.3232988057280106	22.382841	4.731051
1.3408267369315112	27.287516	5.2237453
1.358354699507526	31.11663	5.5782285
1.3758826938663256	35.19902	5.932876
1.3934107204181858	37.101257	6.09108
1.410938779573391	37.029427	6.0851808
1.4284668717422309	37.40504	6.115966
1.4459949973350033	36.930473	6.077045
1.4635231567620117	37.216106	6.1005006
1.4810513504335687	36.077267	6.0064354
1.4985795787599925	35.459393	5.954779
1.5161078421516088	34.980392	5.9144225
1.5336361410187505	34.47436	5.871487
1.5511644757717598	34.393993	5.8646393
1.5686928468209842	35.07243	5.922198
1.58622125457678	35.9124	5.9926953
1.6037496994495108	37.20098	6.099261
1.621278181849548	37.003803	6.083075
1.6388067021872719	37.765007	6.145324
1.6563352608730693	37.375378	6.1135406
1.673863858317336	36.371166	6.0308514
1.6913924949304753	35.478386	5.9563737
1.7089211711228998	34.37419	5.862951
1.7264498873050296	33.902237	5.8225627
1.7439786438872935	33.077816	5.751332
1.7615074412801288	31.845541	5.643185
1.779036279893981	31.140778	5.5803924
1.796565160139305	30.15424	5.4912877
1.814094082426564	29.896544	5.467773
1.8316230471662298	29.073046	5.3919425
1.849152054768784	28.198053	5.310184
1.8666811056447168	27.333704	5.2281647
1.8842102002045273	26.43605	5.1416
1.901739338858724	25.92451	5.091612
1.9192685220178245	25.199627	5.019923
1.9367977500923557	24.478949	4.9476204
1.9543270234928547	23.756453	4.874059
1.971856342629867	23.09784	4.806021
1.9893857079139496	22.851961	4.7803726
2.006915119755667	22.42256	4.7352467
2.0244445785655945	21.871805	4.67673
2.0419740847543175	21.522354	4.6392193
2.0595036387324317	21.234838	4.6081276
2.0770332409105414	20.873861	4.5687923
2.094562891699263	20.605675	4.539347
2.1120925915092217	20.093613	4.4825897
2.129622340751053	19.662949	4.4342923
2.1471521398354043	187.68716	13.699897
2.1646819891729323	443.95444	21.070227
2.182211889174303	440.27478	20.982725
2.1997418402501974	452.83417	21.279902
2.2172718428113023	432.91028	20.806496
2.234801897268317	321.02475	17.917164
2.2523320040319548	17.497675	4.183022
2.269862163512935	17.096842	4.134833
2.287392376121992	16.51947	4.064415
2.304922642269869	16.037828	4.004726
2.322452962367322	15.662902	3.9576385
2.3399833368251164	15.419153	3.926723
2.357513766054032	15.207891	3.8997297
2.3750442504648586	14.930163	3.863957
2.3925747904683963	14.630183	3.8249424
2.410105386475459	14.44596	3.800784
2.4276360388968707	14.286967	3.7798104
2.445166748143469	14.322009	3.7844431
2.4626975146261025	14.008025	3.7427297
2.4802283387556323	13.689939	3.6999917
2.4977592209429305	13.284129	3.6447399
2.5152901615988825	13.040352	3.6111426
2.5328211611343865	12.833188	3.5823438
2.5503522199603523	12.625033	3.5531723
2.5678833384877024	12.435901	3.5264573
2.5854145171273712	12.222919	3.4961293
2.6029457562903064	11.898014	3.4493499
2.620477056387469	11.742887	3.4267895
2.6380084178298326	11.503571	3.3916914
2.655539841028383	11.316392	3.3639846
2.673071326394119	11.233751	3.3516788
2.6906028743380523	11.08723	3.329749
2.708134485271211	10.915051	3.3037934
2.7256661596046325	10.6829	3.2684708
2.743197897749369	10.49521	3.2396312
2.760729700116486	10.368745	3.2200534
2.778261567117063	10.267814	3.2043428
2.795793499162193	10.099302	3.17794
2.8133254966629817	10.046025	3.1695466
2.830857560030551	9.88743	3.1444285
2.8483896896760337	9.741706	3.1211705
2.865921886010578	9.623588	3.1021907
2.883454149445347	9.559285	3.0918093
2.9009864803915177	9.460333	3.0757654
2.91851887926028	9.412554	3.0679886
2.9360513464628384	9.235705	3.0390303
2.953583882410413	9.116967	3.0194316
2.9711164875142373	8.961521	2.99358
2.9886491621855606	8.743458	2.9569337
3.0061819068356455	8.532811	2.9210975
3.023714721875769	8.3769865	2.8943024
3.041247607717225	8.197052	2.8630495
3.0587805647713213	8.089742	2.844247
3.0763135934493806	8.144845	2.8539176
3.0938466941627407	8.274424	2.8765297
3.1113798673227544	8.319391	2.8843355
3.1289131133407904	8.189052	2.861652
3.1464464326282315	7.9629426	2.8218687
3.1639798255964786	7.815552	2.795631
3.1815132926569443	7.6866593	2.7724826
3.1990468342210603	7.5621414	2.749935
3.216580450700272	7.502046	2.7389863
3.2341141425060416	7.5292478	2.7439475
3.251647910049847	7.519614	2.7421916
3.2691817537431813	7.3191476	2.7053924
3.286715673997555	7.1173077	2.6678283
3.3042496712244938	6.9883623	2.643551
3.32178374583554	6.919036	2.6304061
3.339317898242251	6.81684	2.610908
3.3568521288562034	6.735784	2.5953388
3.3743864380889876	6.725546	2.5933657
3.3919208263522127	6.7873635	2.6052568
3.4094552940575023	6.786105	2.6050153
3.4269898416164972	6.7195926	2.5922177
3.444524469440858	6.4682245	2.5432703
3.4620591779422587	6.3923063	2.528301
3.479593967532391	6.291905	2.508367
3.4971288386229658	6.3228307	2.514524
3.5146637916257086	6.2903647	2.50806
3.5321988269523628	6.3361244	2.517166
3.5497339450146903	6.3332458	2.5165942
3.5672691462244708	6.3685017	2.5235891
3.5848044309934988	6.3750095	2.524878
3.60233979973359	6.315804	2.5131264
3.619875252856575	6.2546744	2.5009346
3.6374107907743034	6.17295	2.4845421
3.6549464138986427	6.1663713	2.483218
3.6724821226414788	6.094261	2.4686558
3.690017917414714	6.1212363	2.4741132
3.7075537986302702	6.1594586	2.4818256
3.7250897667000857	6.2596035	2.50192
3.7426258220361235	6.4349847	2.5367272
3.7601619650503553	6.7024097	2.5889013
3.777698196154779	7.1790314	2.6793714
3.7952345157614067	8.415186	2.900894
3.8127709242822716	9.3776045	3.0622876
3.830307422129425	11.873655	3.445817
3.847844009714936	30.592066	5.5310097
3.8653806874508954	97.98355	9.898664
3.882917455749409	97.05897	9.8518505
3.900454315022606	96.73096	9.83519
3.917991265682631	41.3687	6.4318504
3.9355283081416506	10.995618	3.315964
3.9530654428118495	8.689468	2.9477904
3.970602670105433	7.494594	2.7376256
3.9881399904346244	6.5802374	2.5651972
4.005677404211669	6.515032	2.5524561
4.023214911848827	6.472659	2.544142
4.0407525137583855	6.4027386	2.5303633
4.058290210352644	6.332384	2.516423
4.075828002043927	6.212108	2.4924102
4.0933658892445814	6.2430964	2.4986188
4.110903872366966	6.254293	2.5008585
4.128441951823468	6.3015485	2.5102885
4.145980128026488	6.234336	2.4968653
4.163518401388452	6.099683	2.4697535
4.181056772321807	6.069195	2.4635737
4.1985952412390155	6.0362515	2.4568784
4.216133808552567	6.1475463	2.4794245
4.233672474674966	6.211129	2.4922137
4.251211240018741	6.382019	2.5262659
4.268750104996445	6.614537	2.5718741
4.286289070020643	7.5105724	2.7405424
4.303828135503928	9.2087965	3.0345998
4.3213673018589125	29.521868	5.433403
4.3389065694982305	90.7704	9.52735
4.356445938834537	165.94948	12.882138
4.3739854102805085	170.93468	13.074199
4.391524984248844	171.7906	13.106892
4.409064661152262	135.82146	11.654246
4.426604441403504	96.38523	9.817598
4.444144325415337	75.77032	8.704615
4.461684313600543	21.941525	4.684178
4.47922440637193	22.331528	4.7256246
4.496764604142329	20.600174	4.5387416
4.5143049073245916	18.69905	4.3242397
4.531845316331589	16.533052	4.066086
4.5493858315762195	13.540913	3.679798
4.566926453471405	11.281937	3.3588595
4.584467182430081	9.255903	3.0423515
4.602008018865218	8.258169	2.873703
4.619548963189798	7.616783	2.759852
4.637090015816834	7.056528	2.6564126
4.654631177159353	6.7804	2.60392
4.672172447630417	6.419848	2.533742
4.689713827643102	6.2992306	2.509827
4.7072553176105085	6.1080165	2.47144
4.724796917945764	5.90838	2.430716
4.742338629062015	5.842294	2.4170837
4.759880451372434	5.7596326	2.3999236
4.777422385290215	5.7139115	2.390379
4.794964431228581	5.6980815	2.3870654
4.812506589600768	5.592253	2.3647945
4.830048860820047	5.5402803	2.35378
4.847591245299709	5.572136	2.3605373
4.8651337434530655	5.5446625	2.3547108
4.882676355693457	5.5574317	2.3574204
4.900219082434242	5.584731	2.3632035
4.917761924088813	5.626409	2.3720052
4.935304881070575	5.6422634	2.375345
4.952847953792969	5.615082	2.3696163
4.970391142669449	5.589256	2.3641608
4.9879344481135055	5.538286	2.3533564
5.005477870538642	5.5095954	2.3472528
5.023021410358394	5.454185	2.3354197
5.040565067986324	5.424511	2.329058
5.05810884383601	5.3967357	2.3230875
5.075652738321066	5.3692913	2.3171732
5.09319675185512	5.290924	2.300201
5.110740884851836	5.2991223	2.3019822
5.128285137724894	5.257932	2.293018
5.145829510888007	5.309693	2.3042772
5.163374004754908	5.3604984	2.315275
5.1809186197393595	5.397351	2.32322
5.198463356255145	5.3481507	2.3126068
5.216008214716077	5.269771	2.2955983
5.233553195535998	5.1997123	2.2802877
5.251098299128764	5.165915	2.2728648
5.268643525908272	5.1806927	2.2761135
5.286188876288432	5.2799144	2.2978065
5.3037343506831895	5.3187823	2.3062484
5.32127994950651	5.3322434	2.309165
5.3388256731723915	5.2754445	2.2968335
5.356371522094851	5.163617	2.2723594
5.373917496687938	5.177005	2.2753031
5.391463597365729	5.1632466	2.2722778
5.40900982454232	5.1222277	2.263234
5.426556178631843	5.1209383	2.262949
5.444102660048449	5.1372514	2.2665505
5.4616492692063225	5.144521	2.2681537
5.479196006519669	5.1261997	2.2641113
5.496742872402727	5.0690145	2.2514472
5.514289867269756	5.0926986	2.2567008
5.531836991535049	5.122374	2.2632663
5.549384245612924	5.2024903	2.280897
5.566931629917724	5.2300634	2.2869332
5.584479144863822	5.18264	2.2765412
5.6020267908656205	5.066049	2.2507885
5.619574568337545	5.0211673	2.240796
5.637122477694054	5.0102015	2.238348
5.654670519349629	5.099796	2.2582726
5.672218693718784	5.1222563	2.26324
5.689767001216059	5.1646447	2.2725854
5.707315442256021	5.1234694	2.263508
5.724864017253266	5.1319423	2.265379
5.7424127266224225	5.1397557	2.267103
5.75996157077814	5.176287	2.2751455
5.777510550135105	5.210556	2.2826643
5.795059665108022	5.2950196	2.301091
5.812608916111639	5.3065257	2.3035898
5.830158303560715	5.262869	2.2940943
5.847707827870055	5.1863527	2.2773566
5.86525748945448	5.209115	2.2823486
5.8828072887288485	5.3668613	2.3166487
5.900357226108044	5.3970876	2.3231633
5.917907302006979	5.5481153	2.3554437
5.9354575168406	6.1606517	2.482066
5.9530078710238765	6.864653	2.6200483
5.970558364971812	7.411636	2.722432
5.988108999099438	7.796298	2.792185
6.005659773821818	8.446767	2.9063323
6.023210689554039	8.194862	2.862667
6.040761746711227	8.599861	2.932552
6.058312945708531	7.8660693	2.8046513
6.075864286961132	7.3194556	2.7054493
6.093415770884244	6.6580915	2.5803277
6.1109673978931065	6.122181	2.4743042
6.128519168402993	5.547384	2.3552885
6.146071082829204	5.3995686	2.323697
6.163623141587075	5.233846	2.28776
6.181175345091969	5.113638	2.2613354
6.198727693759281	5.075421	2.2528694
6.216280188004435	5.1297064	2.2648854
6.233832828242885	5.113743	2.2613587
6.251385614890126	5.0418572	2.245408
6.268938548361669	5.00228	2.2365777
6.286491629073067	5.026841	2.2420619
6.304044857439898	5.0701427	2.2516978
6.321598233877777	5.062531	2.250007
6.339151758802344	4.9998507	2.2360346
6.356705432629277	4.938627	2.2223022
6.37425925577428	4.9400544	2.2226233
6.391813228653095	4.9491615	2.2246711
6.409367351681486	4.9517136	2.2252445
6.426921625275259	4.896829	2.212878
6.44447604985025	4.8776746	2.208546
6.46203062582232	4.918742	2.2178237
6.47958535360737	4.9946923	2.234881
6.497140233621328	5.0616093	2.249802
6.514695266280161	5.0391583	2.244807
6.532250451999859	4.9875755	2.233288
6.549805791196454	4.9231796	2.218824
6.567361284286002	4.939843	2.222576
6.584916931684597	5.0160475	2.2396533
6.602472733808367	5.078761	2.2536106
6.6200286910734665	5.0569105	2.2487576
6.637584803896092	5.0077486	2.2378
6.655141072692462	4.9651446	2.2282605
6.672697497878842	4.904026	2.2145035
6.690254079871514	4.917819	2.2176156
6.707810819086808	4.9083304	2.2154753
6.725367715941078	4.9398203	2.2225707
6.742924770850719	4.969262	2.2291842
6.760481984232151	5.006956	2.237623
6.778039356501836	5.02025	2.2405913
6.795596888076266	5.054005	2.2481115
6.813154579371963	5.036228	2.2441542
6.830712430805492	5.067934	2.2512074
6.84827044279344	5.033316	2.2435052
6.865828615752445	4.996506	2.2352867
6.883386950099159	4.968212	2.2289486
6.900945446250287	4.944323	2.2235835
6.918504104622553	4.9291306	2.2201645
6.936062925632727	4.9232154	2.218832
6.953621909697607	4.998367	2.2357028
6.971181057234028	5.0999722	2.2583117
6.988740368658859	5.168404	2.2734125
7.006299844389007	5.237536	2.2885664
7.023859484841407	5.27297	2.296295
7.041419290433036	5.325937	2.307799
7.058979261580902	5.4167833	2.3273983
7.0765393987020495	5.591696	2.3646767
7.094099702213559	5.924369	2.4340026
7.111660172532549	6.303408	2.510659
7.129220810076164	6.650168	2.5787919
7.146781615261595	7.1992006	2.6831326
7.16434258850606	7.441238	2.7278633
7.181903730226821	7.910985	2.8126473
7.1994650408411704	8.109956	2.8477983
7.217026520766437	8.275714	2.876754
7.234588170419983	8.5255995	2.919863
7.252149990219215	8.5134325	2.9177787
7.269711980581568	8.480054	2.912053
7.2872741419245175	8.214165	2.8660364
7.304836474665574	7.732517	2.7807403
7.322398979222286	7.442009	2.7280047
7.339961656012233	7.2298737	2.6888425
7.357524505453039	6.90568	2.627866
7.375087527962357	6.567553	2.5627236
7.392650723957886	6.238919	2.4977827
7.410214093857353	5.841132	2.4168434
7.427777638078528	5.6237197	2.3714383
7.445341357039213	5.44832	2.3341637
7.4629052511572525	5.298515	2.3018503
7.480469320850524	5.2243814	2.2856905
7.498033566536948	5.172583	2.2743313
7.5155979886344735	5.1622286	2.2720537
7.5331625875610975	5.163334	2.2722971
7.550727363734844	5.1213126	2.2630317
7.568292317573788	5.105505	2.2595365
7.585857449496025	5.111696	2.260906
7.603422759919705	5.166245	2.2729375
7.620988249263007	5.1812043	2.2762258
7.638553917944147	5.1633043	2.2722905
7.656119766381391	5.162467	2.2721064
7.673685794993023	5.23636	2.2883093
7.691252004197388	5.3390803	2.310645
7.70881839441285	5.3509173	2.313205
7.726384966057826	5.274807	2.2966948
7.743951719550762	5.16258	2.2721312
7.761518655310149	5.178932	2.2757268
7.779085773754511	5.23106	2.287151
7.796653075302419	5.2630115	2.2941253
7.814220560372475	5.280394	2.2979107
7.831788229383323	5.251118	2.2915318
7.8493560827536495	5.298303	2.3018043
7.866924120902174	5.348772	2.3127413
7.884492344247663	5.4273667	2.329671
7.9020607532089135	5.445006	2.3334537
7.919629348204771	5.3779974	2.319051
7.937198129654115	5.3081837	2.3039496
7.954767097975865	5.327028	2.3080354
7.972336253588986	5.3850327	2.3205674
7.989905596912472	5.446182	2.3337057
8.007475128365371	5.4360986	2.3315442
8.025044848366756	5.428087	2.3298256
8.042614757335754	5.508301	2.346977
8.060184855691523	5.5805774	2.3623245
8.07775514385327	5.6456356	2.3760545
8.095325622240228	5.681136	2.3835135
8.112896291271687	5.717175	2.3910615
8.130467151366968	5.7522254	2.3983798
8.148038202945436	5.810335	2.4104636
8.165609446426497	5.8760486	2.4240563
8.183180882229594	5.889969	2.426926
8.200752510774217	5.926416	2.4344232
8.218324332479893	5.9380436	2.43681
8.235896347766193	5.9443936	2.4381127
8.253468557052724	5.992069	2.4478703
8.27104096075914	5.957655	2.4408307
8.288613559305137	5.9798784	2.445379
8.306186353110448	6.0105696	2.4516463
8.32375934259485	6.1046987	2.470769
8.341332528178162	6.1555676	2.4810417
8.358905910280246	6.232604	2.4965184
8.376479489321003	6.1941924	2.4888134
8.394053265720377	6.2048225	2.4909482
8.411627239898356	6.1662154	2.4831865
8.42920141227497	6.2479415	2.4995883
8.44677578327029	6.264302	2.5028586
8.464350353304427	6.205724	2.491129
8.48192512279754	6.174573	2.4848688
8.499500092169827	6.1397243	2.4778466
8.51707526184153	6.1259017	2.475056
8.534650632232934	6.088155	2.4674187
8.552226203764365	6.0490093	2.4594734
8.569801976856192	6.0461874	2.4588997
8.587377951928834	6.0688887	2.4635115
8.60495412940274	6.2036147	2.4907057
8.622530509698416	6.296246	2.5092323
8.6401070932364	6.453633	2.5404
8.657683880437283	6.5465865	2.5586298
8.675260871721695	6.6827316	2.585098
8.692838067510303	6.7561965	2.5992684
8.710415468223834	6.8830886	2.623564
8.727993074283043	7.0404634	2.653387
8.745570886108737	7.0898285	2.6626732
8.763148904121765	7.205535	2.6843128
8.78072712874302	7.196892	2.6827023
8.798305560393441	7.386417	2.7177963
8.815884199494006	7.460177	2.7313325
8.833463046465745	7.613141	2.759192
8.851042101729728	7.7308574	2.780442
8.86862136570707	7.946268	2.8189125
8.886200838818924	8.099995	2.846049
8.903780521486505	8.1777	2.8596678
8.921360414131055	8.340557	2.8880022
8.938940517173874	8.469062	2.9101653
8.956520831036297	8.649629	2.941025
8.97410135613971	8.915428	2.9858713
8.99168209290554	9.1135435	3.0188646
9.009263041755265	9.4407425	3.0725791
9.026844203110405	9.688911	3.1127017
9.044425577392525	9.879374	3.143147
9.062007165023239	9.9749975	3.1583219
9.079588966424197	10.245203	3.2008128
9.097170982017108	10.381178	3.2219834
9.11475321222372	11.486555	3.389182
9.132335657465825	12.543348	3.5416589
9.149918318165264	12.669664	3.5594473
9.167501194743924	13.243208	3.6391218
9.18508428762374	12.861101	3.5862377
9.202667597226693	12.863432	3.5865626
9.220251123974803	12.615618	3.551847
9.237834868290143	12.2179165	3.4954135
9.255418830594836	12.024355	3.4676151
9.273003011311046	11.483411	3.3887181
9.290587410860985	11.23507	3.3518755
9.308172029666911	10.539394	3.2464433
9.32575686815113	10.216252	3.1962872
9.343341926735997	8.834979	2.9723692
9.360927205843916	8.599871	2.9325535
9.378512705897327	8.38888	2.8963563
9.396098427318728	8.18206	2.86043
9.413684370530664	8.079986	2.8425314
9.431270535955722	7.910482	2.812558
9.448856924016539	7.865686	2.804583
9.466443535135806	7.763829	2.7863648
9.484030369736251	7.8164043	2.7957833
9.501617428240658	7.8200407	2.7964337
9.519204711071852	7.8682017	2.8050315
9.536792218652714	7.8733473	2.8059485
9.55437995140617	7.8456883	2.8010156
9.571967909755191	7.788187	2.7907324
9.589556094122802	7.8274336	2.797755
9.60714450493207	7.8850493	2.808033
9.624733142606116	7.9172606	2.8137627
9.642322007568108	7.933069	2.8165705
9.659911100241267	7.8979197	2.8103237
9.677500421048851	7.9211144	2.8144474
9.695089970414175	7.9227977	2.8147464
9.712679748760609	7.9485765	2.8193219
9.730269756511557	7.982861	2.8253958
9.747859994090492	8.011825	2.8305166
9.765450461920915	8.109151	2.8476572
9.78304116042639	8.178353	2.859782
9.800632090030527	8.214649	2.8661208
9.81822325115699	8.181339	2.860304
9.835814644229481	8.161513	2.8568363
9.853406269671762	8.130861	2.8514664
9.870998127907646	8.1732235	2.858885
9.888590219360985	8.226715	2.868225
9.906182544455698	8.319514	2.8843567
9.923775103615734	8.28339	2.878088
9.941367897265108	8.188911	2.8616273
9.958960925827878	8.202473	2.863996
9.97655418972816	8.219708	2.8670034
9.994147689390106	8.283324	2.8780766
10.011741425237934	8.3307905	2.8863108
10.029335397695904	8.334309	2.8869202
10.04692960718833	8.34208	2.8882658
10.06452405413958	8.364616	2.8921647
10.082118738974064	8.324308	2.8851879
10.099713662116246	8.341164	2.8881073
10.117308823990651	8.31338	2.8832934
10.134904225021844	8.272007	2.8761096
10.152499865634445	8.202369	2.8639777
10.170095746253125	8.068291	2.8404737
10.18769186730261	8.081024	2.8427143
10.205288229207675	8.141627	2.8533537
10.222884832393145	8.11195	2.8481486
10.2404816772839	8.046247	2.8365908
10.258078764304868	7.967147	2.8226135
10.275676093881035	7.985855	2.8259256
10.293273666437438	7.966679	2.8225305
10.310871482399158	8.065965	2.8400643
10.32846954219134	8.058877	2.8388162
10.346067846239173	8.126621	2.850723
10.363666394967908	8.088241	2.8439832
10.38126518880283	8.071095	2.8409674
10.398864228169298	8.128984	2.8511374
10.416463513492713	8.188689	2.8615885
10.434063045198531	8.211845	2.8656318
10.451662823712262	8.191142	2.8620172
10.469262849459467	8.171149	2.8585222
10.486863122865758	8.122352	2.849974
10.504463644356806	8.131083	2.8515053
10.522064414358338	8.087752	2.8438973
10.539665433296118	8.013713	2.8308501
10.557266701595987	7.945789	2.8188276
10.574868219683818	7.90162	2.810982
10.592469987985552	7.7628684	2.7861924
10.610072006927185	7.59408	2.7557359
10.627674276934751	7.457838	2.7309043
10.64527679843435	7.352328	2.7115176
10.662879571852143	7.2907643	2.7001414
10.680482597614331	7.211806	2.6854806
10.698085876147173	7.057744	2.6566415
10.715689407876988	6.9142103	2.6294887
10.733293193230146	6.85494	2.618194
10.750897232633072	6.6990743	2.588257
10.76850152651225	6.5882754	2.5667636
10.786106075294207	6.4902234	2.5475917
10.803710879405534	6.4626784	2.5421798
10.821315939272877	6.4895325	2.547456
10.83892125532294	6.4023767	2.5302918
10.856526827982472	6.323954	2.5147474
10.874132657678285	6.247898	2.4995797
10.891738744837243	6.1325116	2.4763908
10.909345089886271	6.0649366	2.4627092
10.926951693252343	6.0486627	2.4594028
10.944558555362494	5.993776	2.4482188
10.96216567664381	5.8911257	2.427164
10.979773057523436	5.8159246	2.4116228
10.997380698428573	5.777257	2.4035926
11.014988599786477	5.7471623	2.397324
11.032596762024461	5.738516	2.39552
11.050205185569892	5.665868	2.3803084
11.067813870850198	5.626213	2.371964
11.085422818292859	5.520775	2.349633
11.10303202832541	5.444201	2.3332813
11.120641501375454	5.3545413	2.3139882
11.138251237870636	5.2955065	2.3011968
11.155861238238671	5.246032	2.290422
11.173471502907317	5.2172017	2.2841194
11.191082032304402	5.1492867	2.269204
11.208692826857805	5.0878596	2.2556283
11.226303886995465	5.020411	2.2406273
11.243915213145371	5.003333	2.236813
11.261526805735578	4.921155	2.2183676
11.279138665194196	4.8978047	2.2130985
11.296750791949393	4.879619	2.208986
11.314363186429393	4.85703	2.203867
11.331975849062479	4.7591324	2.1815436
11.34958878027699	4.6678314	2.1605165
11.36720198050133	4.621397	2.1497436
11.384815450163948	4.6293797	2.1515994
11.402429189693366	4.605896	2.146135
11.420043199518153	4.5649	2.1365626
11.437657480066942	63.515335	7.9696507
11.455272031768422	85.17943	9.22927
11.472886855051353	107.582245	10.372186
11.490501950344528	99.1439	9.957103
11.508117318076819	84.46675	9.190579
11.52573295867715	45.848633	6.771162
11.543348872574514	4.142075	2.035209
11.560965060197946	4.099028	2.0246058
11.57858152197655	4.0913777	2.0227153
11.59619825833949	4.0561256	2.0139825
11.613815269715985	4.013931	2.0034797
11.631432556535323	38.44918	6.2007403
11.649050119226837	82.92691	9.106421
11.666667958219929	93.326485	9.660563
11.68428607394406	107.60781	10.373419
11.701904466828756	82.48114	9.081913
11.719523137303586	65.34126	8.083394
11.737142085798196	4.5457153	2.1320684
11.754761312742286	3.6135476	1.9009334
11.772380818565619	3.6090693	1.8997551
11.790000603698015	3.607486	1.8993384
11.80762066856935	3.596797	1.8965223
11.825241013609572	3.559728	1.8867241
11.842861639248683	3.5587406	1.8864625
11.860482545916748	3.551902	1.884649
11.878103734043883	3.505141	1.8722022
11.895725204060282	3.4201837	1.8493738
11.91334695639619	3.3742013	1.8368999
11.930968991481919	3.372518	1.8364416
11.948591309747824	3.373236	1.8366371
11.966213911624347	3.316982	1.8212583
11.98383679754198	3.2771955	1.8103026
12.001459967931268	3.228615	1.7968347
12.019083423222835	3.2316828	1.7976881
12.036707163847352	3.2450702	1.8014078
12.05433119023556	3.2392848	1.7998013
12.071955502818259	3.1949816	1.7874511
12.089580102026313	3.149436	1.774665
12.107204988290643	3.1155365	1.7650882
12.12483016204224	3.117939	1.7657686
12.142455623712152	3.121745	1.7668461
12.16008137373149	3.105112	1.7621328
12.177707412531431	3.05816	1.7487596
12.19533374054321	3.0479026	1.7458243
12.212960358198126	3.0007555	1.7322689
12.230587265927545	2.986828	1.7282442
12.248214464162889	2.9854016	1.7278315
12.265841953335649	2.9916694	1.7296443
12.283469733877375	3.0152986	1.7364615
12.301097806219685	2.967051	1.722513
12.31872617079425	2.962318	1.7211386
12.336354828032825	2.9534795	1.718569
12.353983778367205	2.9834728	1.7272732
12.371613022229262	2.9942732	1.7303969
12.389242560050928	2.9768302	1.7253493
12.406872392264201	2.9707959	1.7235997
12.424502519301143	2.9535027	1.7185757
12.442132941593874	2.9463089	1.7164816
12.459763659574586	2.8990674	1.7026649
12.477394673675532	2.8710072	1.6944047
12.49502598432903	2.8335607	1.6833184
12.51265759196746	2.8344834	1.6835924
12.530289497023267	2.8219733	1.679873
12.547921699928967	2.7912145	1.6706928
12.565554201117134	2.7386904	1.6548989
12.583187001020404	2.7250018	1.6507579
12.600820100071486	2.735373	1.6538963
12.618453498703152	2.7673113	1.6635238
12.636087197348235	2.8160527	1.6781099
12.65372119643964	2.823855	1.6804329
12.671355496410326	2.824302	1.680566
12.68899009769333	2.821971	1.6798723
12.706625000721749	2.8432255	1.6861867
12.724260205928752	2.9019115	1.7034998
12.741895713747551	2.9660122	1.7222115
12.759531524611454	3.0075216	1.7342207
12.777167638953818	3.020834	1.7380546
12.794804057208072	2.987513	1.7284424
12.812440779807702	2.9938636	1.7302785
12.830077807186271	3.146047	1.77371
12.847715139777405	3.194041	1.787188
12.865352778014795	3.448197	1.8569322
12.882990722332197	3.5960896	1.8963358
12.90062897316344	3.65019	1.910547
12.918267530942412	3.7409048	1.9341419
12.935906396103071	3.6485207	1.9101101
12.953545569079449	3.8272219	1.9563286
12.971185050305628	3.6010482	1.8976429
12.988824840215775	3.617318	1.9019248
13.006464939244115	3.669797	1.9156713
13.024105347824943	3.5388355	1.8811793
13.041746066392617	3.5929751	1.8955145
13.05938709538157	3.3724372	1.8364197
13.077028435226296	3.3873768	1.8404827
13.094670086361363	3.2973244	1.8158536
13.112312049221401	3.2023644	1.7895151
13.129954324241112	3.1136708	1.7645596
13.147596911855258	2.9562936	1.7193875
13.165239812498685	2.9119244	1.7064362
13.182883026606293	2.8098903	1.6762727
13.200526554613058	2.747943	1.6576921
13.218170396954017	2.7271793	1.6514174
13.235814554064284	2.7703044	1.6644231
13.253459026379034	2.7462492	1.6571811
13.271103814333523	2.697932	1.6425383
13.288748918363058	2.6382005	1.6242539
13.306394338903031	2.6051657	1.6140525
13.32404007638889	2.6169655	1.6177038
13.341686131256164	2.6447194	1.6262593
13.359332503940449	2.6380188	1.624198
13.376979194877402	2.653642	1.6290003
13.394626204502751	2.6998525	1.6431228
13.412273533252307	2.7203174	1.6493385
13.429921181561937	2.7037773	1.6443167
13.447569149867581	2.7159963	1.648028
13.465217438605247	2.709041	1.6459165
13.482866048211022	2.6809702	1.6373669
13.500514979121052	2.6743088	1.6353314
13.518164231771568	2.65235	1.6286037
13.535813806598844	2.6560256	1.6297318
13.553463704039254	2.661311	1.6313524
13.571113924529229	2.6718502	1.6345795
13.588764468505275	2.692789	1.640972
13.606415336403956	2.7209191	1.6495209
13.624066528661917	2.730947	1.6525577
13.641718045715882	2.7973342	1.6725233
13.659369888002635	2.8345885	1.6836237
13.67702205595903	2.910255	1.7059469
13.694674550021993	2.9512618	1.7179236
13.712327370628532	3.0229952	1.7386763
13.729980518215713	3.0983617	1.7602164
13.747633993220681	3.1937008	1.7870928
13.765287796080647	3.2275465	1.7965374
13.7829419272329	3.275732	1.8098984
13.800596387114801	3.3016882	1.8170549
13.818251176163775	3.3458667	1.8291711
13.835906294817324	3.3939412	1.8422652
13.853561743513023	3.4230332	1.8501441
13.871217522688525	3.4305487	1.852174
13.888873632781538	3.4892893	1.8679639
13.906530074229858	3.5178993	1.8756064
13.92418684747135	3.5280838	1.8783194
13.941843952943948	3.5059452	1.872417
13.959501391085665	3.4683547	1.8623519
13.977159162334578	3.4209192	1.8495727
13.994817267128846	3.3329687	1.825642
14.012475705906693	3.2172437	1.7936677
14.030134479106424	3.1055331	1.7622523
14.047793587166414	3.0613315	1.7496661
14.065453030525108	3.0314074	1.7410938
14.083112809621026	2.980819	1.7265048
14.100772924892766	2.890984	1.7002894
14.118433376778997	2.8675873	1.6933953
14.136094165718458	2.8037198	1.6744312
14.153755292149969	2.7696402	1.6642236
14.171416756512416	2.6858406	1.6388534
14.189078559244768	2.6219697	1.6192497
14.20674070078606	2.5516114	1.5973765
14.224403181575408	2.4817178	1.575347
14.242066002051999	2.4592192	1.5681897
14.259729162655093	2.4486537	1.5648174
14.277392663824022	2.4233925	1.5567249
14.295056505998208	2.3954926	1.5477378
14.312720689617128	2.4251502	1.5572894
14.330385215120348	2.4042172	1.5505538
14.348050082947497	2.3974423	1.5483676
14.3657152935383	2.3551338	1.5346445
14.383380847332528	2.3448935	1.5313045
14.401046744770051	2.3664331	1.5383215
14.418712986290798	2.3728282	1.5403987
14.436379572334793	2.3970277	1.5482337
14.454046503342123	2.3750844	1.5411309
14.471713779752946	2.3439734	1.5310041
14.489381402007504	2.3140206	1.5211905
14.507049370546113	2.3255723	1.5249827
14.524717685809168	2.3177657	1.522421
14.542386348237134	2.3603382	1.5363393
14.560055358270553	2.3824537	1.5435199
14.577724716350051	2.4521954	1.5659487
14.595394422916325	2.4064598	1.5512768
14.61306447841015	2.4457645	1.563894
14.63073488327237	2.4454691	1.5637996
14.648405637943917	2.5144856	1.5857129
14.6660767428658	2.4635584	1.5695727
14.683748198479094	2.4475145	1.5644535
14.701420005224954	2.4588447	1.5680704
14.719092163544628	2.5505223	1.5970355
14.73676467387942	2.6362805	1.6236627
14.754437536670727	2.7149968	1.6477247
14.772110752360014	2.7570593	1.6604395
14.78978432138882	2.7242858	1.6505411
14.807458244198777	2.7000098	1.6431707
14.82513252123159	2.661882	1.6315274
14.842807152929028	2.6855624	1.6387686
14.860482139732962	2.687628	1.6393987
14.87815748208531	2.6292768	1.6215044
14.8958331804281	2.650288	1.6279706
14.91350923520342	2.6167834	1.6176475
14.931185646853438	2.6444197	1.6261672
14.948862415820408	2.6354914	1.6234196
14.966539542546656	2.6455967	1.6265291
14.98421702747459	2.6283026	1.621204
15.001894871046696	2.6274989	1.6209562
15.019573073705542	2.633804	1.6228999
15.037251635893766	2.6137483	1.6167091
15.054930558054092	2.6307082	1.6219459
15.072609840629323	2.692771	1.6409664
15.090289484062351	2.8290317	1.6819726
15.107969488796124	3.1163614	1.7653219
15.125649855273691	3.4652948	1.8615302
15.14333058393817	3.925024	1.9811673
15.161011675232768	4.929593	2.2202687
15.17869312960076	6.296223	2.5092275
15.196374947485506	8.149436	2.8547218
15.214057129330447	11.161694	3.340912
15.231739675579114	15.983489	3.9979355
15.249422586675102	21.454393	4.631889
15.267105863062092	24.936163	4.9936123
15.284789505183847	25.442547	5.0440607
15.302473513484218	23.319948	4.8290734
15.320157888407127	19.590115	4.426072
15.337842630396578	15.207414	3.8996685
15.355527739896656	11.766617	3.4302502
15.37321321735153	9.084821	3.0141037
15.39089906320545	6.5526333	2.559811
15.408585277902748	4.8313303	2.1980288
15.42627186188783	3.7068827	1.9253267
15.443958815605198	3.1820815	1.783839
15.461646139499424	2.9352298	1.7132512
15.479333834015168	2.8136246	1.6773863
15.497021899597165	2.735385	1.6538999
15.514710336690234	2.6352727	1.6233523
15.53239914573928	2.5638387	1.6011992
15.550088327189297	2.5275977	1.5898421
15.567777881485336	2.5304418	1.5907363
15.58546780907256	2.5366647	1.5926911
15.6031581103962	2.5114613	1.584759
15.620848785901568	2.4718802	1.5722214
15.638539836034063	2.4749727	1.5732046
15.656231261239173	2.4621873	1.5691358
15.673923061962451	2.4146063	1.5539004
15.691615238649552	2.3773067	1.5418518
15.709307791746202	2.4043016	1.5505811
15.727000721698221	2.4404678	1.5621997
15.744694028951498	2.442005	1.5626916
15.76238771395202	2.3969574	1.548211
15.780081777145844	2.3348618	1.5280254
15.797776218979125	2.3239293	1.524444
15.815471039898094	2.338009	1.529055
15.833166240349064	2.3656757	1.5380753
15.850861820778437	2.381904	1.5433418
15.868557781632699	2.3838346	1.5439671
15.886254123358412	2.3739405	1.5407597
15.903950846402232	2.3510702	1.53332
15.921647951210897	2.367205	1.5385723
15.939345438231225	2.3784652	1.5422274
15.957043307910133	2.4365907	1.5609583
15.974741560694602	2.4673808	1.5707898
15.992440197031714	2.473176	1.5726335
16.01013921736862	2.4193578	1.5554285
16.02783862215259	2.371262	1.5398903
16.045538411830933	2.375198	1.5411677
16.06323858685107	2.4036186	1.5503608
16.080939147660512	2.4113262	1.5528445
16.09864009470684	2.423361	1.5567148
16.11634142843774	2.420363	1.5557516
16.134043149300954	2.385606	1.5445408
16.15174525774433	2.3562467	1.5350071
16.169447754215817	2.3754973	1.5412649
16.18715063916342	2.4429038	1.5629791
16.204853913035244	2.4839008	1.5760396
16.222557576279478	2.47424	1.5729717
16.240261629344403	22.41038	4.73396
16.257966072678386	42.951828	6.5537643
16.275670906729868	38.09774	6.1723366
16.293376131947387	2.5254858	1.5891777
16.31108174877957	2.52574	1.5892577
16.328787757675133	2.5076864	1.5835676
16.34649415908287	2.5167346	1.586422
16.364200953451657	2.5418108	1.5943058
16.38190814123048	2.5700476	1.6031368
16.39961572286839	2.5766673	1.6052
16.41732369881455	2.6400223	1.6248145
16.43503206951817	2.705868	1.6449523
16.45274083542859	2.8005545	1.6734858
16.47044999699522	2.819368	1.6790973
16.488159554667558	2.8351748	1.6837977
16.505869508895184	2.826526	1.6812276
16.523579860127786	2.8258824	1.6810361
16.541290608815117	2.8800094	1.697059
16.559001755407035	2.979202	1.7260365
16.57671330035348	3.0460694	1.7452992
16.59442524410448	3.0677245	1.751492
16.61213758711015	3.0962057	1.7596039
16.629850329820705	3.138748	1.7716511
16.647563472686436	3.255149	1.8042032
16.665277016157724	3.3475928	1.8296428
16.682990960685053	3.448182	1.8569281
16.70070530671898	3.4822419	1.8660766
16.718420054710155	3.4930122	1.8689601
16.736135205109335	3.4818058	1.8659598
16.753850758367335	3.5090177	1.8732373
16.771566714935087	3.585481	1.8935366
16.789283075263597	3.6812747	1.9186648
16.80699983980398	3.756784	1.9382424
16.82471700900741	3.7835019	1.9451226
16.84243458332518	3.8443694	1.9607064
16.860152563208665	3.895875	1.9737971
16.87787094910932	4.016875	2.0042143
16.89558974147871	4.108832	2.0270255
16.913308940768466	4.212179	2.0523593
16.931028547430333	4.23958	2.059024
16.94874856191613	4.314991	2.0772557
16.966468984677785	4.3512774	2.0859716
16.98418981616729	4.3802953	2.0929155
17.00191105683676	4.3632197	2.0888321
17.019632707138374	4.4209113	2.1025963
17.03735476752442	4.50235	2.121874
17.05507723844728	4.5390716	2.1305096
17.072800120359403	4.5655317	2.1367104
17.090523413713353	4.6081266	2.1466548
17.108247118961785	4.617563	2.1488514
17.125971236557437	4.617617	2.148864
17.143695766953133	4.6177664	2.1488988
17.161420710601806	4.6360545	2.1531498
17.179146067956477	4.658604	2.15838
17.19687183947025	4.6666875	2.1602516
17.21459802559634	4.655142	2.1575778
17.232324626788028	4.6475654	2.1558213
17.25005164349871	4.6223083	2.1499555
17.267779076181863	4.624803	2.1505356
17.285506925291074	4.61399	2.14802
17.30323519127999	4.6035967	2.1455994
17.320963874602384	4.5461793	2.132177
17.33869297571211	4.5055985	2.1226394
17.356422495063114	4.456039	2.1109333
17.37415243310944	4.5025067	2.121911
17.391882790305218	4.523758	2.1269128
17.40961356710468	4.531874	2.12882
17.42734476396215	4.480188	2.1166453
17.445076381332044	4.4977145	2.1207817
17.462808419668868	4.52872	2.128079
17.48054087942723	4.609159	2.1468952
17.498273761061835	4.890187	2.2113767
17.51600706502747	5.4081693	2.325547
17.533740791779024	6.1472726	2.4793694
17.551474941771485	7.4414887	2.7279093
17.56920951545993	8.55059	2.924139
17.586944513299528	10.962605	3.3109825
17.60467993574556	12.885445	3.5896301
17.622415783253373	14.746972	3.8401787
17.64015205627843	16.274708	4.0341926
17.657888755276293	17.501762	4.183511
17.675625880702604	18.10978	4.2555585
17.69336343301311	17.898926	4.2307124
17.71110141266366	16.988216	4.1216764
17.728839820110178	15.877103	3.9846082
17.746578655808705	14.708151	3.8351207
17.764317920215372	12.970389	3.6014426
17.7820576137864	11.330843	3.3661318
17.79979773697811	9.294213	3.0486412
17.81753829024692	7.460079	2.7313147
17.835279274049356	5.8317246	2.4148965
17.85302068884201	4.788863	2.188347
17.870762535081607	4.1704893	2.0421777
17.888504813224934	3.8622098	1.9652506
17.90624752372891	3.675869	1.9172556
17.923990667050536	3.5447981	1.8827634
17.941734243646895	3.4687452	1.8624568
17.959478253975185	3.4723902	1.863435
17.9772226984927	3.480022	1.8654817
17.994967577656833	3.4675071	1.8621243
18.01271289192506	3.4084291	1.8461932
18.030458641754965	3.352821	1.831071
18.04820482760425	3.282619	1.8117999
18.06595144993067	3.2354636	1.7987394
18.083698509192125	3.227499	1.7965242
18.101446005846576	3.2291873	1.796994
18.119193940352105	3.2130594	1.7925009
18.136942313166887	3.2045743	1.7901325
18.1546911247492	3.1949728	1.7874486
18.1724403755574	3.2158315	1.7932739
18.19019006604997	3.18363	1.7842729
18.207940196685467	3.1380513	1.7714546
18.225690767922575	3.1171093	1.7655337
18.243441780220046	3.0917397	1.7583344
18.261193234036764	3.0259082	1.7395138
18.278945129831676	3.012529	1.7356638
18.29669746806386	2.9853766	1.7278242
18.314450249192483	3.0298164	1.7406368
18.3322034736768	3.0294273	1.740525
18.349957141976184	2.9832325	1.7272036
18.3677112545501	2.9340901	1.7129186
18.385465811858108	2.9655323	1.7220721
18.403220814359884	3.0181413	1.7372799
18.420976262515172	3.0889733	1.7575475
18.43873215678387	3.1154027	1.7650503
18.456488497625923	3.1131527	1.7644129
18.474245285501407	3.199391	1.7886841
18.492002520870486	3.2933109	1.8147482
18.50976020419343	3.386302	1.8401908
18.527518335930615	3.6545947	1.9116994
18.545276916542516	4.1857677	2.045915
18.563035946489688	4.360087	2.088082
18.580795426232832	4.818726	2.1951597
18.598555356232698	4.7000117	2.167951
18.616315736950185	4.9672294	2.2287283
18.63407656884626	4.5557775	2.1344268
18.65183785238201	4.7174873	2.1719778
18.669599588018617	4.4946475	2.1200583
18.68736177621737	4.5308537	2.1285803
18.705124417439652	4.5658574	2.1367867
18.72288751214696	4.4064183	2.099147
18.740651060800886	4.547839	2.1325665
18.758415063863115	4.263642	2.0648587
18.77617952179546	4.4161663	2.1014676
18.793944435059814	4.164782	2.0407798
18.811709804118184	4.1867332	2.046151
18.829475629432675	4.129436	2.0321014
18.8472419114655	3.9291682	1.982213
18.86500865067897	3.9755943	1.9938892
18.88277584753551	3.6874936	1.9202847
18.90054350249763	3.708499	1.9257463
18.918311616027957	3.4450448	1.8560832
18.936080188589226	3.3494804	1.8301586
18.953849220644265	3.0422702	1.7442105
18.971618712656007	2.8358696	1.6840041
18.9893886650875	2.7649047	1.6628003
19.007159078401887	8.011729	2.8305
19.024929953062408	32.945686	5.7398334
19.042701289532435	32.89564	5.735472
19.060473088275405	25.4217	5.0419936
19.07824534975489	2.637519	1.624044
19.096018074434568	2.6185205	1.6181843
19.113791262778197	2.594031	1.6105996
19.13156491524966	2.5922632	1.6100507
19.149339032312945	2.5157022	1.5860965
19.167113614432136	2.5057194	1.5829464
19.184888662071433	2.5068872	1.5833153
19.202664175695123	2.5187	1.5870413
19.220440155767623	2.5221276	1.5881208
19.238216602753447	2.5408096	1.5939918
19.2559935171172	2.5473146	1.596031
19.27377089932361	2.5588338	1.5996355
19.291548749837514	2.5437982	1.5949289
19.309327069123835	2.517958	1.5868075
19.32710585764763	2.4707408	1.571859
19.344885115874032	2.43856	1.5615889
19.362664844268313	2.461567	1.5689381
19.380445043295822	2.4796338	1.5746853
19.39822571342203	2.497326	1.5802929
19.41600685511252	2.496633	1.5800737
19.43378846883297	2.496694	1.580093
19.451570555049173	2.508055	1.583684
19.469353114227037	2.5167143	1.5864155
19.48713614683254	2.5004842	1.5812919
19.50491965333182	2.460977	1.5687501
19.52270363419109	2.4622567	1.569158
19.540488089876686	2.4943404	1.5793481
19.55827302085503	2.4999855	1.5811342
19.576058427592674	2.4916682	1.5785019
19.593844310556282	2.467041	1.5706817
19.611630670212598	2.4771848	1.5739075
19.629417507028506	2.4915018	1.5784491
19.64720482147098	2.4960988	1.5799047
19.6649926140071	2.4777787	1.5740962
19.682780885104084	2.4834363	1.5758922
19.70056963522921	2.5115628	1.5847911
19.718358864849908	2.5200062	1.5874528
19.7361485744337	2.5050337	1.5827298
19.753938764448215	2.4932735	1.5790102
19.771729435361202	2.5096772	1.5841961
19.789520587640506	2.499116	1.5808592
19.807312221754092	2.4627752	1.5693232
19.825104338170043	2.497932	1.5804847
19.842896937356517	2.5496159	1.5967517
19.860690019781824	2.5694356	1.6029459
19.87848358591436	2.5275416	1.5898244
19.896277636222635	2.4892213	1.5777266
19.914072171175278	2.498461	1.5806521
19.931867191241015	2.506929	1.5833285
19.94966269688869	2.5195272	1.5873019
19.967458688587264	2.4924436	1.5787475
19.985255166805807	2.506848	1.5833029
20.00305213201348	2.5328622	1.5914968
20.020849584679578	2.5207102	1.5876745
20.038647525273507	2.49317	1.5789775
20.05644595426477	2.4286158	1.5584017
20.07424487212299	2.4460728	1.5639926
20.092044279317903	2.4635105	1.5695574
20.109844176319353	2.4759939	1.5735291
20.127644563597304	2.458518	1.5679662
20.145445441621817	2.4162014	1.5544136
20.16324681086307	2.4090617	1.5521152
20.181048671791373	2.411645	1.5529472
20.198851024877122	2.4430728	1.5630332
20.216653870590836	2.4248402	1.5571898
20.234457209403146	2.3974643	1.5483748
20.252261041784802	2.3921182	1.5466474
20.270065368206662	2.373993	1.5407767
20.287870189139685	2.354528	1.5344471
20.305675505054968	2.3541114	1.5343114
20.323481316423702	2.3693454	1.5392678
20.341287623717207	2.3515308	1.5334702
20.359094427406884	2.3305912	1.5266274
20.376901727964288	2.326988	1.5254468
20.39470952586107	2.3122299	1.5206019
20.41251782156899	2.3053725	1.5183454
20.430326615559935	2.2983766	1.5160397
20.448135908305886	2.3091173	1.519578
20.465945700278965	2.320145	1.5232022
20.483755991951384	2.3394933	1.5295402
20.50156678379548	2.3466594	1.531881
20.519378076283708	2.3335278	1.5275888
20.537189869888635	2.3197892	1.5230854
20.55500216508294	2.3182092	1.5225667
20.572814962339415	2.2994318	1.5163877
20.59062826213098	2.3085647	1.5193962
20.60844206493066	2.322871	1.5240967
20.626256371211593	2.3336065	1.5276146
20.644071181447032	2.3540716	1.5342984
20.66188649611036	2.3322165	1.5271596
20.67970231567506	2.3273773	1.5255744
20.697518640614742	2.2790859	1.5096642
20.715335471403122	2.272024	1.5073234
20.73315280851404	2.265826	1.5052661
20.750970652421447	2.282113	1.5106665
20.768789003599412	2.2861648	1.5120069
20.786607862522136	2.2959776	1.5152484
20.8044272296639	2.2948258	1.5148683
20.82224710549913	2.2650645	1.5050131
20.84006749050237	2.2547495	1.5015824
20.857888385148268	3.82158	1.9548862
20.8757097899116	45.97768	6.7806845
20.893531705267254	64.82202	8.051212
20.911354131690224	83.84256	9.156558
20.92917706965566	69.042046	8.3091545
20.94700051963877	50.096245	7.07787
20.96482448211493	29.373877	5.4197674
20.982648957559622	4.127591	2.0316474
21.00047394644843	2.2016196	1.4837856
21.01829944925707	2.2108843	1.4869043
21.036125466461375	2.235662	1.495213
21.053951998537297	2.2473521	1.4991171
21.071779045960906	2.2434397	1.4978117
21.089606609208378	2.1966853	1.482122
21.10743468875603	2.1783106	1.4759101
21.12526328508028	2.1817524	1.4770757
21.143092398657675	2.1956575	1.4817752
21.16092202996488	2.180665	1.4767075
21.17875217947867	2.1896815	1.4797573
21.19658284767596	2.2008402	1.4835229
21.21441403503377	2.1993327	1.4830147
21.232245742029225	2.2003753	1.4833663
21.2500779691396	2.187067	1.4788736
21.26791071684227	2.1596847	1.4695866
21.28574398561475	2.172409	1.4739095
21.30357777593465	2.1976433	1.482445
21.321412088279704	2.194574	1.4814095
21.339246923127792	2.1495547	1.466136
21.357082280956888	2.1534843	1.4674755
21.3749181622451	2.141806	1.463491
21.392754567470647	2.103825	1.4504569
21.41059149711187	2.0679724	1.4380447
21.42842895164726	2.0511093	1.4321694
21.446266931555378	2.0930018	1.4467211
21.464105437314945	2.0998747	1.4490944
21.481944469404798	2.0813541	1.4426899
21.49978402830388	2.0580187	1.4345796
21.51762411449127	2.0725477	1.4396346
21.53546472844617	2.1224875	1.4568759
21.553305870647876	2.1526139	1.467179
21.571147541575865	2.1479375	1.4655844
21.58898974170967	2.1370208	1.4618553
21.60683247152899	2.099488	1.448961
21.62467573151363	2.0628076	1.4362477
21.642519522143523	2.0398126	1.42822
21.660363843898722	2.0655456	1.4372005
21.6782086972594	2.081307	1.4426736
21.696054082705864	2.0953987	1.4475492
21.713900000718535	2.0619068	1.4359341
21.73174645177795	2.0273802	1.423861
21.749593436364794	1.9963014	1.4129053
21.767440954959845	2.0062053	1.4164058
21.785289008044032	1.9992987	1.4139656
21.803137596098388	1.9977664	1.4134237
21.820986719604086	1.9705019	1.4037457
21.838836379042412	1.9739238	1.404964
21.85668657489478	1.9783154	1.406526
21.87453730764273	2.0019927	1.414918
21.892388577767914	2.016613	1.420075
21.91024038575213	2.0032732	1.4153703
21.928092732077285	2.011811	1.4183832
21.945945617225426	2.0049467	1.4159614
21.963799041678694	2.0043528	1.4157517
21.981653005919398	31.277258	5.5926075
21.999507510429943	78.102715	8.837574
22.01736255569286	73.070305	8.548117
22.035218142190818	4.148972	2.0369027
22.05307427040661	1.9550725	1.3982391
22.07093094082315	1.9621295	1.4007603
22.088788153923474	2.0065622	1.4165318
22.106645910190746	2.002272	1.4150165
22.12450421010827	2.001607	1.4147816
22.142363054159464	2.0354755	1.426701
22.16022244282787	2.0570285	1.4342345
22.178082376597164	2.049104	1.4314692
22.195942855951145	2.0223813	1.4221045
22.213803881373742	2.012078	1.4184774
22.231665453349002	1.9942447	1.4121773
22.24952757236111	1.9765291	1.4058908
22.26739023889438	1.9671105	1.4025372
22.28525345343323	1.9498407	1.396367
22.30311721646225	1.9520975	1.3971748
22.320981528466113	1.9550438	1.3982288
22.33884638992964	1.9334382	1.3904812
22.356711801337788	1.93214	1.3900144
22.37457776317561	1.9155062	1.3840182
22.392444275928337	1.9104891	1.3822044
22.410311340081282	1.8858539	1.373264
22.428178956119904	1.9139534	1.3834571
22.446047124529805	1.9181825	1.3849846
22.46391584579669	1.9321835	1.39003
22.481785120406414	1.9439765	1.3942655
22.49965494884496	1.9735924	1.4048461
22.51752533159841	1.961024	1.4003657
22.53539626915302	1.9253097	1.3875552
22.553267761995137	1.8915472	1.3753353
22.571139810611264	1.9183139	1.385032
22.589012415488025	1.9495717	1.3962706
22.60688557711216	1.9649458	1.4017652
22.624759295970566	1.9690766	1.4032379
22.642633572550263	1.9578087	1.3992171
22.660508407338362	1.9269862	1.3881593
22.67838380082217	1.8964819	1.3771281
22.696259753489077	1.9157603	1.38411
22.714136265826614	1.9271326	1.388212
22.73201333832246	1.9050903	1.3802501
22.74989097146439	1.9056727	1.380461
22.76776916574035	1.912068	1.3827754
22.785647921638393	1.9214021	1.3861465
22.803527239646712	1.9287249	1.3887854
22.82140712025363	1.9153883	1.3839755
22.839287563947593	1.921488	1.3861775
22.85716857121719	1.9373348	1.3918817
22.875050142551135	1.9003835	1.378544
22.892932278438277	1.8563507	1.3624796
22.910814979367604	1.8255599	1.3511328
22.928698245828222	1.8506675	1.3603925
22.946582078309387	1.8407313	1.3567355
22.96446647730047	1.8692924	1.3672206
22.98235144329098	1.9270896	1.3881965
23.000236976770562	1.9828625	1.4081415
23.018123078229	1.9810032	1.4074812
23.03600974815619	1.9487125	1.395963
23.053896987042194	1.9292077	1.3889592
23.071784795377173	1.9097477	1.3819362
23.08967317365145	1.8930999	1.3758997
23.10756212235546	1.8948727	1.3765438
23.125451641979787	1.8804314	1.3712882
23.143341733015134	1.8963119	1.3770664
23.161232395952357	1.9123842	1.3828897
23.179123631282426	1.92365	1.3869572
23.197015439496468	1.9360676	1.3914264
23.214907821085717	1.9339207	1.3906548
23.23280077654157	1.9355698	1.3912475
23.250694306355538	1.9571859	1.3989946
23.268588411019277	1.9237903	1.3870077
23.28648309102458	1.9246782	1.3873277
23.304378346863356	1.9447052	1.3945268
23.322274179027676	1.9743509	1.405116
23.340170588009723	1.9657705	1.4020593
23.358067574301852	1.9710268	1.4039326
23.37596513839651	1.9471624	1.3954076
23.39386328078629	1.9269515	1.3881468
23.411762001963947	1.9134483	1.3832746
23.429661302422353	1.9265834	1.3880142
23.4475611826545	1.9397472	1.3927481
23.46546164315356	1.9290516	1.388903
23.48336268441279	1.9553491	1.398338
23.501264306925638	1.9309194	1.3895752
23.51916651118564	1.9250998	1.3874797
23.537069297686497	1.9442225	1.3943537
23.554972666922037	1.9641222	1.4014714
23.57287661938623	1.9549056	1.3981794
23.59078115557318	1.9389577	1.3924646
23.608686275977128	1.9604756	1.4001698
23.62659198109246	1.9708136	1.4038568
23.6444982714137	1.9795774	1.4069746
23.66240514743549	1.9422671	1.3936524
23.68031260965263	1.8914634	1.3753048
23.698220658560068	1.8836964	1.3724782
23.716129294652845	1.9091315	1.3817133
23.7340385184262	1.9160362	1.3842096
23.75194833037546	1.9169707	1.3845471
23.769858730996123	1.8915603	1.3753401
23.78776972078382	1.9108746	1.3823439
23.80568130023431	1.942879	1.3938719
23.823593469843495	1.9610841	1.4003872
23.841506230107424	1.9563563	1.3986981
23.859419581522275	1.9415644	1.3934003
23.87733352458438	1.933971	1.3906729
23.89524805979019	1.9033904	1.3796341
23.913163187636318	1.8684664	1.3669186
23.931078908619508	1.8835822	1.3724366
23.948995223236633	1.9373444	1.3918852
23.966912131984735	1.9488188	1.396001
23.98482963536096	2.0201402	1.4213164
24.002747733862616	2.0756214	1.4407017
24.020666427987155	2.1318846	1.4600974
24.038585718232156	2.0935123	1.4468975
24.056505605095353	2.0915961	1.4462352
24.074426089074617	2.0527344	1.4327366
24.092347170667946	2.0573587	1.4343495
24.110268850373515	2.0584643	1.434735
24.128191128689586	2.1026251	1.4500432
24.146114006114626	2.069375	1.4385322
24.164037483147187	2.0905235	1.4458643
24.181961560286005	2.0628803	1.4362731
24.199886238029926	2.0567663	1.4341431
24.21781151687797	2.0274096	1.4238713
24.235737397329274	2.0255606	1.423222
24.253663879883135	2.0353496	1.4266568
24.271590965038975	2.0497913	1.4317093
24.289518653296376	2.074782	1.4404104
24.30744694515505	2.06506	1.4370316
24.32537584111486	2.0454056	1.4301767
24.34330534167581	2.056041	1.4338902
24.361235447338046	2.0546665	1.4334108
24.379166158601876	2.0303535	1.4249047
24.39709747596772	2.0028803	1.4152316
24.41502939993615	1.9841706	1.4086059
24.432961931007917	1.964851	1.4017315
24.450895069683856	1.9955814	1.4126505
24.468828816465	1.9931834	1.4118015
24.4867631718525	2.0015762	1.4147707
24.504698136347656	2.0423968	1.4291245
24.52263371045192	2.0122342	1.4185324
24.540569894666874	1.9751333	1.4053943
24.558506689494266	1.9599336	1.3999763
24.57644409543597	1.9410949	1.3932319
24.594382112994012	1.9153641	1.3839668
24.61232074267057	1.9245658	1.3872873
24.630259984967953	1.9668199	1.4024335
24.64819984038863	1.941522	1.393385
24.66614030943522	1.9256768	1.3876876
24.684081392610462	1.9575208	1.3991143
24.702023090417274	2.014873	1.4194622
24.7199654033587	2.0047116	1.4158784
24.737908331937927	2.015577	1.4197102
24.755851876658305	2.0688164	1.438338
24.773796038023324	2.1046643	1.4507462
24.79174081653661	2.097428	1.44825
24.809686212701962	2.0950534	1.4474299
24.827632227023294	2.1006417	1.449359
24.8455788600047	2.1152394	1.4543862
24.8635261121504	2.1486218	1.4658178
24.88147398396475	2.152785	1.4672372
24.899422475952303	2.0978246	1.4483869
24.917371588617698	2.1012964	1.449585
24.935321322465768	2.1894734	1.479687
24.953271678001478	2.2998037	1.5165104
24.97122265572994	2.4565814	1.5673485
24.989174256156414	2.7722068	1.6649945
25.00712647978632	3.204011	1.7899752
25.02507932712521	3.750741	1.9366829
25.043032798678798	4.3356085	2.0822124
25.060986894952933	5.0645385	2.250453
25.078941616453637	5.9365153	2.4364965
25.096896963687055	7.138561	2.6718085
25.114852937159508	8.345789	2.888908
25.132809537377444	8.769368	2.9613118
25.150766764847468	8.672567	2.9449222
25.168724620076347	8.048295	2.8369517
25.186683103570985	6.9212675	2.6308303
25.204642215838426	5.6475077	2.3764486
25.222601957385894	4.2163343	2.0533714
25.24056232872074	3.2286897	1.7968554
25.25852333035048	2.5763488	1.6051009
25.276484962782778	2.2312458	1.4937356
25.294447226525435	2.0581315	1.434619
25.312410122086423	1.985542	1.4090927
25.330373649973843	1.9306911	1.3894931
25.348337810695988	1.9011031	1.3788049
25.366302604761245	1.9632846	1.4011726
25.384268032678207	1.965286	1.4018866
25.40223409495558	1.967268	1.4025933
25.420200792102257	1.9293493	1.3890102
25.438168124627246	1.9304535	1.3894076
25.45613609303974	1.9250151	1.3874491
25.474104697849057	1.9100372	1.382041
25.492073939564698	1.9189765	1.3852713
25.510043818696285	1.9347042	1.3909365
25.528014335753614	1.9268576	1.3881129
25.54598549124664	1.8730654	1.3685998
25.56395728568544	1.8491905	1.3598495
25.58192971958028	1.8586931	1.363339
25.59990279344156	1.8943076	1.3763385
25.617876507779833	1.902695	1.3793821
25.635850863105826	1.8648412	1.3655919
25.653825859930386	1.8460722	1.3587024
25.671801498764548	1.8400573	1.3564872
25.68977778011949	1.8814957	1.3716762
25.707754704506524	1.907769	1.3812201
25.725732272437153	1.8985516	1.3778794
25.743710484423012	1.8498578	1.3600948
25.761689340975888	1.8270708	1.3516918
25.77966884260774	1.8337568	1.3541628
25.797648989830662	1.875428	1.3694626
25.815629783156922	1.8689159	1.367083
25.83361122309895	1.845635	1.3585415
25.85159331016929	1.800606	1.3418666
25.869576044880695	1.7750849	1.3323231
25.887559427746034	1.7881815	1.337229
25.90554345927836	1.8372927	1.3554677
25.92352813999086	1.828881	1.3523613
25.94151347039689	1.8328282	1.3538198
25.959499451009965	1.7886024	1.3373864
25.97748608234374	1.7644126	1.3283119
25.995473364912062	1.7531644	1.3240712
26.013461299228904	1.7794724	1.3339686
26.03144988580839	1.7879609	1.3371465
26.04943912516483	1.8171277	1.3480088
26.067429017812675	1.8248492	1.3508698
26.085419564266537	1.8488002	1.3597059
26.103410765041186	1.8417863	1.3571242
26.12140262065155	1.8341064	1.3542919
26.139395131612723	1.8671911	1.366452
26.157388298439948	1.8606131	1.3640429
26.17538212164861	1.837709	1.3556212
26.193376601754295	1.861805	1.3644798
26.211371739272714	1.8699839	1.3674736
26.229367534719746	1.8863786	1.373455
26.247363988611433	1.8590673	1.3634762
26.26536110146397	1.876177	1.3697361
26.283358873793727	1.8441888	1.3580091
26.301357306117204	1.7847936	1.3359617
26.319356398951104	1.7459255	1.3213347
26.33735615281224	1.7905443	1.3381122
26.35535656821762	1.8306848	1.353028
26.373357645684404	1.8090847	1.3450222
26.39135938572991	1.8081826	1.3446867
26.409361788871614	1.8066249	1.3441075
26.427364855627165	1.8158354	1.3475294
26.445368586514352	1.804925	1.343475
26.46337298205115	1.8209563	1.3494282
26.48137804275568	1.8213726	1.3495824
26.499383769146217	1.8427345	1.3574736
26.517390161741215	1.8233781	1.3503252
26.53539722105928	1.8467222	1.3589416
26.553404947619182	1.8686233	1.3669759
26.571413341939856	1.831406	1.3532945
26.589422404540397	1.8141793	1.3469148
26.60743213594006	1.8125563	1.346312
26.62544253665827	1.809902	1.345326
26.64345360721459	1.7983261	1.3410168
26.66146534812879	1.83247	1.3536875
26.679477759920758	1.8235731	1.3503973
26.69749084311057	1.825474	1.351101
26.71550459821847	1.8345608	1.3544595
26.733519025764842	1.8119037	1.3460697
26.751534126270258	1.779868	1.3341169
26.769549900255434	1.8047068	1.3433938
26.787566348241267	1.8302484	1.3528668
26.80558347074881	1.819798	1.3489989
26.823601268299267	1.8317215	1.3534111
26.841619741414036	1.8323538	1.3536446
26.85963889061465	1.8189456	1.3486829
26.877658716422832	1.8034167	1.3429135
26.89567921936045	1.8093113	1.3451064
26.913700399949544	1.8020823	1.3424166
26.93172225871233	1.7932271	1.3391143
26.949744796171174	1.7349917	1.3171908
26.967768012848605	1.7289802	1.314907
26.98579190926733	1.78782	1.3370938
27.003816485950225	1.7920644	1.3386801
27.021841743420318	1.717991	1.3107215
27.039867682200814	1.746293	1.3214738
27.057894302815072	1.7854741	1.3362163
27.07592160578664	1.8281145	1.3520778
27.0939495916392	1.8267068	1.3515571
27.111978260896635	1.8201077	1.3491137
27.13000761408296	1.7951523	1.3398329
27.148037651722397	1.7814046	1.3346927
27.166068374339304	1.765054	1.3285533
27.184099782458215	1.7654382	1.3286979
27.20213187660384	1.7869838	1.3367811
27.22016465730105	1.7820851	1.3349476
27.23819812507487	1.8323966	1.3536605
27.256232280450533	1.8473829	1.3591846
27.274267123953383	1.8542235	1.3616987
27.292302656108987	1.8512053	1.3605901
27.31033887744306	1.8443483	1.3580679
27.32837578848146	1.8215872	1.3496618
27.34641338975026	1.7700478	1.3304315
27.364451681775673	1.7558903	1.3251001
27.382490665084074	1.7822936	1.3350257
27.400530340202046	1.8193694	1.34884
27.41857070765629	1.8345163	1.3544432
27.436611767973726	1.7970712	1.3405489
27.454653521681404	1.7513804	1.3233973
27.472695969306564	1.7414829	1.3196526
27.490739111376627	1.7128153	1.3087457
27.508782948419153	1.7339243	1.3167856
27.526827480961902	1.7671237	1.329332
27.54487270953279	1.818051	1.3483512
27.562918634659898	1.8367428	1.3552648
27.580965256871508	1.8417773	1.357121
27.599012576696026	1.8601402	1.3638695
27.617060594662068	1.8647121	1.3655447
27.63510931129842	1.8533008	1.36136
27.65315872713401	1.806442	1.3440394
27.67120884269797	1.7982374	1.3409837
27.68925965851958	1.8428658	1.3575219
27.707311175128307	1.8534153	1.3614019
27.725363393053787	1.8280002	1.3520355
27.74341631282583	1.8040113	1.3431349
27.7614699349744	1.8406357	1.3567003
27.77952426002968	2.0094006	1.4175333
27.797579288521973	2.0476882	1.4309746
27.815635020981784	2.4139998	1.5537052
27.83369145793979	2.4919438	1.5785892
27.85174859992682	2.392867	1.5468895
27.869806447473923	2.2374926	1.495825
27.887865001112267	1.9847174	1.4088
27.905924261373233	1.9339006	1.3906475
27.92398422878836	1.9164845	1.3843715
27.94204490388936	1.8994999	1.3782234
27.96010628720813	1.8416095	1.3570591
27.978168379276728	1.8572814	1.3628211
27.9962311806274	1.8756579	1.3695467
28.014294691792568	1.8457341	1.358578
28.0323589133048	1.8202777	1.3491766
28.050423845696887	1.7970014	1.3405228
28.068489489501758	1.8130949	1.3465121
28.086555845252523	1.8870014	1.3736817
28.104622913482487	1.894058	1.3762478
28.122690694725115	1.8921634	1.3755593
28.14075918951405	1.8605025	1.3640023
28.15882839838312	1.8706483	1.3677164
28.176898321866304	1.8544626	1.3617866
28.1949689604978	1.8884484	1.3742082
28.213040314811945	1.9329287	1.390298
28.23111238534327	1.9286724	1.3887665
28.249185172626493	1.9586875	1.3995312
28.267258677196473	1.9722713	1.4043758
28.285332899588294	1.944325	1.3943906
28.303407840337172	1.9151961	1.3839061
28.321483499978545	1.927168	1.3882247
28.33955987904799	1.9172575	1.3846507
28.357636978081285	1.9047992	1.3801446
28.37571479761439	1.9236761	1.3869665
28.393793338183425	1.9320349	1.3899766
28.41187260032469	1.9013677	1.3789009
28.429952584574686	1.8829259	1.3721975
28.448033291470065	1.9307615	1.3895184
28.46611472154769	1.9670663	1.4025214
28.484196875344566	1.9284724	1.3886945
28.502279753397914	1.9107556	1.3823009
28.52036335624511	1.9224622	1.3865288
28.538447684423716	1.9594954	1.3998197
28.556532738471482	2.006623	1.4165533
28.574618518926325	2.0392077	1.4280083
28.59270502632635	2.035263	1.4266264
28.61079226120985	2.056717	1.4341258
28.628880224115274	2.080815	1.4425031
28.646968915581287	2.0351236	1.4265776
28.66505833614671	1.9919062	1.411349
28.68314848635055	2.0340257	1.4261928
28.701239366732004	2.058994	1.4349195
28.71933097783044	2.0538406	1.4331226
28.737423320185403	2.00326	1.4153657
28.75551639433665	2.0630436	1.43633
28.773610200824074	2.1060925	1.4512383
28.791704740187793	2.1384373	1.4623396
28.80980001296809	2.092729	1.4466268
28.827896019705413	2.1215231	1.4565449
28.845992760940433	2.1774273	1.4756109
28.86409023721397	2.1615458	1.4702196
28.88218844906704	2.1823573	1.4772804
28.900287397040845	2.2240505	1.4913251
28.918387081676755	2.2074754	1.4857575
28.936487503516343	2.2674022	1.5057895
28.954588663101365	2.4443753	1.5634497
28.97269056097374	2.4772158	1.5739174
28.990793197675597	2.3854196	1.5444803
29.00889657374923	2.327756	1.5256985
29.027000689737125	2.3269203	1.5254246
29.04510554618196	2.4245083	1.5570832
29.06321114362659	2.5226133	1.5882736
29.08131748261405	2.5474505	1.5960735
29.099424563687567	2.5207593	1.58769
29.11753238739057	2.507353	1.5834624
29.13564095426663	2.5374312	1.5929316
29.15375026485954	2.5294306	1.5904183
29.171860319713275	2.6001105	1.6124858
29.18997111937199	2.6529992	1.628803
29.20808266438002	2.716944	1.6483155
29.226194955281898	2.7669864	1.663426
29.244307992622335	2.8698726	1.6940699
29.26242177694624	2.8756888	1.6957856
29.2805363087987	2.8270953	1.6813968
29.29865158872498	2.8502405	1.6882656
29.316767617270557	2.8994172	1.7027675
29.334884394981064	2.9346092	1.7130702
29.353001922402367	2.966213	1.7222698
29.37112020008047	2.9587927	1.7201141
29.389239228561596	3.060469	1.7494196
29.407359008392152	3.3443499	1.8287563
29.42547954011872	3.737939	1.933375
29.44360082428809	4.2902837	2.0713
29.46172286144722	5.307	2.3036928
29.479845652143283	6.9606147	2.6382978
29.497969196923606	9.343187	3.0566628
29.516093496335728	12.073673	3.474719
29.5342185509274	15.109457	3.8870885
29.55234436124651	17.632576	4.199116
29.570470927841175	19.232937	4.385537
29.588598251259686	18.929672	4.3508244
29.60672633205055	17.469585	4.179663
29.624855170762405	15.075204	3.88268
29.642984767944146	12.167792	3.4882362
29.66111512414481	9.253262	3.0419173
29.67924623991366	6.9096556	2.6286223
29.697378115800138	5.239214	2.288933
29.71551075235387	4.2278004	2.0561616
29.733644150124675	3.8018742	1.9498395
29.751778309662576	3.6239364	1.903664
29.769913231517766	3.4613988	1.8604835
29.78804891624066	3.3241608	1.8232281
29.806185364381818	3.2544208	1.8040013
29.82432257649206	3.2872388	1.8130745
29.842460553122333	3.342693	1.8283033
29.86059929482382	3.3534625	1.8312461
29.878738802147872	3.287391	1.8131163
29.896879075646048	3.2382672	1.7995186
29.915020115870114	3.2206266	1.7946104
29.933161923371976	3.2582026	1.8050492
29.951304498703777	3.256453	1.8045645
29.969447842417857	3.2282796	1.7967414
29.987591955066733	3.1503937	1.7749349
30.005736837203123	3.1550333	1.7762413
30.023882489379943	3.1735399	1.7814432
30.04202891215028	3.1691482	1.7802101
30.060176106067455	3.1950595	1.787473
30.078324071684946	3.2042391	1.7900388
30.09647280955646	3.14643	1.7738179
30.114622320235863	3.0944684	1.7591101
30.132772604277257	3.0694242	1.7519772
30.1509236622349	3.108538	1.7631047
30.16907549466328	3.1537552	1.7758815
30.18722810211705	3.104488	1.7619557
30.205381485151097	3.0475764	1.7457309
30.22353564432045	3.0147738	1.7363104
30.241690580180403	2.9880843	1.7286077
30.25984629328638	3.0188153	1.7374738
30.278002784194037	3.0493174	1.7462294
30.296160053459246	3.0358434	1.7423671
30.314318101638033	3.0624557	1.7499874
30.332476929286646	2.9732308	1.7243059
30.35063653696153	2.8906527	1.700192
30.368796925219307	2.927785	1.7110771
30.386958094616844	2.974067	1.7245483
30.40512004571115	2.8991694	1.7026948
30.423282779059463	2.860608	1.6913332
30.441446295219233	2.9263847	1.7106678
30.459610594748067	2.8700995	1.6941369
30.47777567820382	2.840325	1.6853265
30.495941546144504	2.859001	1.690858
30.51410819912835	2.893306	1.7009721
30.532275637713795	2.8436587	1.6863152
30.55044386245946	2.82244	1.6800119
30.56861287392416	2.8636577	1.6922345
30.586782672666956	2.9195287	1.7086629
30.604953259247047	2.899647	1.702835
30.623124634223885	2.830329	1.6823581
30.641296798157075	2.7392235	1.6550599
30.659469751606462	2.7282648	1.651746
30.677643495132074	2.748165	1.657759
30.695818029294152	2.7312865	1.6526605
30.713993354653116	2.680503	1.6372242
30.73216947176962	2.6526637	1.6287
30.75034638120448	2.6491108	1.6276089
30.768524083518756	2.7074084	1.6454204
30.786702579273673	2.7513459	1.6587181
30.80488186903069	2.837855	1.6845934
30.82306195335144	2.9467947	1.7166231
30.841242832797782	3.0493853	1.746249
30.85942450793176	3.3232427	1.8229764
30.877606979315637	3.7436087	1.9348408
30.895790247511883	4.204079	2.0503852
30.913974313083134	4.6434913	2.1548762
30.932159176592283	4.8915477	2.2116845
30.95034483860237	4.9988155	2.2358031
30.968531299676698	4.825357	2.1966696
30.98671856037873	4.3871207	2.0945454
31.00490662127215	4.0428696	2.0106888
31.023095482920848	3.7069626	1.9253474
31.04128514588892	3.2151358	1.79308
31.059475610740662	2.8082025	1.6757692
31.07766687804056	2.5698981	1.6030902
31.09585894835335	2.5055707	1.5828995
31.11405182224393	2.4838972	1.5760385
31.132245500277417	2.525539	1.5891944
31.15043998301914	2.5069108	1.5833228
31.168635271034628	2.503896	1.5823704
31.18683136488964	2.4487777	1.5648571
31.20502826515008	2.4621892	1.5691365
31.223225972382135	2.468326	1.5710907
31.241424487152155	2.4894106	1.5777867
31.259623810026692	2.4678	1.5709232
31.27782394157253	2.4244864	1.5570762
31.296024882356644	2.407808	1.5517113
31.314226632946237	2.37971	1.5426309
31.332429193908684	2.3507879	1.5332279
31.350632565811598	2.332453	1.527237
31.368836749222787	2.386121	1.5447074
31.387041744710295	2.4392695	1.5618161
31.40524755284232	2.4814138	1.5752504
31.423454174187317	2.5580764	1.5993987
31.441661609313922	2.5412235	1.5941216
31.459869858791002	2.4048283	1.5507509
31.478078923187628	2.363684	1.5374277
31.496288803073064	2.3524199	1.5337601
31.514499499016807	2.277195	1.5090377
31.532711011588546	2.2115643	1.4871329
31.550923341358178	2.276308	1.5087439
31.56913648889584	2.2908294	1.5135486
31.587350454771844	2.2967722	1.5155106
31.605565239556732	2.3269415	1.5254316
31.62378084382127	2.3798807	1.5426862
31.641997268136382	2.2973058	1.5156866
31.660214513073274	2.228985	1.4929786
31.67843257920331	2.261364	1.5037832
31.6966514670981	2.331704	1.5269917
31.71487117732944	2.289064	1.5129653
31.733091710469346	2.2621725	1.504052
31.751313067090052	2.2810335	1.5103091
31.769535247764008	2.3831894	1.5437583
31.787758253063878	2.3873703	1.5451118
31.805982083562526	2.3317418	1.5270042
31.824206739833024	2.2668526	1.505607
31.84243222244869	2.2699926	1.5066495
31.860658531983013	2.2774634	1.5091267
31.878885669009737	2.2553182	1.5017717
31.897113634102784	2.2269297	1.49229
31.91534242783632	2.2034826	1.4844133
31.933572050784694	2.2087631	1.4861908
31.951802503522508	2.2707298	1.5068941
31.970033786624548	2.318504	1.5226635
31.988265900665834	2.2865028	1.5121187
32.006498846221575	2.1918788	1.4804995
32.02473262386724	2.1652226	1.4714695
32.04296723417845	2.202321	1.4840219
32.0612026777311	2.2957957	1.5151883
32.07943895510129	2.2475326	1.4991773
32.097676066865304	2.1481342	1.4656515
32.115914013599685	2.137032	1.4618591
32.13415279588115	2.1364214	1.4616503
32.152392414286666	2.0909941	1.446027
32.1706328693934	2.1269038	1.4583908
32.18887416177875	2.141693	1.4634525
32.20711629202032	2.1369693	1.4618376
32.225359260695924	2.1465614	1.4651148
32.243603068383614	2.1159935	1.4546455
32.26184771566166	2.1566112	1.4685405
32.28009320310852	2.1604838	1.4698584
32.2983395313029	2.0899677	1.445672
32.31658670082372	2.0370238	1.4272435
32.33483471225012	2.0807357	1.4424756
32.35308356616143	2.1180325	1.4553461
32.371333263137245	2.105791	1.4511344
32.38958380375734	2.05698	1.4342176
32.407835188601744	2.0949547	1.4473958
32.42608741825067	2.127771	1.458688
32.444340493284585	2.1118414	1.4532176
32.46259441428416	2.0866656	1.4445295
32.48084918183028	2.0523841	1.4326144
32.49910479650405	2.0869555	1.4446299
32.51736125888683	2.1025975	1.4500337
32.53561856956014	2.0584815	1.4347409
32.5538767291058	1.9779054	1.4063803
32.572135738105764	1.9300954	1.3892788
32.59039559714228	1.9485825	1.3959163
32.608656306797776	1.9694364	1.4033661
32.62691786765491	2.113733	1.4538683
32.645180280296586	2.2088213	1.4862103
32.663443545305896	2.0722313	1.4395247
32.68170766326619	1.9856751	1.4091399
32.69997263476099	1.9585158	1.3994699
32.7182384603741	1.9289429	1.3888639
32.7365051406895	1.9220365	1.3863753
32.75477267629144	1.919323	1.3853964
32.77304106776434	1.9770993	1.4060936
32.79131031569289	2.0137122	1.4190533
32.809580420661966	2.0668383	1.4376502
32.827851383256714	2.0923498	1.4464957
32.84612320406245	2.071066	1.4391198
32.86439588366476	1.9636434	1.4013007
32.88266942264945	1.95487	1.3981667
32.9009438216025	1.9713551	1.4040495
32.9192190811102	1.9150243	1.383844
32.937495201758985	1.9242476	1.3871726
32.95577218413556	1.9862621	1.4093481
32.974050028826866	1.9367802	1.3916825
32.992328736420035	1.8087734	1.3449064
33.010608307502444	1.7939616	1.3393885
33.02888874266169	1.9036131	1.3797148
33.047170042485604	1.8725867	1.3684249
33.06545220756225	1.9082208	1.3813837
33.083735238479896	1.9444168	1.3944235
33.10201913582707	1.9620608	1.4007359
33.12030390019248	1.9583087	1.3993958
33.138589532165135	2.0380142	1.4275904
33.15687603233419	2.0758162	1.4407693
33.17516340128909	2.0390577	1.4279557
33.19345163961947	2.0467358	1.4306418
33.211740747915215	1.9776272	1.4062814
33.23003072676643	1.9191523	1.3853347
33.248321576763466	1.9084778	1.3814766
33.266613298496885	1.9005138	1.3785912
33.28490589255747	1.9123201	1.3828666
33.30319935953626	2.036863	1.4271871
33.32149370002451	1.9742556	1.4050821
33.339788914613706	1.7539853	1.3243811
33.358085003895575	1.7530719	1.3240362
33.376381968462034	1.891729	1.3754014
33.39467980890529	2.0180497	1.4205807
33.41297852581774	2.0007727	1.4144868
33.43127811979204	1.9584812	1.3994575
33.44957859142105	1.8939561	1.3762108
33.467879941297866	1.9928418	1.4116805
33.486182170015844	1.9901497	1.4107267
33.50448527816853	1.8904126	1.3749228
33.522789266349754	1.8489834	1.3597733
33.541094135153514	1.8222442	1.3499053
33.55939988517411	1.8245767	1.3507689
33.57770651700602	1.8140453	1.3468649
33.59601403124398	1.9069782	1.3809339
33.61432242848296	1.8948076	1.37652
33.632631709318154	1.8782037	1.3704758
33.650941874344994	1.8555297	1.3621783
33.66925292415916	1.9305801	1.3894532
33.68756485935654	1.9071554	1.380998
33.70587768053328	1.9079286	1.3812779
33.724191388285746	1.9996691	1.4140966
33.74250598321054	2.0659947	1.4373568
33.760821465904506	2.0001833	1.4142784
33.77913783696474	2.0239801	1.4226665
33.79745509698852	2.0820124	1.4429181
33.815773246573414	1.9877247	1.4098669
33.8340922863172	1.9518712	1.3970938
33.852412216817896	2.0367522	1.4271483
33.87073303867377	2.0010626	1.4145892
33.889054752483304	1.9540789	1.3978838
33.907377358845245	1.9440267	1.3942835
33.92570085835853	2.0982068	1.4485189
33.94402525162239	2.1745849	1.4746474
33.96235053923627	2.026599	1.4235866
33.980676721799824	1.8671539	1.3664384
33.999003799912984	1.8130383	1.3464911
34.01733177417592	1.786638	1.3366518
34.03566064518901	1.7576896	1.3257788
34.0539904135529	1.8665757	1.3662268
34.07232107986846	1.9088706	1.3816189
34.090652644736785	1.9051372	1.380267
34.108985108759235	1.9480147	1.395713
34.12731847253742	1.9736302	1.4048595
34.14565273667313	1.967111	1.4025373
34.16398790176847	2.047783	1.4310076
34.18232396842574	2.1283524	1.4588873
34.20066093724749	2.0662546	1.4374473
34.21899880883651	1.922484	1.3865367
34.23733758379583	1.8697778	1.3673981
34.25567726272874	2.0281143	1.4241188
34.27401784623872	2.0564392	1.434029
34.29235933492957	2.0179918	1.4205604
34.31070172940526	2.0253367	1.4231433
34.32904503027003	1.9460126	1.3949956
34.347389238128386	1.9100943	1.3820616
34.36573435358502	1.9172032	1.384631
34.38408037724492	1.9590987	1.3996781
34.402427309713296	1.880451	1.3712953
34.42077515159559	1.9574064	1.3990734
34.43912390349752	2.0637612	1.4365797
34.45747356602499	1.9439172	1.3942443
34.47582413978423	1.9042684	1.3799523
34.49417562538163	1.901026	1.378777
34.51252802342388	1.9749988	1.4053465
34.53088133451789	2.0422733	1.4290813
34.54923555927084	2.00176	1.4148357
34.567590698290104	1.9810355	1.4074926
34.58594675218336	2.0584145	1.4347175
34.6043037215585	2.1217866	1.4566354
34.62266160702365	2.1088278	1.4521804
34.641020409187234	2.101125	1.4495258
34.65938012865785	1.8734968	1.3687574
34.677740766044394	1.7146628	1.3094513
34.69610232195598	1.8644457	1.365447
34.714464797002016	2.1161976	1.4547156
34.73282819179208	2.2722864	1.5074105
34.751192506936064	2.192901	1.4808446
34.76955774304408	2.1376302	1.4620637
34.7879239007265	1.9604225	1.4001509
34.80629098059391	1.845366	1.3584425
34.824658983257194	1.9283084	1.3886354
34.843027909327446	2.0688348	1.4383445
34.86139775941603	2.1023989	1.4499651
34.879768534134534	2.047579	1.4309365
34.89814023409483	2.0195165	1.4210969
34.91651285990901	1.9505211	1.3966106
34.93488641218944	2.0002327	1.4142958
34.95326089154871	2.1351566	1.4612175
34.97163629859967	2.145511	1.4647563
34.99001263395542	2.0296717	1.4246655
35.00838989822934	1.9660145	1.4021463
35.02676809203499	2.024096	1.4227073
35.04514721598624	2.023501	1.4224981
35.063527270697215	2.109598	1.4524455
35.081908256782256	2.2885127	1.512783
35.10029017485597	2.2735975	1.5078453
35.11867302553321	2.1909692	1.4801923
35.137056809429104	2.2711608	1.5070372
35.155441527159006	2.442248	1.5627694
35.173827179338524	2.134254	1.4609087
35.19221376658354	1.8760523	1.3696905
35.21060128951017	1.9435117	1.3940989
35.2289897487348	2.0648158	1.4369466
35.24737914487405	2.1684372	1.4725615
35.26576947854479	2.1103673	1.4527103
35.28416075036418	2.3059437	1.5185335
35.30255296094958	2.282944	1.5109414
35.32094611091867	2.1450036	1.464583
35.33934020088932	1.8648382	1.3655908
35.35773523147969	1.8961092	1.3769928
35.3761312033082	2.0334609	1.4259946
35.394528116993506	2.3154268	1.5216527
35.41292597315452	2.50836	1.5837803
35.431324772410434	2.2803314	1.5100766
35.449724515380666	2.255528	1.5018415
35.46812520268491	2.4639103	1.5696847
35.486526834943106	1.974715	1.4052455
35.504929412775454	1.8540639	1.3616401
35.52333293680242	2.0985394	1.4486337
35.54173740764471	2.6925273	1.6408923
35.560142825923286	2.8023171	1.6740123
35.5785491922594	2.2473283	1.4991091
35.59695650727454	2.0453002	1.4301399
35.61536477159042	1.8569168	1.3626873
