0.008763373481513119	0.61777776	0.7859884
0.026290120649546365	0.5194514	0.72072977
0.043816868432600686	0.37564686	0.6129004
0.06134361724069026	0.30686536	0.5539543
0.07887036748382949	0.19904791	0.44614786
0.0963971195720331	0.11333413	0.33665136
0.11392387391531617	0.074880876	0.2736437
0.1314506309236943	0.085759126	0.2928466
0.1489773910071836	0.14247566	0.3774595
0.16650415457580078	0.16668643	0.4082725
0.18403092203956356	0.21403731	0.46264166
0.20155769380849	0.2518653	0.5018618
0.2190844702925996	0.20099273	0.44832212
0.2366112519019124	0.19227692	0.43849394
0.2541380390464497	0.15458508	0.3931731
0.27166483213623416	0.16026604	0.40033242
0.28919163158128947	0.13522938	0.36773548
0.3067184377916406	0.13496688	0.36737838
0.324245251177314	0.1451578	0.3809958
0.34177207214833777	0.17130415	0.41388905
0.3592989011147415	0.18055148	0.4249135
0.37682573848655654	0.17294814	0.41587034
0.39435258467381573	0.17772827	0.4215783
0.41187944008655414	0.16423741	0.40526214
0.42940630513480854	0.14232309	0.37725732
0.446933180228618	0.13445058	0.36667505
0.4644600657780234	0.112869896	0.33596116
0.48198696219306775	0.13753667	0.37085938
0.49951386988379676	0.2071665	0.45515546
0.5170407892602581	0.20958477	0.4578043
0.5345677207325025	0.21348335	0.46204257
0.5520946647105822	0.18520544	0.430355
0.5696216216045534	0.14734074	0.3838499
0.5871485918244737	0.15552483	0.39436638
0.6046755757804043	0.16745934	0.40921795
0.6222025738824094	0.17514494	0.41850322
0.6397295865405557	0.17541915	0.4188307
0.6572566141649129	0.19308808	0.4394179
0.6747836571655547	0.21709405	0.46593353
0.6923107159525568	0.19681378	0.44363698
0.7098377909359992	0.17419721	0.4173694
0.7273648825259653	0.105254315	0.3244292
0.7448919911325411	0.09499868	0.30821857
0.762419117165817	0.14375697	0.37915295
0.7799462610358868	0.20635326	0.4542612
0.7974734231528482	0.21625303	0.46503013
0.8150006039268024	0.19723547	0.444112
0.8325278037678551	0.13912271	0.37299156
0.8500550230861152	0.15451834	0.3930882
0.8675822622916969	0.15474685	0.39337876
0.8851095217947171	0.1930997	0.43943113
0.9026368020052984	0.2283046	0.4778123
0.9201641033335665	0.25783	0.50776964
0.9376914261896523	0.26307103	0.5129045
0.9552187709836915	0.23331608	0.48302802
0.9727461381258234	0.20896156	0.45712313
0.990273528026193	0.19728047	0.44416267
1.0078009410949496	0.18431787	0.42932257
1.0253283777422473	0.19081695	0.436826
1.0428558383782454	0.20828587	0.45638347
1.0603833234131086	0.24430631	0.4942735
1.0779108332570058	0.30946165	0.5562928
1.0954383683201119	0.35727584	0.5977256
1.112965929012607	0.3823179	0.6183186
1.1304935157446763	0.51468956	0.7174187
1.1480211289265108	0.50235873	0.7087727
1.1655487689683062	1.3628259	1.1674013
1.1830764362802655	1.6673119	1.2912443
1.200604131272596	2.1238708	1.4573506
1.2181318543555117	2.4617698	1.5690029
1.235659605939232	2.492161	1.578658
1.253187386433982	4.08037	2.0199926
1.270715196249994	6.498322	2.5491807
1.2882430357975057	11.83493	3.4401934
1.3057709054867608	16.36176	4.044967
1.3232988057280106	21.80176	4.669235
1.3408267369315112	26.866234	5.1832647
1.358354699507526	30.796562	5.549465
1.3758826938663256	34.982834	5.914629
1.3934107204181858	37.10218	6.091156
1.410938779573391	37.637424	6.134935
1.4284668717422309	38.174133	6.178522
1.4459949973350033	37.618126	6.133362
1.4635231567620117	37.458042	6.1202974
1.4810513504335687	36.619007	6.051364
1.4985795787599925	36.06746	6.005619
1.5161078421516088	35.508152	5.958872
1.5336361410187505	34.862392	5.9044385
1.5511644757717598	34.81965	5.900818
1.5686928468209842	35.385727	5.9485903
1.58622125457678	35.964092	5.997007
1.6037496994495108	36.919987	6.076182
1.621278181849548	36.795025	6.0658903
1.6388067021872719	37.70652	6.1405635
1.6563352608730693	37.35117	6.1115603
1.673863858317336	36.690445	6.057264
1.6913924949304753	35.532623	5.9609246
1.7089211711228998	34.435658	5.8681903
1.7264498873050296	33.458397	5.784323
1.7439786438872935	32.540237	5.7044053
1.7615074412801288	31.836464	5.642381
1.779036279893981	31.237524	5.589054
1.796565160139305	30.33283	5.507525
1.814094082426564	29.636383	5.4439306
1.8316230471662298	29.006907	5.385806
1.849152054768784	28.147726	5.3054433
1.8666811056447168	27.962353	5.2879443
1.8842102002045273	27.100643	5.2058277
1.901739338858724	26.425797	5.1406026
1.9192685220178245	25.827797	5.0821056
1.9367977500923557	25.091194	5.009111
1.9543270234928547	24.450006	4.944695
1.971856342629867	23.503784	4.84807
1.9893857079139496	22.706486	4.7651324
2.006915119755667	22.338964	4.7264113
2.0244445785655945	21.928513	4.682789
2.0419740847543175	21.728111	4.661342
2.0595036387324317	21.489822	4.6357117
2.0770332409105414	21.07717	4.5909877
2.094562891699263	20.72358	4.5523157
2.1120925915092217	19.955488	4.4671564
2.129622340751053	19.636852	4.431349
2.1471521398354043	188.00078	13.711338
2.1646819891729323	444.39658	21.080715
2.182211889174303	440.55045	20.989294
2.1997418402501974	452.77768	21.278574
2.2172718428113023	432.76422	20.802986
2.234801897268317	320.89813	17.91363
2.2523320040319548	17.390787	4.170226
2.269862163512935	17.16146	4.142639
2.287392376121992	16.782726	4.0966725
2.304922642269869	16.265516	4.033053
2.322452962367322	16.00896	4.00112
2.3399833368251164	15.70942	3.963511
2.357513766054032	15.496215	3.9365232
2.3750442504648586	15.129723	3.8896945
2.3925747904683963	14.816325	3.849198
2.410105386475459	14.50421	3.8084395
2.4276360388968707	14.345845	3.787591
2.445166748143469	14.026414	3.7451854
2.4626975146261025	13.763594	3.7099319
2.4802283387556323	13.581526	3.6853123
2.4977592209429305	13.307779	3.6479828
2.5152901615988825	13.161978	3.627944
2.5328211611343865	13.019085	3.608197
2.5503522199603523	12.901424	3.5918553
2.5678833384877024	12.678084	3.5606298
2.5854145171273712	12.316949	3.509551
2.6029457562903064	12.107296	3.479554
2.620477056387469	11.993549	3.4631705
2.6380084178298326	11.736799	3.4259012
2.655539841028383	11.536243	3.3965046
2.673071326394119	11.318953	3.364365
2.6906028743380523	11.109259	3.3330555
2.708134485271211	11.161539	3.340889
2.7256661596046325	10.940067	3.3075774
2.743197897749369	10.769351	3.281669
2.760729700116486	10.45935	3.2340918
2.778261567117063	10.144276	3.185008
2.795793499162193	9.99489	3.1614697
2.8133254966629817	10.005996	3.1632254
2.830857560030551	9.866426	3.1410868
2.8483896896760337	9.768067	3.1253908
2.865921886010578	9.588545	3.0965376
2.883454149445347	9.496497	3.0816388
2.9009864803915177	9.347282	3.0573325
2.91851887926028	9.131796	3.021886
2.9360513464628384	9.05772	3.0096047
2.953583882410413	8.977856	2.996307
2.9711164875142373	8.780048	2.9631147
2.9886491621855606	8.619515	2.9359012
3.0061819068356455	8.584599	2.9299486
3.023714721875769	8.55312	2.9245718
3.041247607717225	8.417042	2.901214
3.0587805647713213	8.381609	2.8951008
3.0763135934493806	8.22198	2.8673995
3.0938466941627407	8.072632	2.8412378
3.1113798673227544	7.977986	2.8245327
3.1289131133407904	7.9651136	2.8222532
3.1464464326282315	7.997762	2.8280315
3.1639798255964786	7.877645	2.8067143
3.1815132926569443	7.75464	2.7847154
3.1990468342210603	7.6883216	2.7727823
3.216580450700272	7.65122	2.766084
3.2341141425060416	7.488561	2.7365236
3.251647910049847	7.4546795	2.730326
3.2691817537431813	7.265123	2.6953893
3.286715673997555	7.065577	2.6581154
3.3042496712244938	7.1151853	2.6674304
3.32178374583554	6.9901843	2.6438956
3.339317898242251	6.962441	2.6386437
3.3568521288562034	6.859017	2.6189725
3.3743864380889876	6.8234787	2.6121788
3.3919208263522127	6.730637	2.5943472
3.4094552940575023	6.5518126	2.559651
3.4269898416164972	6.4278207	2.5353148
3.444524469440858	6.420501	2.5338707
3.4620591779422587	6.4318624	2.5361116
3.479593967532391	6.4942503	2.5483818
3.4971288386229658	6.4482164	2.5393338
3.5146637916257086	6.438438	2.5374076
3.5321988269523628	6.521215	2.553667
3.5497339450146903	6.441766	2.5380633
3.5672691462244708	6.347303	2.5193853
3.5848044309934988	6.2494392	2.499888
3.60233979973359	6.2740545	2.5048063
3.619875252856575	6.3941345	2.5286627
3.6374107907743034	6.353919	2.520698
3.6549464138986427	6.323297	2.5146167
3.6724821226414788	6.2786393	2.5057213
3.690017917414714	6.211369	2.492262
3.7075537986302702	6.2672906	2.5034556
3.7250897667000857	6.3320966	2.5163658
3.7426258220361235	6.4865823	2.546877
3.7601619650503553	6.840828	2.6154976
3.777698196154779	7.4020147	2.7206645
3.7952345157614067	8.563483	2.926343
3.8127709242822716	9.307067	3.0507486
3.830307422129425	11.630612	3.4103684
3.847844009714936	30.358316	5.509838
3.8653806874508954	97.986694	9.898823
3.882917455749409	97.30713	9.864438
3.900454315022606	97.1848	9.858235
3.917991265682631	41.628307	6.452
3.9355283081416506	11.108221	3.3328998
3.9530654428118495	8.738194	2.9560437
3.970602670105433	7.322734	2.706055
3.9881399904346244	6.513989	2.5522518
4.005677404211669	6.503605	2.5502167
4.023214911848827	6.5351934	2.5564024
4.0407525137583855	6.5700836	2.5632174
4.058290210352644	6.520415	2.5535102
4.075828002043927	6.36895	2.5236778
4.0933658892445814	6.209878	2.4919627
4.110903872366966	6.0972123	2.4692533
4.128441951823468	6.0931115	2.468423
4.145980128026488	6.1780577	2.48557
4.163518401388452	6.184283	2.486822
4.181056772321807	6.147851	2.479486
4.1985952412390155	6.068742	2.4634817
4.216133808552567	6.0186234	2.4532883
4.233672474674966	6.104625	2.470754
4.251211240018741	6.3693557	2.5237582
4.268750104996445	6.6785583	2.5842907
4.286289070020643	7.5860987	2.7542872
4.303828135503928	9.1300955	3.0216048
4.3213673018589125	29.403429	5.422493
4.3389065694982305	90.52075	9.514239
4.356445938834537	165.82518	12.877313
4.3739854102805085	170.98038	13.075947
4.391524984248844	171.91237	13.111536
4.409064661152262	135.99542	11.661708
4.426604441403504	96.52774	9.824853
4.444144325415337	75.70659	8.7009535
4.461684313600543	21.813421	4.670484
4.47922440637193	22.383799	4.731152
4.496764604142329	20.84384	4.5655055
4.5143049073245916	18.860004	4.3428106
4.531845316331589	16.593435	4.073504
4.5493858315762195	13.464412	3.6693885
4.566926453471405	11.101614	3.3319085
4.584467182430081	8.915669	2.9859118
4.602008018865218	7.947337	2.8191023
4.619548963189798	7.3651595	2.7138827
4.637090015816834	6.844849	2.6162663
4.654631177159353	6.5509324	2.559479
4.672172447630417	6.28413	2.5068166
4.689713827643102	6.108385	2.4715147
4.7072553176105085	5.9608746	2.4414902
4.724796917945764	5.8497186	2.4186192
4.742338629062015	5.803319	2.4090078
4.759880451372434	5.828	2.4141252
4.777422385290215	5.765172	2.4010773
4.794964431228581	5.649867	2.376945
4.812506589600768	5.6024837	2.3669567
4.830048860820047	5.545553	2.3549
4.847591245299709	5.585217	2.3633063
4.8651337434530655	5.5684586	2.3597581
4.882676355693457	5.5390677	2.3535223
4.900219082434242	5.49656	2.3444743
4.917761924088813	5.519891	2.3494449
4.935304881070575	5.645332	2.3759906
4.952847953792969	5.751146	2.3981547
4.970391142669449	5.688892	2.3851397
4.9879344481135055	5.637371	2.3743148
5.005477870538642	5.5528064	2.3564394
5.023021410358394	5.526907	2.3509374
5.040565067986324	5.507504	2.3468072
5.05810884383601	5.470876	2.3389904
5.075652738321066	5.4124303	2.326463
5.09319675185512	5.366879	2.3166525
5.110740884851836	5.3392386	2.3106792
5.128285137724894	5.3765483	2.3187385
5.145829510888007	5.3117585	2.3047252
5.163374004754908	5.355909	2.3142836
5.1809186197393595	5.316448	2.3057425
5.198463356255145	5.3052855	2.3033206
5.216008214716077	5.240248	2.2891588
5.233553195535998	5.251474	2.2916095
5.251098299128764	5.2962966	2.3013685
5.268643525908272	5.319178	2.3063343
5.286188876288432	5.319226	2.3063447
5.3037343506831895	5.305459	2.3033583
5.32127994950651	5.2416763	2.2894707
5.3388256731723915	5.185976	2.277274
5.356371522094851	5.1888475	2.2779043
5.373917496687938	5.2317033	2.2872918
5.391463597365729	5.290088	2.3000193
5.40900982454232	5.2840476	2.2987056
5.426556178631843	5.251943	2.2917118
5.444102660048449	5.1645546	2.2725656
5.4616492692063225	5.1565304	2.2707994
5.479196006519669	5.173948	2.2746313
5.496742872402727	5.2267365	2.2862058
5.514289867269756	5.2039747	2.281222
5.531836991535049	5.2316074	2.2872708
5.549384245612924	5.1825747	2.276527
5.566931629917724	5.221479	2.2850556
5.584479144863822	5.173394	2.2745097
5.6020267908656205	5.1625557	2.2721257
5.619574568337545	5.109177	2.2603488
5.637122477694054	5.106671	2.2597945
5.654670519349629	5.1160064	2.261859
5.672218693718784	5.0879483	2.2556481
5.689767001216059	5.0710297	2.2518947
5.707315442256021	5.0864344	2.2553124
5.724864017253266	5.1065655	2.259771
5.7424127266224225	5.1648417	2.2726288
5.75996157077814	5.1765666	2.275207
5.777510550135105	5.171823	2.2741642
5.795059665108022	5.2498565	2.2912564
5.812608916111639	5.275485	2.2968423
5.830158303560715	5.4185257	2.3277726
5.847707827870055	5.3905063	2.3217463
5.86525748945448	5.3357205	2.309918
5.8828072887288485	5.363329	2.3158863
5.900357226108044	5.4085417	2.325627
5.917907302006979	5.5741086	2.360955
5.9354575168406	6.322706	2.5144992
5.9530078710238765	7.0406995	2.6534317
5.970558364971812	7.632519	2.7627013
5.988108999099438	7.987431	2.8262043
6.005659773821818	8.544569	2.9231095
6.023210689554039	8.225832	2.868071
6.040761746711227	8.653593	2.941699
6.058312945708531	7.9055367	2.8116786
6.075864286961132	7.337689	2.708817
6.093415770884244	6.526705	2.5547416
6.1109673978931065	5.983622	2.4461443
6.128519168402993	5.4467554	2.3338284
6.146071082829204	5.3999743	2.3237846
6.163623141587075	5.3081427	2.3039408
6.181175345091969	5.248686	2.291001
6.198727693759281	5.1911135	2.2784016
6.216280188004435	5.177595	2.275433
6.233832828242885	5.149157	2.2691755
6.251385614890126	5.1609683	2.2717764
6.268938548361669	5.1962094	2.2795196
6.286491629073067	5.094973	2.2572048
6.304044857439898	5.0778193	2.2534018
6.321598233877777	5.0165105	2.2397568
6.339151758802344	5.059378	2.2493062
6.356705432629277	5.048571	2.2469025
6.37425925577428	4.994385	2.234812
6.391813228653095	4.9866414	2.233079
6.409367351681486	5.060439	2.249542
6.426921625275259	5.1117816	2.260925
6.44447604985025	5.065547	2.250677
6.46203062582232	5.0553694	2.2484148
6.47958535360737	5.0673456	2.2510765
6.497140233621328	5.1274586	2.2643893
6.514695266280161	5.0854874	2.2551026
6.532250451999859	5.0595093	2.2493353
6.549805791196454	5.029089	2.242563
6.567361284286002	5.082799	2.2545063
6.584916931684597	5.1610894	2.2718031
6.602472733808367	5.114142	2.261447
6.6200286910734665	5.0452166	2.246156
6.637584803896092	4.8886805	2.211036
6.655141072692462	4.8879533	2.2108717
6.672697497878842	4.9623537	2.2276342
6.690254079871514	4.9955897	2.2350817
6.707810819086808	5.0096436	2.2382233
6.725367715941078	5.0014706	2.2363968
6.742924770850719	4.975335	2.230546
6.760481984232151	4.9268045	2.2196407
6.778039356501836	4.883909	2.209957
6.795596888076266	4.902503	2.2141597
6.813154579371963	4.9510155	2.2250876
6.830712430805492	4.978888	2.2313423
6.84827044279344	5.006919	2.2376146
6.865828615752445	4.962187	2.2275968
6.883386950099159	4.949392	2.2247229
6.900945446250287	4.972266	2.229858
6.918504104622553	5.019265	2.2403717
6.936062925632727	5.092918	2.2567494
6.953621909697607	5.113369	2.261276
6.971181057234028	5.144601	2.2681713
6.988740368658859	5.1219063	2.2631629
7.006299844389007	5.1965384	2.2795918
7.023859484841407	5.3150887	2.3054476
7.041419290433036	5.499602	2.345123
7.058979261580902	5.5607266	2.3581192
7.0765393987020495	5.7408233	2.3960016
7.094099702213559	6.0906124	2.4679167
7.111660172532549	6.4305234	2.5358477
7.129220810076164	6.742272	2.5965886
7.146781615261595	7.2539835	2.693322
7.16434258850606	7.5281844	2.7437537
7.181903730226821	7.98156	2.8251655
7.1994650408411704	8.174493	2.859107
7.217026520766437	8.344013	2.8886006
7.234588170419983	8.556868	2.9252124
7.252149990219215	8.518131	2.9185839
7.269711980581568	8.379859	2.8947985
7.2872741419245175	8.163829	2.8572414
7.304836474665574	7.7607484	2.785812
7.322398979222286	7.4206657	2.7240899
7.339961656012233	7.1165895	2.6676936
7.357524505453039	6.8236074	2.6122036
7.375087527962357	6.5840297	2.5659363
7.392650723957886	6.337641	2.517467
7.410214093857353	5.969395	2.4432347
7.427777638078528	5.6570735	2.3784604
7.445341357039213	5.477372	2.3403785
7.4629052511572525	5.39504	2.3227224
7.480469320850524	5.2991138	2.3019805
7.498033566536948	5.268791	2.2953846
7.5155979886344735	5.2165003	2.2839658
7.5331625875610975	5.2680593	2.2952254
7.550727363734844	5.265076	2.2945755
7.568292317573788	5.241555	2.2894442
7.585857449496025	5.245957	2.2904055
7.603422759919705	5.227388	2.286348
7.620988249263007	5.2676954	2.295146
7.638553917944147	5.2428923	2.2897363
7.656119766381391	5.2319274	2.2873406
7.673685794993023	5.1983047	2.279979
7.691252004197388	5.1690884	2.273563
7.70881839441285	5.157552	2.2710245
7.726384966057826	5.191776	2.2785468
7.743951719550762	5.2124453	2.283078
7.761518655310149	5.223015	2.2853916
7.779085773754511	5.268925	2.295414
7.796653075302419	5.315379	2.3055105
7.814220560372475	5.3342395	2.3095973
7.831788229383323	5.3132057	2.3050392
7.8493560827536495	5.3010235	2.302395
7.866924120902174	5.2387233	2.2888258
7.884492344247663	5.304663	2.3031855
7.9020607532089135	5.243484	2.2898655
7.919629348204771	5.2255864	2.2859542
7.937198129654115	5.186847	2.277465
7.954767097975865	5.2237473	2.2855518
7.972336253588986	5.2841024	2.2987175
7.989905596912472	5.2802453	2.2978785
8.007475128365371	5.350429	2.3130994
8.025044848366756	5.4031878	2.3244758
8.042614757335754	5.5419426	2.3541331
8.060184855691523	5.636028	2.374032
8.07775514385327	5.8084173	2.410066
8.095325622240228	5.823156	2.4131217
8.112896291271687	5.869274	2.4226584
8.130467151366968	5.84027	2.416665
8.148038202945436	5.763661	2.4007626
8.165609446426497	5.714627	2.3905284
8.183180882229594	5.752345	2.3984046
8.200752510774217	5.87084	2.4229817
8.218324332479893	5.8834004	2.4255722
8.235896347766193	5.8526645	2.419228
8.253468557052724	5.878552	2.4245725
8.27104096075914	5.964628	2.4422588
8.288613559305137	6.0732207	2.4643905
8.306186353110448	6.12264	2.474397
8.32375934259485	6.1275425	2.4753873
8.341332528178162	6.1404843	2.4780002
8.358905910280246	6.2300897	2.4960148
8.376479489321003	6.263918	2.502782
8.394053265720377	6.2799487	2.5059826
8.411627239898356	6.2282114	2.4956384
8.42920141227497	6.1888943	2.4877489
8.44677578327029	6.202261	2.490434
8.464350353304427	6.1927085	2.4885154
8.48192512279754	6.224426	2.49488
8.499500092169827	6.2489166	2.4997833
8.51707526184153	6.2172093	2.4934332
8.534650632232934	6.206	2.4911845
8.552226203764365	6.204434	2.49087
8.569801976856192	6.277168	2.5054276
8.587377951928834	6.371068	2.5240974
8.60495412940274	6.373545	2.524588
8.622530509698416	6.363588	2.5226152
8.6401070932364	6.4240537	2.5345716
8.657683880437283	6.492667	2.5480714
8.675260871721695	6.6660004	2.5818598
8.692838067510303	6.7825966	2.604342
8.710415468223834	6.980948	2.6421483
8.727993074283043	7.0806565	2.6609504
8.745570886108737	7.023264	2.650144
8.763148904121765	7.044985	2.654239
8.78072712874302	7.0321875	2.651827
8.798305560393441	7.241667	2.6910346
8.815884199494006	7.4356217	2.7268336
8.833463046465745	7.6156135	2.75964
8.851042101729728	7.844358	2.8007782
8.86862136570707	8.156057	2.8558812
8.886200838818924	8.364025	2.8920624
8.903780521486505	8.346937	2.8891068
8.921360414131055	8.384576	2.8956132
8.938940517173874	8.4563265	2.9079764
8.956520831036297	8.654099	2.941785
8.97410135613971	9.009532	3.0015883
8.99168209290554	9.16735	3.0277631
9.009263041755265	9.379795	3.0626452
9.026844203110405	9.59146	3.0970082
9.044425577392525	9.869645	3.1415992
9.062007165023239	9.997809	3.1619313
9.079588966424197	10.259137	3.2029889
9.097170982017108	10.364363	3.219373
9.11475321222372	11.424438	3.3800056
9.132335657465825	12.338982	3.5126886
9.149918318165264	12.415245	3.5235274
9.167501194743924	13.079484	3.616557
9.18508428762374	12.692916	3.562712
9.202667597226693	12.7524	3.5710504
9.220251123974803	12.445111	3.527763
9.237834868290143	12.107395	3.4795682
9.255418830594836	11.860289	3.443877
9.273003011311046	11.168749	3.3419678
9.290587410860985	10.945871	3.3084545
9.308172029666911	10.352439	3.2175207
9.32575686815113	10.085546	3.1757748
9.343341926735997	8.677034	2.9456806
9.360927205843916	8.43062	2.903553
9.378512705897327	8.217061	2.8665416
9.396098427318728	8.052482	2.8376894
9.413684370530664	8.025868	2.8329964
9.431270535955722	7.962319	2.821758
9.448856924016539	7.901074	2.810885
9.466443535135806	7.727937	2.7799168
9.484030369736251	7.653132	2.7664294
9.501617428240658	7.6735897	2.7701244
9.519204711071852	7.750712	2.78401
9.536792218652714	7.827824	2.7978249
9.55437995140617	7.8672266	2.8048577
9.571967909755191	7.8824997	2.807579
9.589556094122802	7.9561615	2.8206668
9.60714450493207	7.9712343	2.8233376
9.624733142606116	8.029471	2.8336322
9.642322007568108	8.065897	2.8400524
9.659911100241267	8.087729	2.8438933
9.677500421048851	8.151223	2.8550346
9.695089970414175	8.096669	2.8454647
9.712679748760609	8.076391	2.8418992
9.730269756511557	8.047759	2.8368573
9.747859994090492	8.0454	2.8364413
9.765450461920915	8.140526	2.8531606
9.78304116042639	8.261673	2.8743126
9.800632090030527	8.342404	2.888322
9.81822325115699	8.238766	2.870325
9.835814644229481	8.154765	2.855655
9.853406269671762	8.170605	2.858427
9.870998127907646	8.265638	2.8750024
9.888590219360985	8.322609	2.8848932
9.906182544455698	8.41304	2.9005241
9.923775103615734	8.44993	2.9068763
9.941367897265108	8.3768215	2.894274
9.958960925827878	8.3045435	2.8817606
9.97655418972816	8.2491455	2.8721325
9.994147689390106	8.225235	2.8679671
10.011741425237934	8.248743	2.8720624
10.029335397695904	8.263947	2.8747082
10.04692960718833	8.291262	2.879455
10.06452405413958	8.278841	2.8772974
10.082118738974064	8.273736	2.8764102
10.099713662116246	8.344754	2.8887289
10.117308823990651	8.3312235	2.886386
10.134904225021844	8.311842	2.8830266
10.152499865634445	8.250356	2.8723433
10.170095746253125	8.272565	2.8762066
10.18769186730261	8.321124	2.884636
10.205288229207675	8.281516	2.8777623
10.222884832393145	8.151372	2.8550608
10.2404816772839	8.043664	2.8361354
10.258078764304868	8.027597	2.8333015
10.275676093881035	8.032257	2.8341236
10.293273666437438	8.003975	2.8291297
10.310871482399158	8.04903	2.8370812
10.32846954219134	8.023714	2.832616
10.346067846239173	8.105503	2.8470166
10.363666394967908	8.03262	2.8341877
10.38126518880283	8.090335	2.8443513
10.398864228169298	8.179164	2.8599238
10.416463513492713	8.288786	2.8790252
10.434063045198531	8.314475	2.8834832
10.451662823712262	8.217385	2.8665981
10.469262849459467	8.130579	2.851417
10.486863122865758	8.052804	2.8377464
10.504463644356806	8.041382	2.835733
10.522064414358338	8.080424	2.8426087
10.539665433296118	7.9622784	2.8217509
10.557266701595987	7.873685	2.8060088
10.574868219683818	7.745518	2.783077
10.592469987985552	7.674345	2.7702608
10.610072006927185	7.620863	2.760591
10.627674276934751	7.538804	2.7456882
10.64527679843435	7.3667135	2.714169
10.662879571852143	7.166495	2.677031
10.680482597614331	7.052612	2.6556754
10.698085876147173	6.9843388	2.6427898
10.715689407876988	6.954614	2.6371603
10.733293193230146	6.9469266	2.6357024
10.750897232633072	6.8201475	2.6115413
10.76850152651225	6.762032	2.6003907
10.786106075294207	6.6749797	2.5835981
10.803710879405534	6.5715322	2.5635
10.821315939272877	6.4907885	2.5477026
10.83892125532294	6.3856125	2.526977
10.856526827982472	6.322915	2.5145407
10.874132657678285	6.2507453	2.500149
10.891738744837243	6.217536	2.4934988
10.909345089886271	6.0539913	2.460486
10.926951693252343	5.9649606	2.4423268
10.944558555362494	5.9426103	2.437747
10.96216567664381	5.9030843	2.4296265
10.979773057523436	5.8468847	2.4180331
10.997380698428573	5.809784	2.4103494
11.014988599786477	5.765504	2.4011464
11.032596762024461	5.7533813	2.3986206
11.050205185569892	5.7211733	2.3918974
11.067813870850198	5.634471	2.373704
11.085422818292859	5.590837	2.364495
11.10303202832541	5.5297585	2.351544
11.120641501375454	5.479108	2.3407495
11.138251237870636	5.3964467	2.3230252
11.155861238238671	5.3306327	2.3088162
11.173471502907317	5.2538323	2.292124
11.191082032304402	5.1948166	2.2792141
11.208692826857805	5.105009	2.2594268
11.226303886995465	5.066308	2.2508461
11.243915213145371	5.032733	2.2433753
11.261526805735578	4.951661	2.2252328
11.279138665194196	4.9407415	2.2227778
11.296750791949393	4.900997	2.2138195
11.314363186429393	4.851894	2.2027016
11.331975849062479	4.798854	2.1906288
11.34958878027699	4.708875	2.1699944
11.36720198050133	4.6145716	2.1481555
11.384815450163948	4.5483904	2.1326957
11.402429189693366	4.5457654	2.13208
11.420043199518153	4.4860964	2.1180408
11.437657480066942	63.422157	7.963803
11.455272031768422	85.133835	9.2268
11.472886855051353	107.514885	10.368938
11.490501950344528	99.15218	9.957519
11.508117318076819	84.54293	9.194723
11.52573295867715	45.903694	6.7752266
11.543348872574514	4.2175393	2.053665
11.560965060197946	4.178044	2.0440264
11.57858152197655	4.123815	2.0307178
11.59619825833949	4.093248	2.0231776
11.613815269715985	4.033655	2.0083961
11.631432556535323	38.527637	6.2070637
11.649050119226837	83.004616	9.110687
11.666667958219929	93.38835	9.663765
11.68428607394406	107.7049	10.378098
11.701904466828756	82.53764	9.085023
11.719523137303586	65.39599	8.086779
11.737142085798196	4.605405	2.1460207
11.754761312742286	3.757124	1.9383302
11.772380818565619	3.7419975	1.9344243
11.790000603698015	3.6900096	1.9209398
11.80762066856935	3.6268232	1.904422
11.825241013609572	3.5701375	1.8894807
11.842861639248683	3.5700483	1.8894571
11.860482545916748	3.5221617	1.8767424
11.878103734043883	3.4675398	1.8621331
11.895725204060282	3.40942	1.8464615
11.91334695639619	3.41691	1.8484886
11.930968991481919	3.4452665	1.8561429
11.948591309747824	3.4050174	1.845269
11.966213911624347	3.3259666	1.8237233
11.98383679754198	3.2809114	1.8113286
12.001459967931268	3.257628	1.80489
12.019083423222835	3.3118658	1.8198532
12.036707163847352	3.3010273	1.816873
12.05433119023556	3.2721207	1.8089004
12.071955502818259	3.1836805	1.7842871
12.089580102026313	3.1332214	1.7700908
12.107204988290643	3.1162183	1.7652813
12.12483016204224	3.1405737	1.7721664
12.142455623712152	3.130536	1.769332
12.16008137373149	3.1429381	1.7728333
12.177707412531431	3.143381	1.7729583
12.19533374054321	3.1394494	1.7718492
12.212960358198126	3.1093814	1.7633438
12.230587265927545	3.072444	1.7528389
12.248214464162889	3.0771184	1.7541717
12.265841953335649	3.04502	1.7449986
12.283469733877375	3.014706	1.7362908
12.301097806219685	2.9714394	1.7237864
12.31872617079425	2.9646652	1.7218204
12.336354828032825	2.9121408	1.7064996
12.353983778367205	2.9328628	1.7125603
12.371613022229262	2.9317498	1.7122353
12.389242560050928	2.9528227	1.718378
12.406872392264201	2.9273388	1.7109468
12.424502519301143	2.95064	1.7177427
12.442132941593874	2.915372	1.707446
12.459763659574586	2.9262908	1.7106404
12.477394673675532	2.8950715	1.701491
12.49502598432903	2.868466	1.6936547
12.51265759196746	2.8551476	1.6897182
12.530289497023267	2.8204684	1.679425
12.547921699928967	2.778617	1.6669184
12.565554201117134	2.7363763	1.6541996
12.583187001020404	2.7440994	1.6565323
12.600820100071486	2.7405696	1.6554666
12.618453498703152	2.7814934	1.667781
12.636087197348235	2.8053892	1.6749296
12.65372119643964	2.8111966	1.6766623
12.671355496410326	2.7745633	1.6657021
12.68899009769333	2.7826188	1.6681184
12.706625000721749	2.8698952	1.6940765
12.724260205928752	2.9476964	1.7168857
12.741895713747551	2.9566607	1.7194943
12.759531524611454	2.9663565	1.7223114
12.777167638953818	2.9300065	1.7117262
12.794804057208072	2.9529605	1.718418
12.812440779807702	3.0212789	1.7381827
12.830077807186271	3.2164717	1.7934525
12.847715139777405	3.2863898	1.8128402
12.865352778014795	3.521649	1.8766056
12.882990722332197	3.6165416	1.9017206
12.90062897316344	3.7159903	1.9276904
12.918267530942412	3.8105261	1.9520569
12.935906396103071	3.6987722	1.9232192
12.953545569079449	3.8768482	1.9689714
12.971185050305628	3.66883	1.915419
12.988824840215775	3.6959014	1.9224727
13.006464939244115	3.6588016	1.9127994
13.024105347824943	3.502839	1.8715873
13.041746066392617	3.5788944	1.8917966
13.05938709538157	3.3674245	1.8350544
13.077028435226296	3.367161	1.8349825
13.094670086361363	3.266979	1.8074787
13.112312049221401	3.1726189	1.7811847
13.129954324241112	3.0786371	1.7546046
13.147596911855258	2.8567493	1.6901921
13.165239812498685	2.83706	1.6843574
13.182883026606293	2.7451777	1.6568578
13.200526554613058	2.6971936	1.6423135
13.218170396954017	2.654549	1.6292787
13.235814554064284	2.6774378	1.6362878
13.253459026379034	2.6697161	1.6339266
13.271103814333523	2.690676	1.640328
13.288748918363058	2.6899161	1.6400964
13.306394338903031	2.6930032	1.6410372
13.32404007638889	2.6407726	1.6250454
13.341686131256164	2.630924	1.6220124
13.359332503940449	2.6354373	1.623403
13.376979194877402	2.6571724	1.6300836
13.394626204502751	2.7035413	1.6442449
13.412273533252307	2.7208972	1.6495142
13.429921181561937	2.743122	1.6562374
13.447569149867581	2.728536	1.651828
13.465217438605247	2.7369452	1.6543715
13.482866048211022	2.6958141	1.6418935
13.500514979121052	2.714632	1.647614
13.518164231771568	2.7339702	1.6534722
13.535813806598844	2.7584248	1.6608506
13.553463704039254	2.7190378	1.6489505
13.571113924529229	2.6559656	1.6297133
13.588764468505275	2.6400394	1.6248199
13.606415336403956	2.6740403	1.6352493
13.624066528661917	2.7408855	1.655562
13.641718045715882	2.843237	1.68619
13.659369888002635	2.9045947	1.7042872
13.67702205595903	2.972031	1.723958
13.694674550021993	3.0316331	1.7411586
13.712327370628532	3.0746448	1.7534665
13.729980518215713	3.1506128	1.7749965
13.747633993220681	3.1740143	1.7815764
13.765287796080647	3.1939054	1.78715
13.7829419272329	3.2456198	1.8015604
13.800596387114801	3.3401344	1.8276035
13.818251176163775	3.3659515	1.834653
13.835906294817324	3.3860273	1.8401161
13.853561743513023	3.4160032	1.8482432
13.871217522688525	3.4775195	1.8648108
13.888873632781538	3.5305765	1.8789828
13.906530074229858	3.5341492	1.8799332
13.92418684747135	3.5064893	1.8725622
13.941843952943948	3.4700885	1.8628174
13.959501391085665	3.4092207	1.8464075
13.977159162334578	3.386301	1.8401905
13.994817267128846	3.3718133	1.8362498
14.012475705906693	3.327264	1.8240789
14.030134479106424	3.2801595	1.8111211
14.047793587166414	3.1604505	1.7777656
14.065453030525108	3.0538614	1.7475301
14.083112809621026	2.9712098	1.7237197
14.100772924892766	2.919248	1.7085807
14.118433376778997	2.8625493	1.691907
14.136094165718458	2.746339	1.6572082
14.153755292149969	2.6597292	1.6308676
14.171416756512416	2.6152008	1.6171583
14.189078559244768	2.629201	1.6214811
14.20674070078606	2.630428	1.6218594
14.224403181575408	2.543529	1.5948445
14.242066002051999	2.4631472	1.5694417
14.259729162655093	2.4473283	1.5643939
14.277392663824022	2.442545	1.5628643
14.295056505998208	2.4445288	1.5634989
14.312720689617128	2.4068124	1.5513905
14.330385215120348	2.3966496	1.5481117
14.348050082947497	2.3873136	1.5450934
14.3657152935383	2.4019504	1.5498227
14.383380847332528	2.3977387	1.5484633
14.401046744770051	2.4002388	1.5492704
14.418712986290798	2.3923764	1.5467309
14.436379572334793	2.409844	1.5523672
14.454046503342123	2.3757997	1.5413629
14.471713779752946	2.3482213	1.5323907
14.489381402007504	2.3278182	1.5257189
14.507049370546113	2.3255243	1.524967
14.524717685809168	2.3573942	1.5353808
14.542386348237134	2.4089653	1.5520842
14.560055358270553	2.4569192	1.5674562
14.577724716350051	2.527461	1.589799
14.595394422916325	2.5051856	1.5827779
14.61306447841015	2.490137	1.5780169
14.63073488327237	2.495962	1.5798614
14.648405637943917	2.5196254	1.5873328
14.6660767428658	2.5096693	1.5841936
14.683748198479094	2.4972627	1.580273
14.701420005224954	2.5307848	1.590844
14.719092163544628	2.6602647	1.6310318
14.73676467387942	2.7108421	1.6464635
14.754437536670727	2.7308292	1.6525221
14.772110752360014	2.734083	1.6535063
14.78978432138882	2.7386227	1.6548785
14.807458244198777	2.734038	1.6534927
14.82513252123159	2.7323375	1.6529784
14.842807152929028	2.72856	1.6518353
14.860482139732962	2.6889765	1.6398098
14.87815748208531	2.6813066	1.6374695
14.8958331804281	2.6761777	1.6359028
14.91350923520342	2.6331077	1.6226853
14.931185646853438	2.629925	1.6217043
14.948862415820408	2.6259034	1.620464
14.966539542546656	2.6541836	1.6291665
14.98421702747459	2.647913	1.6272409
15.001894871046696	2.635281	1.6233549
15.019573073705542	2.666032	1.6327988
15.037251635893766	2.6695335	1.6338707
15.054930558054092	2.67131	1.6344142
15.072609840629323	2.6701999	1.6340746
15.090289484062351	2.779197	1.6670923
15.107969488796124	3.0459294	1.7452592
15.125649855273691	3.4320111	1.8525687
15.14333058393817	3.8874054	1.9716505
15.161011675232768	4.887128	2.210685
15.17869312960076	6.2678103	2.5035596
15.196374947485506	8.135257	2.8522372
15.214057129330447	11.233603	3.3516567
15.231739675579114	16.08902	4.011112
15.249422586675102	21.38829	4.6247478
15.267105863062092	24.648607	4.9647365
15.284789505183847	25.071974	5.007192
15.302473513484218	23.108418	4.8071218
15.320157888407127	19.718826	4.4405885
15.337842630396578	15.3963995	3.9238245
15.355527739896656	11.912058	3.451385
15.37321321735153	9.075924	3.0126274
15.39089906320545	6.5239334	2.5541992
15.408585277902748	4.8276534	2.1971922
15.42627186188783	3.7440407	1.9349524
15.443958815605198	3.1948926	1.7874262
15.461646139499424	2.9073198	1.7050865
15.479333834015168	2.7697408	1.6642538
15.497021899597165	2.7363586	1.6541942
15.514710336690234	2.6815567	1.637546
15.53239914573928	2.640147	1.6248529
15.550088327189297	2.5769563	1.60529
15.567777881485336	2.5475059	1.5960908
15.58546780907256	2.5424657	1.5945112
15.6031581103962	2.52739	1.5897768
15.620848785901568	2.4665058	1.5705113
15.638539836034063	2.4168072	1.5546083
15.656231261239173	2.3950994	1.5476109
15.673923061962451	2.4248571	1.5571953
15.691615238649552	2.4504223	1.5653825
15.709307791746202	2.4533517	1.5663179
15.727000721698221	2.4428585	1.5629647
15.744694028951498	2.4287271	1.5584373
15.76238771395202	2.4149308	1.5540048
15.780081777145844	2.3987918	1.5488033
15.797776218979125	2.4233983	1.5567268
15.815471039898094	2.4155529	1.554205
15.833166240349064	2.4617138	1.568985
15.850861820778437	2.4324872	1.5596433
15.868557781632699	2.382507	1.5435371
15.886254123358412	2.3358343	1.5283437
15.903950846402232	2.3609352	1.5365335
15.921647951210897	2.3937	1.5471586
15.939345438231225	2.4148748	1.5539868
15.957043307910133	2.369442	1.5392991
15.974741560694602	2.358232	1.5356536
15.992440197031714	2.3758738	1.541387
16.01013921736862	2.4052963	1.5509018
16.02783862215259	2.4050689	1.5508285
16.045538411830933	2.3688986	1.5391227
16.06323858685107	2.352965	1.5339378
16.080939147660512	2.34914	1.5326904
16.09864009470684	2.3776612	1.5419667
16.11634142843774	2.3909795	1.5462793
16.134043149300954	2.3895648	1.5458217
16.15174525774433	2.406458	1.5512762
16.169447754215817	2.4015365	1.5496892
16.18715063916342	2.410006	1.5524194
16.204853913035244	2.4168243	1.5546138
16.222557576279478	2.4492936	1.5650219
16.240261629344403	22.450083	4.738152
16.257966072678386	42.985374	6.556323
16.275670906729868	38.07937	6.1708484
16.293376131947387	2.5216463	1.5879692
16.31108174877957	2.578485	1.6057662
16.328787757675133	2.6043997	1.6138153
16.34649415908287	2.6149843	1.6170913
16.364200953451657	2.6362362	1.623649
16.38190814123048	2.6698782	1.6339762
16.39961572286839	2.6718678	1.6345849
16.41732369881455	2.6755834	1.6357211
16.43503206951817	2.693266	1.6411173
16.45274083542859	2.7250857	1.6507834
16.47044999699522	2.7354243	1.6539118
16.488159554667558	2.7913864	1.6707443
16.505869508895184	2.8865447	1.6989834
16.523579860127786	2.934544	1.7130511
16.541290608815117	3.0010142	1.7323436
16.559001755407035	3.0350335	1.7421347
16.57671330035348	3.088703	1.7574706
16.59442524410448	3.1419709	1.7725606
16.61213758711015	3.2038488	1.7899299
16.629850329820705	3.2529283	1.8035876
16.647563472686436	3.3263397	1.8238256
16.665277016157724	3.3263545	1.8238297
16.682990960685053	3.3610117	1.8333062
16.70070530671898	3.3711026	1.8360562
16.718420054710155	3.4919472	1.8686752
16.736135205109335	3.60023	1.8974272
16.753850758367335	3.6451118	1.9092176
16.771566714935087	3.604634	1.8985873
16.789283075263597	3.6462812	1.9095238
16.80699983980398	3.7343884	1.9324566
16.82471700900741	3.855467	1.9635344
16.84243458332518	3.9328465	1.9831406
16.860152563208665	4.011442	2.0028584
16.87787094910932	4.057056	2.0142136
16.89558974147871	4.082409	2.020497
16.913308940768466	4.1743736	2.0431285
16.931028547430333	4.306978	2.075326
16.94874856191613	4.4592624	2.1116965
16.966468984677785	4.5105143	2.1237972
16.98418981616729	4.4583426	2.1114788
17.00191105683676	4.416075	2.101446
17.019632707138374	4.397954	2.0971298
17.03735476752442	4.457351	2.111244
17.05507723844728	4.537709	2.13019
17.072800120359403	4.581996	2.1405597
17.090523413713353	4.5992045	2.1445756
17.108247118961785	4.6328483	2.1524053
17.125971236557437	4.669856	2.160985
17.143695766953133	4.7005644	2.1680784
17.161420710601806	4.7305927	2.1749926
17.179146067956477	4.7221494	2.1730506
17.19687183947025	4.6836205	2.1641674
17.21459802559634	4.6543584	2.1573963
17.232324626788028	4.6696563	2.1609387
17.25005164349871	4.6690817	2.1608057
17.267779076181863	4.662944	2.159385
17.285506925291074	4.6499844	2.1563823
17.30323519127999	4.590834	2.1426232
17.320963874602384	4.5433936	2.1315238
17.33869297571211	4.5000744	2.121338
17.356422495063114	4.491539	2.1193252
17.37415243310944	4.470695	2.1144018
17.391882790305218	4.467939	2.11375
17.40961356710468	4.475624	2.115567
17.42734476396215	4.46783	2.1137242
17.445076381332044	4.4697537	2.1141791
17.462808419668868	4.552916	2.1337564
17.48054087942723	4.6884313	2.1652787
17.498273761061835	5.013512	2.2390873
17.51600706502747	5.491893	2.3434787
17.533740791779024	6.207633	2.4915123
17.551474941771485	7.587844	2.754604
17.56920951545993	8.681424	2.9464257
17.586944513299528	11.054768	3.324871
17.60467993574556	12.855619	3.5854733
17.622415783253373	14.737483	3.838943
17.64015205627843	16.252607	4.031452
17.657888755276293	17.544909	4.1886644
17.675625880702604	18.08428	4.2525616
17.69336343301311	17.944828	4.2361336
17.71110141266366	16.938179	4.115602
17.728839820110178	15.888106	3.9859889
17.746578655808705	14.805439	3.8477836
17.764317920215372	13.129834	3.6235113
17.7820576137864	11.354592	3.3696575
17.79979773697811	9.296946	3.0490892
17.81753829024692	7.410913	2.722299
17.835279274049356	5.785939	2.405398
17.85302068884201	4.7668495	2.1833117
17.870762535081607	4.1226	2.0304186
17.888504813224934	3.805239	1.9507022
17.90624752372891	3.6415567	1.9082863
17.923990667050536	3.5403452	1.8815805
17.941734243646895	3.536287	1.8805019
17.959478253975185	3.48734	1.8674421
17.9772226984927	3.4648619	1.861414
17.994967577656833	3.3997788	1.843849
18.01271289192506	3.3607929	1.8332466
18.030458641754965	3.3482385	1.8298192
18.04820482760425	3.3424919	1.8282483
18.06595144993067	3.2756479	1.8098751
18.083698509192125	3.2476282	1.8021177
18.101446005846576	3.225896	1.796078
18.119193940352105	3.252325	1.8034204
18.136942313166887	3.2388387	1.7996774
18.1546911247492	3.2202132	1.7944952
18.1724403755574	3.1710443	1.7807426
18.19019006604997	3.174648	1.7817543
18.207940196685467	3.2315905	1.7976625
18.225690767922575	3.233817	1.7982817
18.243441780220046	3.1882615	1.7855704
18.261193234036764	3.1116881	1.7639978
18.278945129831676	3.088363	1.7573739
18.29669746806386	3.03782	1.7429343
18.314450249192483	3.0469124	1.7455407
18.3322034736768	3.0305488	1.7408471
18.349957141976184	3.043295	1.7445042
18.3677112545501	3.0446975	1.7449062
18.385465811858108	3.074394	1.753395
18.403220814359884	3.1169307	1.7654831
18.420976262515172	3.121924	1.7668967
18.43873215678387	3.1281965	1.7686708
18.456488497625923	3.1514523	1.775233
18.474245285501407	3.2630947	1.8064038
18.492002520870486	3.3085911	1.8189533
18.50976020419343	3.3588433	1.8327148
18.527518335930615	3.606718	1.8991362
18.545276916542516	4.1678576	2.0415332
18.563035946489688	4.3583193	2.087659
18.580795426232832	4.8768005	2.208348
18.598555356232698	4.813694	2.194013
18.616315736950185	5.095776	2.2573826
18.63407656884626	4.7266564	2.1740875
18.65183785238201	4.840925	2.2002103
18.669599588018617	4.604222	2.145745
18.68736177621737	4.5970016	2.144062
18.705124417439652	4.6079335	2.1466098
18.72288751214696	4.4457045	2.108484
18.740651060800886	4.5687814	2.1374707
18.758415063863115	4.286741	2.0704446
18.77617952179546	4.457381	2.111251
18.793944435059814	4.242681	2.059777
18.811709804118184	4.2687726	2.0661008
18.829475629432675	4.230157	2.0567346
18.8472419114655	4.021471	2.0053606
18.86500865067897	4.0550184	2.0137076
18.88277584753551	3.7483766	1.9360725
18.90054350249763	3.7642312	1.9401627
18.918311616027957	3.4326658	1.8527455
18.936080188589226	3.278314	1.8106115
18.953849220644265	2.9919198	1.7297167
18.971618712656007	2.8404713	1.6853697
18.9893886650875	2.7964592	1.6722617
19.007159078401887	7.983166	2.8254497
19.024929953062408	32.88626	5.7346544
19.042701289532435	32.863224	5.7326455
19.060473088275405	25.409132	5.040747
19.07824534975489	2.6758492	1.6358023
19.096018074434568	2.636458	1.6237173
19.113791262778197	2.591979	1.6099625
19.13156491524966	2.5778008	1.6055532
19.149339032312945	2.5341835	1.5919119
19.167113614432136	2.5406437	1.5939397
19.184888662071433	2.5365934	1.5926687
19.202664175695123	2.5681763	1.602553
19.220440155767623	2.5620272	1.6006334
19.238216602753447	2.5375168	1.5929586
19.2559935171172	2.501912	1.5817434
19.27377089932361	2.4796588	1.5746932
19.291548749837514	2.4679346	1.5709661
19.309327069123835	2.471618	1.5721381
19.32710585764763	2.515638	1.5860764
19.344885115874032	2.5389771	1.5934168
19.362664844268313	2.5570698	1.599084
19.380445043295822	2.5326345	1.5914253
19.39822571342203	2.5357025	1.5923889
19.41600685511252	2.5113285	1.5847172
19.43378846883297	2.520804	1.587704
19.451570555049173	2.5162783	1.5862781
19.469353114227037	2.5104206	1.5844307
19.48713614683254	2.4977107	1.5804148
19.50491965333182	2.4728823	1.57254
19.52270363419109	2.466187	1.5704098
19.540488089876686	2.4863086	1.5768033
19.55827302085503	2.548668	1.5964547
19.576058427592674	2.5845485	1.6076531
19.593844310556282	2.563366	1.6010516
19.611630670212598	2.5672026	1.6022493
19.629417507028506	2.5312042	1.5909759
19.64720482147098	2.4974434	1.5803301
19.6649926140071	2.4816508	1.5753256
19.682780885104084	2.5094664	1.5841296
19.70056963522921	2.5291069	1.5903165
19.718358864849908	2.5318847	1.5911897
19.7361485744337	2.5200787	1.5874755
19.753938764448215	2.4445903	1.5635185
19.771729435361202	2.437456	1.5612354
19.789520587640506	2.4323676	1.5596049
19.807312221754092	2.4375005	1.5612496
19.825104338170043	2.4508147	1.5655078
19.842896937356517	2.5054333	1.582856
19.860690019781824	2.5199864	1.5874465
19.87848358591436	2.5435708	1.5948576
19.896277636222635	2.542188	1.594424
19.914072171175278	2.5366936	1.5927001
19.931867191241015	2.486826	1.5769674
19.94966269688869	2.4649851	1.5700271
19.967458688587264	2.4230778	1.5566238
19.985255166805807	2.433998	1.5601276
20.00305213201348	2.4771116	1.5738842
20.020849584679578	2.5185008	1.5869786
20.038647525273507	2.5429385	1.5946593
20.05644595426477	2.4949324	1.5795355
20.07424487212299	2.4736438	1.5727822
20.092044279317903	2.4377456	1.5613282
20.109844176319353	2.4488513	1.5648806
20.127644563597304	2.4495733	1.5651113
20.145445441621817	2.4385078	1.5615722
20.16324681086307	2.391481	1.5464413
20.181048671791373	2.4060721	1.5511519
20.198851024877122	2.4115179	1.5529063
20.216653870590836	2.4188862	1.5552769
20.234457209403146	2.385137	1.5443889
20.252261041784802	2.3850782	1.5443698
20.270065368206662	2.379492	1.5425602
20.287870189139685	2.3677375	1.5387454
20.305675505054968	2.3604553	1.5363773
20.323481316423702	2.3812633	1.5431342
20.341287623717207	2.3915462	1.5464625
20.359094427406884	2.4086208	1.5519732
20.376901727964288	2.3866055	1.5448642
20.39470952586107	2.3707006	1.5397079
20.41251782156899	2.3589945	1.5359019
20.430326615559935	2.3656883	1.5380794
20.448135908305886	2.3824425	1.5435163
20.465945700278965	2.383786	1.5439514
20.483755991951384	2.3591707	1.5359592
20.50156678379548	2.3619988	1.5368795
20.519378076283708	2.3837104	1.543927
20.537189869888635	2.403622	1.5503619
20.55500216508294	2.3766212	1.5416294
20.572814962339415	2.3168638	1.5221248
20.59062826213098	2.2962432	1.515336
20.60844206493066	2.3015757	1.5170945
20.626256371211593	2.3337297	1.527655
20.644071181447032	2.317421	1.5223078
20.66188649611036	2.3159811	1.5218349
20.67970231567506	2.284421	1.5114301
20.697518640614742	2.3085098	1.5193781
20.715335471403122	2.3369768	1.5287174
20.73315280851404	2.372643	1.5403386
20.750970652421447	2.362073	1.5369037
20.768789003599412	2.349384	1.53277
20.786607862522136	2.3178997	1.522465
20.8044272296639	2.2940757	1.5146207
20.82224710549913	2.2728245	1.507589
20.84006749050237	2.2668827	1.505617
20.857888385148268	3.822161	1.9550347
20.8757097899116	45.91552	6.776099
20.893531705267254	64.761284	8.04744
20.911354131690224	83.80787	9.154664
20.92917706965566	69.126236	8.3142185
20.94700051963877	50.209812	7.0858884
20.96482448211493	29.451921	5.4269624
20.982648957559622	4.149566	2.0370483
21.00047394644843	2.2407932	1.496928
21.01829944925707	2.2215416	1.4904836
21.036125466461375	2.2458699	1.4986227
21.053951998537297	2.2343671	1.49478
21.071779045960906	2.2450378	1.498345
21.089606609208378	2.2660098	1.5053271
21.10743468875603	2.2575243	1.502506
21.12526328508028	2.2536175	1.5012053
21.143092398657675	2.207076	1.4856231
21.16092202996488	2.2388055	1.4962639
21.17875217947867	2.2437434	1.497913
21.19658284767596	2.2591722	1.5030543
21.21441403503377	2.2250164	1.4916489
21.232245742029225	2.2161255	1.4886657
21.2500779691396	2.1911263	1.4802454
21.26791071684227	2.2028785	1.4842097
21.28574398561475	2.2239528	1.4912924
21.30357777593465	2.1896513	1.479747
21.321412088279704	2.148383	1.4657363
21.339246923127792	2.1573255	1.4687837
21.357082280956888	2.188864	1.479481
21.3749181622451	2.193151	1.4809291
21.392754567470647	2.172543	1.4739549
21.41059149711187	2.1654103	1.4715333
21.42842895164726	2.1469297	1.4652405
21.446266931555378	2.128082	1.4587947
21.464105437314945	2.1022768	1.449923
21.481944469404798	2.1183674	1.4554613
21.49978402830388	2.1279702	1.4587564
21.51762411449127	2.1199563	1.456007
21.53546472844617	2.1154351	1.4544536
21.553305870647876	2.0714655	1.4392587
21.571147541575865	2.0283508	1.4242018
21.58898974170967	2.0150447	1.4195226
21.60683247152899	2.0127892	1.418728
21.62467573151363	2.0106497	1.4179738
21.642519522143523	1.9936454	1.4119651
21.660363843898722	2.0151162	1.4195479
21.6782086972594	2.0453956	1.4301733
21.696054082705864	2.048117	1.4311243
21.713900000718535	2.031645	1.4253578
21.73174645177795	2.0422802	1.4290837
21.749593436364794	2.0621269	1.4360107
21.767440954959845	2.0570345	1.4342365
21.785289008044032	2.0299947	1.4247788
21.803137596098388	2.0190327	1.4209267
21.820986719604086	2.007333	1.4168038
21.838836379042412	2.0127087	1.4186996
21.85668657489478	2.0233626	1.4224495
21.87453730764273	2.057852	1.4345216
21.892388577767914	2.0122616	1.418542
21.91024038575213	2.0091588	1.417448
21.928092732077285	1.9799219	1.407097
21.945945617225426	1.98811	1.4100035
21.963799041678694	1.9838787	1.4085023
21.981653005919398	31.330877	5.597399
21.999507510429943	78.14397	8.839908
22.01736255569286	73.08036	8.548705
22.035218142190818	4.130613	2.0323908
22.05307427040661	1.9321604	1.3900217
22.07093094082315	1.9801486	1.4071776
22.088788153923474	2.042957	1.4293205
22.106645910190746	2.0751843	1.44055
22.12450421010827	2.0493302	1.4315482
22.142363054159464	1.9938369	1.4120328
22.16022244282787	1.9957982	1.4127272
22.178082376597164	2.0000556	1.4142332
22.195942855951145	2.0141764	1.4192169
22.213803881373742	1.9828095	1.4081227
22.231665453349002	1.9896358	1.4105445
22.24952757236111	1.9708337	1.4038638
22.26739023889438	1.9965191	1.4129823
22.28525345343323	2.0024748	1.4150883
22.30311721646225	1.9855822	1.4091069
22.320981528466113	1.9426317	1.3937832
22.33884638992964	1.9395818	1.3926886
22.356711801337788	1.939666	1.3927189
22.37457776317561	1.9521158	1.3971814
22.392444275928337	1.9558506	1.3985173
22.410311340081282	1.9446373	1.3945025
22.428178956119904	1.9360898	1.3914344
22.446047124529805	1.9084721	1.3814746
22.46391584579669	1.9139223	1.3834459
22.481785120406414	1.9269761	1.3881557
22.49965494884496	1.958037	1.3992988
22.51752533159841	1.976638	1.4059296
22.53539626915302	1.953781	1.3977772
22.553267761995137	1.9231956	1.3867933
22.571139810611264	1.8593593	1.3635832
22.589012415488025	1.8588887	1.3634107
22.60688557711216	1.8702823	1.3675827
22.624759295970566	1.8775036	1.3702203
22.642633572550263	1.8692497	1.367205
22.660508407338362	1.8919518	1.3754824
22.67838380082217	1.9245175	1.3872699
22.696259753489077	1.9412899	1.3933018
22.714136265826614	1.9575622	1.399129
22.73201333832246	1.9379057	1.3920867
22.74989097146439	1.9418639	1.3935077
22.76776916574035	1.9228567	1.3866711
22.785647921638393	1.9124919	1.3829287
22.803527239646712	1.947945	1.395688
22.82140712025363	1.9713929	1.404063
22.839287563947593	1.9812628	1.4075733
22.85716857121719	1.9517094	1.397036
22.875050142551135	1.9298443	1.3891883
22.892932278438277	1.9394702	1.3926486
22.910814979367604	1.9366093	1.3916211
22.928698245828222	1.9454767	1.3948034
22.946582078309387	1.9483484	1.3958325
22.96446647730047	1.9403648	1.3929698
22.98235144329098	1.936445	1.3915621
23.000236976770562	1.9431865	1.3939823
23.018123078229	1.9364603	1.3915676
23.03600974815619	1.9509938	1.3967798
23.053896987042194	1.9146585	1.3837118
23.071784795377173	1.9006041	1.378624
23.08967317365145	1.8685716	1.3669571
23.10756212235546	1.8972881	1.3774208
23.125451641979787	1.9054155	1.3803679
23.143341733015134	1.9335126	1.390508
23.161232395952357	1.9372654	1.3918568
23.179123631282426	1.9821028	1.4078717
23.197015439496468	1.990393	1.4108129
23.214907821085717	1.9670265	1.4025072
23.23280077654157	1.9690278	1.4032205
23.250694306355538	1.9704918	1.4037421
23.268588411019277	1.9876353	1.4098352
23.28648309102458	1.9844342	1.4086995
23.304378346863356	1.9915799	1.4112334
23.322274179027676	1.9784439	1.4065716
23.340170588009723	1.9714346	1.4040779
23.358067574301852	1.9731463	1.4046873
23.37596513839651	1.981476	1.407649
23.39386328078629	1.9624488	1.4008743
23.411762001963947	1.9304701	1.3894136
23.429661302422353	1.9047568	1.3801292
23.4475611826545	1.8490736	1.3598064
23.46546164315356	1.8745049	1.3691256
23.48336268441279	1.8907242	1.3750361
23.501264306925638	1.9607991	1.4002854
23.51916651118564	1.9441984	1.3943452
23.537069297686497	1.9018134	1.3790625
23.554972666922037	1.8818823	1.3718171
23.57287661938623	1.9303558	1.3893725
23.59078115557318	1.9562671	1.3986661
23.608686275977128	1.9174707	1.3847277
23.62659198109246	1.9202937	1.3857466
23.6444982714137	1.9327779	1.3902438
23.66240514743549	1.9165593	1.3843986
23.68031260965263	1.8651835	1.3657172
23.698220658560068	1.8580334	1.363097
23.716129294652845	1.9096322	1.3818945
23.7340385184262	1.9759899	1.4056991
23.75194833037546	1.9688439	1.403155
23.769858730996123	1.8892758	1.3745093
23.78776972078382	1.8438935	1.3579004
23.80568130023431	1.8651971	1.3657222
23.823593469843495	1.9172561	1.3846502
23.841506230107424	1.9226253	1.3865876
23.859419581522275	1.8708446	1.3677882
23.87733352458438	1.871349	1.3679726
23.89524805979019	1.8617227	1.3644496
23.913163187636318	1.851704	1.3607733
23.931078908619508	1.8703736	1.367616
23.948995223236633	1.9023589	1.3792603
23.966912131984735	1.9424132	1.3937049
23.98482963536096	1.9719892	1.4042753
24.002747733862616	1.9952304	1.4125262
24.020666427987155	2.040861	1.4285871
24.038585718232156	2.0655153	1.43719
24.056505605095353	2.050278	1.4318792
24.074426089074617	2.0543852	1.4333127
24.092347170667946	2.0603707	1.4353992
24.110268850373515	2.0832813	1.4433576
24.128191128689586	2.117846	1.4552821
24.146114006114626	2.109299	1.4523426
24.164037483147187	2.0494301	1.431583
24.181961560286005	2.0029304	1.4152492
24.199886238029926	1.9773438	1.4061806
24.21781151687797	2.0167375	1.4201188
24.235737397329274	2.0654516	1.4371679
24.253663879883135	2.0847554	1.4438682
24.271590965038975	2.0873435	1.4447641
24.289518653296376	2.046782	1.4306579
24.30744694515505	2.0339007	1.4261489
24.32537584111486	2.0334451	1.4259892
24.34330534167581	2.014046	1.4191709
24.361235447338046	2.030919	1.4251032
24.379166158601876	2.002466	1.4150852
24.39709747596772	2.0299065	1.4247478
24.41502939993615	2.0035417	1.4154652
24.432961931007917	2.0286407	1.4243037
24.450895069683856	1.9981385	1.4135553
24.468828816465	1.9804417	1.4072816
24.4867631718525	1.9516544	1.3970163
24.504698136347656	1.9768683	1.4060115
24.52263371045192	1.9959098	1.4127667
24.540569894666874	2.0149963	1.4195056
24.558506689494266	1.9965465	1.412992
24.57644409543597	1.9702044	1.4036397
24.594382112994012	1.9693028	1.4033185
24.61232074267057	1.9841657	1.4086041
24.630259984967953	1.9851168	1.4089417
24.64819984038863	1.9980054	1.4135082
24.66614030943522	1.9981002	1.4135417
24.684081392610462	1.9984039	1.4136492
24.702023090417274	2.0076568	1.416918
24.7199654033587	2.0601692	1.435329
24.737908331937927	2.1121964	1.4533398
24.755851876658305	2.0933254	1.4468329
24.773796038023324	2.0285532	1.4242729
24.79174081653661	2.0581422	1.4346226
24.809686212701962	2.0962377	1.4478389
24.827632227023294	2.1153624	1.4544286
24.8455788600047	2.0866046	1.4445084
24.8635261121504	2.1255796	1.4579368
24.88147398396475	2.1528382	1.4672554
24.899422475952303	2.1718657	1.4737251
24.917371588617698	2.1548562	1.4679428
24.935321322465768	2.1724756	1.473932
24.953271678001478	2.3080387	1.5192231
24.97122265572994	2.490908	1.578261
24.989174256156414	2.7938867	1.6714923
25.00712647978632	3.2261975	1.7961619
25.02507932712521	3.7730331	1.9424297
25.043032798678798	4.366852	2.0897014
25.060986894952933	5.070735	2.2518291
25.078941616453637	5.854189	2.419543
25.096896963687055	6.8552556	2.6182544
25.114852937159508	8.038384	2.8352044
25.132809537377444	8.548769	2.923828
25.150766764847468	8.533485	2.921213
25.168724620076347	8.0146675	2.831019
25.186683103570985	6.9672794	2.6395605
25.204642215838426	5.7044425	2.3883975
25.222601957385894	4.2477827	2.061015
25.24056232872074	3.203491	1.7898299
25.25852333035048	2.6205792	1.6188203
25.276484962782778	2.2159364	1.4886022
25.294447226525435	2.041833	1.4289272
25.312410122086423	1.9450662	1.3946563
25.330373649973843	1.9612367	1.4004416
25.348337810695988	1.9805932	1.4073355
25.366302604761245	1.9779307	1.4063892
25.384268032678207	1.9297752	1.3891635
25.40223409495558	1.8975272	1.3775076
25.420200792102257	1.9157132	1.3840929
25.438168124627246	1.9276501	1.3883984
25.45613609303974	1.9441053	1.3943118
25.474104697849057	1.9284663	1.3886923
25.492073939564698	1.9346808	1.390928
25.510043818696285	1.9061885	1.3806479
25.528014335753614	1.906426	1.3807338
25.54598549124664	1.83384	1.3541934
25.56395728568544	1.838956	1.3560811
25.58192971958028	1.8327099	1.3537762
25.59990279344156	1.8606733	1.364065
25.617876507779833	1.8838923	1.3725495
25.635850863105826	1.8446329	1.3581727
25.653825859930386	1.8101263	1.3454094
25.671801498764548	1.7880858	1.3371933
25.68977778011949	1.8696442	1.3673493
25.707754704506524	1.890571	1.3749803
25.725732272437153	1.8962606	1.3770478
25.743710484423012	1.9237448	1.3869913
25.761689340975888	1.8967068	1.3772098
25.77966884260774	1.8673079	1.3664948
25.797648989830662	1.8541771	1.3616817
25.815629783156922	1.8803763	1.3712682
25.83361122309895	1.8717395	1.3681153
25.85159331016929	1.7959244	1.340121
25.869576044880695	1.8035562	1.3429655
25.887559427746034	1.839299	1.3562076
25.90554345927836	1.864473	1.365457
25.92352813999086	1.8221122	1.3498564
25.94151347039689	1.8463014	1.3587867
25.959499451009965	1.881601	1.3717146
25.97748608234374	1.8937382	1.3761315
25.995473364912062	1.8648688	1.365602
26.013461299228904	1.8531461	1.3613031
26.03144988580839	1.8271544	1.3517227
26.04943912516483	1.7950349	1.3397892
26.067429017812675	1.837691	1.3556145
26.085419564266537	1.9026525	1.3793668
26.103410765041186	1.8933423	1.3759878
26.12140262065155	1.8121314	1.3461543
26.139395131612723	1.7995067	1.3414569
26.157388298439948	1.8251239	1.3509715
26.17538212164861	1.8807622	1.3714088
26.193376601754295	1.8886502	1.3742816
26.211371739272714	1.889587	1.3746225
26.229367534719746	1.8507056	1.3604064
26.247363988611433	1.8207655	1.3493575
26.26536110146397	1.8018059	1.3423136
26.283358873793727	1.8012091	1.3420913
26.301357306117204	1.768776	1.3299534
26.319356398951104	1.7749276	1.3322641
26.33735615281224	1.7761519	1.3327235
26.35535656821762	1.8013251	1.3421345
26.373357645684404	1.8043306	1.3432537
26.39135938572991	1.8186063	1.3485571
26.409361788871614	1.8110808	1.345764
26.427364855627165	1.8350704	1.3546476
26.445368586514352	1.8457997	1.3586022
26.46337298205115	1.8295518	1.3526093
26.48137804275568	1.8095764	1.345205
26.499383769146217	1.7785232	1.3336128
26.517390161741215	1.799814	1.3415715
26.53539722105928	1.8646303	1.3655146
26.553404947619182	1.8770802	1.3700658
26.571413341939856	1.862232	1.3646362
26.589422404540397	1.8187623	1.3486149
26.60743213594006	1.8256681	1.3511728
26.62544253665827	1.7710955	1.3308251
26.64345360721459	1.7899603	1.337894
26.66146534812879	1.8683617	1.3668803
26.679477759920758	1.9216325	1.3862296
26.69749084311057	1.8799533	1.3711139
26.71550459821847	1.8338782	1.3542076
26.733519025764842	1.8434706	1.3577447
26.751534126270258	1.8266737	1.351545
26.769549900255434	1.8097159	1.3452568
26.787566348241267	1.7951572	1.3398348
26.80558347074881	1.8121723	1.3461695
26.823601268299267	1.8092394	1.3450797
26.841619741414036	1.7821397	1.3349681
26.85963889061465	1.7603407	1.3267783
26.877658716422832	1.791524	1.3384782
26.89567921936045	1.8179688	1.3483207
26.913700399949544	1.865272	1.3657496
26.93172225871233	1.859403	1.3635993
26.949744796171174	1.8507367	1.3604178
26.967768012848605	1.8462008	1.3587497
26.98579190926733	1.8482308	1.3594966
27.003816485950225	1.8802308	1.3712151
27.021841743420318	1.867093	1.3664161
27.039867682200814	1.8419727	1.357193
27.057894302815072	1.7899369	1.3378853
27.07592160578664	1.7936153	1.3392593
27.0939495916392	1.8252056	1.3510017
27.111978260896635	1.8139721	1.3468379
27.13000761408296	1.7382735	1.318436
27.148037651722397	1.6986287	1.3033144
27.166068374339304	1.7253275	1.3135172
27.184099782458215	1.753086	1.3240415
27.20213187660384	1.7561986	1.3252164
27.22016465730105	1.7928263	1.3389646
27.23819812507487	1.8243304	1.3506777
27.256232280450533	1.8364606	1.3551607
27.274267123953383	1.804727	1.3434013
27.292302656108987	1.8003403	1.3417675
27.31033887744306	1.811051	1.345753
27.32837578848146	1.8071518	1.3443035
27.34641338975026	1.8297739	1.3526914
27.364451681775673	1.8494714	1.3599527
27.382490665084074	1.7736063	1.3317682
27.400530340202046	1.750892	1.3232127
27.41857070765629	1.757385	1.325664
27.436611767973726	1.77852	1.3336116
27.454653521681404	1.7723539	1.3312979
27.472695969306564	1.7780424	1.3334326
27.490739111376627	1.843646	1.3578093
27.508782948419153	1.8368402	1.3553008
27.526827480961902	1.8180127	1.348337
27.54487270953279	1.8217405	1.3497187
27.562918634659898	1.8026999	1.3426466
27.580965256871508	1.759954	1.3266326
27.599012576696026	1.7818546	1.3348613
27.617060594662068	1.8248861	1.3508835
27.63510931129842	1.8117267	1.346004
27.65315872713401	1.8460845	1.358707
27.67120884269797	1.859359	1.3635832
27.68925965851958	1.8503531	1.3602768
27.707311175128307	1.8387717	1.3560132
27.725363393053787	1.8392845	1.3562022
27.74341631282583	1.8575188	1.3629082
27.7614699349744	1.8560408	1.3623658
27.77952426002968	1.9755704	1.4055499
27.797579288521973	2.085588	1.4441565
27.815635020981784	2.4809403	1.5751001
27.83369145793979	2.5001068	1.5811726
27.85174859992682	2.3487153	1.5325519
27.869806447473923	2.2109683	1.4869325
27.887865001112267	1.9627277	1.4009738
27.905924261373233	1.9089278	1.3816395
27.92398422878836	1.9025103	1.3793151
27.94204490388936	1.8694177	1.3672665
27.96010628720813	1.8676767	1.3666297
27.978168379276728	1.9260898	1.3878363
27.9962311806274	1.916392	1.3843381
28.014294691792568	1.8567615	1.3626304
28.0323589133048	1.7812159	1.334622
28.050423845696887	1.8148099	1.3471488
28.068489489501758	1.8885493	1.374245
28.086555845252523	1.926432	1.3879596
28.104622913482487	1.8561898	1.3624206
28.122690694725115	1.80953	1.3451878
28.14075918951405	1.8480244	1.3594207
28.15882839838312	1.9247042	1.3873371
28.176898321866304	1.9607689	1.4002746
28.1949689604978	1.9645822	1.4016355
28.213040314811945	1.9141836	1.3835403
28.23111238534327	1.8509642	1.3605014
28.249185172626493	1.8499086	1.3601135
28.267258677196473	1.893931	1.3762016
28.285332899588294	1.8998493	1.3783503
28.303407840337172	1.9142796	1.383575
28.321483499978545	1.9703419	1.4036887
28.33955987904799	1.9795096	1.4069505
28.357636978081285	1.9386916	1.392369
28.37571479761439	1.8843467	1.3727151
28.393793338183425	1.9275985	1.3883798
28.41187260032469	2.0029576	1.4152589
28.429952584574686	2.0481772	1.4311454
28.448033291470065	2.0060918	1.4163657
28.46611472154769	1.9753473	1.4054705
28.484196875344566	2.031551	1.4253248
28.502279753397914	2.0307999	1.4250613
28.52036335624511	1.9695629	1.4034111
28.538447684423716	1.9701737	1.4036288
28.556532738471482	1.9828994	1.4081546
28.574618518926325	1.9828347	1.4081316
28.59270502632635	1.9849621	1.4088868
28.61079226120985	2.0042973	1.415732
28.628880224115274	2.0361433	1.426935
28.646968915581287	2.0475223	1.4309165
28.66505833614671	2.0147846	1.4194311
28.68314848635055	2.0527375	1.4327377
28.701239366732004	2.09305	1.4467378
28.71933097783044	2.1136568	1.453842
28.737423320185403	2.1134717	1.4537784
28.75551639433665	2.1114564	1.4530852
28.773610200824074	2.1155434	1.4544908
28.791704740187793	2.0901	1.4457178
28.80980001296809	2.1201963	1.4560894
28.827896019705413	2.1549892	1.4679881
28.845992760940433	2.1696603	1.4729767
28.86409023721397	2.1671267	1.4721164
28.88218844906704	2.22065	1.4901845
28.900287397040845	2.2668483	1.5056056
28.918387081676755	2.2840724	1.5113147
28.936487503516343	2.2658656	1.5052792
28.954588663101365	2.285143	1.5116689
28.97269056097374	2.3131876	1.5209167
28.990793197675597	2.3608716	1.5365127
29.00889657374923	2.4083915	1.5518993
29.027000689737125	2.4061124	1.5511649
29.04510554618196	2.4517493	1.5658063
29.06321114362659	2.4776387	1.5740517
29.08131748261405	2.4659665	1.5703396
29.099424563687567	2.5096664	1.5841926
29.11753238739057	2.529784	1.5905294
29.13564095426663	2.5449574	1.5952922
29.15375026485954	2.5150762	1.5858991
29.171860319713275	2.539893	1.5937041
29.18997111937199	2.6290045	1.6214205
29.20808266438002	2.7082748	1.6456836
29.226194955281898	2.7290864	1.6519947
29.244307992622335	2.7525187	1.6590716
29.26242177694624	2.7393496	1.6550981
29.2805363087987	2.7924087	1.6710502
29.29865158872498	2.872443	1.6948283
29.316767617270557	2.923209	1.7097394
29.334884394981064	2.947651	1.7168725
29.353001922402367	2.9659798	1.7222021
29.37112020008047	3.0614974	1.7497135
29.389239228561596	3.1949909	1.7874538
29.407359008392152	3.41169	1.847076
29.42547954011872	3.7294908	1.931189
29.44360082428809	4.2875676	2.0706441
29.46172286144722	5.3566556	2.314445
29.479845652143283	7.0199227	2.6495137
29.497969196923606	9.259529	3.0429475
29.516093496335728	12.005722	3.4649274
29.5342185509274	15.169981	3.894866
29.55234436124651	17.786802	4.21744
29.570470927841175	19.265799	4.389282
29.588598251259686	18.790684	4.334822
29.60672633205055	17.282297	4.1571984
29.624855170762405	14.944503	3.865812
29.642984767944146	12.081815	3.4758904
29.66111512414481	9.178885	3.0296676
29.67924623991366	6.72605	2.593463
29.697378115800138	5.063675	2.250261
29.71551075235387	4.1293087	2.0320702
29.733644150124675	3.7066731	1.9252722
29.751778309662576	3.4781497	1.8649797
29.769913231517766	3.3873625	1.8404789
29.78804891624066	3.4045405	1.8451397
29.806185364381818	3.3434763	1.8285176
29.82432257649206	3.2832775	1.8119817
29.842460553122333	3.244452	1.8012363
29.86059929482382	3.276326	1.8100624
29.878738802147872	3.2624693	1.8062307
29.896879075646048	3.250824	1.8030041
29.915020115870114	3.3281896	1.8243326
29.933161923371976	3.385433	1.8399546
29.951304498703777	3.3611186	1.8333354
29.969447842417857	3.3422906	1.8281933
29.987591955066733	3.292278	1.8144636
30.005736837203123	3.2087402	1.7912956
30.023882489379943	3.175499	1.781993
30.04202891215028	3.1619322	1.7781823
30.060176106067455	3.1336172	1.7702025
30.078324071684946	3.1150672	1.7649553
30.09647280955646	3.0552702	1.7479331
30.114622320235863	3.0480235	1.7458589
30.132772604277257	3.1257699	1.7679846
30.1509236622349	3.1727915	1.7812332
30.16907549466328	3.1206956	1.7665491
30.18722810211705	3.1084623	1.7630832
30.205381485151097	3.0594163	1.7491187
30.22353564432045	3.0054653	1.7336278
30.241690580180403	3.0813036	1.7553642
30.25984629328638	3.0776439	1.7543215
30.278002784194037	3.0306654	1.7408806
30.296160053459246	2.9302309	1.7117918
30.314318101638033	2.9357886	1.7134143
30.332476929286646	2.95828	1.7199651
30.35063653696153	2.9990072	1.7317642
30.368796925219307	2.9866247	1.7281854
30.386958094616844	2.9115713	1.7063327
30.40512004571115	2.9106312	1.7060572
30.423282779059463	2.9144955	1.7071893
30.441446295219233	2.9264731	1.7106937
30.459610594748067	2.9804692	1.7264036
30.47777567820382	2.9712584	1.7237339
30.495941546144504	2.8626747	1.6919441
30.51410819912835	2.8115323	1.6767625
30.532275637713795	2.866934	1.6932023
30.55044386245946	2.954299	1.7188075
30.56861287392416	2.932783	1.7125369
30.586782672666956	2.8549926	1.6896724
30.604953259247047	2.7796588	1.6672308
30.623124634223885	2.7630274	1.6622356
30.641296798157075	2.7754872	1.6659794
30.659469751606462	2.7694645	1.6641709
30.677643495132074	2.7615714	1.6617976
30.695818029294152	2.7622547	1.6620033
30.713993354653116	2.7647367	1.6627498
30.73216947176962	2.7259278	1.6510384
30.75034638120448	2.701162	1.6435213
30.768524083518756	2.7214286	1.6496754
30.786702579273673	2.7549243	1.6597965
30.80488186903069	2.8169696	1.678383
30.82306195335144	2.9093692	1.7056873
30.841242832797782	3.1072814	1.7627482
30.85942450793176	3.491076	1.8684422
30.877606979315637	3.8995044	1.9747163
30.895790247511883	4.323274	2.0792484
30.913974313083134	4.709399	2.170115
30.932159176592283	4.9416294	2.2229776
30.95034483860237	4.958903	2.2268593
30.968531299676698	4.782965	2.186999
30.98671856037873	4.520435	2.1261315
31.00490662127215	4.157026	2.0388787
31.023095482920848	3.7210302	1.9289972
31.04128514588892	3.2777555	1.8104572
31.059475610740662	2.8221364	1.6799215
31.07766687804056	2.5508354	1.5971335
31.09585894835335	2.4560103	1.5671663
31.11405182224393	2.4018035	1.5497754
31.132245500277417	2.378673	1.5422947
31.15043998301914	2.377538	1.5419267
31.168635271034628	2.4119525	1.5530462
31.18683136488964	2.4531415	1.5662508
31.20502826515008	2.5152476	1.5859532
31.223225972382135	2.5546489	1.5983269
31.241424487152155	2.5013008	1.5815501
31.259623810026692	2.4483657	1.5647254
31.27782394157253	2.4207494	1.5558758
31.296024882356644	2.443288	1.5631021
31.314226632946237	2.4371893	1.56115
31.332429193908684	2.4440496	1.5633457
31.350632565811598	2.529838	1.5905465
31.368836749222787	2.5380285	1.5931191
31.387041744710295	2.5628722	1.6008973
31.40524755284232	2.5282786	1.5900562
31.423454174187317	2.5334055	1.5916675
31.441661609313922	2.4759257	1.5735074
31.459869858791002	2.4354298	1.5605863
31.478078923187628	2.426761	1.5578065
31.496288803073064	2.3957207	1.5478116
31.514499499016807	2.3288581	1.5260596
31.532711011588546	2.3609815	1.5365486
31.550923341358178	2.4327633	1.5597318
31.56913648889584	2.4431431	1.5630558
31.587350454771844	2.4105282	1.5525876
31.605565239556732	2.3505085	1.5331368
31.62378084382127	2.3317685	1.527013
31.641997268136382	2.374849	1.5410545
31.660214513073274	2.3738363	1.540726
31.67843257920331	2.4041312	1.5505261
31.6966514670981	2.3538058	1.5342118
31.71487117732944	2.3140194	1.5211902
31.733091710469346	2.3295436	1.5262842
31.751313067090052	2.244442	1.4981462
31.769535247764008	2.1636252	1.4709266
31.787758253063878	2.2151608	1.4883417
31.805982083562526	2.3143349	1.5212938
31.824206739833024	2.308128	1.5192525
31.84243222244869	2.296313	1.515359
31.860658531983013	2.2560062	1.5020007
31.878885669009737	2.2331302	1.4943662
31.897113634102784	2.1526453	1.4671896
31.91534242783632	2.132389	1.4602702
31.933572050784694	2.2088609	1.4862237
31.951802503522508	2.2720144	1.5073203
31.970033786624548	2.2388573	1.4962811
31.988265900665834	2.1859705	1.4785028
32.006498846221575	2.247737	1.4992454
32.02473262386724	2.3201199	1.523194
32.04296723417845	2.2560294	1.5020084
32.0612026777311	2.220316	1.4900725
32.07943895510129	2.219418	1.4897711
32.097676066865304	2.2247958	1.491575
32.115914013599685	2.1304643	1.459611
32.13415279588115	2.038044	1.4276007
32.152392414286666	2.1360066	1.4615083
32.1706328693934	2.2507205	1.5002402
32.18887416177875	2.2180736	1.4893198
32.20711629202032	2.2197819	1.4898932
32.225359260695924	2.2190409	1.4896445
32.243603068383614	2.2156756	1.4885145
32.26184771566166	2.1816525	1.4770418
32.28009320310852	2.1036367	1.4503919
32.2983395313029	2.0472407	1.4308182
32.31658670082372	2.0090063	1.4173942
32.33483471225012	2.0538983	1.4331428
32.35308356616143	2.0952833	1.4475093
32.371333263137245	2.1295547	1.4592994
32.38958380375734	2.146093	1.4649549
32.407835188601744	2.1631105	1.4707516
32.42608741825067	2.1991575	1.4829557
32.444340493284585	2.2352216	1.4950658
32.46259441428416	2.1714392	1.4735804
32.48084918183028	2.0097275	1.4176486
32.49910479650405	1.994857	1.412394
32.51736125888683	2.0413182	1.428747
32.53561856956014	2.0664663	1.4375209
32.5538767291058	2.0257175	1.423277
32.572135738105764	2.0379744	1.4275764
32.59039559714228	2.041262	1.4287274
32.608656306797776	2.0886571	1.4452187
32.62691786765491	2.0287557	1.424344
32.645180280296586	1.9628817	1.4010288
32.663443545305896	1.9256611	1.387682
32.68170766326619	1.9759462	1.4056835
32.69997263476099	1.9566212	1.3987927
32.7182384603741	1.9657013	1.4020348
32.7365051406895	1.9756211	1.4055679
32.75477267629144	2.0700555	1.4387687
32.77304106776434	2.1682775	1.4725072
32.79131031569289	2.14162	1.4634274
32.809580420661966	2.0702016	1.4388195
32.827851383256714	1.9968789	1.4131097
32.84612320406245	1.9897909	1.4105995
32.86439588366476	2.0572762	1.4343208
32.88266942264945	2.1381216	1.4622318
32.9009438216025	2.2245114	1.4914796
32.9192190811102	2.1215549	1.4565558
32.937495201758985	1.9519963	1.3971386
32.95577218413556	1.998326	1.4136215
32.974050028826866	2.1083965	1.4520319
32.992328736420035	2.0548875	1.4334879
33.010608307502444	1.9683982	1.4029962
33.02888874266169	1.9958974	1.4127623
33.047170042485604	1.9829658	1.4081782
33.06545220756225	2.03011	1.4248192
33.083735238479896	2.072468	1.4396069
33.10201913582707	2.0480187	1.43109
33.12030390019248	2.0143065	1.4192626
33.138589532165135	1.9906137	1.410891
33.15687603233419	1.9984031	1.4136488
33.17516340128909	1.9657533	1.4020532
33.19345163961947	1.9819419	1.4078146
33.211740747915215	2.0259101	1.4233447
33.23003072676643	1.9581354	1.399334
33.248321576763466	1.8789443	1.3707459
33.266613298496885	1.9505073	1.3966056
33.28490589255747	2.0891616	1.4453932
33.30319935953626	2.038638	1.4278089
33.32149370002451	1.9616375	1.4005847
33.339788914613706	1.9443812	1.3944107
33.358085003895575	1.9964156	1.4129457
33.376381968462034	1.9224951	1.3865407
33.39467980890529	1.9133255	1.3832301
33.41297852581774	1.9110968	1.3824242
33.43127811979204	1.9557413	1.3984782
33.44957859142105	2.0316882	1.425373
33.467879941297866	2.055427	1.4336761
33.486182170015844	2.028029	1.4240888
33.50448527816853	1.9989703	1.4138495
33.522789266349754	2.0401857	1.4283507
33.541094135153514	1.9989015	1.4138252
33.55939988517411	2.035042	1.426549
33.57770651700602	2.0179243	1.4205366
33.59601403124398	1.95251	1.3973224
33.61432242848296	1.9246817	1.387329
33.632631709318154	1.9859788	1.4092476
33.650941874344994	1.9873297	1.4097269
33.66925292415916	2.024251	1.4227618
33.68756485935654	1.9817852	1.407759
33.70587768053328	1.950635	1.3966514
33.724191388285746	1.8553537	1.3621137
33.74250598321054	1.7650057	1.3285352
33.760821465904506	1.8602749	1.3639189
33.77913783696474	2.00883	1.417332
33.79745509698852	1.8399858	1.3564608
33.815773246573414	1.7880476	1.337179
33.8340922863172	1.9113446	1.3825139
33.852412216817896	1.9908078	1.4109598
33.87073303867377	2.0260012	1.4233767
33.889054752483304	2.0516472	1.4323572
33.907377358845245	1.9814197	1.4076291
33.92570085835853	1.8737527	1.3688508
33.94402525162239	1.7567952	1.3254415
33.96235053923627	1.7167177	1.3102357
33.980676721799824	1.906383	1.3807184
33.999003799912984	2.0495594	1.4316282
34.01733177417592	2.070728	1.4390025
34.03566064518901	1.9642643	1.4015222
34.0539904135529	1.9942447	1.4121773
34.07232107986846	1.9811736	1.4075418
34.090652644736785	2.0111406	1.4181468
34.108985108759235	1.9561865	1.3986374
34.12731847253742	1.8531622	1.3613089
34.14565273667313	1.8257627	1.3512079
34.16398790176847	1.9038757	1.37981
34.18232396842574	1.8514053	1.3606635
34.20066093724749	1.8077648	1.3445314
34.21899880883651	1.8854121	1.3731031
34.23733758379583	1.8883446	1.3741705
34.25567726272874	1.8254966	1.3511094
34.27401784623872	1.794055	1.3394234
34.29235933492957	1.8076944	1.3445053
34.31070172940526	1.9211707	1.386063
34.32904503027003	2.0054257	1.4161305
34.347389238128386	1.9627718	1.4009895
34.36573435358502	1.982971	1.40818
34.38408037724492	2.1109436	1.4529086
34.402427309713296	2.235858	1.4952786
34.42077515159559	2.16748	1.4722364
34.43912390349752	1.9993017	1.4139667
34.45747356602499	1.9168626	1.3845081
34.47582413978423	1.986105	1.4092923
34.49417562538163	1.9792982	1.4068754
34.51252802342388	1.8943927	1.3763694
34.53088133451789	1.8359092	1.3549573
34.54923555927084	1.8237795	1.3504738
34.567590698290104	1.8988658	1.3779933
34.58594675218336	1.9932364	1.4118203
34.6043037215585	1.95192	1.3971113
34.62266160702365	1.9660157	1.4021468
34.641020409187234	1.9756985	1.4055954
34.65938012865785	1.8874934	1.3738607
34.677740766044394	1.7604133	1.3268057
34.69610232195598	1.8023067	1.3425001
34.714464797002016	1.8569086	1.3626844
34.73282819179208	1.9491134	1.3961065
34.751192506936064	2.0999522	1.4491212
34.76955774304408	2.153805	1.4675847
34.7879239007265	2.046902	1.4306998
34.80629098059391	1.9913281	1.4111443
34.824658983257194	2.108954	1.4522238
34.843027909327446	1.9896634	1.4105543
34.86139775941603	1.9102533	1.3821192
34.879768534134534	2.1219878	1.4567045
34.89814023409483	2.128409	1.4589068
34.91651285990901	1.9142944	1.3835803
34.93488641218944	1.7538749	1.3243394
34.95326089154871	1.8133467	1.3466057
34.97163629859967	1.8031507	1.3428144
34.99001263395542	1.6973602	1.3028277
35.00838989822934	1.741046	1.319487
35.02676809203499	1.9526905	1.397387
35.04514721598624	2.0011663	1.4146259
35.063527270697215	1.9405594	1.3930396
35.081908256782256	1.8178893	1.3482913
35.10029017485597	1.8889064	1.3743749
35.11867302553321	2.003251	1.4153625
35.137056809429104	1.9701167	1.4036084
35.155441527159006	1.799895	1.3416017
35.173827179338524	1.9386806	1.3923651
35.19221376658354	1.9685755	1.4030594
35.21060128951017	1.8481281	1.3594588
35.2289897487348	1.8717581	1.3681221
35.24737914487405	1.8232278	1.3502696
35.26576947854479	1.608542	1.2682831
35.28416075036418	1.6723272	1.2931849
35.30255296094958	1.9656434	1.402014
35.32094611091867	2.3880618	1.5453355
35.33934020088932	2.4507916	1.5655004
35.35773523147969	2.3907611	1.5462086
35.3761312033082	2.2095633	1.48646
35.394528116993506	2.1676233	1.472285
35.41292597315452	2.1992736	1.4829948
35.431324772410434	2.1767924	1.4753957
35.449724515380666	2.2515845	1.5005281
35.46812520268491	2.2905493	1.5134561
35.486526834943106	2.0584261	1.4347216
35.504929412775454	1.8133081	1.3465914
35.52333293680242	1.8201412	1.3491261
35.54173740764471	1.8615519	1.364387
35.560142825923286	1.7021246	1.304655
35.5785491922594	1.76562	1.3287663
35.59695650727454	2.048533	1.4312696
35.61536477159042	2.0597806	1.4351935
