0.008763373481513119	0.0	0.0
0.026290120649546365	0.0	0.0
0.043816868432600686	0.060138714	0.24523196
0.06134361724069026	0.15420741	0.3926925
0.07887036748382949	0.13017978	0.36080435
0.0963971195720331	0.21474274	0.46340343
0.11392387391531617	0.1879691	0.43355402
0.1314506309236943	0.20983644	0.45807907
0.1489773910071836	0.12811357	0.35792956
0.16650415457580078	0.2479651	0.49796093
0.18403092203956356	0.17420097	0.4173739
0.20155769380849	0.17064396	0.41309074
0.2190844702925996	0.10832148	0.32912228
0.2366112519019124	0.083570875	0.28908628
0.2541380390464497	0.14021675	0.37445527
0.27166483213623416	0.16140701	0.40175492
0.28919163158128947	0.14957286	0.38674653
0.3067184377916406	0.10233276	0.31989494
0.324245251177314	0.05908923	0.24308276
0.34177207214833777	0.09355355	0.30586526
0.3592989011147415	0.10001112	0.31624535
0.37682573848655654	0.13437003	0.36656517
0.39435258467381573	0.14831088	0.3851115
0.41187944008655414	0.19340731	0.43978098
0.42940630513480854	0.19595435	0.4426673
0.446933180228618	0.18989353	0.43576774
0.4644600657780234	0.12564786	0.3544684
0.48198696219306775	0.111521944	0.33394903
0.49951386988379676	0.11410982	0.33780146
0.5170407892602581	0.15017946	0.38752994
0.5345677207325025	0.19669078	0.44349834
0.5520946647105822	0.24275567	0.49270242
0.5696216216045534	0.23139824	0.48103872
0.5871485918244737	0.20869556	0.45683208
0.6046755757804043	0.16115871	0.40144578
0.6222025738824094	0.17854804	0.42254946
0.6397295865405557	0.16500373	0.40620652
0.6572566141649129	0.17998935	0.42425153
0.6747836571655547	0.15436454	0.39289254
0.6923107159525568	0.16019332	0.40024158
0.7098377909359992	0.13909003	0.37294775
0.7273648825259653	0.13751651	0.3708322
0.7448919911325411	0.13702187	0.37016466
0.762419117165817	0.16110754	0.40138203
0.7799462610358868	0.19586326	0.44256443
0.7974734231528482	0.19620676	0.44295233
0.8150006039268024	0.19385172	0.44028595
0.8325278037678551	0.22533199	0.47469148
0.8500550230861152	0.23246393	0.48214513
0.8675822622916969	0.24266781	0.49261326
0.8851095217947171	0.2641772	0.5139817
0.9026368020052984	0.24522649	0.4952035
0.9201641033335665	0.2538271	0.50381255
0.9376914261896523	0.25136402	0.50136214
0.9552187709836915	0.24290858	0.49285758
0.9727461381258234	0.22788617	0.47737426
0.990273528026193	0.21768804	0.4665705
1.0078009410949496	0.24719115	0.4971832
1.0253283777422473	0.23930527	0.48918837
1.0428558383782454	0.23831332	0.48817345
1.0603833234131086	0.21146509	0.45985332
1.0779108332570058	0.23824038	0.48809874
1.0954383683201119	0.29187223	0.54025203
1.112965929012607	0.31660604	0.56267756
1.1304935157446763	0.46394587	0.6811357
1.1480211289265108	0.45686597	0.67591864
1.1655487689683062	1.2824352	1.1324465
1.1830764362802655	1.5517946	1.2457105
1.200604131272596	1.9870274	1.4096196
1.2181318543555117	2.273157	1.5076993
1.235659605939232	2.2744365	1.5081235
1.253187386433982	3.6849144	1.9196131
1.270715196249994	6.0683627	2.4634047
1.2882430357975057	11.217528	3.349258
1.3057709054867608	15.782975	3.9727793
1.3232988057280106	21.39747	4.62574
1.3408267369315112	26.19134	5.1177473
1.358354699507526	30.242743	5.49934
1.3758826938663256	34.131504	5.8422174
1.3934107204181858	36.102325	6.008521
1.410938779573391	36.459873	6.0382013
1.4284668717422309	37.20458	6.0995555
1.4459949973350033	37.083916	6.0896564
1.4635231567620117	37.338974	6.1105623
1.4810513504335687	36.984177	6.081462
1.4985795787599925	36.05701	6.004749
1.5161078421516088	35.43468	5.9527035
1.5336361410187505	34.454895	5.869829
1.5511644757717598	34.328983	5.859094
1.5686928468209842	35.114822	5.925776
1.58622125457678	35.78898	5.982389
1.6037496994495108	37.22407	6.1011534
1.621278181849548	36.58043	6.048176
1.6388067021872719	37.151226	6.0951805
1.6563352608730693	36.34734	6.0288754
1.673863858317336	35.706024	5.975452
1.6913924949304753	35.056965	5.9208922
1.7089211711228998	33.954357	5.827037
1.7264498873050296	33.16649	5.7590356
1.7439786438872935	32.246128	5.6785674
1.7615074412801288	31.151413	5.581345
1.779036279893981	30.40728	5.51428
1.796565160139305	29.449913	5.4267774
1.814094082426564	29.117939	5.396104
1.8316230471662298	28.375551	5.3268704
1.849152054768784	27.466276	5.240828
1.8666811056447168	26.767164	5.1736994
1.8842102002045273	26.078875	5.106748
1.901739338858724	25.658897	5.065461
1.9192685220178245	25.326614	5.0325556
1.9367977500923557	24.554775	4.9552774
1.9543270234928547	24.02885	4.901923
1.971856342629867	23.60171	4.858159
1.9893857079139496	23.073784	4.803518
2.006915119755667	22.501123	4.743535
2.0244445785655945	21.745739	4.663233
2.0419740847543175	21.311066	4.616391
2.0595036387324317	20.736498	4.5537343
2.0770332409105414	20.404333	4.5171156
2.094562891699263	20.131775	4.4868445
2.1120925915092217	19.917212	4.46287
2.129622340751053	19.65854	4.4337955
2.1471521398354043	187.79472	13.703821
2.1646819891729323	444.16623	21.075253
2.182211889174303	440.20285	20.981012
2.1997418402501974	452.40695	21.26986
2.2172718428113023	432.41418	20.79457
2.234801897268317	320.5575	17.90412
2.2523320040319548	17.134699	4.139408
2.269862163512935	16.861563	4.106283
2.287392376121992	16.232716	4.0289845
2.304922642269869	15.828854	3.9785492
2.322452962367322	15.633313	3.9538984
2.3399833368251164	15.227546	3.9022489
2.357513766054032	15.052522	3.879758
2.3750442504648586	14.63496	3.8255665
2.3925747904683963	14.423232	3.7977931
2.410105386475459	14.037869	3.7467146
2.4276360388968707	13.655661	3.6953566
2.445166748143469	13.545719	3.680451
2.4626975146261025	13.421317	3.6635115
2.4802283387556323	13.28718	3.6451585
2.4977592209429305	12.876457	3.5883782
2.5152901615988825	12.632998	3.554293
2.5328211611343865	12.497985	3.535249
2.5503522199603523	12.519632	3.5383093
2.5678833384877024	12.577787	3.5465176
2.5854145171273712	12.464253	3.530475
2.6029457562903064	12.153626	3.486205
2.620477056387469	11.69025	3.4191008
2.6380084178298326	11.3658085	3.3713214
2.655539841028383	11.187552	3.34478
2.673071326394119	11.063314	3.3261561
2.6906028743380523	10.850886	3.2940683
2.708134485271211	10.73251	3.2760508
2.7256661596046325	10.73499	3.2764294
2.743197897749369	10.669555	3.2664285
2.760729700116486	10.487799	3.238487
2.778261567117063	10.1813	3.190815
2.795793499162193	10.095947	3.177412
2.8133254966629817	9.927862	3.150851
2.830857560030551	9.768852	3.1255164
2.8483896896760337	9.551915	3.0906172
2.865921886010578	9.330559	3.0545964
2.883454149445347	9.240963	3.0398953
2.9009864803915177	9.240937	3.039891
2.91851887926028	9.079678	3.0132504
2.9360513464628384	9.059943	3.009974
2.953583882410413	8.857267	2.9761162
2.9711164875142373	8.713143	2.9518034
2.9886491621855606	8.641061	2.939568
3.0061819068356455	8.537358	2.9218757
3.023714721875769	8.472478	2.910752
3.041247607717225	8.253811	2.8729446
3.0587805647713213	7.9993854	2.8283184
3.0763135934493806	7.8396363	2.799935
3.0938466941627407	7.768848	2.7872653
3.1113798673227544	7.8682117	2.8050332
3.1289131133407904	7.919963	2.8142428
3.1464464326282315	7.7716694	2.7877715
3.1639798255964786	7.7059884	2.7759662
3.1815132926569443	7.5963936	2.7561555
3.1990468342210603	7.500938	2.738784
3.216580450700272	7.234568	2.6897151
3.2341141425060416	7.104206	2.6653717
3.251647910049847	7.113903	2.66719
3.2691817537431813	7.122353	2.6687737
3.286715673997555	7.1511135	2.6741567
3.3042496712244938	6.9965863	2.645106
3.32178374583554	6.77366	2.6026256
3.339317898242251	6.7040777	2.5892234
3.3568521288562034	6.59041	2.5671794
3.3743864380889876	6.6001353	2.569073
3.3919208263522127	6.6331825	2.5754967
3.4094552940575023	6.6112285	2.571231
3.4269898416164972	6.579267	2.5650082
3.444524469440858	6.4096375	2.5317261
3.4620591779422587	6.3294435	2.5158386
3.479593967532391	6.3555717	2.521026
3.4971288386229658	6.341718	2.518277
3.5146637916257086	6.3202124	2.5140033
3.5321988269523628	6.212853	2.4925594
3.5497339450146903	6.14662	2.4792378
3.5672691462244708	6.1437416	2.4786572
3.5848044309934988	6.0527887	2.4602416
3.60233979973359	5.979283	2.4452572
3.619875252856575	6.0244503	2.4544756
3.6374107907743034	6.146108	2.4791346
3.6549464138986427	6.1660323	2.4831498
3.6724821226414788	6.111418	2.4721282
3.690017917414714	6.1101255	2.4718668
3.7075537986302702	6.101167	2.4700541
3.7250897667000857	6.1984224	2.4896631
3.7426258220361235	6.3082643	2.5116258
3.7601619650503553	6.602494	2.569532
3.777698196154779	7.010441	2.6477237
3.7952345157614067	7.9645433	2.8221521
3.8127709242822716	8.753235	2.9585867
3.830307422129425	10.978634	3.3134022
3.847844009714936	12.381605	3.5187504
3.8653806874508954	15.93644	3.992047
3.882917455749409	15.632295	3.9537697
3.900454315022606	15.971388	3.9964218
3.917991265682631	12.821658	3.5807343
3.9355283081416506	10.97624	3.313041
3.9530654428118495	8.557277	2.9252822
3.970602670105433	7.2880034	2.6996303
3.9881399904346244	6.443622	2.538429
4.005677404211669	6.4153085	2.532846
4.023214911848827	6.384403	2.5267377
4.0407525137583855	6.360118	2.5219274
4.058290210352644	6.4058685	2.5309818
4.075828002043927	6.366446	2.5231817
4.0933658892445814	6.2801566	2.5060241
4.110903872366966	6.1903243	2.4880362
4.128441951823468	6.093917	2.468586
4.145980128026488	6.090703	2.467935
4.163518401388452	6.110959	2.4720354
4.181056772321807	6.115688	2.4729917
4.1985952412390155	6.1069465	2.4712236
4.216133808552567	6.1302757	2.4759393
4.233672474674966	6.138465	2.4775925
4.251211240018741	6.2873135	2.5074515
4.268750104996445	6.5007033	2.5496476
4.286289070020643	7.5497136	2.7476742
4.303828135503928	9.310691	3.0513425
4.3213673018589125	29.60852	5.441371
4.3389065694982305	90.72407	9.524919
4.356445938834537	165.76111	12.874825
4.3739854102805085	171.29282	13.087888
4.391524984248844	172.27992	13.125545
4.409064661152262	136.41826	11.679823
4.426604441403504	96.50468	9.823679
4.444144325415337	75.40432	8.683566
4.461684313600543	21.335752	4.619064
4.47922440637193	21.836107	4.672912
4.496764604142329	20.052176	4.4779654
4.5143049073245916	18.194386	4.2654877
4.531845316331589	16.028748	4.003592
4.5493858315762195	13.121664	3.6223838
4.566926453471405	10.842428	3.2927842
4.584467182430081	8.886536	2.9810293
4.602008018865218	7.858705	2.8033383
4.619548963189798	7.244845	2.6916249
4.637090015816834	6.7784204	2.60354
4.654631177159353	6.564438	2.562116
4.672172447630417	6.330171	2.515983
4.689713827643102	6.1462073	2.4791546
4.7072553176105085	5.9326687	2.435707
4.724796917945764	5.7711205	2.4023156
4.742338629062015	5.7555413	2.399071
4.759880451372434	5.7021136	2.38791
4.777422385290215	5.6606174	2.3792052
4.794964431228581	5.5374384	2.353176
4.812506589600768	5.5226994	2.3500423
4.830048860820047	5.530362	2.3516722
4.847591245299709	5.5444975	2.3546758
4.8651337434530655	5.495345	2.3442152
4.882676355693457	5.469063	2.3386028
4.900219082434242	5.490197	2.343117
4.917761924088813	5.487262	2.3424904
4.935304881070575	5.4266543	2.329518
4.952847953792969	5.3762097	2.3186655
4.970391142669449	5.3325057	2.309222
4.9879344481135055	5.4284887	2.3299117
5.005477870538642	5.402971	2.324429
5.023021410358394	5.343209	2.3115382
5.040565067986324	5.2702565	2.295704
5.05810884383601	5.223324	2.2854593
5.075652738321066	5.215401	2.2837253
5.09319675185512	5.200293	2.280415
5.110740884851836	5.195079	2.2792716
5.128285137724894	5.2083163	2.2821736
5.145829510888007	5.198797	2.280087
5.163374004754908	5.2596173	2.2933855
5.1809186197393595	5.297704	2.3016741
5.198463356255145	5.3612776	2.3154433
5.216008214716077	5.3516984	2.3133738
5.233553195535998	5.330165	2.308715
5.251098299128764	5.2845526	2.2988155
5.268643525908272	5.209592	2.282453
5.286188876288432	5.091357	2.2564037
5.3037343506831895	5.0390196	2.244776
5.32127994950651	5.0410323	2.2452242
5.3388256731723915	5.099089	2.2581162
5.356371522094851	5.1010566	2.2585518
5.373917496687938	5.1082554	2.260145
5.391463597365729	5.171863	2.274173
5.40900982454232	5.2000318	2.2803578
5.426556178631843	5.200033	2.280358
5.444102660048449	5.203501	2.2811184
5.4616492692063225	5.189554	2.2780592
5.479196006519669	5.189465	2.2780397
5.496742872402727	5.1608596	2.2717526
5.514289867269756	5.125409	2.2639368
5.531836991535049	5.13251	2.2655044
5.549384245612924	5.1304517	2.26505
5.566931629917724	5.162172	2.2720413
5.584479144863822	5.1601105	2.2715876
5.6020267908656205	5.110635	2.2606714
5.619574568337545	5.0743046	2.2526217
5.637122477694054	5.0922785	2.2566078
5.654670519349629	5.090601	2.256236
5.672218693718784	5.1331635	2.2656486
5.689767001216059	5.1481137	2.2689455
5.707315442256021	5.114816	2.261596
5.724864017253266	5.074891	2.2527518
5.7424127266224225	5.0528045	2.2478445
5.75996157077814	5.1302304	2.2650013
5.777510550135105	5.1297984	2.264906
5.795059665108022	5.0726166	2.252247
5.812608916111639	5.125989	2.2640648
5.830158303560715	5.2452464	2.2902503
5.847707827870055	5.3139544	2.3052015
5.86525748945448	5.371667	2.3176856
5.8828072887288485	5.3804817	2.3195865
5.900357226108044	5.365994	2.3164616
5.917907302006979	5.4307513	2.3303971
5.9354575168406	6.054541	2.4605978
5.9530078710238765	6.694319	2.5873382
5.970558364971812	7.215573	2.6861818
5.988108999099438	7.542078	2.7462845
6.005659773821818	8.0566	2.838415
6.023210689554039	7.851559	2.8020635
6.040761746711227	8.204792	2.8644009
6.058312945708531	7.550161	2.7477555
6.075864286961132	7.018129	2.6491752
6.093415770884244	6.351157	2.5201502
6.1109673978931065	5.890275	2.4269888
6.128519168402993	5.403762	2.3245993
6.146071082829204	5.3131	2.3050163
6.163623141587075	5.1995907	2.280261
6.181175345091969	5.1602983	2.271629
6.198727693759281	5.1290746	2.264746
6.216280188004435	5.1023026	2.2588277
6.233832828242885	5.10093	2.258524
6.251385614890126	5.143653	2.2679622
6.268938548361669	5.149337	2.269215
6.286491629073067	4.9867086	2.233094
6.304044857439898	4.9519806	2.2253046
6.321598233877777	4.8651958	2.2057188
6.339151758802344	4.861244	2.204823
6.356705432629277	4.856789	2.2038124
6.37425925577428	4.8957615	2.2126367
6.391813228653095	4.8200316	2.195457
6.409367351681486	4.8500047	2.2022727
6.426921625275259	4.818077	2.1950119
6.44447604985025	4.868604	2.2064915
6.46203062582232	4.8773046	2.208462
6.47958535360737	4.909586	2.2157586
6.497140233621328	4.9252377	2.2192876
6.514695266280161	4.883801	2.2099323
6.532250451999859	4.8659835	2.2058973
6.549805791196454	4.8608146	2.2047255
6.567361284286002	4.854349	2.2032588
6.584916931684597	4.8961625	2.2127273
6.602472733808367	4.949249	2.2246907
6.6200286910734665	5.033506	2.2435477
6.637584803896092	4.9544215	2.225853
6.655141072692462	4.9003167	2.213666
6.672697497878842	4.850454	2.2023747
6.690254079871514	4.904543	2.2146204
6.707810819086808	4.9363494	2.2217896
6.725367715941078	4.977482	2.2310271
6.742924770850719	4.907836	2.2153635
6.760481984232151	4.8733997	2.2075777
6.778039356501836	4.795834	2.1899393
6.795596888076266	4.775025	2.185183
6.813154579371963	4.8152986	2.1943789
6.830712430805492	4.881324	2.2093718
6.84827044279344	4.9573717	2.2265155
6.865828615752445	4.9427857	2.2232378
6.883386950099159	4.9589796	2.2268767
6.900945446250287	4.9767838	2.2308707
6.918504104622553	5.00361	2.236875
6.936062925632727	4.9913836	2.2341404
6.953621909697607	4.993297	2.2345686
6.971181057234028	5.006944	2.23762
6.988740368658859	5.074627	2.2526932
7.006299844389007	5.1840653	2.2768543
7.023859484841407	5.2373886	2.2885342
7.041419290433036	5.344204	2.3117535
7.058979261580902	5.449199	2.334352
7.0765393987020495	5.6128073	2.3691363
7.094099702213559	5.930429	2.4352472
7.111660172532549	6.2662067	2.5032392
7.129220810076164	6.639553	2.576733
7.146781615261595	7.296958	2.7012882
7.16434258850606	7.4792094	2.7348144
7.181903730226821	7.93486	2.8168883
7.1994650408411704	7.9234	2.8148534
7.217026520766437	8.0635805	2.8396444
7.234588170419983	8.34493	2.8887591
7.252149990219215	8.304924	2.8818264
7.269711980581568	8.241999	2.8708882
7.2872741419245175	8.008265	2.8298876
7.304836474665574	7.6334715	2.762874
7.322398979222286	7.298014	2.7014837
7.339961656012233	7.065555	2.658111
7.357524505453039	6.753304	2.598712
7.375087527962357	6.5684695	2.5629025
7.392650723957886	6.3262415	2.515202
7.410214093857353	6.0072904	2.4509773
7.427777638078528	5.8127055	2.4109554
7.445341357039213	5.5615306	2.3582897
7.4629052511572525	5.346055	2.3121538
7.480469320850524	5.219378	2.2845957
7.498033566536948	5.1494727	2.269245
7.5155979886344735	5.1336308	2.2657516
7.5331625875610975	5.088355	2.2557383
7.550727363734844	5.068739	2.251386
7.568292317573788	5.0214725	2.2408643
7.585857449496025	5.048757	2.246944
7.603422759919705	5.041285	2.2452805
7.620988249263007	5.1151075	2.2616603
7.638553917944147	5.1126876	2.2611253
7.656119766381391	5.1784096	2.2756119
7.673685794993023	5.207343	2.2819602
7.691252004197388	5.2061815	2.2817059
7.70881839441285	5.1817408	2.2763438
7.726384966057826	5.141694	2.2675304
7.743951719550762	5.052195	2.2477088
7.761518655310149	5.099128	2.2581248
7.779085773754511	5.1426425	2.2677395
7.796653075302419	5.2064133	2.2817566
7.814220560372475	5.2247634	2.2857742
7.831788229383323	5.239228	2.288936
7.8493560827536495	5.2821155	2.2982852
7.866924120902174	5.25187	2.2916958
7.884492344247663	5.2196403	2.2846532
7.9020607532089135	5.2246547	2.2857504
7.919629348204771	5.289945	2.299988
7.937198129654115	5.355185	2.3141272
7.954767097975865	5.3725076	2.317867
7.972336253588986	5.3674235	2.31677
7.989905596912472	5.3789825	2.3192635
8.007475128365371	5.4029536	2.3244255
8.025044848366756	5.393416	2.322373
8.042614757335754	5.504278	2.3461199
8.060184855691523	5.5540447	2.356702
8.07775514385327	5.7191634	2.3914773
8.095325622240228	5.774004	2.4029157
8.112896291271687	5.813256	2.4110694
8.130467151366968	5.827573	2.4140365
8.148038202945436	5.844281	2.4174948
8.165609446426497	5.854703	2.4196494
8.183180882229594	5.915161	2.4321103
8.200752510774217	5.8417196	2.416965
8.218324332479893	5.775262	2.4031775
8.235896347766193	5.721649	2.3919969
8.253468557052724	5.8165445	2.4117513
8.27104096075914	5.908306	2.4307008
8.288613559305137	5.975971	2.44458
8.306186353110448	6.000101	2.4495103
8.32375934259485	6.100207	2.4698596
8.341332528178162	6.1210637	2.4740784
8.358905910280246	6.168706	2.4836879
8.376479489321003	6.0958123	2.4689698
8.394053265720377	6.1168685	2.4732304
8.411627239898356	6.136296	2.4771547
8.42920141227497	6.1206183	2.4739883
8.44677578327029	6.125198	2.4749136
8.464350353304427	6.062406	2.4621954
8.48192512279754	6.115292	2.4729116
8.499500092169827	6.1261287	2.4751017
8.51707526184153	6.074003	2.4645493
8.534650632232934	6.0449195	2.4586418
8.552226203764365	6.055425	2.4607773
8.569801976856192	6.0314155	2.455894
8.587377951928834	6.06435	2.4625902
8.60495412940274	6.084528	2.4666836
8.622530509698416	6.225774	2.49515
8.6401070932364	6.4009814	2.5300162
8.657683880437283	6.4251513	2.5347881
8.675260871721695	6.561338	2.5615108
8.692838067510303	6.705606	2.5895185
8.710415468223834	6.9090447	2.6285062
8.727993074283043	7.094919	2.663629
8.745570886108737	7.0709195	2.65912
8.763148904121765	7.1140423	2.6672163
8.78072712874302	7.177695	2.679122
8.798305560393441	7.4149227	2.7230356
8.815884199494006	7.566176	2.7506683
8.833463046465745	7.685447	2.772264
8.851042101729728	7.806793	2.7940638
8.86862136570707	8.142027	2.8534238
8.886200838818924	8.344451	2.8886764
8.903780521486505	8.342188	2.8882847
8.921360414131055	8.367112	2.892596
8.938940517173874	8.439463	2.9050753
8.956520831036297	8.628627	2.9374526
8.97410135613971	8.9100895	2.9849772
8.99168209290554	9.035074	3.00584
9.009263041755265	9.264458	3.0437572
9.026844203110405	9.468746	3.0771327
9.044425577392525	9.636831	3.1043246
9.062007165023239	9.788065	3.1285884
9.079588966424197	10.064021	3.172384
9.097170982017108	10.231985	3.1987474
9.11475321222372	11.149261	3.339051
9.132335657465825	12.007225	3.4651444
9.149918318165264	11.971407	3.4599721
9.167501194743924	12.381808	3.5187793
9.18508428762374	12.057756	3.472428
9.202667597226693	12.154064	3.486268
9.220251123974803	11.880881	3.4468653
9.237834868290143	11.584657	3.403624
9.255418830594836	11.297718	3.3612077
9.273003011311046	10.829854	3.2908742
9.290587410860985	10.699838	3.2710607
9.308172029666911	10.137245	3.1839042
9.32575686815113	9.875154	3.1424756
9.343341926735997	8.659017	2.9426208
9.360927205843916	8.361068	2.891551
9.378512705897327	8.191497	2.8620791
9.396098427318728	8.042655	2.8359575
9.413684370530664	8.005651	2.829426
9.431270535955722	7.9038153	2.8113725
9.448856924016539	7.8449607	2.8008857
9.466443535135806	7.6735625	2.7701197
9.484030369736251	7.650082	2.7658782
9.501617428240658	7.601971	2.7571673
9.519204711071852	7.6144805	2.7594347
9.536792218652714	7.721058	2.7786791
9.55437995140617	7.772053	2.7878401
9.571967909755191	7.8794765	2.8070405
9.589556094122802	7.882332	2.807549
9.60714450493207	7.8658285	2.8046083
9.624733142606116	7.8293786	2.7981026
9.642322007568108	7.8035374	2.793481
9.659911100241267	7.8288193	2.7980027
9.677500421048851	7.808012	2.794282
9.695089970414175	7.842376	2.8004243
9.712679748760609	7.9465284	2.8189588
9.730269756511557	8.088965	2.8441107
9.747859994090492	8.194723	2.8626428
9.765450461920915	8.189666	2.8617592
9.78304116042639	8.19415	2.8625426
9.800632090030527	8.222029	2.867408
9.81822325115699	8.196507	2.8629544
9.835814644229481	8.1346	2.852122
9.853406269671762	8.073551	2.8413994
9.870998127907646	8.07244	2.841204
9.888590219360985	8.114725	2.8486357
9.906182544455698	8.126788	2.850752
9.923775103615734	8.117554	2.849132
9.941367897265108	8.123823	2.8502321
9.958960925827878	8.174224	2.85906
9.97655418972816	8.264245	2.87476
9.994147689390106	8.291125	2.8794315
10.011741425237934	8.222715	2.8675277
10.029335397695904	8.15048	2.8549047
10.04692960718833	8.123303	2.850141
10.06452405413958	8.153438	2.8554225
10.082118738974064	8.197542	2.863135
10.099713662116246	8.248059	2.8719435
10.117308823990651	8.225509	2.8680148
10.134904225021844	8.18755	2.8613894
10.152499865634445	8.092903	2.8448029
10.170095746253125	8.086353	2.8436513
10.18769186730261	8.036034	2.83479
10.205288229207675	8.057015	2.8384883
10.222884832393145	8.094466	2.8450775
10.2404816772839	8.01027	2.8302422
10.258078764304868	7.880867	2.8072882
10.275676093881035	7.7996793	2.7927907
10.293273666437438	7.8478155	2.8013952
10.310871482399158	7.958308	2.8210473
10.32846954219134	7.9827023	2.8253677
10.346067846239173	7.9652925	2.822285
10.363666394967908	7.961846	2.8216743
10.38126518880283	8.003492	2.8290443
10.398864228169298	8.0576515	2.8386002
10.416463513492713	8.066264	2.840117
10.434063045198531	8.039046	2.8353212
10.451662823712262	8.012952	2.830716
10.469262849459467	8.092222	2.8446832
10.486863122865758	8.07501	2.8416562
10.504463644356806	8.094517	2.8450863
10.522064414358338	8.016994	2.8314297
10.539665433296118	7.837575	2.799567
10.557266701595987	7.76287	2.7861927
10.574868219683818	7.644134	2.7648027
10.592469987985552	7.597226	2.7563066
10.610072006927185	7.4814677	2.735227
10.627674276934751	7.389601	2.7183821
10.64527679843435	7.34838	2.7107897
10.662879571852143	7.2683067	2.6959798
10.680482597614331	7.1575875	2.6753669
10.698085876147173	6.9740024	2.6408336
10.715689407876988	6.7870636	2.6051993
10.733293193230146	6.666124	2.5818837
10.750897232633072	6.5744696	2.5640728
10.76850152651225	6.581207	2.5653863
10.786106075294207	6.5440516	2.5581343
10.803710879405534	6.477451	2.5450838
10.821315939272877	6.3578615	2.52148
10.83892125532294	6.2765303	2.5053005
10.856526827982472	6.1676726	2.48348
10.874132657678285	6.083077	2.4663894
10.891738744837243	6.07413	2.464575
10.909345089886271	6.0430584	2.4582634
10.926951693252343	6.0237136	2.4543254
10.944558555362494	5.9194026	2.4329822
10.96216567664381	5.834944	2.4155629
10.979773057523436	5.853212	2.4193413
10.997380698428573	5.787253	2.405671
11.014988599786477	5.750671	2.3980556
11.032596762024461	5.721327	2.3919296
11.050205185569892	5.7094336	2.3894422
11.067813870850198	5.653298	2.3776665
11.085422818292859	5.5571003	2.3573503
11.10303202832541	5.433479	2.3309824
11.120641501375454	5.4014497	2.324102
11.138251237870636	5.2926493	2.300576
11.155861238238671	5.198067	2.279927
11.173471502907317	5.130102	2.264973
11.191082032304402	5.046836	2.2465165
11.208692826857805	4.9753203	2.2305427
11.226303886995465	4.9408307	2.2227979
11.243915213145371	4.9328003	2.220991
11.261526805735578	4.9158044	2.2171614
11.279138665194196	4.80526	2.1920903
11.296750791949393	4.756914	2.181035
11.314363186429393	4.6947875	2.166746
11.331975849062479	4.6596055	2.158612
11.34958878027699	4.5358872	2.1297622
11.36720198050133	4.481129	2.1168678
11.384815450163948	4.4568076	2.1111152
11.402429189693366	4.4419465	2.1075926
11.420043199518153	4.429965	2.1047482
11.437657480066942	63.407024	7.962853
11.455272031768422	85.112236	9.225629
11.472886855051353	107.52929	10.369633
11.490501950344528	99.13013	9.956411
11.508117318076819	84.47788	9.191185
11.52573295867715	45.810043	6.7683115
11.543348872574514	4.064932	2.0161676
11.560965060197946	4.0135093	2.0033746
11.57858152197655	3.9837265	1.9959275
11.59619825833949	3.955476	1.9888378
11.613815269715985	3.9808717	1.9952122
11.631432556535323	38.484634	6.2035985
11.649050119226837	83.0367	9.112448
11.666667958219929	93.39607	9.664165
11.68428607394406	107.646614	10.375289
11.701904466828756	82.47557	9.081606
11.719523137303586	65.33616	8.083078
11.737142085798196	4.566601	2.1369607
11.754761312742286	3.6722465	1.9163107
11.772380818565619	3.6258063	1.904155
11.790000603698015	3.6308262	1.9054728
11.80762066856935	3.6576462	1.9124974
11.825241013609572	3.6658244	1.9146342
11.842861639248683	3.6367478	1.9070259
11.860482545916748	3.5786667	1.8917364
11.878103734043883	3.465415	1.8615625
11.895725204060282	3.4086738	1.8462594
11.91334695639619	3.367073	1.8349586
11.930968991481919	3.3409295	1.827821
11.948591309747824	3.3367815	1.8266859
11.966213911624347	3.3691542	1.8355256
11.98383679754198	3.3506198	1.8304698
12.001459967931268	3.3028407	1.817372
12.019083423222835	3.255401	1.804273
12.036707163847352	3.2178009	1.793823
12.05433119023556	3.203831	1.7899249
12.071955502818259	3.155366	1.776335
12.089580102026313	3.1451774	1.7734648
12.107204988290643	3.1401725	1.7720532
12.12483016204224	3.1750405	1.7818643
12.142455623712152	3.1717265	1.7809342
12.16008137373149	3.1080263	1.7629595
12.177707412531431	3.0571475	1.7484701
12.19533374054321	3.0282376	1.7401832
12.212960358198126	3.0776985	1.7543371
12.230587265927545	3.1032956	1.7616173
12.248214464162889	3.0874443	1.7571125
12.265841953335649	3.0199823	1.7378097
12.283469733877375	2.9607	1.7206684
12.301097806219685	2.9339287	1.7128714
12.31872617079425	2.946747	1.7166091
12.336354828032825	2.951077	1.7178699
12.353983778367205	2.933622	1.7127819
12.371613022229262	2.8818257	1.697594
12.389242560050928	2.8716106	1.6945827
12.406872392264201	2.8859622	1.698812
12.424502519301143	2.8823264	1.6977415
12.442132941593874	2.8399076	1.6852026
12.459763659574586	2.8005834	1.6734943
12.477394673675532	2.8176053	1.6785724
12.49502598432903	2.821039	1.6795949
12.51265759196746	2.816498	1.6782426
12.530289497023267	2.7650607	1.6628472
12.547921699928967	2.7625043	1.6620783
12.565554201117134	2.7253635	1.6508675
12.583187001020404	2.750376	1.6584258
12.600820100071486	2.7593875	1.6611404
12.618453498703152	2.753802	1.6594584
12.636087197348235	2.724309	1.6505481
12.65372119643964	2.7339594	1.653469
12.671355496410326	2.7502398	1.6583847
12.68899009769333	2.786904	1.6694024
12.706625000721749	2.841566	1.6856946
12.724260205928752	2.9151082	1.7073689
12.741895713747551	2.9395127	1.7145007
12.759531524611454	2.9629507	1.7213224
12.777167638953818	2.9159627	1.7076191
12.794804057208072	2.9111156	1.7061992
12.812440779807702	2.9729319	1.7242192
12.830077807186271	3.1370225	1.7711642
12.847715139777405	3.1975296	1.7881638
12.865352778014795	3.3855882	1.8399968
12.882990722332197	3.5305254	1.8789692
12.90062897316344	3.6001542	1.8974072
12.918267530942412	3.7119558	1.9266436
12.935906396103071	3.583291	1.8929583
12.953545569079449	3.7250013	1.9300263
12.971185050305628	3.508044	1.8729773
12.988824840215775	3.5164726	1.875226
13.006464939244115	3.5344505	1.8800135
13.024105347824943	3.3788536	1.8381658
13.041746066392617	3.4448793	1.8560386
13.05938709538157	3.2722342	1.8089318
13.077028435226296	3.2536614	1.8037908
13.094670086361363	3.1438708	1.7730964
13.112312049221401	3.0510178	1.7467163
13.129954324241112	3.0141287	1.7361246
13.147596911855258	2.8674328	1.6933496
13.165239812498685	2.8525887	1.6889608
13.182883026606293	2.7863407	1.6692336
13.200526554613058	2.7127702	1.647049
13.218170396954017	2.6695645	1.6338801
13.235814554064284	2.6426713	1.6256295
13.253459026379034	2.6808276	1.6373233
13.271103814333523	2.6866934	1.6391137
13.288748918363058	2.6727982	1.6348695
13.306394338903031	2.6365707	1.623752
13.32404007638889	2.6028967	1.6133496
13.341686131256164	2.6587274	1.6305605
13.359332503940449	2.6441183	1.6260746
13.376979194877402	2.623471	1.6197133
13.394626204502751	2.6541684	1.6291618
13.412273533252307	2.6919749	1.640724
13.429921181561937	2.667745	1.6333233
13.447569149867581	2.6429977	1.6257299
13.465217438605247	2.642693	1.6256362
13.482866048211022	2.6911438	1.6404706
13.500514979121052	2.7055993	1.6448706
13.518164231771568	2.7242203	1.6505212
13.535813806598844	2.6958017	1.6418897
13.553463704039254	2.6764345	1.6359812
13.571113924529229	2.6198099	1.6185827
13.588764468505275	2.6161199	1.6174424
13.606415336403956	2.6385405	1.6243585
13.624066528661917	2.6455963	1.6265289
13.641718045715882	2.699205	1.6429257
13.659369888002635	2.7367935	1.6543257
13.67702205595903	2.8259184	1.6810468
13.694674550021993	2.923688	1.7098795
13.712327370628532	2.9981241	1.7315092
13.729980518215713	3.0892022	1.7576126
13.747633993220681	3.1393468	1.7718202
13.765287796080647	3.150394	1.7749349
13.7829419272329	3.164757	1.7789764
13.800596387114801	3.2157602	1.7932541
13.818251176163775	3.273657	1.809325
13.835906294817324	3.3336558	1.8258302
13.853561743513023	3.3780546	1.8379484
13.871217522688525	3.4146314	1.8478721
13.888873632781538	3.4144108	1.8478124
13.906530074229858	3.3855073	1.8399749
13.92418684747135	3.348452	1.8298776
13.941843952943948	3.3615806	1.8334614
13.959501391085665	3.3424428	1.8282349
13.977159162334578	3.3358312	1.8264258
13.994817267128846	3.3352733	1.8262731
14.012475705906693	3.2682047	1.8078177
14.030134479106424	3.1798446	1.7832118
14.047793587166414	3.0853038	1.7565032
14.065453030525108	3.0313215	1.7410691
14.083112809621026	2.990409	1.7292799
14.100772924892766	2.9419868	1.7152221
14.118433376778997	2.910378	1.705983
14.136094165718458	2.85306	1.6891004
14.153755292149969	2.8020875	1.6739438
14.171416756512416	2.7272043	1.6514249
14.189078559244768	2.6430988	1.625761
14.20674070078606	2.584431	1.6076165
14.224403181575408	2.5432284	1.5947503
14.242066002051999	2.5379288	1.5930878
14.259729162655093	2.5383642	1.5932244
14.277392663824022	2.5005176	1.5813025
14.295056505998208	2.4350507	1.5604649
14.312720689617128	2.390575	1.5461484
14.330385215120348	2.3531015	1.5339823
14.348050082947497	2.3704686	1.5396327
14.3657152935383	2.3937087	1.5471615
14.383380847332528	2.3766303	1.5416323
14.401046744770051	2.3954952	1.5477387
14.418712986290798	2.3870785	1.5450174
14.436379572334793	2.4101498	1.5524657
14.454046503342123	2.3966525	1.5481125
14.471713779752946	2.362517	1.5370482
14.489381402007504	2.3692794	1.5392463
14.507049370546113	2.4047315	1.5507196
14.524717685809168	2.4036324	1.5503652
14.542386348237134	2.3707738	1.5397317
14.560055358270553	2.3523288	1.5337304
14.577724716350051	2.391711	1.5465157
14.595394422916325	2.4071188	1.5514892
14.61306447841015	2.4402213	1.5621208
14.63073488327237	2.4295008	1.5586857
14.648405637943917	2.4077516	1.5516931
14.6660767428658	2.3929062	1.5469022
14.683748198479094	2.421776	1.5562056
14.701420005224954	2.4853687	1.5765052
14.719092163544628	2.54135	1.5941612
14.73676467387942	2.5731478	1.6041034
14.754437536670727	2.5993626	1.6122539
14.772110752360014	2.6099212	1.615525
14.78978432138882	2.6473463	1.6270667
14.807458244198777	2.6767554	1.6360793
14.82513252123159	2.7003777	1.6432827
14.842807152929028	2.730699	1.6524827
14.860482139732962	2.6970522	1.6422704
14.87815748208531	2.6587522	1.630568
14.8958331804281	2.6276639	1.6210071
14.91350923520342	2.6216965	1.6191654
14.931185646853438	2.6429853	1.6257261
14.948862415820408	2.641377	1.6252314
14.966539542546656	2.6470113	1.6269639
14.98421702747459	2.62729	1.6208917
15.001894871046696	2.6510274	1.6281976
15.019573073705542	2.645184	1.6264021
15.037251635893766	2.6062512	1.6143888
15.054930558054092	2.6029963	1.6133804
15.072609840629323	2.6195965	1.6185168
15.090289484062351	2.7469547	1.6573939
15.107969488796124	2.9081285	1.7053236
15.125649855273691	3.1628547	1.7784417
15.14333058393817	3.577978	1.8915544
15.161011675232768	4.166284	2.0411477
15.17869312960076	4.859607	2.2044518
15.196374947485506	5.550198	2.3558857
15.214057129330447	6.86134	2.619416
15.231739675579114	8.888465	2.9813528
15.249422586675102	13.336382	3.6519012
15.267105863062092	17.718523	4.2093377
15.284789505183847	24.766243	4.976569
15.302473513484218	29.46249	5.427936
15.320157888407127	33.353264	5.7752285
15.337842630396578	32.15024	5.6701183
15.355527739896656	29.471182	5.4287367
15.37321321735153	23.14062	4.8104696
15.39089906320545	15.905644	3.988188
15.408585277902748	10.284824	3.2069962
15.42627186188783	6.401464	2.5301116
15.443958815605198	4.645888	2.1554322
15.461646139499424	3.8452957	1.9609425
15.479333834015168	3.4019222	1.8444301
15.497021899597165	3.0767899	1.754078
15.514710336690234	2.8418672	1.6857839
15.53239914573928	2.6757069	1.6357588
15.550088327189297	2.5593991	1.5998123
15.567777881485336	2.516785	1.5864378
15.58546780907256	2.5174077	1.586634
15.6031581103962	2.5389616	1.5934119
15.620848785901568	2.5149205	1.5858501
15.638539836034063	2.4922237	1.5786779
15.656231261239173	2.4777212	1.5740778
15.673923061962451	2.4838622	1.5760274
15.691615238649552	2.470125	1.5716631
15.709307791746202	2.446239	1.5640457
15.727000721698221	2.4048042	1.5507431
15.744694028951498	2.3859012	1.5446362
15.76238771395202	2.3511693	1.5333524
15.780081777145844	2.3414779	1.5301888
15.797776218979125	2.3240948	1.5244982
15.815471039898094	2.3619084	1.5368502
15.833166240349064	2.3937564	1.547177
15.850861820778437	2.4448733	1.5636091
15.868557781632699	2.4565566	1.5673406
15.886254123358412	2.45631	1.5672619
15.903950846402232	2.4263165	1.5576638
15.921647951210897	2.4203572	1.5557498
15.939345438231225	2.4272597	1.5579665
15.957043307910133	2.447133	1.5643315
15.974741560694602	2.4489071	1.5648985
15.992440197031714	2.4795852	1.5746698
16.01013921736862	2.5152829	1.5859643
16.02783862215259	2.5497794	1.5968028
16.045538411830933	2.5278995	1.589937
16.06323858685107	2.4861655	1.5767579
16.080939147660512	2.4679716	1.5709779
16.09864009470684	2.4683933	1.5711122
16.11634142843774	2.4644675	1.5698622
16.134043149300954	2.4404428	1.5621917
16.15174525774433	2.4081388	1.5518179
16.169447754215817	2.3859448	1.5446504
16.18715063916342	2.3899126	1.5459342
16.204853913035244	2.4086914	1.551996
16.222557576279478	2.44883	1.5648738
16.240261629344403	22.431232	4.736162
16.257966072678386	42.945316	6.5532675
16.275670906729868	38.01642	6.1657457
16.293376131947387	2.4760582	1.5735495
16.31108174877957	2.5089297	1.5839602
16.328787757675133	2.5324574	1.5913696
16.34649415908287	2.5393198	1.5935243
16.364200953451657	2.5507336	1.5971016
16.38190814123048	2.5758278	1.6049386
16.39961572286839	2.5955856	1.6110821
16.41732369881455	2.6302254	1.621797
16.43503206951817	2.6936781	1.6412429
16.45274083542859	2.739868	1.6552546
16.47044999699522	2.7614765	1.6617692
16.488159554667558	2.7909946	1.670627
16.505869508895184	2.8235118	1.6803309
16.523579860127786	2.8894937	1.699851
16.541290608815117	2.959482	1.7203145
16.559001755407035	3.0602424	1.7493548
16.57671330035348	3.1534595	1.7757983
16.59442524410448	3.252046	1.803343
16.61213758711015	3.420832	1.849549
16.629850329820705	3.5038748	1.871864
16.647563472686436	3.562151	1.8873662
16.665277016157724	3.4998057	1.8707768
16.682990960685053	3.5011013	1.871123
16.70070530671898	3.4729772	1.8635925
16.718420054710155	3.4843638	1.8666451
16.736135205109335	3.4952493	1.8695586
16.753850758367335	3.5551531	1.8855114
16.771566714935087	3.6295352	1.905134
16.789283075263597	3.6935878	1.921871
16.80699983980398	3.7409549	1.9341549
16.82471700900741	3.7975786	1.9487377
16.84243458332518	3.9029458	1.9755875
16.860152563208665	3.957409	1.9893237
16.87787094910932	4.0291696	2.0072792
16.89558974147871	4.058679	2.0146163
16.913308940768466	4.0958343	2.0238168
16.931028547430333	4.1393547	2.0345404
16.94874856191613	4.182911	2.0452166
16.966468984677785	4.3022346	2.074183
16.98418981616729	4.3297024	2.0807936
17.00191105683676	4.3489327	2.0854094
17.019632707138374	4.3614783	2.0884154
17.03735476752442	4.3944387	2.0962918
17.05507723844728	4.4102917	2.1000695
17.072800120359403	4.41025	2.1000595
17.090523413713353	4.438992	2.1068916
17.108247118961785	4.4680243	2.1137702
17.125971236557437	4.541944	2.1311836
17.143695766953133	4.555443	2.1343484
17.161420710601806	4.618724	2.1491218
17.179146067956477	4.6305213	2.1518645
17.19687183947025	4.619345	2.1492662
17.21459802559634	4.592442	2.1429985
17.232324626788028	4.6278424	2.151242
17.25005164349871	4.6233435	2.150196
17.267779076181863	4.6220665	2.1498992
17.285506925291074	4.6009974	2.1449935
17.30323519127999	4.58878	2.1421437
17.320963874602384	4.538832	2.1304536
17.33869297571211	4.518123	2.1255877
17.356422495063114	4.523499	2.1268518
17.37415243310944	4.5799694	2.1400864
17.391882790305218	4.525721	2.1273742
17.40961356710468	4.507568	2.1231034
17.42734476396215	4.484597	2.1176867
17.445076381332044	4.574088	2.1387117
17.462808419668868	4.6378636	2.15357
17.48054087942723	4.778588	2.1859982
17.498273761061835	4.94817	2.2244482
17.51600706502747	5.31091	2.304541
17.533740791779024	5.866105	2.4220045
17.551474941771485	6.743065	2.5967412
17.56920951545993	8.698251	2.9492798
17.586944513299528	9.931368	3.1514072
17.60467993574556	12.7254095	3.567269
17.622415783253373	15.2602625	3.9064386
17.64015205627843	17.9423	4.235835
17.657888755276293	20.121616	4.4857125
17.675625880702604	21.504128	4.637254
17.69336343301311	20.002033	4.4723635
17.71110141266366	17.9519	4.2369685
17.728839820110178	15.277192	3.9086049
17.746578655808705	12.206095	3.4937222
17.764317920215372	10.110003	3.1796231
17.7820576137864	8.556005	2.9250648
17.79979773697811	7.2199287	2.6869924
17.81753829024692	5.956178	2.4405282
17.835279274049356	5.1884637	2.2778199
17.85302068884201	4.4987106	2.1210165
17.870762535081607	4.158463	2.039231
17.888504813224934	3.917797	1.9793426
17.90624752372891	3.7371848	1.93318
17.923990667050536	3.5865443	1.8938174
17.941734243646895	3.459274	1.8599124
17.959478253975185	3.434224	1.8531659
17.9772226984927	3.4015348	1.8443251
17.994967577656833	3.3724432	1.8364213
18.01271289192506	3.3245246	1.8233279
18.030458641754965	3.3188922	1.8217827
18.04820482760425	3.3038974	1.8176626
18.06595144993067	3.2626007	1.806267
18.083698509192125	3.2721496	1.8089083
18.101446005846576	3.2492514	1.802568
18.119193940352105	3.244382	1.8012168
18.136942313166887	3.1946797	1.7873667
18.1546911247492	3.167616	1.7797797
18.1724403755574	3.1403985	1.7721169
18.19019006604997	3.1209805	1.7666297
18.207940196685467	3.0942755	1.7590553
18.225690767922575	3.0556629	1.7480454
18.243441780220046	3.0508988	1.7466822
18.261193234036764	3.025335	1.739349
18.278945129831676	3.0127854	1.7357377
18.29669746806386	3.013486	1.7359395
18.314450249192483	3.0098088	1.7348801
18.3322034736768	3.0222206	1.7384535
18.349957141976184	2.9981537	1.7315178
18.3677112545501	3.0030124	1.7329202
18.385465811858108	3.0472152	1.7456274
18.403220814359884	3.0649183	1.7506908
18.420976262515172	3.0644796	1.7505655
18.43873215678387	3.0857224	1.7566224
18.456488497625923	3.109212	1.7632958
18.474245285501407	3.1543477	1.7760483
18.492002520870486	3.2233565	1.7953708
18.50976020419343	3.2829363	1.8118875
18.527518335930615	3.5551953	1.8855226
18.545276916542516	4.06806	2.0169432
18.563035946489688	4.262029	2.0644681
18.580795426232832	4.708212	2.1698415
18.598555356232698	4.672296	2.1615496
18.616315736950185	5.0240498	2.241439
18.63407656884626	4.748559	2.1791189
18.65183785238201	4.896089	2.2127109
18.669599588018617	4.6025424	2.1453538
18.68736177621737	4.531859	2.1288164
18.705124417439652	4.510317	2.1237507
18.72288751214696	4.3511643	2.0859444
18.740651060800886	4.494073	2.1199229
18.758415063863115	4.197927	2.0488844
18.77617952179546	4.3643837	2.0891109
18.793944435059814	4.169799	2.0420086
18.811709804118184	4.169985	2.0420542
18.829475629432675	4.1080565	2.026834
18.8472419114655	3.8794696	1.9696369
18.86500865067897	3.9779422	1.994478
18.88277584753551	3.6678462	1.9151622
18.90054350249763	3.6746116	1.9169277
18.918311616027957	3.3441265	1.8286953
18.936080188589226	3.2227464	1.795201
18.953849220644265	2.9626782	1.7212433
18.971618712656007	2.849222	1.6879638
18.9893886650875	2.8149629	1.6777852
19.007159078401887	8.035466	2.8346899
19.024929953062408	32.891045	5.7350717
19.042701289532435	32.79123	5.7263627
19.060473088275405	25.319891	5.0318875
19.07824534975489	2.5947487	1.6108223
19.096018074434568	2.5849829	1.6077882
19.113791262778197	2.5998776	1.6124136
19.13156491524966	2.583143	1.6072159
19.149339032312945	2.5406747	1.5939494
19.167113614432136	2.5088778	1.5839437
19.184888662071433	2.5214062	1.5878936
19.202664175695123	2.4908202	1.5782332
19.220440155767623	2.4430218	1.5630169
19.238216602753447	2.4860098	1.5767086
19.2559935171172	2.5250435	1.5890385
19.27377089932361	2.5479255	1.5962223
19.291548749837514	2.5326152	1.5914192
19.309327069123835	2.5337942	1.5917896
19.32710585764763	2.5358846	1.5924461
19.344885115874032	2.5041516	1.5824511
19.362664844268313	2.4794981	1.5746422
19.380445043295822	2.4692428	1.5713824
19.39822571342203	2.4868667	1.5769802
19.41600685511252	2.479812	1.5747418
19.43378846883297	2.4721847	1.5723182
19.451570555049173	2.4801502	1.5748492
19.469353114227037	2.5026264	1.5819691
19.48713614683254	2.4784062	1.5742954
19.50491965333182	2.4290352	1.5585363
19.52270363419109	2.429668	1.5587392
19.540488089876686	2.4642477	1.5697923
19.55827302085503	2.5150447	1.5858892
19.576058427592674	2.5311637	1.5909631
19.593844310556282	2.5101585	1.584348
19.611630670212598	2.467019	1.5706748
19.629417507028506	2.473363	1.5726929
19.64720482147098	2.4966955	1.5800935
19.6649926140071	2.5409207	1.5940266
19.682780885104084	2.4759603	1.5735184
19.70056963522921	2.4588578	1.5680746
19.718358864849908	2.4210172	1.5559618
19.7361485744337	2.4564705	1.5673132
19.753938764448215	2.4524164	1.5660193
19.771729435361202	2.4508498	1.565519
19.789520587640506	2.439127	1.5617704
19.807312221754092	2.4743643	1.5730112
19.825104338170043	2.5063176	1.5831354
19.842896937356517	2.5271099	1.5896887
19.860690019781824	2.5071027	1.5833833
19.87848358591436	2.449247	1.565007
19.896277636222635	2.4287388	1.5584412
19.914072171175278	2.4366114	1.560965
19.931867191241015	2.4709995	1.5719413
19.94966269688869	2.4381905	1.5614706
19.967458688587264	2.429528	1.5586944
19.985255166805807	2.4036121	1.5503587
20.00305213201348	2.4340727	1.5601515
20.020849584679578	2.439056	1.5617477
20.038647525273507	2.4408534	1.5623231
20.05644595426477	2.4547439	1.5667622
20.07424487212299	2.4544196	1.5666587
20.092044279317903	2.4146633	1.5539187
20.109844176319353	2.4108052	1.5526768
20.127644563597304	2.387032	1.5450022
20.145445441621817	2.4127285	1.553296
20.16324681086307	2.3838234	1.5439636
20.181048671791373	2.413432	1.5535225
20.198851024877122	2.3967779	1.548153
20.216653870590836	2.4058764	1.5510888
20.234457209403146	2.3572452	1.5353323
20.252261041784802	2.3441603	1.5310651
20.270065368206662	2.3235967	1.5243348
20.287870189139685	2.3203003	1.5232532
20.305675505054968	2.3262966	1.5252202
20.323481316423702	2.308272	1.5192997
20.341287623717207	2.3399847	1.5297009
20.359094427406884	2.3491964	1.5327089
20.376901727964288	2.3513687	1.5334173
20.39470952586107	2.3143156	1.5212874
20.41251782156899	2.3063602	1.5186706
20.430326615559935	2.324821	1.5247364
20.448135908305886	2.3383522	1.5291672
20.465945700278965	2.3377216	1.528961
20.483755991951384	2.33177	1.5270134
20.50156678379548	2.3049939	1.5182207
20.519378076283708	2.28865	1.5128285
20.537189869888635	2.299418	1.5163832
20.55500216508294	2.2711504	1.5070336
20.572814962339415	2.2711267	1.5070258
20.59062826213098	2.2785127	1.5094743
20.60844206493066	2.2940874	1.5146245
20.626256371211593	2.3086317	1.5194182
20.644071181447032	2.3126156	1.5207287
20.66188649611036	2.2849002	1.5115886
20.67970231567506	2.2518673	1.5006223
20.697518640614742	2.273186	1.5077088
20.715335471403122	2.3024065	1.5173683
20.73315280851404	2.3056805	1.5184468
20.750970652421447	2.2752545	1.5083947
20.768789003599412	2.2305596	1.4935058
20.786607862522136	2.2163794	1.4887509
20.8044272296639	2.229472	1.4931417
20.82224710549913	2.2545202	1.501506
20.84006749050237	2.2913835	1.5137316
20.857888385148268	3.8734043	1.9680966
20.8757097899116	45.964745	6.7797303
20.893531705267254	64.80699	8.050279
20.911354131690224	83.82308	9.155495
20.92917706965566	69.090004	8.312039
20.94700051963877	50.13467	7.080584
20.96482448211493	29.395464	5.421758
20.982648957559622	4.136011	2.0337186
21.00047394644843	2.2403474	1.496779
21.01829944925707	2.2132506	1.4876997
21.036125466461375	2.1976855	1.4824593
21.053951998537297	2.1926272	1.4807522
21.071779045960906	2.1780992	1.4758384
21.089606609208378	2.1908455	1.4801505
21.10743468875603	2.1626832	1.4706064
21.12526328508028	2.174047	1.474465
21.143092398657675	2.1722791	1.4738654
21.16092202996488	2.182399	1.4772944
21.17875217947867	2.1496646	1.4661734
21.19658284767596	2.1454358	1.4647306
21.21441403503377	2.144811	1.4645174
21.232245742029225	2.1382716	1.462283
21.2500779691396	2.1696987	1.4729897
21.26791071684227	2.1813567	1.4769417
21.28574398561475	2.1897	1.4797635
21.30357777593465	2.1662786	1.4718283
21.321412088279704	2.1551669	1.4680487
21.339246923127792	2.112485	1.453439
21.357082280956888	2.0931938	1.4467874
21.3749181622451	2.0918183	1.446312
21.392754567470647	2.1261225	1.458123
21.41059149711187	2.1596735	1.4695828
21.42842895164726	2.1896415	1.4797437
21.446266931555378	2.174546	1.4746342
21.464105437314945	2.130331	1.4595654
21.481944469404798	2.0789328	1.4418504
21.49978402830388	2.0843909	1.4437419
21.51762411449127	2.1073668	1.4516772
21.53546472844617	2.0852568	1.4440418
21.553305870647876	2.0770864	1.44121
21.571147541575865	2.1031966	1.4502401
21.58898974170967	2.1091938	1.4523064
21.60683247152899	2.0806105	1.4424322
21.62467573151363	2.057266	1.4343172
21.642519522143523	2.048277	1.4311802
21.660363843898722	2.059638	1.435144
21.6782086972594	2.034876	1.4264908
21.696054082705864	2.0174644	1.4203748
21.713900000718535	1.9827439	1.4080994
21.73174645177795	1.9807867	1.4074042
21.749593436364794	1.9918841	1.4113412
21.767440954959845	1.9747523	1.4052588
21.785289008044032	1.9807335	1.4073853
21.803137596098388	1.9971946	1.4132214
21.820986719604086	1.9760153	1.4057081
21.838836379042412	1.927543	1.3883598
21.85668657489478	1.9267561	1.3880764
21.87453730764273	1.9691614	1.4032681
21.892388577767914	2.008065	1.417062
21.91024038575213	2.003846	1.4155726
21.928092732077285	2.0029485	1.4152557
21.945945617225426	2.0062537	1.4164228
21.963799041678694	1.995654	1.4126762
21.981653005919398	31.331087	5.597418
21.999507510429943	78.12756	8.83898
22.01736255569286	73.07654	8.548482
22.035218142190818	4.1604095	2.0397081
22.05307427040661	1.9778392	1.4063567
22.07093094082315	1.9897926	1.4106001
22.088788153923474	2.0112867	1.4181985
22.106645910190746	1.9955847	1.4126517
22.12450421010827	1.969467	1.403377
22.142363054159464	1.9475396	1.3955427
22.16022244282787	1.955581	1.3984209
22.178082376597164	2.0070128	1.4166908
22.195942855951145	1.9874531	1.4097706
22.213803881373742	1.9705799	1.4037734
22.231665453349002	1.972519	1.404464
22.24952757236111	1.9651891	1.401852
22.26739023889438	1.9633288	1.4011884
22.28525345343323	1.9422165	1.3936343
22.30311721646225	1.9477878	1.3956317
22.320981528466113	1.9622388	1.4007994
22.33884638992964	1.9596994	1.3998927
22.356711801337788	1.9531071	1.397536
22.37457776317561	1.895291	1.3766956
22.392444275928337	1.9062338	1.3806642
22.410311340081282	1.9097089	1.3819221
22.428178956119904	1.9410893	1.3932298
22.446047124529805	1.9531347	1.3975459
22.46391584579669	1.9374262	1.3919146
22.481785120406414	1.9361414	1.391453
22.49965494884496	1.947043	1.3953648
22.51752533159841	1.9849086	1.4088678
22.53539626915302	1.9554676	1.3983804
22.553267761995137	1.9731061	1.404673
22.571139810611264	1.9890552	1.4103386
22.589012415488025	1.9877467	1.4098747
22.60688557711216	1.9585068	1.3994666
22.624759295970566	1.9692767	1.4033092
22.642633572550263	1.9898009	1.410603
22.660508407338362	1.9651928	1.4018533
22.67838380082217	1.9071441	1.3809938
22.696259753489077	1.8862181	1.3733965
22.714136265826614	1.944511	1.3944572
22.73201333832246	1.9937254	1.4119934
22.74989097146439	1.9437606	1.3941882
22.76776916574035	1.8586233	1.3633133
22.785647921638393	1.8608963	1.3641467
22.803527239646712	1.8917682	1.3754157
22.82140712025363	1.916105	1.3842344
22.839287563947593	1.8960779	1.3769814
22.85716857121719	1.904461	1.3800222
22.875050142551135	1.9109889	1.3823853
22.892932278438277	1.9205496	1.385839
22.910814979367604	1.908964	1.3816526
22.928698245828222	1.9230783	1.3867509
22.946582078309387	1.9588273	1.3995811
22.96446647730047	1.9496967	1.3963153
22.98235144329098	1.938152	1.3921753
23.000236976770562	1.93667	1.3916429
23.018123078229	1.922132	1.3864098
23.03600974815619	1.9118654	1.3827022
23.053896987042194	1.8799762	1.3711222
23.071784795377173	1.881848	1.3718046
23.08967317365145	1.9015608	1.3789709
23.10756212235546	1.9104449	1.3821884
23.125451641979787	1.9432924	1.3940202
23.143341733015134	1.9795916	1.4069796
23.161232395952357	1.9829434	1.4081702
23.179123631282426	1.9592336	1.3997263
23.197015439496468	1.9484649	1.3958743
23.214907821085717	1.9428943	1.3938775
23.23280077654157	1.9216979	1.3862531
23.250694306355538	1.8746613	1.3691827
23.268588411019277	1.8636098	1.3651409
23.28648309102458	1.8898815	1.3747296
23.304378346863356	1.9147768	1.3837546
23.322274179027676	1.891881	1.3754567
23.340170588009723	1.8711843	1.3679124
23.358067574301852	1.8869038	1.3736461
23.37596513839651	1.930308	1.3893552
23.39386328078629	1.8971807	1.3773818
23.411762001963947	1.8743354	1.3690637
23.429661302422353	1.8750083	1.3693094
23.4475611826545	1.893829	1.3761646
23.46546164315356	1.9212686	1.3860984
23.48336268441279	1.9593054	1.3997519
23.501264306925638	1.9932945	1.4118408
23.51916651118564	1.9641064	1.4014658
23.537069297686497	1.9213437	1.3861254
23.554972666922037	1.9143052	1.3835841
23.57287661938623	1.9266754	1.3880473
23.59078115557318	1.9132859	1.3832158
23.608686275977128	1.9059753	1.3805707
23.62659198109246	1.9057257	1.3804803
23.6444982714137	1.932103	1.390001
23.66240514743549	1.93753	1.3919519
23.68031260965263	1.9588616	1.3995934
23.698220658560068	1.9440619	1.3942962
23.716129294652845	1.9281114	1.3885645
23.7340385184262	1.8946097	1.3764483
23.75194833037546	1.8901062	1.3748113
23.769858730996123	1.9002581	1.3784984
23.78776972078382	1.888261	1.37414
23.80568130023431	1.8912666	1.3752333
23.823593469843495	1.9124484	1.382913
23.841506230107424	1.9323431	1.3900875
23.859419581522275	1.8999046	1.3783703
23.87733352458438	1.8691915	1.3671838
23.89524805979019	1.910429	1.3821827
23.913163187636318	1.9596819	1.3998864
23.931078908619508	1.9865423	1.4094476
23.948995223236633	1.9957718	1.4127178
23.966912131984735	2.0394268	1.428085
23.98482963536096	2.0381198	1.4276273
24.002747733862616	1.9863265	1.4093709
24.020666427987155	1.9894122	1.4104652
24.038585718232156	2.0196877	1.4211571
24.056505605095353	2.0727065	1.4396898
24.074426089074617	2.076264	1.4409246
24.092347170667946	2.0697746	1.4386711
24.110268850373515	2.0573955	1.4343624
24.128191128689586	2.0518064	1.4324129
24.146114006114626	2.0430965	1.4293693
24.164037483147187	2.0250463	1.4230412
24.181961560286005	2.0401301	1.4283313
24.199886238029926	2.0522604	1.4325713
24.21781151687797	2.0956411	1.4476329
24.235737397329274	2.0848975	1.4439174
24.253663879883135	2.0513597	1.4322568
24.271590965038975	2.032445	1.4256384
24.289518653296376	2.0682168	1.4381297
24.30744694515505	2.0477676	1.4310024
24.32537584111486	1.979829	1.407064
24.34330534167581	1.9797065	1.4070204
24.361235447338046	2.0346184	1.4264005
24.379166158601876	2.0644722	1.4368272
24.39709747596772	2.015252	1.4195957
24.41502939993615	2.032965	1.4258208
24.432961931007917	2.0417566	1.4289005
24.450895069683856	2.0510688	1.4321553
24.468828816465	2.020103	1.4213033
24.4867631718525	1.9963784	1.4129325
24.504698136347656	1.9414121	1.3933456
24.52263371045192	1.8894861	1.3745857
24.540569894666874	1.8828434	1.3721673
24.558506689494266	1.9073516	1.3810691
24.57644409543597	1.9481643	1.3957666
24.594382112994012	1.9462262	1.3950721
24.61232074267057	1.9630432	1.4010864
24.630259984967953	1.9997407	1.4141219
24.64819984038863	1.9964432	1.4129555
24.66614030943522	1.9753096	1.4054571
24.684081392610462	1.9331682	1.3903842
24.702023090417274	1.9531274	1.3975433
24.7199654033587	1.982142	1.4078857
24.737908331937927	2.0169382	1.4201895
24.755851876658305	2.0115693	1.418298
24.773796038023324	2.0315201	1.4253141
24.79174081653661	2.0591094	1.4349598
24.809686212701962	2.092144	1.4464246
24.827632227023294	2.1227322	1.45696
24.8455788600047	2.1573758	1.4688008
24.8635261121504	2.1672938	1.4721731
24.88147398396475	2.1205578	1.4562135
24.899422475952303	2.074125	1.4401823
24.917371588617698	2.059466	1.435084
24.935321322465768	2.1449902	1.4645785
24.953271678001478	2.2354107	1.495129
24.97122265572994	2.3880928	1.5453455
24.989174256156414	2.688342	1.6396165
25.00712647978632	3.323618	1.8230792
25.02507932712521	4.365693	2.0894241
25.043032798678798	5.9096375	2.4309745
25.060986894952933	7.546265	2.7470467
25.078941616453637	8.962085	2.993674
25.096896963687055	9.83545	3.136152
25.114852937159508	10.5318985	3.2452886
25.132809537377444	10.354976	3.2179148
25.150766764847468	9.656323	3.1074626
25.168724620076347	8.292235	2.8796241
25.186683103570985	7.1470714	2.6734006
25.204642215838426	5.7954645	2.407377
25.222601957385894	4.6145973	2.1481614
25.24056232872074	3.5264485	1.877884
25.25852333035048	2.873587	1.6951658
25.276484962782778	2.46786	1.5709424
25.294447226525435	2.2085786	1.4861287
25.312410122086423	2.1224945	1.4568783
25.330373649973843	2.0565274	1.4340597
25.348337810695988	1.9964972	1.4129746
25.366302604761245	1.9851139	1.4089407
25.384268032678207	1.9750179	1.4053533
25.40223409495558	1.9633387	1.401192
25.420200792102257	1.9585853	1.3994946
25.438168124627246	1.9321309	1.3900111
25.45613609303974	1.8759009	1.3696353
25.474104697849057	1.8544925	1.3617976
25.492073939564698	1.8603791	1.3639572
25.510043818696285	1.8326706	1.3537617
25.528014335753614	1.8066204	1.3441058
25.54598549124664	1.793802	1.339329
25.56395728568544	1.7842795	1.3357693
25.58192971958028	1.8468232	1.3589787
25.59990279344156	1.8503076	1.3602601
25.617876507779833	1.843569	1.3577809
25.635850863105826	1.8194169	1.3488576
25.653825859930386	1.8235093	1.3503737
25.671801498764548	1.8312532	1.353238
25.68977778011949	1.8649254	1.3656228
25.707754704506524	1.8862189	1.3733969
25.725732272437153	1.8818507	1.3718057
25.743710484423012	1.866988	1.3663777
25.761689340975888	1.8733517	1.3687044
25.77966884260774	1.865189	1.3657192
25.797648989830662	1.8607255	1.3640841
25.815629783156922	1.8580343	1.3630973
25.83361122309895	1.8446496	1.3581787
25.85159331016929	1.8185073	1.3485204
25.869576044880695	1.8176446	1.3482006
25.887559427746034	1.7841036	1.3357034
25.90554345927836	1.7766378	1.3329058
25.92352813999086	1.7805754	1.334382
25.94151347039689	1.8061751	1.3439401
25.959499451009965	1.8210309	1.3494557
25.97748608234374	1.8270144	1.351671
25.995473364912062	1.87823	1.3704853
26.013461299228904	1.9278169	1.3884585
26.03144988580839	1.8639417	1.3652625
26.04943912516483	1.8530527	1.3612688
26.067429017812675	1.8623122	1.3646656
26.085419564266537	1.8342723	1.3543531
26.103410765041186	1.8097618	1.3452739
26.12140262065155	1.8321319	1.3535627
26.139395131612723	1.8853368	1.3730756
26.157388298439948	1.8953623	1.3767216
26.17538212164861	1.8668445	1.3663251
26.193376601754295	1.824798	1.3508508
26.211371739272714	1.8549901	1.3619802
26.229367534719746	1.8667421	1.3662877
26.247363988611433	1.8284857	1.3522152
26.26536110146397	1.8269538	1.3516486
26.283358873793727	1.8108743	1.3456873
26.301357306117204	1.8054415	1.3436671
26.319356398951104	1.8405294	1.3566611
26.33735615281224	1.8434966	1.3577542
26.35535656821762	1.8633057	1.3650296
26.373357645684404	1.862321	1.3646688
26.39135938572991	1.7900606	1.3379315
26.409361788871614	1.8024691	1.3425606
26.427364855627165	1.8771982	1.3701088
26.445368586514352	1.8931576	1.3759207
26.46337298205115	1.8386416	1.3559653
26.48137804275568	1.7639828	1.3281502
26.499383769146217	1.7641639	1.3282183
26.517390161741215	1.8222911	1.3499227
26.53539722105928	1.8491561	1.3598368
26.553404947619182	1.7984229	1.3410529
26.571413341939856	1.7525251	1.3238297
26.589422404540397	1.751653	1.3235003
26.60743213594006	1.7988605	1.3412161
26.62544253665827	1.7851813	1.3361068
26.64345360721459	1.812215	1.3461853
26.66146534812879	1.7660427	1.3289254
26.679477759920758	1.7532655	1.3241093
26.69749084311057	1.8091813	1.3450581
26.71550459821847	1.8566167	1.3625772
26.733519025764842	1.8375189	1.3555511
26.751534126270258	1.811588	1.3459525
26.769549900255434	1.8679641	1.3667349
26.787566348241267	1.8392905	1.3562044
26.80558347074881	1.7905645	1.3381197
26.823601268299267	1.7977096	1.3407869
26.841619741414036	1.8232828	1.35029
26.85963889061465	1.8004197	1.3417972
26.877658716422832	1.8010917	1.3420476
26.89567921936045	1.813477	1.346654
26.913700399949544	1.832517	1.3537049
26.93172225871233	1.856867	1.3626691
26.949744796171174	1.8608938	1.3641459
26.967768012848605	1.9064591	1.3807459
26.98579190926733	1.8507489	1.3604224
27.003816485950225	1.830213	1.3528537
27.021841743420318	1.8136537	1.3467196
27.039867682200814	1.8144257	1.3470062
27.057894302815072	1.7906344	1.3381459
27.07592160578664	1.8195926	1.3489227
27.0939495916392	1.8201293	1.3491217
27.111978260896635	1.7855352	1.3362392
27.13000761408296	1.7809356	1.334517
27.148037651722397	1.8031166	1.3428018
27.166068374339304	1.8080833	1.3446499
27.184099782458215	1.8327154	1.3537782
27.20213187660384	1.8369848	1.3553541
27.22016465730105	1.8137145	1.3467422
27.23819812507487	1.8143333	1.3469719
27.256232280450533	1.8143982	1.346996
27.274267123953383	1.8034189	1.3429143
27.292302656108987	1.7630613	1.3278031
27.31033887744306	1.7700456	1.3304306
27.32837578848146	1.7928975	1.3389912
27.34641338975026	1.7865291	1.336611
27.364451681775673	1.7965914	1.3403698
27.382490665084074	1.8325118	1.353703
27.400530340202046	1.8492144	1.3598583
27.41857070765629	1.8480619	1.3594344
27.436611767973726	1.867416	1.3665344
27.454653521681404	1.8418063	1.3571316
27.472695969306564	1.8088685	1.3449419
27.490739111376627	1.8323604	1.3536471
27.508782948419153	1.8248746	1.3508792
27.526827480961902	1.8128431	1.3464186
27.54487270953279	1.8221899	1.3498851
27.562918634659898	1.8686476	1.3669848
27.580965256871508	1.901646	1.3790019
27.599012576696026	1.8511854	1.3605827
27.617060594662068	1.8024848	1.3425665
27.63510931129842	1.7767506	1.3329481
27.65315872713401	1.7353199	1.3173153
27.67120884269797	1.7278755	1.3144867
27.68925965851958	1.7648962	1.328494
27.707311175128307	1.8607602	1.3640969
27.725363393053787	1.9051851	1.3802844
27.74341631282583	1.8644612	1.3654528
27.7614699349744	1.8822367	1.3719463
27.77952426002968	2.0953734	1.4475405
27.797579288521973	2.1381395	1.4622378
27.815635020981784	2.5351064	1.5922017
27.83369145793979	2.6418047	1.625363
27.85174859992682	2.5828443	1.607123
27.869806447473923	2.452857	1.56616
27.887865001112267	2.1326368	1.460355
27.905924261373233	2.0352497	1.4266218
27.92398422878836	1.9926969	1.4116292
27.94204490388936	1.8932967	1.3759712
27.96010628720813	1.8569686	1.3627064
27.978168379276728	1.835599	1.3548428
27.9962311806274	1.8495648	1.359987
28.014294691792568	1.871281	1.3679477
28.0323589133048	1.8876961	1.3739345
28.050423845696887	1.8809516	1.371478
28.068489489501758	1.8359331	1.354966
28.086555845252523	1.8063393	1.3440012
28.104622913482487	1.8307505	1.3530523
28.122690694725115	1.8690978	1.3671495
28.14075918951405	1.91206	1.3827726
28.15882839838312	1.9121627	1.3828096
28.176898321866304	1.9230548	1.3867425
28.1949689604978	1.9472426	1.3954364
28.213040314811945	1.9645993	1.4016416
28.23111238534327	1.9875526	1.4098059
28.249185172626493	1.9558804	1.398528
28.267258677196473	1.9461703	1.3950521
28.285332899588294	1.9479164	1.3956778
28.303407840337172	1.9583083	1.3993957
28.321483499978545	1.9888562	1.4102682
28.33955987904799	1.9995353	1.4140493
28.357636978081285	1.963013	1.4010757
28.37571479761439	1.9395143	1.3926644
28.393793338183425	1.987826	1.4099028
28.41187260032469	2.0396342	1.4281577
28.429952584574686	2.036188	1.4269506
28.448033291470065	1.9802616	1.4072176
28.46611472154769	2.05616	1.4339316
28.484196875344566	2.0973792	1.4482331
28.502279753397914	2.0767856	1.4411057
28.52036335624511	2.0407891	1.4285619
28.538447684423716	1.9743956	1.4051319
28.556532738471482	1.9294118	1.3890327
28.574618518926325	1.9933498	1.4118603
28.59270502632635	2.051867	1.432434
28.61079226120985	2.0586584	1.4348025
28.628880224115274	2.0223174	1.4220821
28.646968915581287	2.0247524	1.422938
28.66505833614671	2.0044923	1.4158009
28.68314848635055	2.0491064	1.43147
28.701239366732004	2.0962825	1.4478544
28.71933097783044	2.0885305	1.4451749
28.737423320185403	2.0413218	1.4287484
28.75551639433665	2.0535846	1.4330333
28.773610200824074	2.0646746	1.4368975
28.791704740187793	2.158677	1.4692438
28.80980001296809	2.1952255	1.4816294
28.827896019705413	2.169796	1.4730227
28.845992760940433	2.1297438	1.4593642
28.86409023721397	2.1304784	1.4596158
28.88218844906704	2.118202	1.4554044
28.900287397040845	2.093447	1.4468749
28.918387081676755	2.1578531	1.4689633
28.936487503516343	2.2360747	1.4953511
28.954588663101365	2.2369962	1.4956591
28.97269056097374	2.2668934	1.5056206
28.990793197675597	2.3314507	1.5269089
29.00889657374923	2.3462467	1.5317463
29.027000689737125	2.359639	1.5361116
29.04510554618196	2.409125	1.5521357
29.06321114362659	2.409955	1.552403
29.08131748261405	2.4507613	1.5654907
29.099424563687567	2.4487567	1.5648503
29.11753238739057	2.446188	1.5640295
29.13564095426663	2.4713507	1.572053
29.15375026485954	2.5181427	1.5868657
29.171860319713275	2.5645044	1.601407
29.18997111937199	2.5875378	1.6085825
29.20808266438002	2.6718962	1.6345936
29.226194955281898	2.7326803	1.653082
29.244307992622335	2.8143907	1.6776146
29.26242177694624	2.8381016	1.6846666
29.2805363087987	2.8085666	1.6758778
29.29865158872498	2.8417935	1.685762
29.316767617270557	2.895146	1.7015128
29.334884394981064	2.9295774	1.7116008
29.353001922402367	3.0171616	1.7369978
29.37112020008047	3.0601234	1.7493209
29.389239228561596	3.1168358	1.7654563
29.407359008392152	3.3294468	1.8246772
29.42547954011872	3.6223316	1.9032423
29.44360082428809	4.0633707	2.0157804
29.46172286144722	4.922512	2.2186735
29.479845652143283	6.6427746	2.577358
29.497969196923606	9.476172	3.0783393
29.516093496335728	13.353728	3.6542754
29.5342185509274	17.075317	4.1322293
29.55234436124651	20.105364	4.4839005
29.570470927841175	21.324827	4.6178813
29.588598251259686	21.128633	4.5965896
29.60672633205055	19.528679	4.4191265
29.624855170762405	16.33271	4.0413747
29.642984767944146	12.719156	3.5663927
29.66111512414481	9.405489	3.066837
29.67924623991366	6.9613323	2.6384337
29.697378115800138	5.3161125	2.3056695
29.71551075235387	4.3693647	2.0903025
29.733644150124675	3.8715477	1.9676249
29.751778309662576	3.5791786	1.8918717
29.769913231517766	3.4565697	1.8591852
29.78804891624066	3.3854296	1.8399537
29.806185364381818	3.3761098	1.8374194
29.82432257649206	3.3731596	1.8366164
29.842460553122333	3.3272498	1.8240751
29.86059929482382	3.2253509	1.7959262
29.878738802147872	3.1377583	1.7713718
29.896879075646048	3.1239128	1.7674594
29.915020115870114	3.2575703	1.8048741
29.933161923371976	3.287431	1.8131274
29.951304498703777	3.2337687	1.7982682
29.969447842417857	3.1952014	1.7875127
29.987591955066733	3.2249901	1.7958257
30.005736837203123	3.2660358	1.8072177
30.023882489379943	3.2194438	1.7942809
30.04202891215028	3.1575613	1.7769529
30.060176106067455	3.1371715	1.7712063
30.078324071684946	3.1309407	1.7694464
30.09647280955646	3.1297264	1.7691033
30.114622320235863	3.1181405	1.7658257
30.132772604277257	3.1548831	1.7761991
30.1509236622349	3.1705287	1.7805978
30.16907549466328	3.2039757	1.7899653
30.18722810211705	3.182364	1.7839181
30.205381485151097	3.1746125	1.7817442
30.22353564432045	3.121322	1.7667264
30.241690580180403	3.03332	1.7416428
30.25984629328638	2.9475627	1.7168467
30.278002784194037	2.937445	1.7138976
30.296160053459246	2.998683	1.7316706
30.314318101638033	2.9719343	1.7239299
30.332476929286646	2.8764517	1.6960106
30.35063653696153	2.874705	1.6954955
30.368796925219307	2.889714	1.6999159
30.386958094616844	2.884515	1.698386
30.40512004571115	2.8260624	1.6810896
30.423282779059463	2.7944882	1.6716722
30.441446295219233	2.794176	1.6715789
30.459610594748067	2.8674548	1.693356
30.47777567820382	2.883216	1.6980035
30.495941546144504	2.8713243	1.6944983
30.51410819912835	2.8072107	1.6754732
30.532275637713795	2.7864265	1.6692593
30.55044386245946	2.731105	1.6526055
30.56861287392416	2.7071335	1.6453369
30.586782672666956	2.7319314	1.6528555
30.604953259247047	2.8091784	1.6760603
30.623124634223885	2.8463783	1.6871213
30.641296798157075	2.7507107	1.6585267
30.659469751606462	2.7270823	1.6513879
30.677643495132074	2.7564874	1.6602672
30.695818029294152	2.7857692	1.6690624
30.713993354653116	2.770798	1.6645714
30.73216947176962	2.7342775	1.653565
30.75034638120448	2.7308958	1.6525422
30.768524083518756	2.7164392	1.6481624
30.786702579273673	2.7580519	1.6607383
30.80488186903069	2.9083123	1.7053775
30.82306195335144	3.048193	1.7459075
30.841242832797782	3.2796314	1.8109753
30.85942450793176	3.6093957	1.899841
30.877606979315637	3.993567	1.9983912
30.895790247511883	4.370939	2.090679
30.913974313083134	4.7420435	2.1776233
30.932159176592283	5.132846	2.2655785
30.95034483860237	5.5137672	2.3481412
30.968531299676698	5.6117406	2.3689113
30.98671856037873	5.286049	2.299141
31.00490662127215	4.8491745	2.202084
31.023095482920848	4.3993196	2.0974555
31.04128514588892	3.7653787	1.9404584
31.059475610740662	3.1506896	1.7750182
31.07766687804056	2.7740402	1.665545
31.09585894835335	2.5809522	1.6065342
31.11405182224393	2.503696	1.5823072
31.132245500277417	2.454226	1.566597
31.15043998301914	2.426755	1.5578046
31.168635271034628	2.3723915	1.540257
31.18683136488964	2.3552108	1.5346696
31.20502826515008	2.3454218	1.531477
31.223225972382135	2.3373876	1.5288517
31.241424487152155	2.4064276	1.5512664
31.259623810026692	2.4574199	1.567616
31.27782394157253	2.4234836	1.5567542
31.296024882356644	2.4370224	1.5610965
31.314226632946237	2.491604	1.5784816
31.332429193908684	2.4959767	1.579866
31.350632565811598	2.4942057	1.5793054
31.368836749222787	2.5080264	1.5836749
31.387041744710295	2.5361965	1.5925441
31.40524755284232	2.595811	1.611152
31.423454174187317	2.6225746	1.6194365
31.441661609313922	2.6232526	1.6196458
31.459869858791002	2.6081438	1.6149749
31.478078923187628	2.5118742	1.5848893
31.496288803073064	2.3824263	1.543511
31.514499499016807	2.3892379	1.5457159
31.532711011588546	2.4005928	1.5493846
31.550923341358178	2.3396072	1.5295775
31.56913648889584	2.3484821	1.5324758
31.587350454771844	2.3881912	1.5453774
31.605565239556732	2.316497	1.5220042
31.62378084382127	2.2509673	1.5003223
31.641997268136382	2.2317405	1.4939011
31.660214513073274	2.2879663	1.5126024
31.67843257920331	2.384657	1.5442334
31.6966514670981	2.4348886	1.560413
31.71487117732944	2.3629317	1.537183
31.733091710469346	2.3113747	1.5203205
31.751313067090052	2.3992438	1.5489492
31.769535247764008	2.3942344	1.5473313
31.787758253063878	2.4160042	1.5543501
31.805982083562526	2.3793879	1.5425265
31.824206739833024	2.2709553	1.506969
31.84243222244869	2.2531598	1.5010529
31.860658531983013	2.2887473	1.5128607
31.878885669009737	2.2617683	1.5039177
31.897113634102784	2.2067757	1.485522
31.91534242783632	2.2403214	1.4967703
31.933572050784694	2.242995	1.4976631
31.951802503522508	2.183311	1.4776031
31.970033786624548	2.1156385	1.4545234
31.988265900665834	2.1466143	1.4651328
32.006498846221575	2.2010233	1.4835846
32.02473262386724	2.2345	1.4948244
32.04296723417845	2.2562702	1.5020885
32.0612026777311	2.2189913	1.489628
32.07943895510129	2.2204719	1.4901248
32.097676066865304	2.2373173	1.4957665
32.115914013599685	2.199786	1.4831675
32.13415279588115	2.1987674	1.4828241
32.152392414286666	2.1790187	1.4761499
32.1706328693934	2.0935078	1.446896
32.18887416177875	2.1072662	1.4516426
32.20711629202032	2.132243	1.4602202
32.225359260695924	2.2515678	1.5005225
32.243603068383614	2.2326396	1.494202
32.26184771566166	2.1882434	1.4792713
32.28009320310852	2.1846862	1.4780684
32.2983395313029	2.188599	1.4793915
32.31658670082372	2.2031941	1.4843161
32.33483471225012	2.2059355	1.4852391
32.35308356616143	2.1988385	1.482848
32.371333263137245	2.1130233	1.4536241
32.38958380375734	1.9877295	1.4098686
32.407835188601744	1.9791657	1.4068283
32.42608741825067	1.9673543	1.4026241
32.444340493284585	2.010086	1.417775
32.46259441428416	2.1115687	1.4531238
32.48084918183028	2.1432567	1.4639865
32.49910479650405	2.1377382	1.4621006
32.51736125888683	2.1389773	1.4625243
32.53561856956014	2.1135879	1.4538183
32.5538767291058	2.0118172	1.4183854
32.572135738105764	1.9837245	1.4084475
32.59039559714228	2.0412455	1.4287217
32.608656306797776	2.0865493	1.4444892
32.62691786765491	2.0859823	1.444293
32.645180280296586	2.0319412	1.4254618
32.663443545305896	2.0939329	1.4470428
32.68170766326619	2.0801725	1.4422803
32.69997263476099	2.0215862	1.4218249
32.7182384603741	2.0155365	1.419696
32.7365051406895	2.0572357	1.4343067
32.75477267629144	2.04458	1.4298881
32.77304106776434	2.0339065	1.4261509
32.79131031569289	2.0060704	1.4163581
32.809580420661966	1.9862276	1.4093359
32.827851383256714	1.9848375	1.4088426
32.84612320406245	2.0315769	1.425334
32.86439588366476	2.0060341	1.4163454
32.88266942264945	2.014203	1.4192262
32.9009438216025	2.0889773	1.4453295
32.9192190811102	2.0749547	1.4404703
32.937495201758985	1.9969878	1.4131482
32.95577218413556	2.012623	1.4186695
32.974050028826866	2.0983086	1.4485539
32.992328736420035	2.1583285	1.469125
33.010608307502444	2.1623223	1.4704837
33.02888874266169	2.0516002	1.4323409
33.047170042485604	1.9838974	1.4085089
33.06545220756225	2.0163364	1.4199777
33.083735238479896	2.0583942	1.4347105
33.10201913582707	2.0270834	1.4237568
33.12030390019248	1.9772612	1.4061512
33.138589532165135	2.0121107	1.4184889
33.15687603233419	1.9601599	1.4000571
33.17516340128909	1.9616382	1.4005849
33.19345163961947	1.8626587	1.3647926
33.211740747915215	1.9313701	1.3897375
33.23003072676643	1.9998349	1.4141552
33.248321576763466	1.9804732	1.4072928
33.266613298496885	2.0055873	1.4161876
33.28490589255747	1.9735109	1.404817
33.30319935953626	1.8589201	1.3634222
33.32149370002451	1.8797499	1.3710397
33.339788914613706	2.0335646	1.4260311
33.358085003895575	2.0964775	1.4479218
33.376381968462034	2.0404353	1.4284381
33.39467980890529	1.944516	1.394459
33.41297852581774	1.9596575	1.3998777
33.43127811979204	1.926379	1.3879405
33.44957859142105	1.8788147	1.3706986
33.467879941297866	1.8737737	1.3688586
33.486182170015844	1.9129045	1.3830779
33.50448527816853	1.9539273	1.3978295
33.522789266349754	1.9741066	1.405029
33.541094135153514	2.064195	1.4367306
33.55939988517411	2.0306559	1.4250108
33.57770651700602	1.9842118	1.4086205
33.59601403124398	1.8906075	1.3749937
33.61432242848296	1.8876308	1.3739108
33.632631709318154	1.9081239	1.3813486
33.650941874344994	1.8702805	1.367582
33.66925292415916	1.8327279	1.3537828
33.68756485935654	1.8535419	1.3614484
33.70587768053328	1.8607237	1.3640835
33.724191388285746	1.9279615	1.3885105
33.74250598321054	1.9901049	1.4107108
33.760821465904506	1.9429073	1.3938822
33.77913783696474	1.8919356	1.3754765
33.79745509698852	1.9319212	1.3899357
33.815773246573414	1.8682914	1.3668545
33.8340922863172	1.8797929	1.3710554
33.852412216817896	1.9675232	1.4026843
33.87073303867377	1.9728543	1.4045833
33.889054752483304	2.0129793	1.418795
33.907377358845245	1.9689957	1.4032091
33.92570085835853	1.826619	1.3515247
33.94402525162239	1.8231273	1.3502322
33.96235053923627	1.893471	1.3760345
33.980676721799824	1.91351	1.3832967
33.999003799912984	1.9178255	1.3848557
34.01733177417592	2.0038705	1.4155813
34.03566064518901	2.118009	1.4553381
34.0539904135529	2.0602481	1.4353565
34.07232107986846	1.9031659	1.3795528
34.090652644736785	1.9288859	1.3888434
34.108985108759235	2.0390353	1.427948
34.12731847253742	2.1359975	1.4615052
34.14565273667313	2.1298146	1.4593885
34.16398790176847	2.028448	1.4242359
34.18232396842574	1.9296803	1.3891294
34.20066093724749	1.916309	1.3843081
34.21899880883651	1.9840807	1.408574
34.23733758379583	1.9233627	1.3868536
34.25567726272874	1.8611981	1.3642573
34.27401784623872	1.8894879	1.3745865
34.29235933492957	1.931156	1.3896604
34.31070172940526	1.980602	1.4073386
34.32904503027003	1.9113848	1.3825284
34.347389238128386	1.8778875	1.3703604
34.36573435358502	1.9324396	1.3901222
34.38408037724492	2.0028155	1.4152086
34.402427309713296	1.9487671	1.3959825
34.42077515159559	1.8685085	1.366934
34.43912390349752	1.9173245	1.3846749
34.45747356602499	2.078239	1.4416099
34.47582413978423	2.0220602	1.4219916
34.49417562538163	1.9067297	1.3808439
34.51252802342388	1.9249364	1.3874208
34.53088133451789	1.8681276	1.3667946
34.54923555927084	1.8225911	1.3500338
34.567590698290104	1.8905253	1.3749638
34.58594675218336	2.0169322	1.4201874
34.6043037215585	1.9524281	1.3972931
34.62266160702365	1.9309	1.3895683
34.641020409187234	2.09958	1.4489927
34.65938012865785	2.1130822	1.4536444
34.677740766044394	2.0581324	1.4346193
34.69610232195598	2.0828452	1.4432065
34.714464797002016	2.0918033	1.4463068
34.73282819179208	1.8680531	1.3667674
34.751192506936064	1.8837897	1.3725122
34.76955774304408	2.0092034	1.4174638
34.7879239007265	2.0747106	1.4403856
34.80629098059391	1.9770343	1.4060705
34.824658983257194	1.856953	1.3627006
34.843027909327446	1.8786815	1.37065
34.86139775941603	1.9609413	1.4003361
34.879768534134534	2.0026703	1.4151573
34.89814023409483	1.8969249	1.3772889
34.91651285990901	1.7945739	1.339617
34.93488641218944	1.9645499	1.401624
34.95326089154871	2.2799876	1.5099628
34.97163629859967	2.322791	1.5240706
34.99001263395542	2.1079004	1.451861
35.00838989822934	1.8144013	1.3469971
35.02676809203499	1.7985001	1.3410816
35.04514721598624	1.8691535	1.3671699
35.063527270697215	1.9880807	1.4099932
35.081908256782256	1.9522334	1.3972235
35.10029017485597	2.0057762	1.4162543
35.11867302553321	2.052582	1.4326835
35.137056809429104	2.0495849	1.4316372
35.155441527159006	1.8689712	1.3671032
35.173827179338524	1.8567345	1.3626205
35.19221376658354	2.1395853	1.4627321
35.21060128951017	2.2977734	1.5158408
35.2289897487348	2.2053223	1.4850328
35.24737914487405	2.0082743	1.417136
35.26576947854479	1.7783486	1.3335474
35.28416075036418	1.7667214	1.3291807
35.30255296094958	2.0773752	1.4413103
35.32094611091867	2.2929559	1.5142509
35.33934020088932	2.3868337	1.5449381
35.35773523147969	2.282254	1.5107131
35.3761312033082	2.053225	1.4329079
35.394528116993506	1.8143307	1.3469709
35.41292597315452	2.0252576	1.4231155
35.431324772410434	2.1834579	1.4776528
35.449724515380666	2.3220406	1.5238243
35.46812520268491	2.2906535	1.5134904
35.486526834943106	2.1115243	1.4531085
35.504929412775454	2.2309237	1.4936277
35.52333293680242	2.362471	1.5370332
35.54173740764471	2.244486	1.498161
35.560142825923286	2.1455479	1.4647689
35.5785491922594	1.9552954	1.3983188
35.59695650727454	2.0230937	1.4223549
35.61536477159042	2.1756063	1.4749936
