0.008763373481513119	0.0	0.0
0.026290120649546365	0.11242709	0.3353015
0.043816868432600686	0.121336736	0.34833422
0.06134361724069026	0.12850337	0.35847366
0.07887036748382949	0.13569023	0.36836153
0.0963971195720331	0.1108877	0.33299804
0.11392387391531617	0.15510803	0.39383757
0.1314506309236943	0.16582511	0.4072163
0.1489773910071836	0.16266045	0.40331185
0.16650415457580078	0.104192175	0.32278812
0.18403092203956356	0.10792888	0.3285253
0.20155769380849	0.07851036	0.280197
0.2190844702925996	0.10735776	0.32765496
0.2366112519019124	0.1200144	0.34643096
0.2541380390464497	0.13940834	0.37337425
0.27166483213623416	0.12890545	0.35903403
0.28919163158128947	0.14602889	0.38213727
0.3067184377916406	0.114215106	0.33795726
0.324245251177314	0.1431098	0.37829855
0.34177207214833777	0.15467562	0.39328822
0.3592989011147415	0.11988547	0.3462448
0.37682573848655654	0.073626354	0.27134177
0.39435258467381573	0.0710414	0.2665359
0.41187944008655414	0.07993361	0.28272533
0.42940630513480854	0.13023826	0.36088538
0.446933180228618	0.15571518	0.39460763
0.4644600657780234	0.12835322	0.35826418
0.48198696219306775	0.15442851	0.39297393
0.49951386988379676	0.15454441	0.39312136
0.5170407892602581	0.16745904	0.4092176
0.5345677207325025	0.1536614	0.39199668
0.5520946647105822	0.12217961	0.349542
0.5696216216045534	0.10035638	0.31679076
0.5871485918244737	0.1035453	0.32178456
0.6046755757804043	0.097238965	0.31183162
0.6222025738824094	0.11602181	0.34061974
0.6397295865405557	0.15289219	0.3910143
0.6572566141649129	0.19698107	0.44382548
0.6747836571655547	0.20792903	0.45599237
0.6923107159525568	0.19033061	0.43626896
0.7098377909359992	0.17830715	0.4222643
0.7273648825259653	0.16788986	0.40974367
0.7448919911325411	0.19377486	0.44019866
0.762419117165817	0.211429	0.4598141
0.7799462610358868	0.21058173	0.45889187
0.7974734231528482	0.19909705	0.44620293
0.8150006039268024	0.17685679	0.42054343
0.8325278037678551	0.165371	0.40665832
0.8500550230861152	0.18817389	0.43379015
0.8675822622916969	0.19440499	0.44091383
0.8851095217947171	0.23314516	0.4828511
0.9026368020052984	0.24172644	0.49165684
0.9201641033335665	0.24072114	0.4906334
0.9376914261896523	0.23829214	0.48815176
0.9552187709836915	0.24547619	0.49545553
0.9727461381258234	0.23565567	0.48544377
0.990273528026193	0.26017845	0.5100769
1.0078009410949496	0.2572092	0.507158
1.0253283777422473	0.2587387	0.50866365
1.0428558383782454	0.27651522	0.52584714
1.0603833234131086	0.26984388	0.51946497
1.0779108332570058	0.33776745	0.58117765
1.0954383683201119	0.35812873	0.59843856
1.112965929012607	0.4247162	0.6517025
1.1304935157446763	0.5501804	0.7417414
1.1480211289265108	0.5397316	0.7346643
1.1655487689683062	1.2779735	1.1304749
1.1830764362802655	1.5583366	1.2483336
1.200604131272596	2.034095	1.4262171
1.2181318543555117	2.4203088	1.5557342
1.235659605939232	2.4386265	1.5616102
1.253187386433982	3.9533281	1.9882978
1.270715196249994	6.33433	2.5168095
1.2882430357975057	11.601996	3.4061704
1.3057709054867608	16.366428	4.045544
1.3232988057280106	22.09105	4.7001114
1.3408267369315112	26.94878	5.191221
1.358354699507526	30.681778	5.5391135
1.3758826938663256	35.147343	5.9285192
1.3934107204181858	37.431656	6.1181417
1.410938779573391	37.775105	6.1461453
1.4284668717422309	38.198383	6.1804843
1.4459949973350033	37.35099	6.1115456
1.4635231567620117	37.446003	6.1193137
1.4810513504335687	36.26478	6.0220246
1.4985795787599925	35.464794	5.9552326
1.5161078421516088	35.317924	5.9428887
1.5336361410187505	34.732098	5.8933945
1.5511644757717598	34.79919	5.899084
1.5686928468209842	35.64662	5.970479
1.58622125457678	36.58347	6.048427
1.6037496994495108	37.86576	6.1535163
1.621278181849548	37.825016	6.1502047
1.6388067021872719	38.116863	6.173886
1.6563352608730693	37.43278	6.1182337
1.673863858317336	36.72128	6.0598087
1.6913924949304753	36.26986	6.022446
1.7089211711228998	35.06952	5.9219522
1.7264498873050296	33.991306	5.8302064
1.7439786438872935	32.84877	5.7313848
1.7615074412801288	32.18506	5.6731877
1.779036279893981	31.829523	5.641766
1.796565160139305	30.954136	5.563644
1.814094082426564	30.125706	5.488689
1.8316230471662298	29.127285	5.39697
1.849152054768784	28.212536	5.3115473
1.8666811056447168	27.52764	5.246679
1.8842102002045273	26.857677	5.1824393
1.901739338858724	26.35855	5.134058
1.9192685220178245	25.733772	5.0728464
1.9367977500923557	25.12965	5.012948
1.9543270234928547	24.56182	4.9559884
1.971856342629867	24.157402	4.915018
1.9893857079139496	23.646856	4.8628035
2.006915119755667	22.970036	4.7927065
2.0244445785655945	22.349157	4.7274895
2.0419740847543175	21.828394	4.6720867
2.0595036387324317	21.303923	4.6156173
2.0770332409105414	20.645899	4.543776
2.094562891699263	20.274426	4.502713
2.1120925915092217	20.02876	4.4753504
2.129622340751053	19.7055	4.439088
2.1471521398354043	187.94894	13.709447
2.1646819891729323	444.131	21.074415
2.182211889174303	440.3544	20.984623
2.1997418402501974	452.69424	21.276613
2.2172718428113023	432.72693	20.80209
2.234801897268317	320.66403	17.907095
2.2523320040319548	17.164343	4.1429873
2.269862163512935	16.946556	4.1166196
2.287392376121992	16.663958	4.082151
2.304922642269869	16.38278	4.0475645
2.322452962367322	16.015335	4.0019164
2.3399833368251164	15.514511	3.9388463
2.357513766054032	15.167224	3.894512
2.3750442504648586	15.124201	3.8889844
2.3925747904683963	14.8277235	3.8506782
2.410105386475459	14.709152	3.8352513
2.4276360388968707	14.264722	3.7768667
2.445166748143469	14.028669	3.7454865
2.4626975146261025	13.928659	3.732112
2.4802283387556323	13.857121	3.7225156
2.4977592209429305	13.762603	3.709798
2.5152901615988825	13.416267	3.6628222
2.5328211611343865	13.186266	3.63129
2.5503522199603523	12.730352	3.567962
2.5678833384877024	12.453896	3.5290077
2.5854145171273712	12.209572	3.4942198
2.6029457562903064	11.962879	3.4587395
2.620477056387469	11.7363825	3.4258404
2.6380084178298326	11.59233	3.404751
2.655539841028383	11.459194	3.385143
2.673071326394119	11.392005	3.3752043
2.6906028743380523	11.241066	3.3527699
2.708134485271211	11.0980835	3.3313787
2.7256661596046325	10.924966	3.3052936
2.743197897749369	10.801111	3.2865045
2.760729700116486	10.662459	3.2653422
2.778261567117063	10.422066	3.2283225
2.795793499162193	10.385099	3.222592
2.8133254966629817	10.266124	3.2040792
2.830857560030551	10.049822	3.1701455
2.8483896896760337	9.846952	3.1379855
2.865921886010578	9.631181	3.1034143
2.883454149445347	9.483419	3.0795162
2.9009864803915177	9.28945	3.04786
2.91851887926028	9.239905	3.0397213
2.9360513464628384	9.150286	3.0249438
2.953583882410413	9.0305195	3.0050824
2.9711164875142373	8.857813	2.9762077
2.9886491621855606	8.757135	2.9592457
3.0061819068356455	8.622367	2.9363868
3.023714721875769	8.537777	2.9219475
3.041247607717225	8.421713	2.9020188
3.0587805647713213	8.337738	2.887514
3.0763135934493806	8.34284	2.8883975
3.0938466941627407	8.247799	2.8718982
3.1113798673227544	8.09606	2.8453577
3.1289131133407904	7.996247	2.8277636
3.1464464326282315	7.792835	2.791565
3.1639798255964786	7.6226473	2.7609143
3.1815132926569443	7.519625	2.7421935
3.1990468342210603	7.4664063	2.7324727
3.216580450700272	7.366233	2.7140806
3.2341141425060416	7.350821	2.7112398
3.251647910049847	7.3636594	2.7136064
3.2691817537431813	7.2609477	2.6946146
3.286715673997555	7.154651	2.674818
3.3042496712244938	7.0709715	2.6591299
3.32178374583554	6.885072	2.6239421
3.339317898242251	6.816655	2.6108725
3.3568521288562034	6.7597127	2.5999448
3.3743864380889876	6.814816	2.6105204
3.3919208263522127	6.8068357	2.6089914
3.4094552940575023	6.743091	2.5967462
3.4269898416164972	6.6186676	2.5726771
3.444524469440858	6.5528936	2.5598621
3.4620591779422587	6.5334587	2.5560632
3.479593967532391	6.577509	2.5646656
3.4971288386229658	6.533592	2.5560892
3.5146637916257086	6.465492	2.5427332
3.5321988269523628	6.4135995	2.5325086
3.5497339450146903	6.3614874	2.522199
3.5672691462244708	6.3570075	2.5213106
3.5848044309934988	6.305654	2.5111063
3.60233979973359	6.2547626	2.5009522
3.619875252856575	6.22756	2.495508
3.6374107907743034	6.259018	2.501803
3.6549464138986427	6.3081775	2.5116086
3.6724821226414788	6.3515897	2.520236
3.690017917414714	6.311029	2.512176
3.7075537986302702	6.2424207	2.4984837
3.7250897667000857	6.2074637	2.4914782
3.7426258220361235	6.4346294	2.536657
3.7601619650503553	6.820476	2.6116042
3.777698196154779	7.3255076	2.7065675
3.7952345157614067	8.440445	2.9052444
3.8127709242822716	9.327179	3.054043
3.830307422129425	11.596232	3.4053242
3.847844009714936	30.33622	5.5078325
3.8653806874508954	97.74591	9.886653
3.882917455749409	96.96554	9.847108
3.900454315022606	96.70101	9.833667
3.917991265682631	41.32402	6.428376
3.9355283081416506	10.915736	3.3038971
3.9530654428118495	8.691948	2.948211
3.970602670105433	7.4946136	2.7376292
3.9881399904346244	6.5893803	2.566979
4.005677404211669	6.534139	2.5561962
4.023214911848827	6.5644026	2.562109
4.0407525137583855	6.5468683	2.5586848
4.058290210352644	6.534199	2.556208
4.075828002043927	6.3787074	2.5256102
4.0933658892445814	6.33404	2.516752
4.110903872366966	6.3000097	2.509982
4.128441951823468	6.2465544	2.4993107
4.145980128026488	6.205012	2.490986
4.163518401388452	6.1627746	2.4824936
4.181056772321807	6.091862	2.4681697
4.1985952412390155	6.0692134	2.4635773
4.216133808552567	6.0434246	2.4583378
4.233672474674966	6.271034	2.5042033
4.251211240018741	6.5357785	2.556517
4.268750104996445	6.791602	2.6060703
4.286289070020643	7.6421866	2.7644506
4.303828135503928	9.2503395	3.0414371
4.3213673018589125	29.580856	5.4388285
4.3389065694982305	90.67638	9.522414
4.356445938834537	165.87619	12.879293
4.3739854102805085	171.25456	13.086427
4.391524984248844	172.05952	13.1171465
4.409064661152262	136.25432	11.672803
4.426604441403504	96.65474	9.831314
4.444144325415337	75.77022	8.704609
4.461684313600543	21.859148	4.675377
4.47922440637193	22.362894	4.7289424
4.496764604142329	20.58866	4.5374727
4.5143049073245916	18.663136	4.320085
4.531845316331589	16.41332	4.051336
4.5493858315762195	13.587658	3.686144
4.566926453471405	11.254792	3.3548162
4.584467182430081	9.317155	3.0524015
4.602008018865218	8.222307	2.8674567
4.619548963189798	7.555292	2.7486892
4.637090015816834	7.0150223	2.6485887
4.654631177159353	6.7233205	2.5929368
4.672172447630417	6.4108567	2.531967
4.689713827643102	6.2591953	2.5018384
4.7072553176105085	5.9706426	2.4434898
4.724796917945764	5.8444276	2.417525
4.742338629062015	5.7255054	2.3928027
4.759880451372434	5.6582007	2.3786974
4.777422385290215	5.64602	2.3761356
4.794964431228581	5.6793737	2.3831437
4.812506589600768	5.713835	2.390363
4.830048860820047	5.6438227	2.375673
4.847591245299709	5.6051207	2.3675137
4.8651337434530655	5.510754	2.3474996
4.882676355693457	5.419211	2.32792
4.900219082434242	5.428415	2.329896
4.917761924088813	5.514453	2.3482873
4.935304881070575	5.621634	2.3709986
4.952847953792969	5.6211896	2.370905
4.970391142669449	5.547274	2.3552651
4.9879344481135055	5.4825487	2.3414843
5.005477870538642	5.4448223	2.3334143
5.023021410358394	5.4149833	2.3270116
5.040565067986324	5.389734	2.32158
5.05810884383601	5.4232917	2.3287961
5.075652738321066	5.4768977	2.3402772
5.09319675185512	5.468968	2.3385825
5.110740884851836	5.4349627	2.3313007
5.128285137724894	5.4340835	2.3311121
5.145829510888007	5.4360776	2.3315396
5.163374004754908	5.3777556	2.3189988
5.1809186197393595	5.2971973	2.3015642
5.198463356255145	5.2976165	2.301655
5.216008214716077	5.347044	2.3123677
5.233553195535998	5.3674254	2.3167706
5.251098299128764	5.3468547	2.3123267
5.268643525908272	5.261992	2.293903
5.286188876288432	5.2381434	2.2886992
5.3037343506831895	5.20143	2.2806644
5.32127994950651	5.2680874	2.2952313
5.3388256731723915	5.3330483	2.3093393
5.356371522094851	5.307368	2.3037724
5.373917496687938	5.3170953	2.3058827
5.391463597365729	5.260378	2.2935514
5.40900982454232	5.2680955	2.2952332
5.426556178631843	5.227373	2.286345
5.444102660048449	5.1955028	2.2793646
5.4616492692063225	5.117888	2.262275
5.479196006519669	5.130326	2.2650223
5.496742872402727	5.1629395	2.2722104
5.514289867269756	5.1949334	2.2792397
5.531836991535049	5.203188	2.2810497
5.549384245612924	5.1432953	2.2678835
5.566931629917724	5.1351957	2.266097
5.584479144863822	5.1156826	2.2617874
5.6020267908656205	5.1636686	2.2723708
5.619574568337545	5.1425405	2.2677171
5.637122477694054	5.1079116	2.260069
5.654670519349629	5.123603	2.2635376
5.672218693718784	5.1366215	2.2664115
5.689767001216059	5.141218	2.2674255
5.707315442256021	5.15926	2.2714005
5.724864017253266	5.2132874	2.2832625
5.7424127266224225	5.192638	2.278736
5.75996157077814	5.1413736	2.2674596
5.777510550135105	5.1228757	2.263377
5.795059665108022	5.125195	2.2638893
5.812608916111639	5.246015	2.2904181
5.830158303560715	5.3456674	2.31207
5.847707827870055	5.324288	2.307442
5.86525748945448	5.318144	2.3061101
5.8828072887288485	5.3967977	2.3231008
5.900357226108044	5.457658	2.336163
5.917907302006979	5.585056	2.3632722
5.9354575168406	6.3480067	2.519525
5.9530078710238765	7.04467	2.6541798
5.970558364971812	7.5723705	2.751794
5.988108999099438	7.775819	2.7885156
6.005659773821818	8.311511	2.8829691
6.023210689554039	8.108482	2.8475397
6.040761746711227	8.59224	2.9312522
6.058312945708531	7.88696	2.8083732
6.075864286961132	7.327758	2.706983
6.093415770884244	6.6129646	2.5715685
6.1109673978931065	6.085685	2.466918
6.128519168402993	5.501245	2.3454733
6.146071082829204	5.437338	2.33181
6.163623141587075	5.298972	2.3019497
6.181175345091969	5.2062454	2.28172
6.198727693759281	5.1565986	2.2708144
6.216280188004435	5.0997376	2.2582598
6.233832828242885	5.1057024	2.2595801
6.251385614890126	5.1360097	2.2662766
6.268938548361669	5.1846538	2.2769835
6.286491629073067	5.164258	2.2725003
6.304044857439898	5.107916	2.2600698
6.321598233877777	5.0410714	2.245233
6.339151758802344	5.0278735	2.242292
6.356705432629277	4.994005	2.2347271
6.37425925577428	4.9249697	2.2192273
6.391813228653095	4.8754997	2.2080534
6.409367351681486	4.915138	2.217011
6.426921625275259	4.957653	2.2265787
6.44447604985025	4.999673	2.2359948
6.46203062582232	5.0104218	2.2383971
6.47958535360737	5.0279865	2.2423172
6.497140233621328	5.066675	2.2509277
6.514695266280161	5.0934935	2.256877
6.532250451999859	5.0743594	2.2526338
6.549805791196454	5.032817	2.2433941
6.567361284286002	4.957147	2.2264652
6.584916931684597	4.940253	2.222668
6.602472733808367	4.949628	2.224776
6.6200286910734665	5.0478983	2.2467527
6.637584803896092	5.032286	2.243276
6.655141072692462	5.020749	2.2407029
6.672697497878842	4.9687953	2.2290795
6.690254079871514	4.931708	2.2207448
6.707810819086808	4.966707	2.228611
6.725367715941078	5.0248737	2.241623
6.742924770850719	5.043151	2.245696
6.760481984232151	5.0699306	2.2516506
6.778039356501836	5.064841	2.2505202
6.795596888076266	5.073544	2.2524529
6.813154579371963	5.0235043	2.2413175
6.830712430805492	4.9753304	2.2305448
6.84827044279344	4.918124	2.2176845
6.865828615752445	4.925815	2.2194178
6.883386950099159	4.9348655	2.2214558
6.900945446250287	4.9977493	2.2355647
6.918504104622553	5.019191	2.240355
6.936062925632727	5.048199	2.2468197
6.953621909697607	5.074389	2.2526405
6.971181057234028	5.116566	2.261983
6.988740368658859	5.2163787	2.2839394
7.006299844389007	5.2595997	2.2933817
7.023859484841407	5.321852	2.306914
7.041419290433036	5.3273134	2.3080974
7.058979261580902	5.4624133	2.3371806
7.0765393987020495	5.675065	2.3822396
7.094099702213559	6.085899	2.4669614
7.111660172532549	6.412397	2.5322711
7.129220810076164	6.8037305	2.608396
7.146781615261595	7.3883934	2.71816
7.16434258850606	7.6244364	2.761238
7.181903730226821	8.066411	2.8401427
7.1994650408411704	8.182646	2.8605325
7.217026520766437	8.339328	2.8877895
7.234588170419983	8.546905	2.923509
7.252149990219215	8.536287	2.9216926
7.269711980581568	8.459792	2.9085722
7.2872741419245175	8.290149	2.8792617
7.304836474665574	7.9175725	2.8138182
7.322398979222286	7.5463758	2.7470667
7.339961656012233	7.2437177	2.6914155
7.357524505453039	6.879008	2.6227863
7.375087527962357	6.5636477	2.5619617
7.392650723957886	6.2943974	2.5088637
7.410214093857353	5.9869103	2.4468164
7.427777638078528	5.7993293	2.4081798
7.445341357039213	5.623467	2.371385
7.4629052511572525	5.4218254	2.3284814
7.480469320850524	5.2658453	2.294743
7.498033566536948	5.199164	2.2801676
7.5155979886344735	5.203607	2.2811415
7.5331625875610975	5.1734385	2.2745194
7.550727363734844	5.154273	2.2703023
7.568292317573788	5.089545	2.256002
7.585857449496025	5.10029	2.258382
7.603422759919705	5.086234	2.255268
7.620988249263007	5.095584	2.25734
7.638553917944147	5.1361437	2.2663062
7.656119766381391	5.187349	2.2775753
7.673685794993023	5.264456	2.2944403
7.691252004197388	5.274371	2.2965999
7.70881839441285	5.2859273	2.2991145
7.726384966057826	5.339613	2.3107603
7.743951719550762	5.3655353	2.3163626
7.761518655310149	5.3305244	2.3087928
7.779085773754511	5.26949	2.295537
7.796653075302419	5.1867604	2.277446
7.814220560372475	5.196723	2.279632
7.831788229383323	5.2315726	2.2872632
7.8493560827536495	5.2472143	2.29068
7.866924120902174	5.2821608	2.2982953
7.884492344247663	5.257385	2.2928987
7.9020607532089135	5.272142	2.2961144
7.919629348204771	5.2809806	2.2980385
7.937198129654115	5.3522105	2.3134844
7.954767097975865	5.4006243	2.3239243
7.972336253588986	5.4448156	2.333413
7.989905596912472	5.413625	2.3267198
8.007475128365371	5.4362135	2.331569
8.025044848366756	5.466507	2.3380563
8.042614757335754	5.58867	2.3640368
8.060184855691523	5.6502824	2.3770323
8.07775514385327	5.784044	2.405004
8.095325622240228	5.789176	2.4060707
8.112896291271687	5.7656765	2.4011824
8.130467151366968	5.8068147	2.4097333
8.148038202945436	5.82536	2.4135783
8.165609446426497	5.887685	2.4264553
8.183180882229594	5.9077187	2.43058
8.200752510774217	5.9526005	2.4397953
8.218324332479893	6.0232825	2.4542377
8.235896347766193	6.0200257	2.4535742
8.253468557052724	6.044002	2.4584553
8.27104096075914	6.0319333	2.4559994
8.288613559305137	6.0801325	2.4657924
8.306186353110448	6.096479	2.469105
8.32375934259485	6.190824	2.4881368
8.341332528178162	6.250461	2.5000923
8.358905910280246	6.3008137	2.510142
8.376479489321003	6.294906	2.5089653
8.394053265720377	6.280876	2.5061677
8.411627239898356	6.248943	2.4997885
8.42920141227497	6.2486243	2.4997249
8.44677578327029	6.2534437	2.5006886
8.464350353304427	6.248737	2.4997473
8.48192512279754	6.28111	2.5062141
8.499500092169827	6.20622	2.4912286
8.51707526184153	6.2110043	2.4921887
8.534650632232934	6.217495	2.4934905
8.552226203764365	6.1889143	2.487753
8.569801976856192	6.1663265	2.483209
8.587377951928834	6.1614075	2.4822183
8.60495412940274	6.195858	2.4891481
8.622530509698416	6.230569	2.4961107
8.6401070932364	6.3413672	2.518207
8.657683880437283	6.449185	2.5395246
8.675260871721695	6.627473	2.5743878
8.692838067510303	6.8179946	2.611129
8.710415468223834	7.0117106	2.6479635
8.727993074283043	7.1187673	2.6681018
8.745570886108737	7.080003	2.6608274
8.763148904121765	7.0430717	2.6538787
8.78072712874302	7.0538764	2.6559136
8.798305560393441	7.3450484	2.710175
8.815884199494006	7.6089005	2.7584236
8.833463046465745	7.754215	2.7846391
8.851042101729728	7.8330307	2.7987552
8.86862136570707	8.063136	2.8395662
8.886200838818924	8.212454	2.865738
8.903780521486505	8.287709	2.878838
8.921360414131055	8.488369	2.9134805
8.938940517173874	8.664657	2.943579
8.956520831036297	8.791557	2.965056
8.97410135613971	8.984331	2.9973874
8.99168209290554	9.076091	3.012655
9.009263041755265	9.326288	3.0538971
9.026844203110405	9.572237	3.0939033
9.044425577392525	9.921668	3.149868
9.062007165023239	10.171643	3.1893015
9.079588966424197	10.438924	3.2309322
9.097170982017108	10.453135	3.2331307
9.11475321222372	11.481599	3.3884509
9.132335657465825	12.422306	3.5245292
9.149918318165264	12.532578	3.5401382
9.167501194743924	13.063078	3.614288
9.18508428762374	12.694343	3.562912
9.202667597226693	12.799228	3.5776007
9.220251123974803	12.438725	3.5268576
9.237834868290143	12.14578	3.4850795
9.255418830594836	11.878015	3.4464495
9.273003011311046	11.277422	3.3581872
9.290587410860985	11.06462	3.3263524
9.308172029666911	10.377327	3.221386
9.32575686815113	10.060233	3.171787
9.343341926735997	8.809363	2.9680572
9.360927205843916	8.604229	2.9332967
9.378512705897327	8.482158	2.9124143
9.396098427318728	8.263608	2.8746493
9.413684370530664	8.129861	2.8512912
9.431270535955722	7.9710536	2.8233054
9.448856924016539	7.931164	2.8162322
9.466443535135806	7.825756	2.7974553
9.484030369736251	7.7994485	2.7927492
9.501617428240658	7.764634	2.7865093
9.519204711071852	7.810977	2.7948124
9.536792218652714	7.8590956	2.803408
9.55437995140617	7.8580937	2.803229
9.571967909755191	7.8601284	2.803592
9.589556094122802	7.9170313	2.813722
9.60714450493207	7.980122	2.8249109
9.624733142606116	8.004427	2.8292096
9.642322007568108	7.9846835	2.8257182
9.659911100241267	7.981318	2.8251226
9.677500421048851	7.98623	2.8259919
9.695089970414175	8.047289	2.8367743
9.712679748760609	8.044353	2.8362567
9.730269756511557	8.048978	2.8370721
9.747859994090492	8.0663805	2.8401375
9.765450461920915	8.132622	2.8517752
9.78304116042639	8.220777	2.8671896
9.800632090030527	8.258922	2.873834
9.81822325115699	8.217612	2.8666377
9.835814644229481	8.200963	2.8637323
9.853406269671762	8.219421	2.8669534
9.870998127907646	8.285329	2.8784246
9.888590219360985	8.340263	2.8879514
9.906182544455698	8.369455	2.893001
9.923775103615734	8.329098	2.8860176
9.941367897265108	8.293034	2.8797626
9.958960925827878	8.2616825	2.8743143
9.97655418972816	8.264495	2.8748035
9.994147689390106	8.313082	2.8832414
10.011741425237934	8.265433	2.8749666
10.029335397695904	8.245516	2.8715007
10.04692960718833	8.165388	2.8575144
10.06452405413958	8.188197	2.8615026
10.082118738974064	8.199691	2.8635101
10.099713662116246	8.259793	2.8739855
10.117308823990651	8.289039	2.879069
10.134904225021844	8.280836	2.8776443
10.152499865634445	8.273466	2.8763633
10.170095746253125	8.258431	2.8737488
10.18769186730261	8.237935	2.8701804
10.205288229207675	8.254523	2.8730686
10.222884832393145	8.236823	2.8699865
10.2404816772839	8.238446	2.8702693
10.258078764304868	8.217085	2.866546
10.275676093881035	8.164613	2.8573787
10.293273666437438	8.177291	2.8595963
10.310871482399158	8.261606	2.874301
10.32846954219134	8.221389	2.8672965
10.346067846239173	8.209633	2.8652456
10.363666394967908	8.132046	2.8516743
10.38126518880283	8.125463	2.8505197
10.398864228169298	8.265	2.8748913
10.416463513492713	8.379526	2.894741
10.434063045198531	8.335061	2.8870506
10.451662823712262	8.224118	2.8677723
10.469262849459467	8.103895	2.846734
10.486863122865758	8.051712	2.837554
10.504463644356806	8.09126	2.844514
10.522064414358338	8.076149	2.8418567
10.539665433296118	8.009073	2.8300307
10.557266701595987	7.8664556	2.8047202
10.574868219683818	7.7154245	2.7776654
10.592469987985552	7.600198	2.7568457
10.610072006927185	7.5391884	2.7457583
10.627674276934751	7.45618	2.7306006
10.64527679843435	7.3471293	2.710559
10.662879571852143	7.2936506	2.700676
10.680482597614331	7.222796	2.687526
10.698085876147173	7.130694	2.670336
10.715689407876988	6.9773097	2.6414597
10.733293193230146	6.831376	2.6136901
10.750897232633072	6.7525706	2.5985708
10.76850152651225	6.6921535	2.5869198
10.786106075294207	6.6604404	2.580783
10.803710879405534	6.591246	2.5673423
10.821315939272877	6.476395	2.5448763
10.83892125532294	6.403687	2.5305507
10.856526827982472	6.368385	2.523566
10.874132657678285	6.3917727	2.5281956
10.891738744837243	6.353485	2.520612
10.909345089886271	6.2632	2.5026386
10.926951693252343	6.159485	2.4818308
10.944558555362494	6.10582	2.470996
10.96216567664381	6.018616	2.453287
10.979773057523436	5.9781203	2.4450195
10.997380698428573	5.8678203	2.4223585
11.014988599786477	5.756214	2.3992112
11.032596762024461	5.626922	2.3721135
11.050205185569892	5.595849	2.3655548
11.067813870850198	5.5942135	2.3652089
11.085422818292859	5.542655	2.3542843
11.10303202832541	5.4362717	2.3315814
11.120641501375454	5.2807026	2.297978
11.138251237870636	5.1760607	2.2750957
11.155861238238671	5.1454687	2.2683625
11.173471502907317	5.1230445	2.2634144
11.191082032304402	5.1243463	2.263702
11.208692826857805	5.0839357	2.2547584
11.226303886995465	5.0675197	2.2511153
11.243915213145371	4.993704	2.2346597
11.261526805735578	4.92732	2.2197568
11.279138665194196	4.8666496	2.2060485
11.296750791949393	4.8413696	2.2003112
11.314363186429393	4.8562937	2.2037
11.331975849062479	4.841035	2.2002351
11.34958878027699	4.7877135	2.1880844
11.36720198050133	4.7209373	2.1727717
11.384815450163948	4.6328936	2.1524158
11.402429189693366	4.5589595	2.135172
11.420043199518153	4.44383	2.1080394
11.437657480066942	63.458614	7.9660916
11.455272031768422	85.156525	9.228029
11.472886855051353	107.55182	10.370719
11.490501950344528	99.15588	9.957705
11.508117318076819	84.534096	9.1942425
11.52573295867715	45.928238	6.7770376
11.543348872574514	4.2568536	2.0632143
11.560965060197946	4.167142	2.0413578
11.57858152197655	4.1081414	2.026855
11.59619825833949	4.028017	2.006992
11.613815269715985	4.028762	2.0071776
11.631432556535323	38.547203	6.2086396
11.649050119226837	83.039604	9.112607
11.666667958219929	93.391304	9.663918
11.68428607394406	107.63609	10.374782
11.701904466828756	82.505844	9.083273
11.719523137303586	65.41248	8.087798
11.737142085798196	4.6277323	2.1512165
11.754761312742286	3.691799	1.9214054
11.772380818565619	3.6138582	1.901015
11.790000603698015	3.5943446	1.8958757
11.80762066856935	3.5598867	1.8867662
11.825241013609572	3.5548105	1.8854206
11.842861639248683	3.540025	1.8814954
11.860482545916748	3.527064	1.878048
11.878103734043883	3.5226045	1.8768603
11.895725204060282	3.4817626	1.8659482
11.91334695639619	3.4195929	1.8492141
11.930968991481919	3.3887565	1.8408575
11.948591309747824	3.3556309	1.8318381
11.966213911624347	3.3460863	1.829231
11.98383679754198	3.3437862	1.8286023
12.001459967931268	3.319858	1.8220477
12.019083423222835	3.256487	1.8045739
12.036707163847352	3.213623	1.7926581
12.05433119023556	3.2300882	1.7972447
12.071955502818259	3.2214284	1.7948338
12.089580102026313	3.159806	1.7775843
12.107204988290643	3.162213	1.7782613
12.12483016204224	3.136108	1.770906
12.142455623712152	3.121087	1.7666599
12.16008137373149	3.0512443	1.7467811
12.177707412531431	3.0580697	1.7487338
12.19533374054321	3.1187418	1.765996
12.212960358198126	3.1250317	1.7677759
12.230587265927545	3.0970592	1.7598463
12.248214464162889	3.0518827	1.7469639
12.265841953335649	3.0437193	1.7446258
12.283469733877375	3.0079143	1.734334
12.301097806219685	2.9503808	1.7176672
12.31872617079425	2.9564297	1.7194271
12.336354828032825	2.9964285	1.7310195
12.353983778367205	3.008372	1.734466
12.371613022229262	2.9967837	1.7311221
12.389242560050928	2.9508977	1.7178177
12.406872392264201	2.9384418	1.7141883
12.424502519301143	2.8984866	1.7024943
12.442132941593874	2.8692822	1.6938956
12.459763659574586	2.8643734	1.692446
12.477394673675532	2.8560195	1.6899762
12.49502598432903	2.8723133	1.69479
12.51265759196746	2.8361955	1.6841007
12.530289497023267	2.8294013	1.6820824
12.547921699928967	2.8293037	1.6820534
12.565554201117134	2.8424113	1.6859453
12.583187001020404	2.8161304	1.678133
12.600820100071486	2.783974	1.6685245
12.618453498703152	2.7655165	1.6629843
12.636087197348235	2.759184	1.6610792
12.65372119643964	2.76417	1.6625793
12.671355496410326	2.7917879	1.6708645
12.68899009769333	2.831201	1.6826173
12.706625000721749	2.8646343	1.692523
12.724260205928752	2.9115348	1.706322
12.741895713747551	2.9471953	1.7167398
12.759531524611454	2.957693	1.7197945
12.777167638953818	2.955357	1.7191153
12.794804057208072	2.9408555	1.7148923
12.812440779807702	3.00791	1.7343327
12.830077807186271	3.1949198	1.7874339
12.847715139777405	3.2906444	1.8140134
12.865352778014795	3.5229218	1.8769448
12.882990722332197	3.6544325	1.911657
12.90062897316344	3.7260954	1.9303097
12.918267530942412	3.8014407	1.9497284
12.935906396103071	3.6600165	1.9131169
12.953545569079449	3.8228803	1.9552187
12.971185050305628	3.6277847	1.9046744
12.988824840215775	3.6833189	1.9191974
13.006464939244115	3.7167375	1.9278842
13.024105347824943	3.5612764	1.8871344
13.041746066392617	3.6036196	1.8983202
13.05938709538157	3.3839507	1.8395518
13.077028435226296	3.3868973	1.8403525
13.094670086361363	3.3043756	1.8177942
13.112312049221401	3.1971657	1.788062
13.129954324241112	3.0663545	1.7511009
13.147596911855258	2.8523161	1.6888801
13.165239812498685	2.837492	1.6844857
13.182883026606293	2.7710044	1.6646334
13.200526554613058	2.7562773	1.660204
13.218170396954017	2.7675426	1.6635933
13.235814554064284	2.7579243	1.6607
13.253459026379034	2.7473445	1.6575116
13.271103814333523	2.7132664	1.6471995
13.288748918363058	2.7186224	1.6488246
13.306394338903031	2.7065237	1.6451516
13.32404007638889	2.6614823	1.631405
13.341686131256164	2.7087538	1.6458292
13.359332503940449	2.697003	1.6422554
13.376979194877402	2.678968	1.6367553
13.394626204502751	2.6647828	1.6324162
13.412273533252307	2.6723807	1.6347418
13.429921181561937	2.6898599	1.6400793
13.447569149867581	2.7112162	1.6465771
13.465217438605247	2.6987524	1.642788
13.482866048211022	2.6961932	1.6420089
13.500514979121052	2.690003	1.6401229
13.518164231771568	2.6472504	1.6270373
13.535813806598844	2.6436498	1.6259304
13.553463704039254	2.631516	1.6221948
13.571113924529229	2.6759844	1.6358436
13.588764468505275	2.7028477	1.644034
13.606415336403956	2.70911	1.6459374
13.624066528661917	2.7014098	1.6435966
13.641718045715882	2.754655	1.6597153
13.659369888002635	2.8336024	1.6833308
13.67702205595903	2.9126694	1.7066544
13.694674550021993	3.005535	1.7336478
13.712327370628532	3.063908	1.7504022
13.729980518215713	3.1460657	1.7737153
13.747633993220681	3.1924152	1.7867332
13.765287796080647	3.2202094	1.7944942
13.7829419272329	3.2099025	1.7916201
13.800596387114801	3.1882098	1.7855558
13.818251176163775	3.231934	1.7977581
13.835906294817324	3.3039243	1.81767
13.853561743513023	3.384775	1.8397758
13.871217522688525	3.4632733	1.8609872
13.888873632781538	3.5015543	1.8712441
13.906530074229858	3.536986	1.8806877
13.92418684747135	3.5349255	1.8801397
13.941843952943948	3.4942517	1.8692918
13.959501391085665	3.4663048	1.8618015
13.977159162334578	3.4022026	1.844506
13.994817267128846	3.350326	1.8303896
14.012475705906693	3.269256	1.8081084
14.030134479106424	3.2372854	1.7992458
14.047793587166414	3.1667025	1.7795231
14.065453030525108	3.1001506	1.7607244
14.083112809621026	3.0259097	1.7395142
14.100772924892766	2.9551363	1.719051
14.118433376778997	2.8807456	1.697276
14.136094165718458	2.7547162	1.6597338
14.153755292149969	2.709385	1.6460209
14.171416756512416	2.6506717	1.6280884
14.189078559244768	2.6441004	1.6260691
14.20674070078606	2.6163378	1.6175097
14.224403181575408	2.5814667	1.6066943
14.242066002051999	2.5521176	1.5975349
14.259729162655093	2.5245583	1.5888859
14.277392663824022	2.496224	1.5799443
14.295056505998208	2.4696069	1.5714983
14.312720689617128	2.4347064	1.5603546
14.330385215120348	2.397669	1.5484408
14.348050082947497	2.3704295	1.5396199
14.3657152935383	2.378709	1.5423064
14.383380847332528	2.3598127	1.5361682
14.401046744770051	2.383004	1.5436982
14.418712986290798	2.3967056	1.5481297
14.436379572334793	2.407459	1.5515989
14.454046503342123	2.3928745	1.5468919
14.471713779752946	2.3778682	1.5420338
14.489381402007504	2.3903737	1.5460833
14.507049370546113	2.3769362	1.5417316
14.524717685809168	2.363406	1.5373373
14.542386348237134	2.3790655	1.5424219
14.560055358270553	2.3785598	1.542258
14.577724716350051	2.4132977	1.5534792
14.595394422916325	2.411577	1.5529253
14.61306447841015	2.433274	1.5598955
14.63073488327237	2.4305458	1.5590208
14.648405637943917	2.4165483	1.5545251
14.6660767428658	2.4025345	1.5500112
14.683748198479094	2.4616497	1.5689645
14.701420005224954	2.5515914	1.5973701
14.719092163544628	2.6746852	1.6354465
14.73676467387942	2.7248807	1.6507213
14.754437536670727	2.738592	1.6548692
14.772110752360014	2.7106328	1.6464
14.78978432138882	2.713806	1.6473633
14.807458244198777	2.7076614	1.6454973
14.82513252123159	2.6883905	1.6396312
14.842807152929028	2.7193117	1.6490335
14.860482139732962	2.6820984	1.6377113
14.87815748208531	2.6769054	1.6361251
14.8958331804281	2.671387	1.6344378
14.91350923520342	2.6339452	1.6229434
14.931185646853438	2.6362772	1.6236616
14.948862415820408	2.6429791	1.6257242
14.966539542546656	2.698861	1.642821
14.98421702747459	2.6888955	1.6397852
15.001894871046696	2.672903	1.6349015
15.019573073705542	2.6615653	1.6314305
15.037251635893766	2.6823008	1.6377732
15.054930558054092	2.6897893	1.6400577
15.072609840629323	2.6990063	1.6428653
15.090289484062351	2.7717566	1.6648593
15.107969488796124	2.979653	1.7261671
15.125649855273691	3.3925636	1.8418913
15.14333058393817	3.9271312	1.9816991
15.161011675232768	5.041114	2.2452426
15.17869312960076	6.4677553	2.543178
15.196374947485506	8.359882	2.8913462
15.214057129330447	11.4744625	3.3873975
15.231739675579114	16.360998	4.044873
15.249422586675102	21.611073	4.6487713
15.267105863062092	24.72488	4.972412
15.284789505183847	24.839432	4.983917
15.302473513484218	22.717743	4.7663136
15.320157888407127	19.108608	4.3713393
15.337842630396578	14.958176	3.8675802
15.355527739896656	11.5916815	3.404656
15.37321321735153	8.912064	2.985308
15.39089906320545	6.4422793	2.5381646
15.408585277902748	4.835819	2.1990495
15.42627186188783	3.7158325	1.9276495
15.443958815605198	3.1803932	1.7833657
15.461646139499424	2.877878	1.6964309
15.479333834015168	2.7109709	1.6465026
15.497021899597165	2.655602	1.6296018
15.514710336690234	2.625316	1.6202826
15.53239914573928	2.5878327	1.6086742
15.550088327189297	2.5385342	1.5932778
15.567777881485336	2.5108986	1.5845815
15.58546780907256	2.5177164	1.5867313
15.6031581103962	2.4989595	1.5808098
15.620848785901568	2.513673	1.5854567
15.638539836034063	2.491633	1.5784907
15.656231261239173	2.4770613	1.5738683
15.673923061962451	2.4465356	1.5641406
15.691615238649552	2.4073024	1.5515484
15.709307791746202	2.4127018	1.5532874
15.727000721698221	2.4301124	1.5588818
15.744694028951498	2.4107258	1.5526513
15.76238771395202	2.3983188	1.5486506
15.780081777145844	2.3458152	1.5316055
15.797776218979125	2.321402	1.5236148
15.815471039898094	2.3015585	1.5170888
15.833166240349064	2.3318264	1.5270319
15.850861820778437	2.359372	1.5360247
15.868557781632699	2.3867576	1.5449134
15.886254123358412	2.376098	1.5414597
15.903950846402232	2.37246	1.5402792
15.921647951210897	2.4102662	1.5525032
15.939345438231225	2.4151826	1.5540857
15.957043307910133	2.4180768	1.5550166
15.974741560694602	2.3811545	1.543099
15.992440197031714	2.4080918	1.5518028
16.01013921736862	2.4177723	1.5549188
16.02783862215259	2.434493	1.5602862
16.045538411830933	2.4359152	1.5607419
16.06323858685107	2.43956	1.5619091
16.080939147660512	2.4419277	1.5626669
16.09864009470684	2.4135394	1.553557
16.11634142843774	2.4144297	1.5538435
16.134043149300954	2.4386053	1.5616034
16.15174525774433	2.4262645	1.5576471
16.169447754215817	2.4197123	1.5555425
16.18715063916342	2.3851519	1.5443937
16.204853913035244	2.3693094	1.5392561
16.222557576279478	2.3537753	1.5342019
16.240261629344403	22.336092	4.7261076
16.257966072678386	42.86672	6.547268
16.275670906729868	38.030663	6.1669006
16.293376131947387	2.4938679	1.5791985
16.31108174877957	2.5210495	1.5877813
16.328787757675133	2.5155435	1.5860465
16.34649415908287	2.5477226	1.5961587
16.364200953451657	2.59901	1.6121446
16.38190814123048	2.643099	1.625761
16.39961572286839	2.6776905	1.636365
16.41732369881455	2.7110798	1.6465358
16.43503206951817	2.7028022	1.6440201
16.45274083542859	2.7212617	1.6496247
16.47044999699522	2.7761128	1.6661671
16.488159554667558	2.811457	1.6767399
16.505869508895184	2.855018	1.6896799
16.523579860127786	2.9049876	1.7044024
16.541290608815117	2.9680529	1.7228038
16.559001755407035	3.0179641	1.7372289
16.57671330035348	3.0317929	1.7412044
16.59442524410448	3.098037	1.7601241
16.61213758711015	3.1826363	1.7839944
16.629850329820705	3.3024452	1.8172631
16.647563472686436	3.381761	1.8389565
16.665277016157724	3.442307	1.8553455
16.682990960685053	3.4697776	1.8627338
16.70070530671898	3.5032346	1.871693
16.718420054710155	3.5475466	1.8834932
16.736135205109335	3.5675952	1.8888079
16.753850758367335	3.6040397	1.8984308
16.771566714935087	3.663362	1.9139911
16.789283075263597	3.7431614	1.9347252
16.80699983980398	3.7945073	1.9479495
16.82471700900741	3.842629	1.9602624
16.84243458332518	3.94507	1.98622
16.860152563208665	4.0312204	2.0077899
16.87787094910932	4.0832067	2.0206945
16.89558974147871	4.187289	2.0462866
16.913308940768466	4.2418804	2.0595825
16.931028547430333	4.2360873	2.0581758
16.94874856191613	4.2727184	2.0670555
16.966468984677785	4.4053717	2.0988977
16.98418981616729	4.512658	2.124302
17.00191105683676	4.5399437	2.1307144
17.019632707138374	4.512747	2.1243227
17.03735476752442	4.5322714	2.1289132
17.05507723844728	4.621473	2.1497612
17.072800120359403	4.6552978	2.157614
17.090523413713353	4.6649394	2.159847
17.108247118961785	4.646752	2.1556325
17.125971236557437	4.6151695	2.1482944
17.143695766953133	4.5867305	2.1416655
17.161420710601806	4.599707	2.144693
17.179146067956477	4.6623325	2.1592436
17.19687183947025	4.699705	2.1678803
17.21459802559634	4.7387877	2.1768756
17.232324626788028	4.6652184	2.1599116
17.25005164349871	4.656433	2.157877
17.267779076181863	4.6454916	2.1553402
17.285506925291074	4.6840897	2.164276
17.30323519127999	4.6227393	2.1500556
17.320963874602384	4.569901	2.1377327
17.33869297571211	4.535349	2.1296358
17.356422495063114	4.5128593	2.124349
17.37415243310944	4.5095334	2.1235662
17.391882790305218	4.4976745	2.1207721
17.40961356710468	4.526797	2.1276271
17.42734476396215	4.5320125	2.1288524
17.445076381332044	4.481672	2.116996
17.462808419668868	4.513297	2.124452
17.48054087942723	4.6457577	2.155402
17.498273761061835	5.0220766	2.240999
17.51600706502747	5.5754075	2.3612301
17.533740791779024	6.3064938	2.5112734
17.551474941771485	7.7614856	2.7859442
17.56920951545993	8.970163	2.995023
17.586944513299528	11.299965	3.361542
17.60467993574556	13.12382	3.6226814
17.622415783253373	14.890637	3.8588388
17.64015205627843	16.277143	4.0344944
17.657888755276293	17.359333	4.1664534
17.675625880702604	17.879381	4.2284017
17.69336343301311	17.738676	4.211731
17.71110141266366	16.86996	4.107306
17.728839820110178	15.878804	3.9848218
17.746578655808705	14.993052	3.8720863
17.764317920215372	13.446844	3.6669939
17.7820576137864	11.782674	3.43259
17.79979773697811	9.563114	3.0924284
17.81753829024692	7.539211	2.7457623
17.835279274049356	5.821283	2.4127336
17.85302068884201	4.759763	2.181688
17.870762535081607	4.09803	2.0243592
17.888504813224934	3.816516	1.9535905
17.90624752372891	3.679021	1.9180773
17.923990667050536	3.5879774	1.8941957
17.941734243646895	3.513035	1.8743092
17.959478253975185	3.509798	1.8734455
17.9772226984927	3.445021	1.8560767
17.994967577656833	3.3945305	1.8424252
18.01271289192506	3.3591514	1.8327987
18.030458641754965	3.3020058	1.8171422
18.04820482760425	3.2971046	1.8157932
18.06595144993067	3.274267	1.8094935
18.083698509192125	3.306377	1.8183446
18.101446005846576	3.295483	1.8153466
18.119193940352105	3.235008	1.7986128
18.136942313166887	3.1969042	1.7879889
18.1546911247492	3.176333	1.7822269
18.1724403755574	3.1343887	1.7704204
18.19019006604997	3.10781	1.7628982
18.207940196685467	3.0811355	1.7553164
18.225690767922575	3.0915236	1.7582729
18.243441780220046	3.121246	1.7667049
18.261193234036764	3.1432166	1.7729119
18.278945129831676	3.1211605	1.7666806
18.29669746806386	3.0490413	1.7461504
18.314450249192483	3.0114355	1.7353488
18.3322034736768	3.0175495	1.7371095
18.349957141976184	3.0623071	1.7499449
18.3677112545501	3.0645456	1.7505844
18.385465811858108	3.0697439	1.7520684
18.403220814359884	3.0647948	1.7506555
18.420976262515172	3.109298	1.7633202
18.43873215678387	3.130298	1.7692648
18.456488497625923	3.1712716	1.7808064
18.474245285501407	3.2326581	1.7979594
18.492002520870486	3.3020213	1.8171464
18.50976020419343	3.373566	1.8367269
18.527518335930615	3.6358945	1.9068022
18.545276916542516	4.1959352	2.0483983
18.563035946489688	4.432118	2.1052597
18.580795426232832	4.9252925	2.2193
18.598555356232698	4.817224	2.1948175
18.616315736950185	5.0292983	2.2426097
18.63407656884626	4.663616	2.1595407
18.65183785238201	4.827518	2.1971614
18.669599588018617	4.634047	2.1526837
18.68736177621737	4.6048117	2.1458826
18.705124417439652	4.5818214	2.140519
18.72288751214696	4.4055786	2.098947
18.740651060800886	4.5519543	2.1335309
18.758415063863115	4.284292	2.0698533
18.77617952179546	4.4648037	2.1130083
18.793944435059814	4.221721	2.0546827
18.811709804118184	4.246732	2.06076
18.829475629432675	4.1977305	2.0488365
18.8472419114655	3.9982572	1.9995643
18.86500865067897	4.101521	2.025221
18.88277584753551	3.788128	1.9463114
18.90054350249763	3.7504528	1.9366086
18.918311616027957	3.4143138	1.8477862
18.936080188589226	3.3668756	1.8349048
18.953849220644265	3.0896337	1.7577354
18.971618712656007	2.8984222	1.7024753
18.9893886650875	2.780829	1.6675818
19.007159078401887	7.932999	2.8165581
19.024929953062408	32.860718	5.7324266
19.042701289532435	32.83233	5.72995
19.060473088275405	25.35591	5.0354652
19.07824534975489	2.5900626	1.6093671
19.096018074434568	2.5876422	1.608615
19.113791262778197	2.60105	1.6127771
19.13156491524966	2.631075	1.6220589
19.149339032312945	2.6107955	1.6157956
19.167113614432136	2.5968423	1.6114721
19.184888662071433	2.5633419	1.6010439
19.202664175695123	2.5352979	1.5922619
19.220440155767623	2.5461676	1.5956715
19.238216602753447	2.5631027	1.6009693
19.2559935171172	2.5860317	1.6081144
19.27377089932361	2.5311637	1.5909631
19.291548749837514	2.506078	1.5830597
19.309327069123835	2.5029535	1.5820725
19.32710585764763	2.5381908	1.59317
19.344885115874032	2.5198338	1.5873984
19.362664844268313	2.4831526	1.5758022
19.380445043295822	2.4340217	1.5601351
19.39822571342203	2.4550388	1.5668564
19.41600685511252	2.4677627	1.5709114
19.43378846883297	2.4848878	1.5763527
19.451570555049173	2.4643812	1.5698348
19.469353114227037	2.4538116	1.5664647
19.48713614683254	2.4711452	1.5719876
19.50491965333182	2.496152	1.5799215
19.52270363419109	2.504016	1.5824083
19.540488089876686	2.4952765	1.5796444
19.55827302085503	2.524066	1.5887309
19.576058427592674	2.5152006	1.5859385
19.593844310556282	2.510447	1.584439
19.611630670212598	2.5089712	1.5839733
19.629417507028506	2.5189662	1.5871252
19.64720482147098	2.492599	1.5787967
19.6649926140071	2.503042	1.5821005
19.682780885104084	2.537084	1.5928227
19.70056963522921	2.5028074	1.5820264
19.718358864849908	2.461317	1.5688585
19.7361485744337	2.4338222	1.5600712
19.753938764448215	2.4664617	1.5704973
19.771729435361202	2.4681034	1.5710199
19.789520587640506	2.5141106	1.5855947
19.807312221754092	2.5423787	1.5944839
19.825104338170043	2.5591352	1.5997298
19.842896937356517	2.536552	1.5926557
19.860690019781824	2.5055625	1.5828968
19.87848358591436	2.5067751	1.5832798
19.896277636222635	2.4974194	1.5803225
19.914072171175278	2.5152144	1.5859427
19.931867191241015	2.5111663	1.584666
19.94966269688869	2.4971032	1.5802225
19.967458688587264	2.4759617	1.5735189
19.985255166805807	2.470134	1.571666
20.00305213201348	2.4943163	1.5793405
20.020849584679578	2.4961708	1.5799274
20.038647525273507	2.4610078	1.5687599
20.05644595426477	2.4330301	1.5598173
20.07424487212299	2.4348485	1.5604001
20.092044279317903	2.4313707	1.5592853
20.109844176319353	2.441416	1.5625031
20.127644563597304	2.4088624	1.5520511
20.145445441621817	2.420085	1.5556623
20.16324681086307	2.447548	1.5644641
20.181048671791373	2.4545684	1.5667062
20.198851024877122	2.4178648	1.5549484
20.216653870590836	2.4113564	1.5528543
20.234457209403146	2.4101412	1.5524629
20.252261041784802	2.3797257	1.5426359
20.270065368206662	2.37276	1.5403765
20.287870189139685	2.3527288	1.5338608
20.305675505054968	2.341643	1.5302428
20.323481316423702	2.3106918	1.520096
20.341287623717207	2.2767935	1.5089047
20.359094427406884	2.2649348	1.5049701
20.376901727964288	2.272272	1.5074058
20.39470952586107	2.2897313	1.5131859
20.41251782156899	2.3166568	1.5220568
20.430326615559935	2.3513422	1.5334086
20.448135908305886	2.392142	1.5466552
20.465945700278965	2.3440833	1.53104
20.483755991951384	2.3430464	1.5307013
20.50156678379548	2.3428426	1.5306346
20.519378076283708	2.3241932	1.5245305
20.537189869888635	2.3220248	1.5238192
20.55500216508294	2.2878547	1.5125656
20.572814962339415	2.2946942	1.5148247
20.59062826213098	2.331024	1.5267692
20.60844206493066	2.3543997	1.5344054
20.626256371211593	2.379363	1.5425184
20.644071181447032	2.3568177	1.5351931
20.66188649611036	2.3336363	1.5276244
20.67970231567506	2.2923808	1.514061
20.697518640614742	2.3149471	1.521495
20.715335471403122	2.3212671	1.5235705
20.73315280851404	2.3145237	1.5213559
20.750970652421447	2.2978013	1.5158501
20.768789003599412	2.3057122	1.5184572
20.786607862522136	2.3197646	1.5230774
20.8044272296639	2.3081074	1.5192456
20.82224710549913	2.299848	1.516525
20.84006749050237	2.312451	1.5206745
20.857888385148268	3.8463871	1.9612209
20.8757097899116	45.937878	6.7777486
20.893531705267254	64.794685	8.049515
20.911354131690224	83.8182	9.155228
20.92917706965566	69.07129	8.310914
20.94700051963877	50.12077	7.0796022
20.96482448211493	29.409262	5.423031
20.982648957559622	4.1292753	2.0320618
21.00047394644843	2.2789028	1.5096035
21.01829944925707	2.256475	1.5021567
21.036125466461375	2.2414756	1.4971558
21.053951998537297	2.2290244	1.4929918
21.071779045960906	2.257684	1.5025592
21.089606609208378	2.2745738	1.508169
21.10743468875603	2.2393644	1.4964505
21.12526328508028	2.2197392	1.4898789
21.143092398657675	2.225628	1.4918538
21.16092202996488	2.2252333	1.4917216
21.17875217947867	2.2251973	1.4917095
21.19658284767596	2.2376082	1.4958637
21.21441403503377	2.2224758	1.490797
21.232245742029225	2.1881583	1.4792424
21.2500779691396	2.1475306	1.4654455
21.26791071684227	2.168696	1.4726493
21.28574398561475	2.1552105	1.4680635
21.30357777593465	2.1893175	1.4796343
21.321412088279704	2.189759	1.4797834
21.339246923127792	2.1676016	1.4722776
21.357082280956888	2.1319897	1.4601334
21.3749181622451	2.1618323	1.4703171
21.392754567470647	2.1435087	1.4640726
21.41059149711187	2.1452703	1.4646741
21.42842895164726	2.1445158	1.4644165
21.446266931555378	2.1241128	1.4574337
21.464105437314945	2.1075735	1.4517485
21.481944469404798	2.1022496	1.4499136
21.49978402830388	2.1095047	1.4524134
21.51762411449127	2.1066298	1.4514234
21.53546472844617	2.0932357	1.4468019
21.553305870647876	2.097705	1.4483455
21.571147541575865	2.0775037	1.4413548
21.58898974170967	2.0476716	1.4309688
21.60683247152899	2.0264645	1.4235394
21.62467573151363	2.0583699	1.434702
21.642519522143523	2.0720274	1.4394538
21.660363843898722	2.1049418	1.4508418
21.6782086972594	2.0827937	1.4431888
21.696054082705864	2.0658581	1.4373094
21.713900000718535	2.0404716	1.4284507
21.73174645177795	2.0488386	1.4313765
21.749593436364794	2.0498698	1.4317366
21.767440954959845	2.010854	1.4180459
21.785289008044032	1.9916741	1.4112668
21.803137596098388	1.99751	1.4133329
21.820986719604086	1.9921882	1.411449
21.838836379042412	1.9896457	1.410548
21.85668657489478	2.001413	1.414713
21.87453730764273	2.0277166	1.4239792
21.892388577767914	2.0212274	1.4216988
21.91024038575213	2.012321	1.418563
21.928092732077285	2.01162	1.4183159
21.945945617225426	2.0095909	1.4176004
21.963799041678694	1.9843253	1.4086608
21.981653005919398	31.324682	5.5968456
21.999507510429943	78.12554	8.838865
22.01736255569286	73.09041	8.549293
22.035218142190818	4.160871	2.0398214
22.05307427040661	1.9936304	1.4119598
22.07093094082315	1.9862288	1.4093363
22.088788153923474	1.9997305	1.4141183
22.106645910190746	2.0019877	1.4149162
22.12450421010827	2.0397162	1.4281863
22.142363054159464	2.0334828	1.4260024
22.16022244282787	1.9922817	1.4114821
22.178082376597164	1.9815971	1.4076921
22.195942855951145	1.9903941	1.4108133
22.213803881373742	1.997095	1.4131861
22.231665453349002	1.971157	1.403979
22.24952757236111	1.9389514	1.3924624
22.26739023889438	1.9400883	1.3928705
22.28525345343323	1.9625609	1.4009143
22.30311721646225	1.9447289	1.3945353
22.320981528466113	1.9295889	1.3890964
22.33884638992964	1.9339498	1.3906653
22.356711801337788	1.9446927	1.3945224
22.37457776317561	1.9562887	1.3986739
22.392444275928337	1.9688678	1.4031634
22.410311340081282	2.0019379	1.4148985
22.428178956119904	2.0239854	1.4226685
22.446047124529805	1.988879	1.4102762
22.46391584579669	1.9634326	1.4012253
22.481785120406414	1.9407454	1.3931063
22.49965494884496	1.9371768	1.391825
22.51752533159841	1.9633244	1.4011868
22.53539626915302	1.967121	1.4025409
22.553267761995137	1.9603465	1.4001237
22.571139810611264	1.9516245	1.3970056
22.589012415488025	1.9448695	1.3945857
22.60688557711216	1.9266678	1.3880446
22.624759295970566	1.9158343	1.3841367
22.642633572550263	1.9094687	1.3818352
22.660508407338362	1.9335393	1.3905176
22.67838380082217	1.9489719	1.3960558
22.696259753489077	1.9822478	1.4079232
22.714136265826614	1.9906338	1.4108982
22.73201333832246	1.9924803	1.4115524
22.74989097146439	1.976922	1.4060307
22.76776916574035	1.9481851	1.395774
22.785647921638393	1.9433808	1.3940519
22.803527239646712	1.9654579	1.4019479
22.82140712025363	1.9464245	1.3951432
22.839287563947593	1.903793	1.37978
22.85716857121719	1.8847686	1.3728688
22.875050142551135	1.910483	1.3822023
22.892932278438277	1.9366869	1.391649
22.910814979367604	1.9805859	1.4073329
22.928698245828222	1.9772592	1.4061505
22.946582078309387	1.9495329	1.3962567
22.96446647730047	1.919009	1.385283
22.98235144329098	1.9101869	1.3820951
23.000236976770562	1.9306867	1.3894916
23.018123078229	1.9341366	1.3907324
23.03600974815619	1.9226583	1.3865995
23.053896987042194	1.9044863	1.3800312
23.071784795377173	1.8842304	1.3726727
23.08967317365145	1.8666487	1.3662535
23.10756212235546	1.8896855	1.3746583
23.125451641979787	1.90151	1.3789525
23.143341733015134	1.9301121	1.3892847
23.161232395952357	1.9082651	1.3813998
23.179123631282426	1.8710816	1.3678749
23.197015439496468	1.8568558	1.3626649
23.214907821085717	1.8849827	1.3729467
23.23280077654157	1.9275985	1.3883798
23.250694306355538	1.9480498	1.3957255
23.268588411019277	1.9292327	1.3889682
23.28648309102458	1.8966349	1.3771837
23.304378346863356	1.9112828	1.3824915
23.322274179027676	1.9479814	1.395701
23.340170588009723	1.9256414	1.3876748
23.358067574301852	1.9255724	1.38765
23.37596513839651	1.9307128	1.389501
23.39386328078629	1.9284078	1.3886713
23.411762001963947	1.9146973	1.3837259
23.429661302422353	1.9510007	1.3967823
23.4475611826545	1.9899415	1.4106529
23.46546164315356	1.9723767	1.4044133
23.48336268441279	1.9000762	1.3784325
23.501264306925638	1.8305755	1.3529876
23.51916651118564	1.8157791	1.3475084
23.537069297686497	1.8657897	1.3659391
23.554972666922037	1.9064007	1.3807247
23.57287661938623	1.9103311	1.3821473
23.59078115557318	1.9183075	1.3850298
23.608686275977128	1.9056085	1.3804379
23.62659198109246	1.9148564	1.3837833
23.6444982714137	1.9478128	1.3956406
23.66240514743549	1.9528793	1.3974546
23.68031260965263	1.9525199	1.397326
23.698220658560068	1.942359	1.3936853
23.716129294652845	1.9280751	1.3885515
23.7340385184262	1.9078575	1.3812522
23.75194833037546	1.8930054	1.3758653
23.769858730996123	1.905564	1.3804216
23.78776972078382	1.9199036	1.3856059
23.80568130023431	1.937678	1.392005
23.823593469843495	1.923144	1.3867747
23.841506230107424	1.9039904	1.3798516
23.859419581522275	1.9055884	1.3804305
23.87733352458438	1.8815552	1.3716979
23.89524805979019	1.863611	1.3651414
23.913163187636318	1.8607001	1.3640748
23.931078908619508	1.891446	1.3752985
23.948995223236633	1.9734788	1.4048057
23.966912131984735	2.0441759	1.4297467
23.98482963536096	2.0685828	1.4382569
24.002747733862616	2.0016994	1.4148142
24.020666427987155	2.000924	1.4145403
24.038585718232156	2.0336313	1.4260545
24.056505605095353	2.0506551	1.4320109
24.074426089074617	2.0861788	1.444361
24.092347170667946	2.1068997	1.4515164
24.110268850373515	2.0739725	1.4401293
24.128191128689586	2.0467725	1.4306545
24.146114006114626	2.012431	1.4186018
24.164037483147187	2.0172367	1.4202946
24.181961560286005	2.066594	1.4375652
24.199886238029926	2.091421	1.4461746
24.21781151687797	2.0612226	1.4356959
24.235737397329274	2.0423117	1.4290947
24.253663879883135	2.0121188	1.4184917
24.271590965038975	2.0337687	1.4261026
24.289518653296376	2.049626	1.4316516
24.30744694515505	2.102416	1.4499711
24.32537584111486	2.1035953	1.4503776
24.34330534167581	2.1142683	1.4540523
24.361235447338046	2.052304	1.4325864
24.379166158601876	2.0171447	1.4202622
24.39709747596772	2.0078995	1.4170038
24.41502939993615	2.0167131	1.4201102
24.432961931007917	2.030026	1.4247898
24.450895069683856	1.9972249	1.4132321
24.468828816465	1.9532629	1.3975918
24.4867631718525	1.912957	1.3830968
24.504698136347656	1.9277188	1.3884231
24.52263371045192	1.9525026	1.3973198
24.540569894666874	1.9679425	1.4028337
24.558506689494266	1.939092	1.3925128
24.57644409543597	1.9360557	1.3914222
24.594382112994012	1.903995	1.3798532
24.61232074267057	1.9084347	1.3814611
24.630259984967953	1.9107268	1.3822904
24.64819984038863	1.8774123	1.3701869
24.66614030943522	1.9337965	1.3906101
24.684081392610462	1.9631126	1.4011112
24.702023090417274	1.980532	1.4073138
24.7199654033587	1.9847536	1.4088129
24.737908331937927	1.9527062	1.3973926
24.755851876658305	1.9330852	1.3903544
24.773796038023324	1.9471655	1.3954087
24.79174081653661	1.9870112	1.4096138
24.809686212701962	1.9958589	1.4127487
24.827632227023294	2.0235882	1.4225287
24.8455788600047	2.0856838	1.4441897
24.8635261121504	2.1292264	1.4591869
24.88147398396475	2.1387892	1.4624599
24.899422475952303	2.1184192	1.455479
24.917371588617698	2.1341574	1.4608755
24.935321322465768	2.1743584	1.4745705
24.953271678001478	2.285172	1.5116786
24.97122265572994	2.472077	1.572284
24.989174256156414	2.7845154	1.6686867
25.00712647978632	3.2886376	1.8134601
25.02507932712521	3.8436837	1.9605315
25.043032798678798	4.4092507	2.0998216
25.060986894952933	5.0931	2.2567897
25.078941616453637	5.855034	2.4197178
25.096896963687055	6.855182	2.6182404
25.114852937159508	7.952361	2.819993
25.132809537377444	8.435874	2.9044576
25.150766764847468	8.331217	2.8863847
25.168724620076347	7.650699	2.7659898
25.186683103570985	6.603195	2.5696683
25.204642215838426	5.4612966	2.3369417
25.222601957385894	4.100806	2.0250447
25.24056232872074	3.1506755	1.7750143
25.25852333035048	2.5588222	1.5996319
25.276484962782778	2.271091	1.5070139
25.294447226525435	2.1304674	1.4596121
25.312410122086423	2.0210643	1.4216413
25.330373649973843	1.9526696	1.3973795
25.348337810695988	1.9675477	1.402693
25.366302604761245	1.9606781	1.4002422
25.384268032678207	1.9246962	1.3873342
25.40223409495558	1.8946611	1.3764669
25.420200792102257	1.8969163	1.3772858
25.438168124627246	1.9314915	1.3897811
25.45613609303974	1.9481585	1.3957645
25.474104697849057	1.9376572	1.3919976
25.492073939564698	1.9006408	1.3786373
25.510043818696285	1.9215761	1.3862092
25.528014335753614	1.9313276	1.3897221
25.54598549124664	1.9124135	1.3829004
25.56395728568544	1.8554825	1.3621609
25.58192971958028	1.8419155	1.3571719
25.59990279344156	1.8290861	1.3524371
25.617876507779833	1.8482656	1.3595093
25.635850863105826	1.8862208	1.3733976
25.653825859930386	1.8407495	1.3567423
25.671801498764548	1.8336916	1.3541387
25.68977778011949	1.8527254	1.3611486
25.707754704506524	1.9036123	1.3797146
25.725732272437153	1.8733494	1.3687036
25.743710484423012	1.8793691	1.3709009
25.761689340975888	1.8309914	1.3531413
25.77966884260774	1.8045292	1.3433276
25.797648989830662	1.8087769	1.3449078
25.815629783156922	1.8254699	1.3510995
25.83361122309895	1.831221	1.3532262
25.85159331016929	1.8631777	1.3649826
25.869576044880695	1.8570737	1.3627449
25.887559427746034	1.8684762	1.3669221
25.90554345927836	1.9132982	1.3832202
25.92352813999086	1.9276712	1.388406
25.94151347039689	1.9164972	1.3843762
25.959499451009965	1.8630346	1.3649303
25.97748608234374	1.8414286	1.3569925
25.995473364912062	1.8330826	1.3539138
26.013461299228904	1.8686519	1.3669864
26.03144988580839	1.8969005	1.3772801
26.04943912516483	1.9056939	1.3804687
26.067429017812675	1.8844378	1.3727483
26.085419564266537	1.8355742	1.3548336
26.103410765041186	1.8208011	1.3493706
26.12140262065155	1.8401968	1.3565385
26.139395131612723	1.8663645	1.3661495
26.157388298439948	1.8852658	1.3730499
26.17538212164861	1.8892076	1.3744845
26.193376601754295	1.8582472	1.3631754
26.211371739272714	1.8231298	1.3502332
26.229367534719746	1.8153149	1.3473362
26.247363988611433	1.8500565	1.3601679
26.26536110146397	1.878321	1.3705186
26.283358873793727	1.8732214	1.3686568
26.301357306117204	1.8512679	1.3606131
26.319356398951104	1.8406305	1.3566984
26.33735615281224	1.8178705	1.3482842
26.35535656821762	1.8413434	1.3569611
26.373357645684404	1.8144865	1.3470287
26.39135938572991	1.7794393	1.3339562
26.409361788871614	1.7577395	1.3257977
26.427364855627165	1.8032624	1.342856
26.445368586514352	1.8724196	1.3683639
26.46337298205115	1.8617828	1.3644717
26.48137804275568	1.8263971	1.3514426
26.499383769146217	1.7935439	1.3392326
26.517390161741215	1.800406	1.3417921
26.53539722105928	1.8064196	1.3440311
26.553404947619182	1.8202457	1.3491648
26.571413341939856	1.8530797	1.3612787
26.589422404540397	1.8423111	1.3573177
26.60743213594006	1.8410974	1.3568704
26.62544253665827	1.82137	1.3495814
26.64345360721459	1.8220202	1.3498223
26.66146534812879	1.8066896	1.3441316
26.679477759920758	1.8503052	1.3602593
26.69749084311057	1.864383	1.3654242
26.71550459821847	1.8584467	1.3632486
26.733519025764842	1.8570162	1.3627238
26.751534126270258	1.858	1.3630848
26.769549900255434	1.8528483	1.3611937
26.787566348241267	1.8312342	1.3532311
26.80558347074881	1.8297482	1.3526819
26.823601268299267	1.8264489	1.3514618
26.841619741414036	1.8146869	1.3471031
26.85963889061465	1.7921484	1.3387115
26.877658716422832	1.8026781	1.3426385
26.89567921936045	1.8024052	1.3425368
26.913700399949544	1.7962015	1.3402244
26.93172225871233	1.7365329	1.3177757
26.949744796171174	1.7153531	1.3097149
26.967768012848605	1.7453005	1.3210982
26.98579190926733	1.7347213	1.3170882
27.003816485950225	1.7154844	1.309765
27.021841743420318	1.7603917	1.3267975
27.039867682200814	1.8221829	1.3498826
27.057894302815072	1.8522718	1.360982
27.07592160578664	1.87315	1.3686306
27.0939495916392	1.8321526	1.3535703
27.111978260896635	1.7808969	1.3345025
27.13000761408296	1.7383729	1.3184737
27.148037651722397	1.7604464	1.3268181
27.166068374339304	1.8430555	1.3575917
27.184099782458215	1.8807675	1.3714107
27.20213187660384	1.872733	1.3684783
27.22016465730105	1.8378015	1.3556553
27.23819812507487	1.768438	1.3298264
27.256232280450533	1.7637137	1.3280488
27.274267123953383	1.8384911	1.3559097
27.292302656108987	1.9062856	1.3806831
27.31033887744306	1.8712444	1.3679343
27.32837578848146	1.8173453	1.3480895
27.34641338975026	1.8002403	1.3417304
27.364451681775673	1.8081659	1.3446805
27.382490665084074	1.8376975	1.355617
27.400530340202046	1.8117034	1.3459953
27.41857070765629	1.8358649	1.3549409
27.436611767973726	1.8325897	1.3537318
27.454653521681404	1.8499035	1.3601116
27.472695969306564	1.8616881	1.364437
27.490739111376627	1.8588798	1.3634074
27.508782948419153	1.8643262	1.3654033
27.526827480961902	1.8339088	1.3542188
27.54487270953279	1.8263482	1.3514245
27.562918634659898	1.8231395	1.3502369
27.580965256871508	1.7942783	1.3395067
27.599012576696026	1.7815757	1.3347567
27.617060594662068	1.7868282	1.336723
27.63510931129842	1.8250883	1.3509582
27.65315872713401	1.7799212	1.3341368
27.67120884269797	1.7591603	1.3263334
27.68925965851958	1.7552545	1.3248602
27.707311175128307	1.8240308	1.3505669
27.725363393053787	1.9041909	1.3799242
27.74341631282583	1.9352075	1.3911173
27.7614699349744	1.8822764	1.3719608
27.77952426002968	2.0609198	1.4355904
27.797579288521973	2.1374745	1.4620105
27.815635020981784	2.5513601	1.5972978
27.83369145793979	2.6029124	1.6133544
27.85174859992682	2.3956802	1.5477985
27.869806447473923	2.2200482	1.4899826
27.887865001112267	1.9740736	1.4050173
27.905924261373233	1.8855122	1.3731395
27.92398422878836	1.8634427	1.3650798
27.94204490388936	1.8303181	1.3528925
27.96010628720813	1.8355308	1.3548176
27.978168379276728	1.8700498	1.3674977
27.9962311806274	1.8639364	1.3652606
28.014294691792568	1.8250359	1.3509389
28.0323589133048	1.8277107	1.3519285
28.050423845696887	1.8165681	1.3478012
28.068489489501758	1.8670835	1.3664126
28.086555845252523	1.8998797	1.3783612
28.104622913482487	1.8806294	1.3713604
28.122690694725115	1.8252411	1.3510149
28.14075918951405	1.8835974	1.3724421
28.15882839838312	1.9098518	1.3819739
28.176898321866304	1.8921108	1.3755401
28.1949689604978	1.8925889	1.375714
28.213040314811945	1.9202405	1.3857274
28.23111238534327	1.9332639	1.3904186
28.249185172626493	1.9388748	1.3924348
28.267258677196473	1.9193047	1.3853897
28.285332899588294	1.9206331	1.385869
28.303407840337172	1.9297091	1.3891397
28.321483499978545	1.9622095	1.4007889
28.33955987904799	1.9866942	1.4095014
28.357636978081285	1.990322	1.4107877
28.37571479761439	1.9478792	1.3956645
28.393793338183425	1.9138423	1.3834169
28.41187260032469	1.9513046	1.396891
28.429952584574686	2.0214508	1.4217774
28.448033291470065	2.0258873	1.4233366
28.46611472154769	2.0392194	1.4280124
28.484196875344566	2.039991	1.4282825
28.502279753397914	2.0642729	1.4367578
28.52036335624511	2.033721	1.426086
28.538447684423716	2.0268147	1.4236624
28.556532738471482	2.0112484	1.4181849
28.574618518926325	2.0203063	1.4213748
28.59270502632635	2.0082302	1.4171203
28.61079226120985	1.9916373	1.4112538
28.628880224115274	1.9769971	1.4060574
28.646968915581287	1.9982663	1.4136004
28.66505833614671	2.0112484	1.4181849
28.68314848635055	1.988468	1.4101305
28.701239366732004	2.0011487	1.4146197
28.71933097783044	2.0232008	1.4223926
28.737423320185403	2.049076	1.4314594
28.75551639433665	2.0954998	1.4475842
28.773610200824074	2.1230807	1.4570795
28.791704740187793	2.1249743	1.4577291
28.80980001296809	2.1277523	1.4586817
28.827896019705413	2.1048388	1.4508063
28.845992760940433	2.1098623	1.4525365
28.86409023721397	2.1490042	1.4659482
28.88218844906704	2.1988244	1.4828434
28.900287397040845	2.2346563	1.4948767
28.918387081676755	2.2486963	1.4995654
28.936487503516343	2.252255	1.5007515
28.954588663101365	2.2616625	1.5038825
28.97269056097374	2.312066	1.520548
28.990793197675597	2.3862505	1.5447494
29.00889657374923	2.347922	1.5322931
29.027000689737125	2.3225794	1.5240011
29.04510554618196	2.358994	1.5359017
29.06321114362659	2.4268782	1.557844
29.08131748261405	2.4685502	1.5711621
29.099424563687567	2.4614725	1.5689081
29.11753238739057	2.5247579	1.5889486
29.13564095426663	2.568229	1.6025695
29.15375026485954	2.5602617	1.6000818
29.171860319713275	2.5926244	1.6101629
29.18997111937199	2.687623	1.6393971
29.20808266438002	2.6998217	1.6431134
29.226194955281898	2.6890233	1.6398242
29.244307992622335	2.7334886	1.6533265
29.26242177694624	2.838307	1.6847275
29.2805363087987	2.8558526	1.6899269
29.29865158872498	2.830345	1.6823629
29.316767617270557	2.825138	1.6808147
29.334884394981064	2.8635826	1.6922123
29.353001922402367	2.9488714	1.7172278
29.37112020008047	3.092618	1.7585841
29.389239228561596	3.2624664	1.80623
29.407359008392152	3.415982	1.8482375
29.42547954011872	3.770853	1.9418684
29.44360082428809	4.451485	2.1098542
29.46172286144722	5.6662426	2.380387
29.479845652143283	7.409727	2.7220814
29.497969196923606	9.506142	3.083203
29.516093496335728	12.286705	3.5052397
29.5342185509274	15.291074	3.9103804
29.55234436124651	17.62845	4.1986246
29.570470927841175	18.7179	4.326419
29.588598251259686	18.30493	4.278426
29.60672633205055	16.743841	4.0919237
29.624855170762405	14.450347	3.801361
29.642984767944146	11.625413	3.409606
29.66111512414481	8.821813	2.9701536
29.67924623991366	6.460737	2.541798
29.697378115800138	4.9661417	2.2284842
29.71551075235387	4.1450763	2.0359461
29.733644150124675	3.6916397	1.9213641
29.751778309662576	3.5000231	1.8708348
29.769913231517766	3.4215024	1.8497304
29.78804891624066	3.3816411	1.8389239
29.806185364381818	3.4158027	1.848189
29.82432257649206	3.393867	1.8422451
29.842460553122333	3.37787	1.8378983
29.86059929482382	3.3391452	1.8273329
29.878738802147872	3.274376	1.8095237
29.896879075646048	3.2385387	1.799594
29.915020115870114	3.2631547	1.8064204
29.933161923371976	3.2815487	1.8115046
29.951304498703777	3.240658	1.8001828
29.969447842417857	3.1997616	1.7887877
29.987591955066733	3.2798243	1.8110285
30.005736837203123	3.2754679	1.8098254
30.023882489379943	3.198718	1.788496
30.04202891215028	3.2367742	1.7991037
30.060176106067455	3.2239263	1.7955295
30.078324071684946	3.1815908	1.7837014
30.09647280955646	3.1920457	1.7866297
30.114622320235863	3.2371578	1.7992103
30.132772604277257	3.1790173	1.7829798
30.1509236622349	3.0480475	1.7458658
30.16907549466328	3.0280933	1.7401417
30.18722810211705	3.082164	1.7556093
30.205381485151097	3.0700905	1.7521673
30.22353564432045	3.0494676	1.7462724
30.241690580180403	3.057544	1.7485834
30.25984629328638	3.0645149	1.7505755
30.278002784194037	3.0843108	1.7562206
30.296160053459246	3.0965116	1.7596908
30.314318101638033	3.0202444	1.737885
30.332476929286646	2.9726067	1.7241249
30.35063653696153	2.9449153	1.7160755
30.368796925219307	3.0218854	1.7383571
30.386958094616844	3.0597298	1.7492083
30.40512004571115	2.9955018	1.7307518
30.423282779059463	2.9532948	1.7185153
30.441446295219233	2.8711715	1.6944531
30.459610594748067	2.8696177	1.6939946
30.47777567820382	2.9321697	1.7123579
30.495941546144504	2.9134154	1.7068729
30.51410819912835	2.8653164	1.6927246
30.532275637713795	2.8700767	1.6941301
30.55044386245946	2.8652334	1.6927
30.56861287392416	2.8585384	1.6907213
30.586782672666956	2.8340805	1.6834728
30.604953259247047	2.7895532	1.6701956
30.623124634223885	2.741748	1.6558225
30.641296798157075	2.7755346	1.6659936
30.659469751606462	2.7562616	1.6601993
30.677643495132074	2.7171865	1.6483891
30.695818029294152	2.7351112	1.6538172
30.713993354653116	2.809434	1.6761366
30.73216947176962	2.8255773	1.6809454
30.75034638120448	2.8455606	1.6868789
30.768524083518756	2.8285558	1.6818311
30.786702579273673	2.7444632	1.6566422
30.80488186903069	2.729475	1.6521122
30.82306195335144	2.892508	1.7007375
30.841242832797782	3.1565166	1.7766588
30.85942450793176	3.4581606	1.8596131
30.877606979315637	3.8232236	1.9553065
30.895790247511883	4.263728	2.0648797
30.913974313083134	4.698128	2.1675167
30.932159176592283	5.0565677	2.2486813
30.95034483860237	5.0708933	2.2518644
30.968531299676698	4.7931304	2.189322
30.98671856037873	4.4193125	2.102216
31.00490662127215	3.9987917	1.9996979
31.023095482920848	3.4495814	1.8573049
31.04128514588892	3.010386	1.7350464
31.059475610740662	2.6987371	1.6427834
31.07766687804056	2.5854542	1.6079347
31.09585894835335	2.5848234	1.6077386
31.11405182224393	2.5831077	1.6072049
31.132245500277417	2.4957173	1.5797839
31.15043998301914	2.500961	1.5814427
31.168635271034628	2.5219822	1.588075
31.18683136488964	2.464457	1.5698589
31.20502826515008	2.499974	1.5811306
31.223225972382135	2.4657843	1.5702816
31.241424487152155	2.3416197	1.5302352
31.259623810026692	2.3541403	1.5343208
31.27782394157253	2.4801114	1.574837
31.296024882356644	2.4475515	1.5644653
31.314226632946237	2.3740797	1.5408049
31.332429193908684	2.4051244	1.5508463
31.350632565811598	2.436411	1.5609007
31.368836749222787	2.4767215	1.5737603
31.387041744710295	2.5750406	1.6046933
31.40524755284232	2.5980277	1.6118399
31.423454174187317	2.5250366	1.5890363
31.441661609313922	2.4828067	1.5756924
31.459869858791002	2.5106628	1.5845071
31.478078923187628	2.4845574	1.5762479
31.496288803073064	2.3813977	1.5431778
31.514499499016807	2.3194082	1.5229603
31.532711011588546	2.2633321	1.5044374
31.550923341358178	2.2706137	1.5068556
31.56913648889584	2.245221	1.4984062
31.587350454771844	2.2715056	1.5071515
31.605565239556732	2.2917469	1.5138516
31.62378084382127	2.2512884	1.5004294
31.641997268136382	2.2331014	1.4943565
31.660214513073274	2.251941	1.5006468
31.67843257920331	2.2626963	1.5042261
31.6966514670981	2.31375	1.5211016
31.71487117732944	2.32318	1.5241982
31.733091710469346	2.3050766	1.5182478
31.751313067090052	2.323083	1.5241663
31.769535247764008	2.3875217	1.5451608
31.787758253063878	2.3275652	1.525636
31.805982083562526	2.2686155	1.5061923
31.824206739833024	2.2030382	1.4842635
31.84243222244869	2.2178135	1.4892325
31.860658531983013	2.1780949	1.475837
31.878885669009737	2.1149266	1.4542787
31.897113634102784	2.1359117	1.4614758
31.91534242783632	2.207282	1.4856925
31.933572050784694	2.2764125	1.5087785
31.951802503522508	2.3199072	1.5231241
31.970033786624548	2.2724595	1.5074679
31.988265900665834	2.2367713	1.4955839
32.006498846221575	2.2155154	1.4884608
32.02473262386724	2.1706302	1.4733058
32.04296723417845	2.1314325	1.4599427
32.0612026777311	2.1098125	1.4525194
32.07943895510129	2.1462588	1.4650116
32.097676066865304	2.1555128	1.4681665
32.115914013599685	2.1289923	1.4591067
32.13415279588115	2.0875738	1.4448439
32.152392414286666	2.0881453	1.4450417
32.1706328693934	2.1066751	1.451439
32.18887416177875	2.1027682	1.4500924
32.20711629202032	2.0726793	1.4396802
32.225359260695924	2.1046145	1.450729
32.243603068383614	2.1571195	1.4687135
32.26184771566166	2.112055	1.453291
32.28009320310852	2.0856893	1.4441916
32.2983395313029	2.0912104	1.4461018
32.31658670082372	2.2067645	1.4855182
32.33483471225012	2.2232766	1.4910656
32.35308356616143	2.2437341	1.4979099
32.371333263137245	2.1533074	1.4674152
32.38958380375734	2.1273072	1.4585291
32.407835188601744	2.148718	1.4658506
32.42608741825067	2.142499	1.4637277
32.444340493284585	2.0533595	1.4329548
32.46259441428416	1.9920192	1.4113891
32.48084918183028	2.0243104	1.4227827
32.49910479650405	2.050078	1.4318093
32.51736125888683	2.1148727	1.4542602
32.53561856956014	2.1212704	1.4564582
32.5538767291058	2.0377042	1.4274818
32.572135738105764	1.9846429	1.4087735
32.59039559714228	2.0123873	1.4185864
32.608656306797776	2.058982	1.4349153
32.62691786765491	2.0452087	1.430108
32.645180280296586	1.9356434	1.391274
32.663443545305896	1.9205468	1.3858379
32.68170766326619	2.016942	1.4201908
32.69997263476099	2.145247	1.4646661
32.7182384603741	2.166694	1.4719694
32.7365051406895	2.0640993	1.4366974
32.75477267629144	1.9903095	1.4107833
32.77304106776434	1.9961294	1.4128444
32.79131031569289	1.9624268	1.4008664
32.809580420661966	1.950616	1.3966446
32.827851383256714	1.9363822	1.3915395
32.84612320406245	1.9786713	1.4066526
32.86439588366476	2.0333633	1.4259605
32.88266942264945	2.1148949	1.4542679
32.9009438216025	2.171252	1.473517
32.9192190811102	2.1078186	1.4518329
32.937495201758985	2.0254638	1.4231879
32.95577218413556	2.0328789	1.4257907
32.974050028826866	1.9517078	1.3970354
32.992328736420035	1.8968627	1.3772664
33.010608307502444	1.9779087	1.4063815
33.02888874266169	2.0657	1.4372543
33.047170042485604	2.108584	1.4520963
33.06545220756225	2.0820189	1.4429202
33.083735238479896	2.004128	1.4156723
33.10201913582707	1.940167	1.3928988
33.12030390019248	1.9035543	1.3796935
33.138589532165135	1.8447028	1.3581984
33.15687603233419	1.8843144	1.3727033
33.17516340128909	1.9707311	1.4038273
33.19345163961947	1.9893875	1.4104565
33.211740747915215	1.899409	1.3781905
33.23003072676643	1.9202282	1.385723
33.248321576763466	1.9694827	1.4033825
33.266613298496885	2.027992	1.4240758
33.28490589255747	2.0749795	1.4404789
33.30319935953626	2.137317	1.4619565
33.32149370002451	2.1204042	1.4561608
33.339788914613706	1.9987576	1.4137743
33.358085003895575	1.9296799	1.3891292
33.376381968462034	1.9404052	1.3929843
33.39467980890529	1.9556674	1.3984518
33.41297852581774	1.9402347	1.3929231
33.43127811979204	2.043197	1.4294044
33.44957859142105	2.1244893	1.4575628
33.467879941297866	2.115394	1.4544394
33.486182170015844	2.0355022	1.4267102
33.50448527816853	1.9488516	1.3960128
33.522789266349754	1.9313656	1.3897358
33.541094135153514	1.9376824	1.3920066
33.55939988517411	1.9117365	1.3826556
33.57770651700602	1.7900143	1.3379141
33.59601403124398	1.6964122	1.3024639
33.61432242848296	1.8471991	1.359117
33.632631709318154	1.9685705	1.4030576
33.650941874344994	1.9388939	1.3924417
33.66925292415916	1.9466915	1.3952389
33.68756485935654	1.9110607	1.3824112
33.70587768053328	1.9078469	1.3812484
33.724191388285746	1.8301378	1.3528259
33.74250598321054	1.8910655	1.3751602
33.760821465904506	2.030758	1.4250467
33.77913783696474	2.0506485	1.4320085
33.79745509698852	2.0135338	1.4189904
33.815773246573414	1.9556977	1.3984627
33.8340922863172	1.8967519	1.3772261
33.852412216817896	1.8945007	1.3764086
33.87073303867377	1.8920189	1.3755068
33.889054752483304	1.8645507	1.3654855
33.907377358845245	1.9002305	1.3784885
33.92570085835853	2.007973	1.4170296
33.94402525162239	2.0987656	1.4487118
33.96235053923627	2.133217	1.4605536
33.980676721799824	2.0191133	1.4209551
33.999003799912984	1.936932	1.391737
34.01733177417592	1.9153684	1.3839684
34.03566064518901	1.9467795	1.3952703
34.0539904135529	1.9477433	1.3956157
34.07232107986846	1.8970398	1.3773307
34.090652644736785	1.9350667	1.3910668
34.108985108759235	1.8605767	1.3640296
34.12731847253742	1.7838788	1.3356192
34.14565273667313	1.7779068	1.3333817
34.16398790176847	1.9823451	1.4079578
34.18232396842574	2.0227094	1.4222199
34.20066093724749	1.9043671	1.3799881
34.21899880883651	1.9465266	1.3951797
34.23733758379583	2.1192274	1.4557567
34.25567726272874	2.151406	1.4667672
34.27401784623872	1.9310544	1.3896238
34.29235933492957	1.9033641	1.3796246
34.31070172940526	2.0529678	1.4328182
34.32904503027003	2.0903115	1.445791
34.347389238128386	1.96325	1.4011602
34.36573435358502	1.8645774	1.3654953
34.38408037724492	1.9424722	1.393726
34.402427309713296	2.03916	1.4279916
34.42077515159559	1.9342549	1.390775
34.43912390349752	1.9246602	1.3873212
34.45747356602499	2.1296124	1.4593191
34.47582413978423	2.0466285	1.4306042
34.49417562538163	1.9888957	1.4102821
34.51252802342388	1.9169533	1.3845408
34.53088133451789	1.9297572	1.389157
34.54923555927084	1.9524223	1.3972911
34.567590698290104	1.9911798	1.4110917
34.58594675218336	2.0349102	1.4265028
34.6043037215585	2.0716703	1.4393299
34.62266160702365	2.1065412	1.4513929
34.641020409187234	1.8679408	1.3667263
34.65938012865785	1.78029	1.3342751
34.677740766044394	1.8954643	1.3767586
34.69610232195598	2.035997	1.4268836
34.714464797002016	2.0641708	1.4367223
34.73282819179208	1.9968921	1.4131143
34.751192506936064	1.9543166	1.3979688
34.76955774304408	1.9789261	1.406743
34.7879239007265	2.058441	1.4347268
34.80629098059391	2.1242719	1.4574882
34.824658983257194	2.1051416	1.4509106
34.843027909327446	1.9394027	1.3926244
34.86139775941603	1.9470484	1.3953668
34.879768534134534	2.092353	1.4464968
34.89814023409483	1.9906596	1.4109074
34.91651285990901	1.9162223	1.3842769
34.93488641218944	2.0956109	1.4476225
34.95326089154871	2.10429	1.4506171
34.97163629859967	1.9741563	1.4050467
34.99001263395542	1.9453695	1.394765
35.00838989822934	2.0213552	1.4217438
35.02676809203499	2.163189	1.4707783
35.04514721598624	2.0093424	1.4175128
35.063527270697215	1.7960635	1.340173
35.081908256782256	1.6859083	1.2984253
35.10029017485597	1.6558487	1.2867979
35.11867302553321	1.9126526	1.3829869
35.137056809429104	2.1600783	1.4697205
35.155441527159006	2.0707507	1.4390104
35.173827179338524	1.9156036	1.3840533
35.19221376658354	1.9025345	1.379324
35.21060128951017	1.9304228	1.3893965
35.2289897487348	1.8912103	1.3752128
35.24737914487405	2.0510912	1.4321631
35.26576947854479	1.9265102	1.3879879
35.28416075036418	1.7393682	1.3188511
35.30255296094958	1.875689	1.369558
35.32094611091867	1.9216748	1.3862449
35.33934020088932	1.7172774	1.3104494
35.35773523147969	2.0697207	1.4386524
35.3761312033082	2.4854386	1.5765274
35.394528116993506	2.2498705	1.4999568
35.41292597315452	2.1286104	1.4589758
35.431324772410434	2.2066822	1.4854906
35.449724515380666	2.012961	1.4187886
35.46812520268491	1.9483588	1.3958362
35.486526834943106	1.9703398	1.403688
35.504929412775454	1.9006172	1.3786287
35.52333293680242	2.0749176	1.4404575
35.54173740764471	2.1654031	1.4715309
35.560142825923286	2.0623085	1.436074
35.5785491922594	1.7797388	1.3340685
35.59695650727454	1.9053009	1.3803264
35.61536477159042	2.1756063	1.4749936
