0.008763373481513119	0.56609195	0.7523908
0.026290120649546365	0.18888974	0.43461448
0.043816868432600686	0.0908709	0.30144802
0.06134361724069026	0.0	0.0
0.07887036748382949	0.0	0.0
0.0963971195720331	0.0	0.0
0.11392387391531617	0.0044514057	0.066718854
0.1314506309236943	0.04786056	0.21877056
0.1489773910071836	0.14599812	0.382097
0.16650415457580078	0.21159685	0.45999658
0.18403092203956356	0.22332726	0.47257513
0.20155769380849	0.17587416	0.41937354
0.2190844702925996	0.17951556	0.42369276
0.2366112519019124	0.19450875	0.44103146
0.2541380390464497	0.23388569	0.4836173
0.27166483213623416	0.1937859	0.4402112
0.28919163158128947	0.14552073	0.38147178
0.3067184377916406	0.113047495	0.33622536
0.324245251177314	0.13508333	0.36753684
0.34177207214833777	0.17116864	0.41372532
0.3592989011147415	0.1606652	0.40083063
0.37682573848655654	0.11292046	0.3360364
0.39435258467381573	0.09478261	0.30786785
0.41187944008655414	0.11832815	0.3439886
0.42940630513480854	0.12421531	0.35244194
0.446933180228618	0.13051695	0.3612713
0.4644600657780234	0.13330685	0.3651121
0.48198696219306775	0.1503719	0.38777816
0.49951386988379676	0.17807981	0.42199504
0.5170407892602581	0.18608797	0.43137914
0.5345677207325025	0.14064673	0.37502897
0.5520946647105822	0.11752775	0.3428232
0.5696216216045534	0.09205667	0.3034084
0.5871485918244737	0.11209451	0.3348052
0.6046755757804043	0.1303599	0.36105388
0.6222025738824094	0.1295004	0.35986164
0.6397295865405557	0.1493373	0.38644186
0.6572566141649129	0.15403979	0.39247903
0.6747836571655547	0.19211179	0.4383056
0.6923107159525568	0.17641039	0.42001238
0.7098377909359992	0.18733515	0.43282232
0.7273648825259653	0.185623	0.4308399
0.7448919911325411	0.22228332	0.4714693
0.762419117165817	0.23275599	0.48244792
0.7799462610358868	0.22464505	0.47396734
0.7974734231528482	0.19667062	0.4434756
0.8150006039268024	0.16353872	0.40439922
0.8325278037678551	0.17145103	0.41406646
0.8500550230861152	0.16313833	0.40390387
0.8675822622916969	0.15610753	0.39510447
0.8851095217947171	0.16473351	0.40587378
0.9026368020052984	0.18031645	0.42463684
0.9201641033335665	0.16286118	0.40356064
0.9376914261896523	0.16994281	0.4122412
0.9552187709836915	0.16844554	0.41042116
0.9727461381258234	0.19548512	0.44213697
0.990273528026193	0.21614587	0.46491492
1.0078009410949496	0.23061329	0.48022214
1.0253283777422473	0.24534427	0.49532238
1.0428558383782454	0.26025137	0.5101484
1.0603833234131086	0.26497233	0.51475465
1.0779108332570058	0.33660004	0.5801724
1.0954383683201119	0.32412705	0.5693216
1.112965929012607	0.3572309	0.59768796
1.1304935157446763	0.41704246	0.64578825
1.1480211289265108	0.45420656	0.67394847
1.1655487689683062	1.2610945	1.1229846
1.1830764362802655	1.5538237	1.2465247
1.200604131272596	1.9438878	1.3942338
1.2181318543555117	2.4120102	1.5530648
1.235659605939232	2.5038283	1.582349
1.253187386433982	4.1650257	2.0408394
1.270715196249994	6.605984	2.570211
1.2882430357975057	12.023064	3.467429
1.3057709054867608	16.781303	4.096499
1.3232988057280106	22.484741	4.741808
1.3408267369315112	27.380676	5.2326546
1.358354699507526	31.037687	5.571148
1.3758826938663256	35.44655	5.9537005
1.3934107204181858	37.7215	6.141783
1.410938779573391	38.43234	6.1993823
1.4284668717422309	38.855087	6.233385
1.4459949973350033	38.241543	6.1839747
1.4635231567620117	38.277107	6.1868496
1.4810513504335687	37.083923	6.0896573
1.4985795787599925	36.28788	6.023942
1.5161078421516088	35.615265	5.9678526
1.5336361410187505	34.902348	5.9078207
1.5511644757717598	34.8714	5.905201
1.5686928468209842	35.412773	5.9508634
1.58622125457678	36.2979	6.024774
1.6037496994495108	37.6373	6.1349244
1.621278181849548	37.398735	6.1154504
1.6388067021872719	37.754837	6.1444964
1.6563352608730693	37.267147	6.1046824
1.673863858317336	36.81383	6.06744
1.6913924949304753	36.26562	6.0220942
1.7089211711228998	35.189514	5.932075
1.7264498873050296	34.002045	5.831127
1.7439786438872935	32.877483	5.733889
1.7615074412801288	31.851099	5.6436777
1.779036279893981	31.660246	5.626744
1.796565160139305	30.769287	5.547007
1.814094082426564	30.312181	5.50565
1.8316230471662298	29.568926	5.4377317
1.849152054768784	28.497316	5.338288
1.8666811056447168	27.86551	5.2787795
1.8842102002045273	26.713137	5.168475
1.901739338858724	26.375296	5.1356883
1.9192685220178245	25.757086	5.075144
1.9367977500923557	25.3462	5.034501
1.9543270234928547	24.769644	4.976911
1.971856342629867	24.26217	4.9256644
1.9893857079139496	23.541866	4.851996
2.006915119755667	22.819664	4.7769933
2.0244445785655945	22.337305	4.726236
2.0419740847543175	21.970276	4.6872463
2.0595036387324317	21.656593	4.6536646
2.0770332409105414	21.063599	4.5895095
2.094562891699263	20.636118	4.5426993
2.1120925915092217	20.137861	4.487523
2.129622340751053	19.934128	4.464765
2.1471521398354043	188.21484	13.719142
2.1646819891729323	444.67172	21.08724
2.182211889174303	440.59967	20.990467
2.1997418402501974	453.05286	21.285038
2.2172718428113023	433.11783	20.811483
2.234801897268317	321.28418	17.924402
2.2523320040319548	17.709986	4.2083235
2.269862163512935	17.104393	4.1357455
2.287392376121992	16.56868	4.070464
2.304922642269869	16.226583	4.0282235
2.322452962367322	15.898549	3.9872985
2.3399833368251164	15.539484	3.9420152
2.357513766054032	15.373668	3.9209268
2.3750442504648586	15.136149	3.8905206
2.3925747904683963	14.810856	3.8484874
2.410105386475459	14.27937	3.7788055
2.4276360388968707	14.021069	3.7444718
2.445166748143469	14.152643	3.7619998
2.4626975146261025	14.116828	3.7572367
2.4802283387556323	13.871408	3.724434
2.4977592209429305	13.440601	3.6661425
2.5152901615988825	13.191406	3.6319976
2.5328211611343865	13.025555	3.6090934
2.5503522199603523	12.820912	3.58063
2.5678833384877024	12.694403	3.5629206
2.5854145171273712	12.425184	3.5249374
2.6029457562903064	12.16126	3.4872997
2.620477056387469	11.946517	3.4563735
2.6380084178298326	11.712324	3.4223273
2.655539841028383	11.680211	3.4176323
2.673071326394119	11.608835	3.407174
2.6906028743380523	11.352458	3.369341
2.708134485271211	11.073372	3.3276677
2.7256661596046325	10.845943	3.293318
2.743197897749369	10.812824	3.288286
2.760729700116486	10.660526	3.2650461
2.778261567117063	10.513897	3.242514
2.795793499162193	10.441511	3.2313328
2.8133254966629817	10.326023	3.213413
2.830857560030551	10.083918	3.1755185
2.8483896896760337	9.837256	3.13644
2.865921886010578	9.556242	3.0913172
2.883454149445347	9.350753	3.0579
2.9009864803915177	9.246659	3.040832
2.91851887926028	9.020741	3.003455
2.9360513464628384	9.038317	3.0063794
2.953583882410413	9.016422	3.0027359
2.9711164875142373	9.051853	3.0086298
2.9886491621855606	8.903414	2.9838588
3.0061819068356455	8.835692	2.9724894
3.023714721875769	8.601889	2.9328976
3.041247607717225	8.480885	2.912196
3.0587805647713213	8.350462	2.8897166
3.0763135934493806	8.166134	2.8576448
3.0938466941627407	8.075274	2.8417027
3.1113798673227544	7.9367447	2.8172228
3.1289131133407904	7.8755503	2.8063412
3.1464464326282315	7.7529674	2.784415
3.1639798255964786	7.674617	2.77031
3.1815132926569443	7.6176424	2.7600076
3.1990468342210603	7.5978956	2.756428
3.216580450700272	7.5324545	2.7445316
3.2341141425060416	7.3127303	2.704206
3.251647910049847	7.1781664	2.67921
3.2691817537431813	7.0868254	2.6621091
3.286715673997555	7.0693274	2.6588206
3.3042496712244938	7.0976596	2.6641433
3.32178374583554	6.9856133	2.6430311
3.339317898242251	6.840125	2.6153634
3.3568521288562034	6.8677692	2.620643
3.3743864380889876	6.876034	2.6222193
3.3919208263522127	6.9195685	2.6305072
3.4094552940575023	6.799416	2.607569
3.4269898416164972	6.753235	2.5986986
3.444524469440858	6.666646	2.581985
3.4620591779422587	6.681299	2.584821
3.479593967532391	6.658062	2.580322
3.4971288386229658	6.6192226	2.572785
3.5146637916257086	6.4916716	2.547876
3.5321988269523628	6.2782497	2.5056436
3.5497339450146903	6.2166667	2.4933245
3.5672691462244708	6.1918163	2.488336
3.5848044309934988	6.2348366	2.4969654
3.60233979973359	6.44388	2.5384798
3.619875252856575	6.4577537	2.5412111
3.6374107907743034	6.405476	2.5309043
3.6549464138986427	6.25156	2.500312
3.6724821226414788	6.1507673	2.4800742
3.690017917414714	6.265961	2.5031903
3.7075537986302702	6.4042687	2.5306656
3.7250897667000857	6.4975576	2.5490308
3.7426258220361235	6.578835	2.564924
3.7601619650503553	6.760148	2.6000285
3.777698196154779	7.289846	2.6999714
3.7952345157614067	8.339194	2.8877664
3.8127709242822716	9.079055	3.013147
3.830307422129425	11.181642	3.3438962
3.847844009714936	29.99572	5.476835
3.8653806874508954	97.58197	9.878359
3.882917455749409	96.954765	9.846561
3.900454315022606	96.85785	9.841639
3.917991265682631	41.462196	6.4391146
3.9355283081416506	11.164445	3.3413239
3.9530654428118495	9.025894	3.0043125
3.970602670105433	7.7985983	2.792597
3.9881399904346244	6.8730493	2.6216502
4.005677404211669	6.6929936	2.5870821
4.023214911848827	6.53816	2.5569825
4.0407525137583855	6.510985	2.5516632
4.058290210352644	6.474597	2.544523
4.075828002043927	6.4228764	2.5343394
4.0933658892445814	6.252955	2.500591
4.110903872366966	6.1544466	2.4808156
4.128441951823468	6.0732536	2.4643972
4.145980128026488	6.200953	2.4901712
4.163518401388452	6.2271886	2.4954336
4.181056772321807	6.3026733	2.5105126
4.1985952412390155	6.2231092	2.494616
4.216133808552567	6.2009387	2.4901683
4.233672474674966	6.2662067	2.5032392
4.251211240018741	6.5144053	2.5523334
4.268750104996445	6.744488	2.5970151
4.286289070020643	7.6916685	2.7733858
4.303828135503928	9.344269	3.0568397
4.3213673018589125	29.6988	5.4496603
4.3389065694982305	90.90725	9.53453
4.356445938834537	166.0542	12.886202
4.3739854102805085	171.83809	13.108703
4.391524984248844	172.7387	13.143009
4.409064661152262	136.80125	11.696207
4.426604441403504	97.00331	9.849026
4.444144325415337	75.99926	8.717755
4.461684313600543	21.954334	4.6855454
4.47922440637193	22.293848	4.7216363
4.496764604142329	20.406202	4.5173225
4.5143049073245916	18.575253	4.3099017
4.531845316331589	16.479383	4.0594807
4.5493858315762195	13.771909	3.7110522
4.566926453471405	11.422172	3.3796704
4.584467182430081	9.552968	3.0907876
4.602008018865218	8.435884	2.9044595
4.619548963189798	7.675328	2.7704382
4.637090015816834	7.0952353	2.6636882
4.654631177159353	6.8253307	2.6125333
4.672172447630417	6.602527	2.5695384
4.689713827643102	6.4047165	2.530754
4.7072553176105085	6.1326084	2.4764104
4.724796917945764	5.9334135	2.43586
4.742338629062015	5.8214207	2.412762
4.759880451372434	5.7640214	2.4008377
4.777422385290215	5.7044086	2.3883903
4.794964431228581	5.6947856	2.386375
4.812506589600768	5.5704384	2.3601775
4.830048860820047	5.4980097	2.3447835
4.847591245299709	5.5228143	2.350067
4.8651337434530655	5.550308	2.355909
4.882676355693457	5.5510507	2.3560667
4.900219082434242	5.523282	2.3501663
4.917761924088813	5.4966974	2.3445036
4.935304881070575	5.5796647	2.3621314
4.952847953792969	5.665969	2.3803296
4.970391142669449	5.689631	2.3852947
4.9879344481135055	5.6042485	2.3673294
5.005477870538642	5.5450525	2.3547935
5.023021410358394	5.5323043	2.352085
5.040565067986324	5.554259	2.3567476
5.05810884383601	5.560206	2.3580089
5.075652738321066	5.500483	2.345311
5.09319675185512	5.389733	2.32158
5.110740884851836	5.3774633	2.3189359
5.128285137724894	5.3945932	2.3226264
5.145829510888007	5.352253	2.3134937
5.163374004754908	5.402757	2.3243833
5.1809186197393595	5.410256	2.3259957
5.198463356255145	5.449011	2.3343117
5.216008214716077	5.394722	2.322654
5.233553195535998	5.319472	2.306398
5.251098299128764	5.3358274	2.309941
5.268643525908272	5.3274074	2.3081176
5.286188876288432	5.350816	2.313183
5.3037343506831895	5.3922005	2.3221111
5.32127994950651	5.3944545	2.3225965
5.3388256731723915	5.347611	2.3124902
5.356371522094851	5.2834377	2.298573
5.373917496687938	5.3416624	2.3112037
5.391463597365729	5.4151692	2.3270516
5.40900982454232	5.4234047	2.3288205
5.426556178631843	5.3590117	2.3149538
5.444102660048449	5.2566314	2.2927344
5.4616492692063225	5.208366	2.2821844
5.479196006519669	5.1885824	2.277846
5.496742872402727	5.180296	2.2760262
5.514289867269756	5.193399	2.278903
5.531836991535049	5.1908183	2.2783368
5.549384245612924	5.1835146	2.2767334
5.566931629917724	5.1111307	2.260781
5.584479144863822	5.0646276	2.2504728
5.6020267908656205	5.045752	2.2462752
5.619574568337545	5.1063676	2.2597272
5.637122477694054	5.1205053	2.2628534
5.654670519349629	5.1254873	2.263954
5.672218693718784	5.109441	2.2604072
5.689767001216059	5.119865	2.2627118
5.707315442256021	5.170672	2.2739112
5.724864017253266	5.209093	2.2823439
5.7424127266224225	5.2113724	2.282843
5.75996157077814	5.2476954	2.2907848
5.777510550135105	5.249553	2.2911904
5.795059665108022	5.264833	2.2945223
5.812608916111639	5.2804723	2.2979279
5.830158303560715	5.398089	2.3233788
5.847707827870055	5.377389	2.31892
5.86525748945448	5.391492	2.3219585
5.8828072887288485	5.5025177	2.3457446
5.900357226108044	5.5812435	2.3624656
5.917907302006979	5.662312	2.3795614
5.9354575168406	6.1267705	2.4752314
5.9530078710238765	6.7001762	2.58847
5.970558364971812	7.20979	2.6851053
5.988108999099438	7.4980288	2.7382529
6.005659773821818	8.09589	2.8453279
6.023210689554039	7.9069576	2.8119314
6.040761746711227	8.332288	2.8865702
6.058312945708531	7.705003	2.7757888
6.075864286961132	7.2978253	2.7014487
6.093415770884244	6.6294427	2.5747705
6.1109673978931065	6.1536093	2.4806468
6.128519168402993	5.583003	2.362838
6.146071082829204	5.493647	2.343853
6.163623141587075	5.3980117	2.323362
6.181175345091969	5.3336186	2.3094628
6.198727693759281	5.2468276	2.2905955
6.216280188004435	5.2055154	2.28156
6.233832828242885	5.196792	2.2796474
6.251385614890126	5.264216	2.2943878
6.268938548361669	5.2400994	2.2891264
6.286491629073067	5.171907	2.2741828
6.304044857439898	5.0717635	2.2520576
6.321598233877777	5.032366	2.2432935
6.339151758802344	4.9814134	2.231908
6.356705432629277	4.9867296	2.2330987
6.37425925577428	4.967325	2.2287498
6.391813228653095	5.0093102	2.238149
6.409367351681486	5.0483108	2.2468445
6.426921625275259	5.073101	2.2523546
6.44447604985025	5.045627	2.2462473
6.46203062582232	5.0099335	2.2382882
6.47958535360737	4.9708047	2.22953
6.497140233621328	4.9800897	2.2316115
6.514695266280161	5.089244	2.2559352
6.532250451999859	5.1595173	2.2714572
6.549805791196454	5.1339593	2.265824
6.567361284286002	5.0691686	2.2514815
6.584916931684597	4.9686503	2.229047
6.602472733808367	5.005636	2.2373278
6.6200286910734665	4.979929	2.2315755
6.637584803896092	5.0301824	2.242807
6.655141072692462	5.0422854	2.2455034
6.672697497878842	5.049354	2.2470767
6.690254079871514	5.008926	2.238063
6.707810819086808	4.9551725	2.2260218
6.725367715941078	4.9477324	2.22435
6.742924770850719	5.0288486	2.2425094
6.760481984232151	5.071969	2.2521033
6.778039356501836	5.088539	2.255779
6.795596888076266	4.9907074	2.2339892
6.813154579371963	4.97708	2.230937
6.830712430805492	4.9832625	2.2323222
6.84827044279344	5.0163875	2.2397294
6.865828615752445	5.0105505	2.238426
6.883386950099159	5.0877695	2.2556086
6.900945446250287	5.070374	2.251749
6.918504104622553	5.072572	2.252237
6.936062925632727	5.044002	2.2458856
6.953621909697607	5.065875	2.2507498
6.971181057234028	5.0769534	2.2532096
6.988740368658859	5.17003	2.27377
7.006299844389007	5.250504	2.2913978
7.023859484841407	5.3676853	2.3168266
7.041419290433036	5.379446	2.3193634
7.058979261580902	5.520235	2.349518
7.0765393987020495	5.7309184	2.3939338
7.094099702213559	6.196011	2.489179
7.111660172532549	6.5725265	2.563694
7.129220810076164	6.942222	2.6348097
7.146781615261595	7.5051107	2.7395458
7.16434258850606	7.676763	2.770697
7.181903730226821	8.134848	2.8521655
7.1994650408411704	8.225489	2.8680112
7.217026520766437	8.334595	2.8869698
7.234588170419983	8.564961	2.9265954
7.252149990219215	8.540393	2.922395
7.269711980581568	8.478666	2.911815
7.2872741419245175	8.324965	2.8853014
7.304836474665574	7.8842754	2.8078952
7.322398979222286	7.4940352	2.7375236
7.339961656012233	7.2008777	2.6834452
7.357524505453039	6.8141565	2.610394
7.375087527962357	6.5572515	2.560713
7.392650723957886	6.2560186	2.5012035
7.410214093857353	5.9119678	2.431454
7.427777638078528	5.6827626	2.3838546
7.445341357039213	5.4889293	2.3428464
7.4629052511572525	5.375604	2.3185349
7.480469320850524	5.2991824	2.3019953
7.498033566536948	5.224764	2.2857742
7.5155979886344735	5.223653	2.2855313
7.5331625875610975	5.1561937	2.2707255
7.550727363734844	5.2236876	2.285539
7.568292317573788	5.2496524	2.291212
7.585857449496025	5.2968645	2.3014917
7.603422759919705	5.282899	2.2984557
7.620988249263007	5.2426176	2.2896764
7.638553917944147	5.2090573	2.282336
7.656119766381391	5.1994014	2.2802196
7.673685794993023	5.242789	2.2897136
7.691252004197388	5.2698483	2.295615
7.70881839441285	5.235822	2.2881918
7.726384966057826	5.2597914	2.2934234
7.743951719550762	5.3101907	2.3043852
7.761518655310149	5.3193507	2.3063717
7.779085773754511	5.3223143	2.3070142
7.796653075302419	5.3191895	2.3063369
7.814220560372475	5.3140936	2.3052318
7.831788229383323	5.3231177	2.3071883
7.8493560827536495	5.359265	2.3150086
7.866924120902174	5.3836756	2.3202748
7.884492344247663	5.3599486	2.3151562
7.9020607532089135	5.3392677	2.3106856
7.919629348204771	5.3300657	2.3086934
7.937198129654115	5.3565483	2.314422
7.954767097975865	5.355911	2.314284
7.972336253588986	5.343473	2.3115954
7.989905596912472	5.32456	2.3075008
8.007475128365371	5.368116	2.3169196
8.025044848366756	5.485125	2.3420343
8.042614757335754	5.6004686	2.366531
8.060184855691523	5.742211	2.396291
8.07775514385327	5.848789	2.418427
8.095325622240228	5.880096	2.424891
8.112896291271687	5.8736215	2.4235556
8.130467151366968	5.901104	2.4292188
8.148038202945436	5.9614706	2.4416122
8.165609446426497	5.955746	2.4404397
8.183180882229594	5.992884	2.448037
8.200752510774217	5.970778	2.4435174
8.218324332479893	6.0193267	2.4534316
8.235896347766193	6.001216	2.449738
8.253468557052724	5.9949346	2.4484556
8.27104096075914	6.027804	2.4551587
8.288613559305137	6.12198	2.4742637
8.306186353110448	6.1914206	2.4882565
8.32375934259485	6.248494	2.4996989
8.341332528178162	6.2279706	2.4955902
8.358905910280246	6.23312	2.4966216
8.376479489321003	6.1986766	2.4897141
8.394053265720377	6.2708955	2.5041757
8.411627239898356	6.3148174	2.5129302
8.42920141227497	6.293774	2.5087395
8.44677578327029	6.219125	2.4938173
8.464350353304427	6.107736	2.4713833
8.48192512279754	6.1532164	2.4805677
8.499500092169827	6.1774273	2.485443
8.51707526184153	6.166256	2.4831946
8.534650632232934	6.1694503	2.4838378
8.552226203764365	6.230742	2.4961455
8.569801976856192	6.285942	2.507178
8.587377951928834	6.345438	2.5190153
8.60495412940274	6.3391685	2.5177705
8.622530509698416	6.356962	2.5213017
8.6401070932364	6.420963	2.5339618
8.657683880437283	6.461796	2.5420063
8.675260871721695	6.5917783	2.5674458
8.692838067510303	6.746902	2.5974798
8.710415468223834	6.9399385	2.6343763
8.727993074283043	7.1397605	2.672033
8.745570886108737	7.165056	2.6767623
8.763148904121765	7.2749557	2.6972127
8.78072712874302	7.305589	2.7028854
8.798305560393441	7.6089463	2.758432
8.815884199494006	7.68814	2.7727494
8.833463046465745	7.807552	2.7941997
8.851042101729728	7.9283686	2.8157358
8.86862136570707	8.285163	2.8783958
8.886200838818924	8.4530325	2.90741
8.903780521486505	8.477685	2.9116464
8.921360414131055	8.527005	2.9201035
8.938940517173874	8.655986	2.9421058
8.956520831036297	8.910049	2.9849706
8.97410135613971	9.223873	3.037083
8.99168209290554	9.303488	3.0501618
9.009263041755265	9.480425	3.0790298
9.026844203110405	9.67019	3.1096928
9.044425577392525	9.800056	3.1305041
9.062007165023239	9.933872	3.1518047
9.079588966424197	10.186619	3.1916482
9.097170982017108	10.343387	3.2161136
9.11475321222372	11.3144045	3.3636892
9.132335657465825	12.205522	3.4936402
9.149918318165264	12.279192	3.5041678
9.167501194743924	12.703082	3.5641384
9.18508428762374	12.401275	3.5215445
9.202667597226693	12.379	3.5183802
9.220251123974803	12.090302	3.4771113
9.237834868290143	11.827471	3.439109
9.255418830594836	11.679718	3.4175603
9.273003011311046	11.167667	3.341806
9.290587410860985	10.872026	3.2972755
9.308172029666911	10.22019	3.1969032
9.32575686815113	10.024702	3.166181
9.343341926735997	8.869983	2.9782517
9.360927205843916	8.659242	2.942659
9.378512705897327	8.433457	2.9040415
9.396098427318728	8.292371	2.8796477
9.413684370530664	8.150649	2.8549342
9.431270535955722	8.01731	2.8314855
9.448856924016539	7.9159284	2.813526
9.466443535135806	7.796357	2.7921958
9.484030369736251	7.8285837	2.7979605
9.501617428240658	7.811266	2.7948642
9.519204711071852	7.7911634	2.7912655
9.536792218652714	7.817514	2.7959816
9.55437995140617	7.799519	2.7927618
9.571967909755191	7.8205028	2.7965162
9.589556094122802	7.799974	2.7928433
9.60714450493207	7.8070664	2.794113
9.624733142606116	7.8137646	2.7953112
9.642322007568108	7.8859296	2.8081896
9.659911100241267	7.9984136	2.8281467
9.677500421048851	8.030403	2.8337965
9.695089970414175	8.04921	2.837113
9.712679748760609	8.065297	2.8399467
9.730269756511557	8.138525	2.85281
9.747859994090492	8.146072	2.8541324
9.765450461920915	8.150971	2.8549907
9.78304116042639	8.188085	2.8614829
9.800632090030527	8.258509	2.8737621
9.81822325115699	8.349526	2.8895547
9.835814644229481	8.378246	2.89452
9.853406269671762	8.372452	2.893519
9.870998127907646	8.286021	2.878545
9.888590219360985	8.273805	2.8764222
9.906182544455698	8.279554	2.8774214
9.923775103615734	8.288189	2.8789215
9.941367897265108	8.370795	2.8932326
9.958960925827878	8.439476	2.9050777
9.97655418972816	8.489769	2.9137208
9.994147689390106	8.360732	2.891493
10.011741425237934	8.210599	2.8654144
10.029335397695904	8.205916	2.864597
10.04692960718833	8.235079	2.8696828
10.06452405413958	8.306291	2.8820636
10.082118738974064	8.30988	2.8826864
10.099713662116246	8.313764	2.8833597
10.117308823990651	8.30182	2.8812878
10.134904225021844	8.317045	2.8839288
10.152499865634445	8.24658	2.871686
10.170095746253125	8.21267	2.8657756
10.18769186730261	8.16861	2.858078
10.205288229207675	8.1875725	2.8613935
10.222884832393145	8.184073	2.860782
10.2404816772839	8.2403145	2.8705947
10.258078764304868	8.207714	2.8649108
10.275676093881035	8.15912	2.8564172
10.293273666437438	8.083997	2.843237
10.310871482399158	8.112818	2.848301
10.32846954219134	8.069007	2.8405998
10.346067846239173	8.046333	2.836606
10.363666394967908	7.984818	2.825742
10.38126518880283	8.05015	2.8372786
10.398864228169298	8.160967	2.8567407
10.416463513492713	8.219264	2.866926
10.434063045198531	8.207503	2.8648741
10.451662823712262	8.21302	2.8658369
10.469262849459467	8.279343	2.8773847
10.486863122865758	8.2028675	2.864065
10.504463644356806	8.138907	2.8528771
10.522064414358338	8.04385	2.8361683
10.539665433296118	7.938793	2.8175864
10.557266701595987	7.869682	2.8052952
10.574868219683818	7.7855835	2.7902658
10.592469987985552	7.707661	2.7762675
10.610072006927185	7.6623096	2.7680876
10.627674276934751	7.5333195	2.7446892
10.64527679843435	7.460942	2.7314725
10.662879571852143	7.346805	2.710499
10.680482597614331	7.2116857	2.6854582
10.698085876147173	7.0691876	2.6587944
10.715689407876988	6.965187	2.639164
10.733293193230146	6.887886	2.6244783
10.750897232633072	6.699123	2.5882664
10.76850152651225	6.597193	2.5685
10.786106075294207	6.5378485	2.5569217
10.803710879405534	6.577264	2.5646176
10.821315939272877	6.4888773	2.5473275
10.83892125532294	6.42912	2.5355709
10.856526827982472	6.362102	2.5223207
10.874132657678285	6.284563	2.5069032
10.891738744837243	6.2143173	2.4928532
10.909345089886271	6.1859417	2.4871554
10.926951693252343	6.2126465	2.4925182
10.944558555362494	6.201373	2.4902556
10.96216567664381	6.080551	2.4658773
10.979773057523436	5.936821	2.4365592
10.997380698428573	5.8630643	2.4213765
11.014988599786477	5.7798157	2.4041247
11.032596762024461	5.720468	2.39175
11.050205185569892	5.661937	2.3794825
11.067813870850198	5.6156483	2.369736
11.085422818292859	5.5500007	2.355844
11.10303202832541	5.4449935	2.333451
11.120641501375454	5.3915524	2.3219717
11.138251237870636	5.3369813	2.3101907
11.155861238238671	5.3570952	2.31454
11.173471502907317	5.24501	2.2901986
11.191082032304402	5.1899066	2.2781367
11.208692826857805	5.0339756	2.2436523
11.226303886995465	4.9760714	2.230711
11.243915213145371	4.9000115	2.213597
11.261526805735578	4.8631554	2.2052562
11.279138665194196	4.8567276	2.2037985
11.296750791949393	4.856093	2.2036545
11.314363186429393	4.8459587	2.2013538
11.331975849062479	4.78185	2.1867442
11.34958878027699	4.6828904	2.1639986
11.36720198050133	4.5946684	2.1435177
11.384815450163948	4.523719	2.1269035
11.402429189693366	4.4591804	2.1116772
11.420043199518153	4.4611197	2.1121364
11.437657480066942	63.521725	7.970052
11.455272031768422	85.23696	9.232387
11.472886855051353	107.555984	10.37092
11.490501950344528	99.10115	9.954956
11.508117318076819	84.456116	9.190001
11.52573295867715	45.84854	6.771155
11.543348872574514	4.185477	2.0458438
11.560965060197946	4.1313815	2.03258
11.57858152197655	4.1139936	2.0282981
11.59619825833949	4.0738816	2.018386
11.613815269715985	3.9880834	1.9970186
11.631432556535323	38.4892	6.2039666
11.649050119226837	82.97848	9.109252
11.666667958219929	93.37252	9.662946
11.68428607394406	107.65876	10.375874
11.701904466828756	82.493965	9.082619
11.719523137303586	65.381226	8.085866
11.737142085798196	4.5644894	2.1364665
11.754761312742286	3.6809337	1.918576
11.772380818565619	3.651151	1.9107985
11.790000603698015	3.6780922	1.9178354
11.80762066856935	3.6793165	1.9181545
11.825241013609572	3.626161	1.9042481
11.842861639248683	3.573879	1.8904706
11.860482545916748	3.5071964	1.872751
11.878103734043883	3.4493012	1.8572295
11.895725204060282	3.429622	1.8519238
11.91334695639619	3.4129663	1.8474215
11.930968991481919	3.4078438	1.8460346
11.948591309747824	3.38631	1.8401929
11.966213911624347	3.374124	1.8368789
11.98383679754198	3.327747	1.8242114
12.001459967931268	3.316708	1.8211832
12.019083423222835	3.2659347	1.8071897
12.036707163847352	3.2257876	1.7960478
12.05433119023556	3.2383006	1.7995279
12.071955502818259	3.276789	1.8101903
12.089580102026313	3.2583928	1.8051019
12.107204988290643	3.213932	1.7927443
12.12483016204224	3.1807995	1.7834796
12.142455623712152	3.1760855	1.7821575
12.16008137373149	3.1655903	1.7792106
12.177707412531431	3.1317365	1.7696713
12.19533374054321	3.0859492	1.756687
12.212960358198126	3.0653312	1.7508087
12.230587265927545	3.0821872	1.755616
12.248214464162889	3.044088	1.7447314
12.265841953335649	3.0163937	1.7367768
12.283469733877375	2.9829905	1.7271336
12.301097806219685	2.9739265	1.7245076
12.31872617079425	2.9602628	1.7205415
12.336354828032825	2.9084902	1.7054297
12.353983778367205	2.8746586	1.6954818
12.371613022229262	2.8656952	1.6928364
12.389242560050928	2.8832188	1.6980044
12.406872392264201	2.8927357	1.7008045
12.424502519301143	2.8822994	1.6977336
12.442132941593874	2.8860471	1.698837
12.459763659574586	2.882944	1.6979234
12.477394673675532	2.8803322	1.6971542
12.49502598432903	2.8328514	1.6831076
12.51265759196746	2.7942562	1.6716028
12.530289497023267	2.7414143	1.6557217
12.547921699928967	2.7377107	1.6546029
12.565554201117134	2.7596507	1.6612196
12.583187001020404	2.7682598	1.6638088
12.600820100071486	2.7903886	1.6704457
12.618453498703152	2.7686698	1.6639321
12.636087197348235	2.7566857	1.660327
12.65372119643964	2.7415323	1.6557573
12.671355496410326	2.7677126	1.6636443
12.68899009769333	2.8293552	1.6820687
12.706625000721749	2.866348	1.6930293
12.724260205928752	2.9591427	1.7202159
12.741895713747551	2.9749804	1.7248131
12.759531524611454	3.007562	1.7342324
12.777167638953818	2.9853756	1.727824
12.794804057208072	2.979515	1.7261271
12.812440779807702	3.0235837	1.7388455
12.830077807186271	3.2403882	1.8001078
12.847715139777405	3.2842839	1.8122593
12.865352778014795	3.4763265	1.864491
12.882990722332197	3.5871658	1.8939815
12.90062897316344	3.6538513	1.911505
12.918267530942412	3.7086606	1.9257883
12.935906396103071	3.5577486	1.8861995
12.953545569079449	3.7212665	1.9290584
12.971185050305628	3.5725229	1.8901119
12.988824840215775	3.5694902	1.8893094
13.006464939244115	3.5826607	1.8927917
13.024105347824943	3.4481397	1.8569167
13.041746066392617	3.5476525	1.8835213
13.05938709538157	3.3677306	1.8351377
13.077028435226296	3.409056	1.846363
13.094670086361363	3.301327	1.8169554
13.112312049221401	3.210713	1.7918463
13.129954324241112	3.0809402	1.7552607
13.147596911855258	2.9066086	1.7048779
13.165239812498685	2.8628087	1.6919837
13.182883026606293	2.7772245	1.6665007
13.200526554613058	2.7618523	1.6618822
13.218170396954017	2.743453	1.6563373
13.235814554064284	2.7569327	1.6604013
13.253459026379034	2.7594936	1.6611724
13.271103814333523	2.72979	1.6522076
13.288748918363058	2.7248688	1.6507176
13.306394338903031	2.7384796	1.6548352
13.32404007638889	2.7444103	1.6566262
13.341686131256164	2.7421074	1.655931
13.359332503940449	2.6987839	1.6427976
13.376979194877402	2.6687794	1.6336399
13.394626204502751	2.673624	1.6351221
13.412273533252307	2.63989	1.6247739
13.429921181561937	2.6322074	1.6224079
13.447569149867581	2.6595712	1.6308192
13.465217438605247	2.7379858	1.654686
13.482866048211022	2.7332485	1.6532539
13.500514979121052	2.7385333	1.6548514
13.518164231771568	2.6902378	1.6401944
13.535813806598844	2.6486168	1.6274571
13.553463704039254	2.6286218	1.6213025
13.571113924529229	2.675822	1.635794
13.588764468505275	2.6987457	1.6427859
13.606415336403956	2.7324438	1.6530105
13.624066528661917	2.7542043	1.6595795
13.641718045715882	2.8344524	1.6835831
13.659369888002635	2.8676624	1.6934174
13.67702205595903	2.926926	1.710826
13.694674550021993	2.9627466	1.721263
13.712327370628532	3.0165932	1.7368343
13.729980518215713	3.102182	1.7613012
13.747633993220681	3.204208	1.7900301
13.765287796080647	3.2691877	1.8080895
13.7829419272329	3.2810895	1.8113778
13.800596387114801	3.267988	1.8077577
13.818251176163775	3.2926238	1.8145589
13.835906294817324	3.3514028	1.8306837
13.853561743513023	3.4197052	1.8492445
13.871217522688525	3.4675639	1.8621396
13.888873632781538	3.4771538	1.8647128
13.906530074229858	3.468649	1.8624309
13.92418684747135	3.4865878	1.8672407
13.941843952943948	3.5220053	1.8767006
13.959501391085665	3.5531712	1.8849857
13.977159162334578	3.4565134	1.8591701
13.994817267128846	3.399955	1.8438967
14.012475705906693	3.2737215	1.8093429
14.030134479106424	3.2143383	1.7928575
14.047793587166414	3.1583085	1.777163
14.065453030525108	3.1162705	1.7652962
14.083112809621026	3.0675943	1.751455
14.100772924892766	2.99267	1.7299335
14.118433376778997	2.9420805	1.7152494
14.136094165718458	2.857988	1.6905586
14.153755292149969	2.7934732	1.6713687
14.171416756512416	2.7148876	1.6476916
14.189078559244768	2.6599443	1.6309335
14.20674070078606	2.5974665	1.6116657
14.224403181575408	2.5545456	1.5982946
14.242066002051999	2.5537906	1.5980583
14.259729162655093	2.5487351	1.5964758
14.277392663824022	2.4947555	1.5794795
14.295056505998208	2.3957882	1.5478334
14.312720689617128	2.3956745	1.5477966
14.330385215120348	2.4081292	1.5518148
14.348050082947497	2.4206324	1.5558381
14.3657152935383	2.4253051	1.5573391
14.383380847332528	2.4447577	1.563572
14.401046744770051	2.4134035	1.5535133
14.418712986290798	2.3994617	1.5490196
14.436379572334793	2.3841908	1.5440825
14.454046503342123	2.4098296	1.5523626
14.471713779752946	2.3962727	1.5479898
14.489381402007504	2.3821886	1.543434
14.507049370546113	2.3706176	1.539681
14.524717685809168	2.3518014	1.5335584
14.542386348237134	2.3671627	1.5385586
14.560055358270553	2.393522	1.5471011
14.577724716350051	2.4066205	1.5513287
14.595394422916325	2.4282935	1.5582982
14.61306447841015	2.4714	1.5720687
14.63073488327237	2.4972408	1.580266
14.648405637943917	2.5128453	1.5851957
14.6660767428658	2.497593	1.5803775
14.683748198479094	2.5431712	1.5947323
14.701420005224954	2.5511904	1.5972446
14.719092163544628	2.5972319	1.611593
14.73676467387942	2.592938	1.6102602
14.754437536670727	2.631923	1.6223203
14.772110752360014	2.6503966	1.6280038
14.78978432138882	2.673328	1.6350315
14.807458244198777	2.7049017	1.6446586
14.82513252123159	2.7166426	1.6482241
14.842807152929028	2.7261784	1.6511143
14.860482139732962	2.706632	1.6451845
14.87815748208531	2.700081	1.6431924
14.8958331804281	2.6698334	1.6339625
14.91350923520342	2.6455245	1.6265068
14.931185646853438	2.6718354	1.634575
14.948862415820408	2.654243	1.6291847
14.966539542546656	2.650608	1.6280688
14.98421702747459	2.640265	1.6248893
15.001894871046696	2.6766758	1.636055
15.019573073705542	2.7203925	1.6493613
15.037251635893766	2.7083192	1.6456971
15.054930558054092	2.7168355	1.6482826
15.072609840629323	2.7845726	1.6687039
15.090289484062351	2.9517472	1.7180649
15.107969488796124	3.2620103	1.8061036
15.125649855273691	3.679451	1.9181895
15.14333058393817	4.1878605	2.0464263
15.161011675232768	5.1670537	2.2731154
15.17869312960076	6.5510535	2.5595026
15.196374947485506	8.42228	2.9021165
15.214057129330447	11.488559	3.3894777
15.231739675579114	16.024645	4.0030794
15.249422586675102	20.89317	4.5709047
15.267105863062092	23.851784	4.8838286
15.284789505183847	23.989578	4.897916
15.302473513484218	21.709446	4.6593394
15.320157888407127	18.159851	4.261438
15.337842630396578	14.151127	3.7617984
15.355527739896656	11.094206	3.3307965
15.37321321735153	8.678411	2.9459143
15.39089906320545	6.427754	2.5353014
15.408585277902748	4.8841286	2.2100065
15.42627186188783	3.8108957	1.9521515
15.443958815605198	3.2842355	1.812246
15.461646139499424	2.9388204	1.7142988
15.479333834015168	2.765553	1.6629952
15.497021899597165	2.7035394	1.6442443
15.514710336690234	2.6648943	1.6324505
15.53239914573928	2.667137	1.6331371
15.550088327189297	2.63495	1.6232529
15.567777881485336	2.5738406	1.6043193
15.58546780907256	2.5169754	1.5864978
15.6031581103962	2.5034175	1.5822191
15.620848785901568	2.49401	1.5792434
15.638539836034063	2.4623985	1.5692031
15.656231261239173	2.448347	1.5647194
15.673923061962451	2.4170089	1.5546732
15.691615238649552	2.4026017	1.5500329
15.709307791746202	2.41441	1.5538372
15.727000721698221	2.4492772	1.5650166
15.744694028951498	2.435059	1.5604676
15.76238771395202	2.4156709	1.5542428
15.780081777145844	2.4147015	1.553931
15.797776218979125	2.4134922	1.5535418
15.815471039898094	2.395021	1.5475855
15.833166240349064	2.3923957	1.5467371
15.850861820778437	2.3774805	1.541908
15.868557781632699	2.389192	1.5457011
15.886254123358412	2.3872924	1.5450865
15.903950846402232	2.3806355	1.5429308
15.921647951210897	2.36003	1.5362389
15.939345438231225	2.3774488	1.5418978
15.957043307910133	2.4223986	1.5564057
15.974741560694602	2.4260426	1.5575758
15.992440197031714	2.4121816	1.55312
16.01013921736862	2.4080675	1.5517949
16.02783862215259	2.394522	1.5474243
16.045538411830933	2.3742561	1.5408621
16.06323858685107	2.3862596	1.5447522
16.080939147660512	2.3948154	1.5475191
16.09864009470684	2.3973215	1.5483286
16.11634142843774	2.36963	1.5393603
16.134043149300954	2.3989978	1.5488698
16.15174525774433	2.4310508	1.5591828
16.169447754215817	2.440506	1.5622119
16.18715063916342	2.4122486	1.5531415
16.204853913035244	2.4091847	1.5521549
16.222557576279478	2.436293	1.5608629
16.240261629344403	22.432823	4.73633
16.257966072678386	42.96929	6.5550966
16.275670906729868	38.079777	6.1708813
16.293376131947387	2.527904	1.5899384
16.31108174877957	2.5138285	1.5855057
16.328787757675133	2.5389361	1.5934039
16.34649415908287	2.5565155	1.5989107
16.364200953451657	2.5760295	1.6050014
16.38190814123048	2.6088927	1.6152067
16.39961572286839	2.65107	1.6282107
16.41732369881455	2.7121358	1.6468563
16.43503206951817	2.7690372	1.6640425
16.45274083542859	2.7947433	1.6717485
16.47044999699522	2.8287704	1.6818949
16.488159554667558	2.8591483	1.6909016
16.505869508895184	2.8953075	1.7015604
16.523579860127786	2.8882444	1.6994835
16.541290608815117	2.926551	1.7107166
16.559001755407035	2.998897	1.7317324
16.57671330035348	3.0899925	1.7578374
16.59442524410448	3.1427796	1.7727886
16.61213758711015	3.1731627	1.7813374
16.629850329820705	3.2338698	1.7982963
16.647563472686436	3.3429732	1.82838
16.665277016157724	3.4136481	1.8476061
16.682990960685053	3.4575615	1.8594519
16.70070530671898	3.4832294	1.8663412
16.718420054710155	3.5240946	1.8772572
16.736135205109335	3.563858	1.8878183
16.753850758367335	3.634926	1.9065483
16.771566714935087	3.6614997	1.9135046
16.789283075263597	3.7096856	1.9260544
16.80699983980398	3.7482245	1.9360331
16.82471700900741	3.8596315	1.9645945
16.84243458332518	3.9744298	1.9935973
16.860152563208665	4.0751076	2.0186896
16.87787094910932	4.0762215	2.0189655
16.89558974147871	4.1148834	2.0285175
16.913308940768466	4.2200813	2.0542836
16.931028547430333	4.3210983	2.078725
16.94874856191613	4.391183	2.095515
16.966468984677785	4.4475126	2.1089127
16.98418981616729	4.510963	2.1239028
17.00191105683676	4.551228	2.1333606
17.019632707138374	4.543009	2.1314335
17.03735476752442	4.4927206	2.1196039
17.05507723844728	4.4782305	2.116183
17.072800120359403	4.5358114	2.1297445
17.090523413713353	4.590974	2.1426558
17.108247118961785	4.641949	2.1545184
17.125971236557437	4.6792316	2.1631532
17.143695766953133	4.692195	2.1661475
17.161420710601806	4.670968	2.1612422
17.179146067956477	4.6692643	2.1608481
17.19687183947025	4.6946697	2.1667187
17.21459802559634	4.688257	2.1652384
17.232324626788028	4.7031293	2.16867
17.25005164349871	4.6801357	2.163362
17.267779076181863	4.6346464	2.152823
17.285506925291074	4.5881963	2.1420076
17.30323519127999	4.5638623	2.1363199
17.320963874602384	4.617219	2.1487715
17.33869297571211	4.6128707	2.1477594
17.356422495063114	4.5861583	2.1415317
17.37415243310944	4.522271	2.1265633
17.391882790305218	4.5374484	2.1301286
17.40961356710468	4.55239	2.1336331
17.42734476396215	4.5796657	2.1400154
17.445076381332044	4.5990067	2.1445296
17.462808419668868	4.660154	2.1587389
17.48054087942723	4.743751	2.1780155
17.498273761061835	5.046055	2.2463427
17.51600706502747	5.5368657	2.3530545
17.533740791779024	6.2819	2.506372
17.551474941771485	7.636057	2.7633417
17.56920951545993	8.717449	2.9525328
17.586944513299528	10.777174	3.2828608
17.60467993574556	12.32456	3.5106354
17.622415783253373	13.91021	3.7296393
17.64015205627843	15.198773	3.8985605
17.657888755276293	16.232159	4.0289154
17.675625880702604	16.651966	4.0806823
17.69336343301311	16.479704	4.0595202
17.71110141266366	15.814921	3.9767978
17.728839820110178	14.933265	3.8643582
17.746578655808705	14.117701	3.7573528
17.764317920215372	12.796082	3.577161
17.7820576137864	11.419429	3.3792646
17.79979773697811	9.493112	3.0810893
17.81753829024692	7.617327	2.7599506
17.835279274049356	5.9457507	2.438391
17.85302068884201	4.9028354	2.2142348
17.870762535081607	4.293764	2.07214
17.888504813224934	3.9888346	1.9972067
17.90624752372891	3.7987392	1.9490354
17.923990667050536	3.6509306	1.9107409
17.941734243646895	3.533047	1.8796401
17.959478253975185	3.4810271	1.8657511
17.9772226984927	3.4218159	1.8498151
17.994967577656833	3.4107232	1.8468144
18.01271289192506	3.3761892	1.837441
18.030458641754965	3.351935	1.830829
18.04820482760425	3.3172615	1.8213351
18.06595144993067	3.3062375	1.8183062
18.083698509192125	3.2402081	1.8000578
18.101446005846576	3.1893315	1.78587
18.119193940352105	3.1524231	1.7755065
18.136942313166887	3.1434536	1.7729788
18.1546911247492	3.1419268	1.7725481
18.1724403755574	3.1389508	1.7717085
18.19019006604997	3.1662967	1.779409
18.207940196685467	3.1670523	1.7796214
18.225690767922575	3.1299047	1.7691537
18.243441780220046	3.0843148	1.7562218
18.261193234036764	3.0548902	1.7478244
18.278945129831676	3.0358381	1.7423657
18.29669746806386	3.000572	1.7322159
18.314450249192483	3.012349	1.7356119
18.3322034736768	3.0391536	1.7433169
18.349957141976184	3.0691833	1.7519085
18.3677112545501	3.1116707	1.7639928
18.385465811858108	3.103872	1.761781
18.403220814359884	3.0821407	1.7556026
18.420976262515172	3.0898585	1.7577994
18.43873215678387	3.1118608	1.7640467
18.456488497625923	3.1278477	1.7685722
18.474245285501407	3.230325	1.7973105
18.492002520870486	3.2692163	1.8080975
18.50976020419343	3.3215075	1.8225003
18.527518335930615	3.6204863	1.9027575
18.545276916542516	4.2193146	2.054097
18.563035946489688	4.4008436	2.0978189
18.580795426232832	4.842143	2.200487
18.598555356232698	4.7608113	2.1819284
18.616315736950185	5.105477	2.2595303
18.63407656884626	4.7150893	2.1714256
18.65183785238201	4.892989	2.2120101
18.669599588018617	4.662895	2.1593738
18.68736177621737	4.7155037	2.171521
18.705124417439652	4.673799	2.1618972
18.72288751214696	4.480559	2.116733
18.740651060800886	4.6130176	2.1477935
18.758415063863115	4.3362646	2.08237
18.77617952179546	4.525255	2.1272647
18.793944435059814	4.266611	2.0655777
18.811709804118184	4.2955875	2.0725799
18.829475629432675	4.2687964	2.0661066
18.8472419114655	4.080881	2.0201192
18.86500865067897	4.1588817	2.0393336
18.88277584753551	3.8409042	1.9598225
18.90054350249763	3.8366413	1.9587346
18.918311616027957	3.5279028	1.8782712
18.936080188589226	3.3758812	1.8373572
18.953849220644265	3.092171	1.758457
18.971618712656007	2.9246235	1.7101531
18.9893886650875	2.8685813	1.6936886
19.007159078401887	8.001906	2.8287642
19.024929953062408	32.832874	5.7299976
19.042701289532435	32.80702	5.7277412
19.060473088275405	25.388117	5.0386624
19.07824534975489	2.6660008	1.6327893
19.096018074434568	2.6022248	1.6131413
19.113791262778197	2.5404167	1.5938685
19.13156491524966	2.5311656	1.5909637
19.149339032312945	2.5243342	1.5888153
19.167113614432136	2.5225897	1.5882663
19.184888662071433	2.5273201	1.5897547
19.202664175695123	2.5727787	1.6039884
19.220440155767623	2.5564876	1.598902
19.238216602753447	2.517948	1.5868043
19.2559935171172	2.525692	1.5892426
19.27377089932361	2.534793	1.5921032
19.291548749837514	2.5480473	1.5962604
19.309327069123835	2.5148923	1.5858412
19.32710585764763	2.526116	1.589376
19.344885115874032	2.5274775	1.5898043
19.362664844268313	2.5148382	1.5858241
19.380445043295822	2.5247738	1.5889537
19.39822571342203	2.4887595	1.5775802
19.41600685511252	2.481703	1.5753422
19.43378846883297	2.4688957	1.571272
19.451570555049173	2.4693964	1.5714313
19.469353114227037	2.4864483	1.5768476
19.48713614683254	2.4792027	1.5745485
19.50491965333182	2.500475	1.581289
19.52270363419109	2.5112212	1.5846833
19.540488089876686	2.5301037	1.5906299
19.55827302085503	2.5038204	1.5823464
19.576058427592674	2.4959135	1.579846
19.593844310556282	2.4794464	1.5746258
19.611630670212598	2.4626522	1.569284
19.629417507028506	2.4453726	1.5637687
19.64720482147098	2.459238	1.5681958
19.6649926140071	2.467829	1.5709325
19.682780885104084	2.4919713	1.5785979
19.70056963522921	2.5151222	1.5859137
19.718358864849908	2.5123668	1.5850447
19.7361485744337	2.48909	1.577685
19.753938764448215	2.5115533	1.5847881
19.771729435361202	2.5107765	1.584543
19.789520587640506	2.5074184	1.583483
19.807312221754092	2.4918473	1.5785586
19.825104338170043	2.498514	1.5806688
19.842896937356517	2.5254292	1.58916
19.860690019781824	2.5304978	1.5907538
19.87848358591436	2.5339665	1.5918437
19.896277636222635	2.538328	1.5932131
19.914072171175278	2.5253394	1.5891316
19.931867191241015	2.536805	1.592735
19.94966269688869	2.5695195	1.602972
19.967458688587264	2.5359054	1.5924526
19.985255166805807	2.4749596	1.5732005
20.00305213201348	2.475293	1.5733063
20.020849584679578	2.475064	1.5732336
20.038647525273507	2.4614086	1.5688877
20.05644595426477	2.4320085	1.5594898
20.07424487212299	2.4835804	1.575938
20.092044279317903	2.4940853	1.5792674
20.109844176319353	2.454261	1.5666082
20.127644563597304	2.4335444	1.5599822
20.145445441621817	2.4215229	1.5561243
20.16324681086307	2.4159925	1.5543463
20.181048671791373	2.3916378	1.5464921
20.198851024877122	2.414202	1.5537703
20.216653870590836	2.382757	1.5436181
20.234457209403146	2.3544695	1.5344281
20.252261041784802	2.3386621	1.5292685
20.270065368206662	2.3582127	1.5356473
20.287870189139685	2.3428655	1.5306422
20.305675505054968	2.3237224	1.524376
20.323481316423702	2.3387182	1.5292869
20.341287623717207	2.34019	1.529768
20.359094427406884	2.33961	1.5295784
20.376901727964288	2.3480446	1.532333
20.39470952586107	2.3544502	1.5344218
20.41251782156899	2.3646367	1.5377375
20.430326615559935	2.3656638	1.5380714
20.448135908305886	2.3533773	1.5340722
20.465945700278965	2.338262	1.5291377
20.483755991951384	2.3287876	1.5260365
20.50156678379548	2.3229325	1.524117
20.519378076283708	2.3127701	1.5207795
20.537189869888635	2.326582	1.5253137
20.55500216508294	2.3356817	1.5282937
20.572814962339415	2.3465347	1.5318403
20.59062826213098	2.3176475	1.5223821
20.60844206493066	2.3186622	1.5227154
20.626256371211593	2.3250394	1.5248079
20.644071181447032	2.3311136	1.5267985
20.66188649611036	2.3406587	1.5299212
20.67970231567506	2.3464608	1.5318161
20.697518640614742	2.3292296	1.5261813
20.715335471403122	2.306237	1.51863
20.73315280851404	2.309538	1.5197164
20.750970652421447	2.3620098	1.5368831
20.768789003599412	2.3709974	1.5398043
20.786607862522136	2.3612032	1.5366207
20.8044272296639	2.311015	1.5202023
20.82224710549913	2.2744224	1.5081189
20.84006749050237	2.2844636	1.5114442
20.857888385148268	3.8291175	1.9568131
20.8757097899116	45.92464	6.776772
20.893531705267254	64.776054	8.048357
20.911354131690224	83.812004	9.15489
20.92917706965566	69.0719	8.31095
20.94700051963877	50.122334	7.079713
20.96482448211493	29.362722	5.418738
20.982648957559622	4.099345	2.024684
21.00047394644843	2.2138717	1.4879085
21.01829944925707	2.2430818	1.4976921
21.036125466461375	2.229945	1.4933
21.053951998537297	2.2336156	1.4945285
21.071779045960906	2.2327416	1.4942361
21.089606609208378	2.2601926	1.5033937
21.10743468875603	2.2535453	1.5011812
21.12526328508028	2.218746	1.4895456
21.143092398657675	2.2076988	1.4858327
21.16092202996488	2.1864493	1.4786648
21.17875217947867	2.1998627	1.4831934
21.19658284767596	2.1901355	1.4799106
21.21441403503377	2.1637235	1.47096
21.232245742029225	2.1906137	1.4800723
21.2500779691396	2.218063	1.4893163
21.26791071684227	2.2365794	1.4955198
21.28574398561475	2.1961222	1.4819319
21.30357777593465	2.1985607	1.4827545
21.321412088279704	2.1880546	1.4792074
21.339246923127792	2.172338	1.4738853
21.357082280956888	2.1659777	1.4717261
21.3749181622451	2.1568747	1.4686302
21.392754567470647	2.1300056	1.4594538
21.41059149711187	2.1294117	1.4592503
21.42842895164726	2.133454	1.4606348
21.446266931555378	2.1240451	1.4574105
21.464105437314945	2.107528	1.4517328
21.481944469404798	2.1318603	1.4600891
21.49978402830388	2.1324553	1.4602929
21.51762411449127	2.1223032	1.4568127
21.53546472844617	2.0848172	1.4438896
21.553305870647876	2.0813313	1.4426819
21.571147541575865	2.0795374	1.4420601
21.58898974170967	2.0739183	1.4401106
21.60683247152899	2.0418956	1.4289491
21.62467573151363	2.0344214	1.4263315
21.642519522143523	2.082021	1.442921
21.660363843898722	2.097439	1.4482538
21.6782086972594	2.1144712	1.4541222
21.696054082705864	2.0773628	1.4413059
21.713900000718535	2.0594587	1.4350815
21.73174645177795	2.0242476	1.4227606
21.749593436364794	2.0230973	1.4223562
21.767440954959845	2.0097232	1.417647
21.785289008044032	2.0394053	1.4280775
21.803137596098388	2.0596817	1.4351591
21.820986719604086	2.0455198	1.4302167
21.838836379042412	2.0326283	1.4257027
21.85668657489478	2.057633	1.4344451
21.87453730764273	2.0599608	1.4352564
21.892388577767914	2.05434	1.4332968
21.91024038575213	1.9995222	1.4140446
21.928092732077285	1.9729679	1.4046237
21.945945617225426	1.9933665	1.4118663
21.963799041678694	2.0152493	1.4195948
21.981653005919398	31.370476	5.6009355
21.999507510429943	78.16205	8.84093
22.01736255569286	73.126915	8.551428
22.035218142190818	4.239651	2.0590413
22.05307427040661	2.0482955	1.4311868
22.07093094082315	2.033755	1.4260979
22.088788153923474	2.0128667	1.4187553
22.106645910190746	1.9994589	1.4140222
22.12450421010827	1.9718173	1.4042141
22.142363054159464	1.959725	1.3999017
22.16022244282787	1.9634137	1.4012187
22.178082376597164	1.9848732	1.4088553
22.195942855951145	2.000776	1.414488
22.213803881373742	1.998424	1.4136562
22.231665453349002	1.9982588	1.4135978
22.24952757236111	1.9906015	1.4108868
22.26739023889438	1.9681383	1.4029036
22.28525345343323	1.9265952	1.3880185
22.30311721646225	1.9286743	1.3887672
22.320981528466113	1.950369	1.3965561
22.33884638992964	1.9767965	1.405986
22.356711801337788	1.9717547	1.4041919
22.37457776317561	1.9827253	1.4080927
22.392444275928337	1.9686474	1.403085
22.410311340081282	1.9128842	1.3830706
22.428178956119904	1.8720828	1.3682408
22.446047124529805	1.8636817	1.3651673
22.46391584579669	1.9059796	1.3805722
22.481785120406414	1.9417939	1.3934827
22.49965494884496	1.9514701	1.3969502
22.51752533159841	1.921781	1.3862832
22.53539626915302	1.9342685	1.3907799
22.553267761995137	1.9389207	1.3924513
22.571139810611264	1.9626225	1.4009362
22.589012415488025	1.939327	1.3925972
22.60688557711216	1.9327158	1.3902215
22.624759295970566	1.9571449	1.3989799
22.642633572550263	1.971711	1.4041762
22.660508407338362	1.9397559	1.3927512
22.67838380082217	1.9212545	1.3860933
22.696259753489077	1.9365283	1.391592
22.714136265826614	1.9681051	1.4028916
22.73201333832246	1.9676274	1.4027214
22.74989097146439	1.9304719	1.3894142
22.76776916574035	1.904865	1.3801684
22.785647921638393	1.9096287	1.3818932
22.803527239646712	1.9377673	1.392037
22.82140712025363	1.9303558	1.3893725
22.839287563947593	1.9085715	1.3815106
22.85716857121719	1.887625	1.3739086
22.875050142551135	1.8993043	1.3781525
22.892932278438277	1.9284997	1.3887043
22.910814979367604	1.9340844	1.3907137
22.928698245828222	1.9121346	1.3827996
22.946582078309387	1.8947341	1.3764935
22.96446647730047	1.87421	1.3690178
22.98235144329098	1.8709627	1.3678313
23.000236976770562	1.8593634	1.3635848
23.018123078229	1.8750728	1.369333
23.03600974815619	1.9030135	1.3794975
23.053896987042194	1.9194148	1.3854295
23.071784795377173	1.9024839	1.3793056
23.08967317365145	1.9062018	1.3806527
23.10756212235546	1.905161	1.3802757
23.125451641979787	1.9247226	1.3873436
23.143341733015134	1.9333664	1.3904555
23.161232395952357	1.9309533	1.3895874
23.179123631282426	1.9354151	1.391192
23.197015439496468	1.9121453	1.3828034
23.214907821085717	1.89837	1.3778135
23.23280077654157	1.9100828	1.3820574
23.250694306355538	1.927138	1.388214
23.268588411019277	1.9409686	1.3931865
23.28648309102458	1.9467082	1.3952448
23.304378346863356	1.9535648	1.3976998
23.322274179027676	1.9675819	1.4027052
23.340170588009723	1.9475598	1.39555
23.358067574301852	1.9355555	1.3912424
23.37596513839651	1.938905	1.3924457
23.39386328078629	1.9457428	1.3948989
23.411762001963947	1.9389902	1.3924763
23.429661302422353	1.951103	1.3968189
23.4475611826545	1.9438851	1.3942327
23.46546164315356	1.9214092	1.386149
23.48336268441279	1.8916198	1.3753617
23.501264306925638	1.8869051	1.3736466
23.51916651118564	1.8840065	1.3725911
23.537069297686497	1.9230093	1.3867261
23.554972666922037	1.9724174	1.4044278
23.57287661938623	1.9949132	1.412414
23.59078115557318	1.9550276	1.398223
23.608686275977128	1.9427717	1.3938334
23.62659198109246	1.8952758	1.3766901
23.6444982714137	1.8979872	1.3776746
23.66240514743549	1.8891594	1.374467
23.68031260965263	1.9068658	1.3808931
23.698220658560068	1.8796461	1.3710018
23.716129294652845	1.8660084	1.3660191
23.7340385184262	1.8884203	1.3741981
23.75194833037546	1.9034672	1.379662
23.769858730996123	1.948129	1.395754
23.78776972078382	1.9100077	1.3820302
23.80568130023431	1.8857384	1.3732219
23.823593469843495	1.845338	1.3584322
23.841506230107424	1.8544879	1.3617958
23.859419581522275	1.8718681	1.3681623
23.87733352458438	1.8500242	1.3601559
23.89524805979019	1.867011	1.366386
23.913163187636318	1.8882705	1.3741436
23.931078908619508	1.9614471	1.4005167
23.948995223236633	1.9756159	1.405566
23.966912131984735	2.0037925	1.4155538
23.98482963536096	2.0170372	1.4202243
24.002747733862616	2.0272357	1.4238102
24.020666427987155	2.0046182	1.4158454
24.038585718232156	1.9875222	1.4097952
24.056505605095353	1.9640465	1.4014444
24.074426089074617	2.0105584	1.4179416
24.092347170667946	2.0523813	1.4326135
24.110268850373515	2.0654833	1.437179
24.128191128689586	2.0749884	1.440482
24.146114006114626	2.045356	1.4301594
24.164037483147187	2.0252829	1.4231243
24.181961560286005	2.0709603	1.4390831
24.199886238029926	2.0512948	1.4322342
24.21781151687797	2.0416377	1.4288589
24.235737397329274	2.0289373	1.4244077
24.253663879883135	2.0544581	1.4333382
24.271590965038975	2.0559428	1.4338559
24.289518653296376	2.0253084	1.4231333
24.30744694515505	2.0408041	1.4285672
24.32537584111486	2.027208	1.4238006
24.34330534167581	2.0290701	1.4244543
24.361235447338046	1.9898115	1.4106067
24.379166158601876	1.9819691	1.4078243
24.39709747596772	2.0040765	1.4156541
24.41502939993615	2.0536513	1.4330566
24.432961931007917	2.0554478	1.4336833
24.450895069683856	2.0607805	1.4355419
24.468828816465	2.020823	1.4215566
24.4867631718525	1.9761286	1.4057484
24.504698136347656	1.9774925	1.4062334
24.52263371045192	1.9421273	1.3936023
24.540569894666874	1.9338598	1.3906329
24.558506689494266	1.9068575	1.3808901
24.57644409543597	1.9182072	1.3849936
24.594382112994012	1.9520979	1.397175
24.61232074267057	1.9825779	1.4080404
24.630259984967953	1.9868553	1.4095585
24.64819984038863	1.9743167	1.4051038
24.66614030943522	1.9531058	1.3975356
24.684081392610462	1.9846109	1.4087622
24.702023090417274	1.9787345	1.406675
24.7199654033587	1.9602832	1.4001011
24.737908331937927	1.9928398	1.4116797
24.755851876658305	2.0841641	1.4436635
24.773796038023324	2.1441283	1.4642842
24.79174081653661	2.1208768	1.456323
24.809686212701962	2.105849	1.4511544
24.827632227023294	2.0868356	1.4445884
24.8455788600047	2.1268466	1.4583712
24.8635261121504	2.138258	1.4622784
24.88147398396475	2.1350307	1.4611745
24.899422475952303	2.1129966	1.453615
24.917371588617698	2.1346526	1.461045
24.935321322465768	2.130045	1.4594673
24.953271678001478	2.2067895	1.4855267
24.97122265572994	2.3644667	1.5376823
24.989174256156414	2.706718	1.6452106
25.00712647978632	3.1835303	1.784245
25.02507932712521	3.7666364	1.9407824
25.043032798678798	4.270135	2.0664306
25.060986894952933	4.905367	2.2148063
25.078941616453637	5.528759	2.3513312
25.096896963687055	6.424834	2.5347257
25.114852937159508	7.526754	2.743493
25.132809537377444	8.071927	2.8411138
25.150766764847468	8.198072	2.8632276
25.168724620076347	7.6896887	2.7730289
25.186683103570985	6.701769	2.5887775
25.204642215838426	5.5172825	2.3488896
25.222601957385894	4.204259	2.0504289
25.24056232872074	3.2211242	1.794749
25.25852333035048	2.6571414	1.630074
25.276484962782778	2.3616278	1.5367589
25.294447226525435	2.1941671	1.4812721
25.312410122086423	2.0552773	1.4336239
25.330373649973843	1.9374496	1.391923
25.348337810695988	1.9209923	1.3859986
25.366302604761245	1.9123769	1.3828871
25.384268032678207	1.9805975	1.4073371
25.40223409495558	1.9400057	1.3928409
25.420200792102257	1.8945092	1.3764117
25.438168124627246	1.8456311	1.35854
25.45613609303974	1.8407847	1.3567553
25.474104697849057	1.8466682	1.3589218
25.492073939564698	1.8378514	1.3556738
25.510043818696285	1.8390758	1.3561252
25.528014335753614	1.85547	1.3621564
25.54598549124664	1.8566649	1.362595
25.56395728568544	1.8462074	1.3587521
25.58192971958028	1.8373935	1.3555049
25.59990279344156	1.8419367	1.3571796
25.617876507779833	1.8358572	1.354938
25.635850863105826	1.8024814	1.3425652
25.653825859930386	1.8052764	1.3436058
25.671801498764548	1.8235636	1.3503939
25.68977778011949	1.8692285	1.3671973
25.707754704506524	1.8386528	1.3559693
25.725732272437153	1.8135748	1.3466903
25.743710484423012	1.7872652	1.3368864
25.761689340975888	1.8187932	1.3486264
25.77966884260774	1.804121	1.3431758
25.797648989830662	1.7797234	1.3340627
25.815629783156922	1.7896203	1.3377669
25.83361122309895	1.8611615	1.3642439
25.85159331016929	1.9093918	1.3818074
25.869576044880695	1.8883528	1.3741735
25.887559427746034	1.8292544	1.3524994
25.90554345927836	1.8049064	1.3434681
25.92352813999086	1.8113592	1.3458674
25.94151347039689	1.875335	1.3694288
25.959499451009965	1.8632108	1.3649948
25.97748608234374	1.8563303	1.3624722
25.995473364912062	1.871025	1.3678541
26.013461299228904	1.8601785	1.3638836
26.03144988580839	1.829406	1.3525554
26.04943912516483	1.8383691	1.3558648
26.067429017812675	1.8512123	1.3605926
26.085419564266537	1.8331347	1.353933
26.103410765041186	1.8400322	1.3564779
26.12140262065155	1.8682768	1.3668492
26.139395131612723	1.8606745	1.3640654
26.157388298439948	1.8167459	1.3478671
26.17538212164861	1.7939346	1.3393785
26.193376601754295	1.832909	1.3538496
26.211371739272714	1.8757732	1.3695887
26.229367534719746	1.907777	1.381223
26.247363988611433	1.8943492	1.3763536
26.26536110146397	1.866685	1.3662668
26.283358873793727	1.8580903	1.3631178
26.301357306117204	1.8473856	1.3591857
26.319356398951104	1.8617002	1.3644414
26.33735615281224	1.8126148	1.3463339
26.35535656821762	1.8184108	1.3484846
26.373357645684404	1.7887398	1.3374377
26.39135938572991	1.7931417	1.3390824
26.409361788871614	1.7482364	1.3222089
26.427364855627165	1.7512019	1.3233298
26.445368586514352	1.7905673	1.3381208
26.46337298205115	1.8169843	1.3479556
26.48137804275568	1.8549455	1.3619639
26.499383769146217	1.8550228	1.3619922
26.517390161741215	1.8531152	1.3612918
26.53539722105928	1.8398904	1.3564255
26.553404947619182	1.7983522	1.3410265
26.571413341939856	1.8219135	1.3497827
26.589422404540397	1.8042054	1.3432071
26.60743213594006	1.7790821	1.3338224
26.62544253665827	1.7586429	1.3261384
26.64345360721459	1.8135325	1.3466746
26.66146534812879	1.8011234	1.3420594
26.679477759920758	1.768425	1.3298215
26.69749084311057	1.7945117	1.3395939
26.71550459821847	1.8296707	1.3526531
26.733519025764842	1.8544792	1.3617927
26.751534126270258	1.8514446	1.360678
26.769549900255434	1.8052381	1.3435915
26.787566348241267	1.808417	1.3447739
26.80558347074881	1.8303272	1.3528959
26.823601268299267	1.8283348	1.3521593
26.841619741414036	1.8126136	1.3463334
26.85963889061465	1.8067762	1.3441638
26.877658716422832	1.8182067	1.3484089
26.89567921936045	1.8293741	1.3525436
26.913700399949544	1.8243928	1.3507009
26.93172225871233	1.8177538	1.348241
26.949744796171174	1.8182614	1.3484292
26.967768012848605	1.8128482	1.3464205
26.98579190926733	1.802783	1.3426776
27.003816485950225	1.8290275	1.3524154
27.021841743420318	1.8513731	1.3606517
27.039867682200814	1.8682036	1.3668225
27.057894302815072	1.8641745	1.3653477
27.07592160578664	1.8043463	1.3432596
27.0939495916392	1.7478951	1.3220799
27.111978260896635	1.7050105	1.3057605
27.13000761408296	1.7154783	1.3097627
27.148037651722397	1.7170167	1.3103498
27.166068374339304	1.7663137	1.3290273
27.184099782458215	1.8192054	1.3487792
27.20213187660384	1.8628215	1.3648522
27.22016465730105	1.8541527	1.3616728
27.23819812507487	1.81475	1.3471266
27.256232280450533	1.7547853	1.3246831
27.274267123953383	1.7474525	1.3219124
27.292302656108987	1.7665098	1.3291011
27.31033887744306	1.8094288	1.3451501
27.32837578848146	1.8112354	1.3458215
27.34641338975026	1.7427535	1.3201339
27.364451681775673	1.7322462	1.3161483
27.382490665084074	1.7707942	1.3307118
27.400530340202046	1.7965351	1.3403488
27.41857070765629	1.7845391	1.3358665
27.436611767973726	1.7652522	1.328628
27.454653521681404	1.7687887	1.3299582
27.472695969306564	1.81314	1.3465289
27.490739111376627	1.8266441	1.351534
27.508782948419153	1.8514818	1.3606917
27.526827480961902	1.8674637	1.3665518
27.54487270953279	1.8567468	1.362625
27.562918634659898	1.890408	1.3749211
27.580965256871508	1.8500444	1.3601633
27.599012576696026	1.8083711	1.3447568
27.617060594662068	1.7787699	1.3337053
27.63510931129842	1.7871052	1.3368266
27.65315872713401	1.8006287	1.3418751
27.67120884269797	1.7842935	1.3357745
27.68925965851958	1.7557048	1.3250301
27.707311175128307	1.7294011	1.3150669
27.725363393053787	1.78778	1.3370789
27.74341631282583	1.8570096	1.3627214
27.7614699349744	1.8732448	1.3686653
27.77952426002968	2.0346136	1.4263989
27.797579288521973	2.0745018	1.4403131
27.815635020981784	2.6065066	1.6144679
27.83369145793979	2.6948512	1.6416001
27.85174859992682	2.50922	1.5840517
27.869806447473923	2.3609533	1.5365394
27.887865001112267	1.9845089	1.408726
27.905924261373233	1.9003373	1.3785273
27.92398422878836	1.9203738	1.3857756
27.94204490388936	1.9205214	1.3858287
27.96010628720813	1.9087512	1.3815756
27.978168379276728	1.8783789	1.3705397
27.9962311806274	1.8730136	1.3685808
28.014294691792568	1.8385932	1.3559474
28.0323589133048	1.7850931	1.3360738
28.050423845696887	1.7509618	1.3232391
28.068489489501758	1.8208305	1.3493816
28.086555845252523	1.8685955	1.3669658
28.104622913482487	1.8990989	1.378078
28.122690694725115	1.8881385	1.3740956
28.14075918951405	1.9232934	1.3868285
28.15882839838312	1.9496804	1.3963096
28.176898321866304	1.9332944	1.3904296
28.1949689604978	1.9221853	1.386429
28.213040314811945	1.9330025	1.3903246
28.23111238534327	1.9759665	1.4056908
28.249185172626493	1.9410015	1.3931983
28.267258677196473	1.8647534	1.3655597
28.285332899588294	1.8779981	1.3704007
28.303407840337172	1.9218833	1.3863201
28.321483499978545	1.9250412	1.3874586
28.33955987904799	1.9457129	1.3948882
28.357636978081285	1.9607491	1.4002675
28.37571479761439	1.955719	1.3984703
28.393793338183425	1.8916	1.3753545
28.41187260032469	1.8679488	1.3667293
28.429952584574686	1.9274087	1.3883115
28.448033291470065	1.9819719	1.4078252
28.46611472154769	1.9301592	1.3893017
28.484196875344566	1.9258012	1.3877324
28.502279753397914	1.9504994	1.3966029
28.52036335624511	2.0158598	1.4198098
28.538447684423716	2.009133	1.4174389
28.556532738471482	1.9794602	1.406933
28.574618518926325	1.9798781	1.4070814
28.59270502632635	1.9854342	1.4090544
28.61079226120985	2.0320394	1.4254962
28.628880224115274	2.0466793	1.430622
28.646968915581287	2.0652008	1.4370806
28.66505833614671	2.0299501	1.4247632
28.68314848635055	2.0537913	1.4331055
28.701239366732004	2.0554566	1.4336864
28.71933097783044	2.049062	1.4314545
28.737423320185403	2.051174	1.432192
28.75551639433665	2.078928	1.4418488
28.773610200824074	2.06484	1.4369551
28.791704740187793	2.097078	1.4481292
28.80980001296809	2.1322434	1.4602203
28.827896019705413	2.0987434	1.448704
28.845992760940433	2.1237602	1.4573127
28.86409023721397	2.175232	1.4748667
28.88218844906704	2.1734266	1.4742546
28.900287397040845	2.1713529	1.4735512
28.918387081676755	2.1867971	1.4787823
28.936487503516343	2.1765013	1.475297
28.954588663101365	2.2006025	1.4834428
28.97269056097374	2.2414804	1.4971575
28.990793197675597	2.3077977	1.5191437
29.00889657374923	2.3538754	1.5342345
29.027000689737125	2.325284	1.5248882
29.04510554618196	2.3514943	1.5334582
29.06321114362659	2.3969047	1.548194
29.08131748261405	2.3845613	1.5442024
29.099424563687567	2.3555558	1.534782
29.11753238739057	2.48395	1.5760552
29.13564095426663	2.6246655	1.6200819
29.15375026485954	2.6035845	1.6135627
29.171860319713275	2.5984395	1.6119676
29.18997111937199	2.6353655	1.6233809
29.20808266438002	2.7093022	1.6459959
29.226194955281898	2.7311218	1.6526105
29.244307992622335	2.8029597	1.6742042
29.26242177694624	2.8382876	1.6847218
29.2805363087987	2.8441222	1.6864525
29.29865158872498	2.9416108	1.7151124
29.316767617270557	3.0376053	1.7428727
29.334884394981064	3.0672324	1.7513516
29.353001922402367	3.0259078	1.7395136
29.37112020008047	3.04435	1.7448065
29.389239228561596	3.1586623	1.7772626
29.407359008392152	3.3185081	1.8216773
29.42547954011872	3.6264336	1.9043198
29.44360082428809	4.2360363	2.0581634
29.46172286144722	5.24505	2.2902074
29.479845652143283	6.7245364	2.5931711
29.497969196923606	8.610946	2.9344413
29.516093496335728	11.013942	3.3187258
29.5342185509274	13.6147995	3.6898239
29.55234436124651	15.919096	3.9898741
29.570470927841175	17.396479	4.1709085
29.588598251259686	17.164667	4.1430264
29.60672633205055	15.982917	3.997864
29.624855170762405	13.896672	3.727824
29.642984767944146	11.206859	3.3476646
29.66111512414481	8.608481	2.9340215
29.67924623991366	6.521733	2.5537684
29.697378115800138	5.107905	2.2600675
29.71551075235387	4.2130566	2.0525732
29.733644150124675	3.7564676	1.9381609
29.751778309662576	3.5175679	1.8755181
29.769913231517766	3.4231286	1.8501699
29.78804891624066	3.4186997	1.8489726
29.806185364381818	3.3966491	1.843
29.82432257649206	3.39327	1.8420831
29.842460553122333	3.3249717	1.8234504
29.86059929482382	3.2727206	1.8090662
29.878738802147872	3.2880633	1.8133018
29.896879075646048	3.2931535	1.8147048
29.915020115870114	3.2448032	1.8013337
29.933161923371976	3.1945987	1.787344
29.951304498703777	3.2051694	1.7902987
29.969447842417857	3.2247522	1.7957596
29.987591955066733	3.2573886	1.8048238
30.005736837203123	3.1828027	1.7840412
30.023882489379943	3.1290486	1.7689117
30.04202891215028	3.1191742	1.7661184
30.060176106067455	3.1008787	1.7609313
30.078324071684946	3.1674588	1.7797356
30.09647280955646	3.2309937	1.7974966
30.114622320235863	3.251347	1.8031492
30.132772604277257	3.139308	1.7718092
30.1509236622349	3.0278206	1.7400634
30.16907549466328	2.9836228	1.7273166
30.18722810211705	2.9991124	1.7317946
30.205381485151097	3.059703	1.7492007
30.22353564432045	3.0933664	1.7587968
30.241690580180403	3.0774093	1.7542546
30.25984629328638	3.0405438	1.7437155
30.278002784194037	3.0032296	1.7329829
30.296160053459246	2.990063	1.7291799
30.314318101638033	2.9636781	1.7215337
30.332476929286646	2.948924	1.7172432
30.35063653696153	2.9642434	1.7216978
30.368796925219307	3.0058072	1.7337264
30.386958094616844	3.026678	1.739735
30.40512004571115	3.0177364	1.7371633
30.423282779059463	2.911096	1.7061934
30.441446295219233	2.880767	1.6972823
30.459610594748067	2.933163	1.7126479
30.47777567820382	3.0090706	1.7346673
30.495941546144504	2.9468098	1.7166275
30.51410819912835	2.849377	1.6880097
30.532275637713795	2.8025231	1.6740738
30.55044386245946	2.8555343	1.6898327
30.56861287392416	2.9012694	1.7033113
30.586782672666956	2.8939795	1.7011701
30.604953259247047	2.8585258	1.6907176
30.623124634223885	2.7956738	1.6720269
30.641296798157075	2.8142757	1.6775804
30.659469751606462	2.893876	1.7011397
30.677643495132074	2.837517	1.6844931
30.695818029294152	2.7931025	1.6712577
30.713993354653116	2.7439167	1.6564772
30.73216947176962	2.6968791	1.6422178
30.75034638120448	2.6602564	1.6310292
30.768524083518756	2.710573	1.6463817
30.786702579273673	2.7154877	1.6478736
30.80488186903069	2.8127718	1.677132
30.82306195335144	2.9099836	1.7058674
30.841242832797782	3.081301	1.7553635
30.85942450793176	3.4058845	1.8455038
30.877606979315637	3.8147886	1.9531484
30.895790247511883	4.1666036	2.041226
30.913974313083134	4.4628654	2.1125495
30.932159176592283	4.632425	2.1523068
30.95034483860237	4.6285825	2.1514142
30.968531299676698	4.437804	2.1066096
30.98671856037873	4.213798	2.0527537
31.00490662127215	3.8928607	1.9730333
31.023095482920848	3.44118	1.8550417
31.04128514588892	2.979184	1.7260313
31.059475610740662	2.7461953	1.6571648
31.07766687804056	2.5906577	1.609552
31.09585894835335	2.4759877	1.5735271
31.11405182224393	2.3957992	1.5478369
31.132245500277417	2.3248675	1.5247517
31.15043998301914	2.3876028	1.545187
31.168635271034628	2.4371374	1.5611334
31.18683136488964	2.432731	1.5597215
31.20502826515008	2.4041996	1.5505482
31.223225972382135	2.4110916	1.552769
31.241424487152155	2.4013705	1.5496356
31.259623810026692	2.3937464	1.5471736
31.27782394157253	2.4041703	1.5505387
31.296024882356644	2.368388	1.5389568
31.314226632946237	2.3024364	1.5173781
31.332429193908684	2.3428879	1.5306495
31.350632565811598	2.3946373	1.5474616
31.368836749222787	2.4538653	1.5664818
31.387041744710295	2.4999309	1.5811169
31.40524755284232	2.560745	1.6002328
31.423454174187317	2.5271626	1.5897052
31.441661609313922	2.4922838	1.5786968
31.459869858791002	2.48102	1.5751253
31.478078923187628	2.412778	1.553312
31.496288803073064	2.3877826	1.5452452
31.514499499016807	2.3193443	1.5229393
31.532711011588546	2.2652202	1.5050648
31.550923341358178	2.232449	1.4941382
31.56913648889584	2.2612834	1.5037564
31.587350454771844	2.3772922	1.541847
31.605565239556732	2.444926	1.5636259
31.62378084382127	2.45721	1.5675491
31.641997268136382	2.4533079	1.5663038
31.660214513073274	2.3675232	1.5386758
31.67843257920331	2.2720013	1.5073159
31.6966514670981	2.2493668	1.4997889
31.71487117732944	2.2923248	1.5140425
31.733091710469346	2.33128	1.526853
31.751313067090052	2.325947	1.5251056
31.769535247764008	2.2894883	1.5131055
31.787758253063878	2.2314897	1.4938171
31.805982083562526	2.214325	1.4880608
31.824206739833024	2.2534835	1.5011607
31.84243222244869	2.310464	1.520021
31.860658531983013	2.2534125	1.501137
31.878885669009737	2.1940851	1.4812444
31.897113634102784	2.1956615	1.4817765
31.91534242783632	2.2100163	1.4866123
31.933572050784694	2.1919875	1.4805362
31.951802503522508	2.1260495	1.4580979
31.970033786624548	2.1523054	1.4670738
31.988265900665834	2.163618	1.4709243
32.006498846221575	2.1611187	1.4700744
32.02473262386724	2.157984	1.4690078
32.04296723417845	2.1450245	1.4645902
32.0612026777311	2.1015527	1.4496733
32.07943895510129	2.1170306	1.455002
32.097676066865304	2.1443295	1.464353
32.115914013599685	2.1007788	1.4494064
32.13415279588115	2.0988	1.4487236
32.152392414286666	2.134266	1.4609127
32.1706328693934	2.085757	1.444215
32.18887416177875	2.0956566	1.4476383
32.20711629202032	2.1054828	1.4510282
32.225359260695924	2.1540058	1.4676532
32.243603068383614	2.1101751	1.4526442
32.26184771566166	2.1210172	1.4563713
32.28009320310852	2.0619936	1.4359643
32.2983395313029	2.1096349	1.4524583
32.31658670082372	2.1062207	1.4512824
32.33483471225012	2.1394937	1.4627008
32.35308356616143	2.0888147	1.4452733
32.371333263137245	2.035556	1.4267292
32.38958380375734	2.0145702	1.4193555
32.407835188601744	1.9958763	1.4127549
32.42608741825067	2.0429509	1.4293183
32.444340493284585	2.0704207	1.4388957
32.46259441428416	2.0741837	1.4402027
32.48084918183028	2.0727441	1.4397027
32.49910479650405	2.163315	1.4708213
32.51736125888683	2.1277626	1.4586852
32.53561856956014	2.107282	1.451648
32.5538767291058	2.067717	1.4379559
32.572135738105764	2.0337262	1.4260877
32.59039559714228	2.008313	1.4171495
32.608656306797776	1.9972347	1.4132355
32.62691786765491	1.9894893	1.4104925
32.645180280296586	2.0369675	1.4272237
32.663443545305896	2.1311283	1.4598385
32.68170766326619	2.0777915	1.4414546
32.69997263476099	1.9719702	1.4042686
32.7182384603741	1.9952314	1.4125266
32.7365051406895	2.053194	1.4328971
32.75477267629144	1.9460127	1.3949956
32.77304106776434	1.9558704	1.3985244
32.79131031569289	2.0754867	1.440655
32.809580420661966	2.0860016	1.4442997
32.827851383256714	1.929819	1.3891792
32.84612320406245	1.8851197	1.3729966
32.86439588366476	1.8682362	1.3668344
32.88266942264945	1.9142172	1.3835524
32.9009438216025	1.9328613	1.3902738
32.9192190811102	1.9855304	1.4090885
32.937495201758985	2.0251517	1.4230783
32.95577218413556	2.0330591	1.4258538
32.974050028826866	1.9671712	1.4025588
32.992328736420035	1.91409	1.3835064
33.010608307502444	2.005736	1.4162401
33.02888874266169	2.001939	1.414899
33.047170042485604	1.9433377	1.3940364
33.06545220756225	1.8895165	1.3745968
33.083735238479896	1.8652029	1.3657243
33.10201913582707	1.8655092	1.3658364
33.12030390019248	1.8907088	1.3750305
33.138589532165135	1.848633	1.3596444
33.15687603233419	1.8654995	1.3658329
33.17516340128909	1.8752731	1.3694061
33.19345163961947	1.9065889	1.3807929
33.211740747915215	1.9295204	1.3890718
33.23003072676643	1.9961123	1.4128385
33.248321576763466	1.9732391	1.4047203
33.266613298496885	1.9635859	1.40128
33.28490589255747	2.010469	1.4179101
33.30319935953626	1.891348	1.3752629
33.32149370002451	1.8307863	1.3530655
33.339788914613706	1.8352761	1.3547237
33.358085003895575	1.8830179	1.372231
33.376381968462034	1.8899329	1.3747483
33.39467980890529	1.8606325	1.36405
33.41297852581774	1.8485854	1.3596269
33.43127811979204	1.793079	1.339059
33.44957859142105	1.7717482	1.3310703
33.467879941297866	1.8110306	1.3457453
33.486182170015844	1.8070445	1.3442636
33.50448527816853	1.792178	1.3387226
33.522789266349754	1.8350215	1.3546296
33.541094135153514	1.9246451	1.3873158
33.55939988517411	2.0726473	1.4396691
33.57770651700602	2.0678036	1.437986
33.59601403124398	1.995739	1.4127063
33.61432242848296	1.9160924	1.3842299
33.632631709318154	1.9772757	1.4061564
33.650941874344994	2.024036	1.4226862
33.66925292415916	2.0481567	1.4311383
33.68756485935654	1.9104679	1.3821968
33.70587768053328	1.8830394	1.3722388
33.724191388285746	1.9091048	1.3817036
33.74250598321054	1.9200428	1.3856561
33.760821465904506	1.8526652	1.3611264
33.77913783696474	1.853729	1.3615172
33.79745509698852	1.9284976	1.3887036
33.815773246573414	2.0351424	1.4265841
33.8340922863172	1.9803406	1.4072458
33.852412216817896	1.8201653	1.349135
33.87073303867377	1.7796355	1.3340298
33.889054752483304	1.761509	1.3272185
33.907377358845245	1.776686	1.3329239
33.92570085835853	1.8445017	1.3581244
33.94402525162239	1.9851538	1.4089549
33.96235053923627	1.9981014	1.4135422
33.980676721799824	1.9285483	1.3887218
33.999003799912984	1.8599218	1.3637896
34.01733177417592	1.8835117	1.3724109
34.03566064518901	2.0541997	1.4332479
34.0539904135529	2.122926	1.4570265
34.07232107986846	2.1321023	1.4601719
34.090652644736785	1.9918672	1.4113352
34.108985108759235	1.8932406	1.3759508
34.12731847253742	1.7810981	1.3345779
34.14565273667313	1.8014967	1.3421985
34.16398790176847	1.9898747	1.4106292
34.18232396842574	2.0457587	1.4303002
34.20066093724749	1.952979	1.3974903
34.21899880883651	1.9132595	1.3832062
34.23733758379583	1.8473573	1.3591752
34.25567726272874	1.8393923	1.356242
34.27401784623872	1.954233	1.3979388
34.29235933492957	2.0207906	1.4215451
34.31070172940526	1.9361503	1.3914561
34.32904503027003	1.9579247	1.3992586
34.347389238128386	1.9741936	1.4050599
34.36573435358502	2.0083585	1.4171656
34.38408037724492	2.0835576	1.4434533
34.402427309713296	2.035182	1.4265981
34.42077515159559	1.8967471	1.3772244
34.43912390349752	1.949297	1.3961723
34.45747356602499	2.038478	1.4277527
34.47582413978423	1.906772	1.3808591
34.49417562538163	1.7661365	1.3289607
34.51252802342388	1.8022013	1.3424609
34.53088133451789	1.928442	1.3886836
34.54923555927084	1.9143916	1.3836154
34.567590698290104	1.9962101	1.412873
34.58594675218336	1.8982782	1.3777802
34.6043037215585	1.8730305	1.368587
34.62266160702365	2.0195293	1.4211015
34.641020409187234	1.950239	1.3965095
34.65938012865785	1.8670124	1.3663867
34.677740766044394	1.8291948	1.3524773
34.69610232195598	1.8695227	1.3673049
34.714464797002016	1.9808607	1.4074305
34.73282819179208	2.022715	1.4222219
34.751192506936064	1.9525827	1.3973484
34.76955774304408	2.039353	1.4280591
34.7879239007265	2.1045604	1.4507103
34.80629098059391	2.0525687	1.4326788
34.824658983257194	1.9260322	1.3878156
34.843027909327446	1.8772626	1.3701323
34.86139775941603	1.9643973	1.4015696
34.879768534134534	1.9914776	1.4111972
34.89814023409483	2.0076735	1.416924
34.91651285990901	2.1743686	1.4745741
34.93488641218944	2.121901	1.4566747
34.95326089154871	1.9470698	1.3953744
34.97163629859967	2.0497725	1.4317026
34.99001263395542	2.2810476	1.5103137
35.00838989822934	2.2102509	1.4866912
35.02676809203499	1.9616325	1.4005829
35.04514721598624	1.8157364	1.3474927
35.063527270697215	1.9057251	1.38048
35.081908256782256	1.9099723	1.3820175
35.10029017485597	1.9042546	1.3799473
35.11867302553321	1.9922034	1.4114543
35.137056809429104	2.0513623	1.4322578
35.155441527159006	1.8543618	1.3617495
35.173827179338524	1.9030553	1.3795127
35.19221376658354	2.0995855	1.4489946
35.21060128951017	2.0123022	1.4185563
35.2289897487348	1.7905915	1.3381299
35.24737914487405	1.7714397	1.3309544
35.26576947854479	1.9305991	1.38946
35.28416075036418	2.0292435	1.4245151
35.30255296094958	2.097273	1.4481965
35.32094611091867	2.20342	1.484392
35.33934020088932	2.2146187	1.4881595
35.35773523147969	1.9631225	1.4011147
35.3761312033082	1.9942237	1.4121698
35.394528116993506	2.297083	1.5156131
35.41292597315452	2.1606166	1.4699036
35.431324772410434	2.047097	1.430768
35.449724515380666	2.2613316	1.5037725
35.46812520268491	2.1972482	1.4823117
35.486526834943106	2.1808133	1.4767576
35.504929412775454	2.5870445	1.6084292
35.52333293680242	2.549228	1.5966302
35.54173740764471	2.5071757	1.5834063
35.560142825923286	2.177802	1.4757378
35.5785491922594	1.3920426	1.1798486
35.59695650727454	1.3566333	1.164746
35.61536477159042	1.4327071	1.1969575
