0.008763373481513119	0.0	0.0
0.026290120649546365	0.0	0.0
0.043816868432600686	0.0	0.0
0.06134361724069026	0.028686214	0.16937006
0.07887036748382949	0.16997173	0.4122763
0.0963971195720331	0.17264642	0.41550744
0.11392387391531617	0.26019222	0.5100904
0.1314506309236943	0.22062205	0.4697042
0.1489773910071836	0.22219558	0.47137627
0.16650415457580078	0.14630765	0.38250184
0.18403092203956356	0.11412646	0.33782607
0.20155769380849	0.14251943	0.37751746
0.2190844702925996	0.15648215	0.39557824
0.2366112519019124	0.15645432	0.39554307
0.2541380390464497	0.1462912	0.38248032
0.27166483213623416	0.13650635	0.36946765
0.28919163158128947	0.15512359	0.39385733
0.3067184377916406	0.20603715	0.45391315
0.324245251177314	0.2919694	0.5403419
0.34177207214833777	0.30212596	0.54965985
0.3592989011147415	0.28783035	0.53649825
0.37682573848655654	0.16345298	0.40429318
0.39435258467381573	0.13706388	0.37022138
0.41187944008655414	0.18728831	0.4327682
0.42940630513480854	0.24273936	0.49268585
0.446933180228618	0.20448543	0.45220065
0.4644600657780234	0.14201884	0.37685388
0.48198696219306775	0.10173111	0.31895316
0.49951386988379676	0.15890783	0.39863244
0.5170407892602581	0.19253014	0.43878257
0.5345677207325025	0.17543782	0.41885298
0.5520946647105822	0.17892027	0.42298967
0.5696216216045534	0.14789602	0.3845725
0.5871485918244737	0.15567683	0.39455903
0.6046755757804043	0.15296634	0.3911091
0.6222025738824094	0.19646731	0.44324633
0.6397295865405557	0.2155316	0.4642538
0.6572566141649129	0.23949774	0.48938507
0.6747836571655547	0.19936731	0.44650567
0.6923107159525568	0.18413383	0.42910817
0.7098377909359992	0.17120782	0.41377267
0.7273648825259653	0.21595256	0.46470696
0.7448919911325411	0.23369005	0.48341498
0.762419117165817	0.24678342	0.496773
0.7799462610358868	0.2661734	0.5159199
0.7974734231528482	0.27648824	0.5258215
0.8150006039268024	0.24560806	0.4955886
0.8325278037678551	0.22608028	0.475479
0.8500550230861152	0.18656245	0.43192875
0.8675822622916969	0.19049181	0.43645367
0.8851095217947171	0.21017903	0.45845288
0.9026368020052984	0.24732313	0.4973159
0.9201641033335665	0.26078942	0.51067543
0.9376914261896523	0.29070818	0.5391736
0.9552187709836915	0.29957753	0.54733676
0.9727461381258234	0.2890284	0.53761363
0.990273528026193	0.29445335	0.54263556
1.0078009410949496	0.24827969	0.4982767
1.0253283777422473	0.28556433	0.5343822
1.0428558383782454	0.33878633	0.58205354
1.0603833234131086	0.38134274	0.6175296
1.0779108332570058	0.41726965	0.64596415
1.0954383683201119	0.414585	0.64388275
1.112965929012607	0.47448	0.6888251
1.1304935157446763	0.5719564	0.756278
1.1480211289265108	0.5981768	0.7734189
1.1655487689683062	1.4633304	1.209682
1.1830764362802655	1.7588784	1.3262271
1.200604131272596	2.1570296	1.468683
1.2181318543555117	2.444569	1.5635117
1.235659605939232	2.5113313	1.5847181
1.253187386433982	4.084714	2.0210676
1.270715196249994	6.3895574	2.5277574
1.2882430357975057	11.859513	3.4437644
1.3057709054867608	16.505178	4.0626564
1.3232988057280106	22.608997	4.754892
1.3408267369315112	27.338305	5.2286043
1.358354699507526	30.927189	5.561222
1.3758826938663256	34.974213	5.9139
1.3934107204181858	37.224617	6.101198
1.410938779573391	37.696148	6.139719
1.4284668717422309	38.138268	6.1756186
1.4459949973350033	37.1216	6.09275
1.4635231567620117	37.053837	6.0871863
1.4810513504335687	36.461094	6.0383024
1.4985795787599925	36.374916	6.0311623
1.5161078421516088	36.150677	6.012543
1.5336361410187505	35.3265	5.94361
1.5511644757717598	35.255863	5.937665
1.5686928468209842	35.97096	5.9975796
1.58622125457678	36.732265	6.0607147
1.6037496994495108	38.080135	6.1709104
1.621278181849548	37.65258	6.13617
1.6388067021872719	38.228123	6.1828895
1.6563352608730693	37.10575	6.091449
1.673863858317336	36.22801	6.0189705
1.6913924949304753	35.481426	5.956629
1.7089211711228998	34.55455	5.8783116
1.7264498873050296	33.634804	5.799552
1.7439786438872935	32.633644	5.7125864
1.7615074412801288	31.816557	5.640617
1.779036279893981	31.69208	5.629572
1.796565160139305	31.312574	5.595764
1.814094082426564	30.75685	5.5458856
1.8316230471662298	29.67103	5.447112
1.849152054768784	28.427605	5.331754
1.8666811056447168	27.515472	5.245519
1.8842102002045273	26.852482	5.181938
1.901739338858724	26.290836	5.127459
1.9192685220178245	26.060009	5.1049004
1.9367977500923557	25.520695	5.051801
1.9543270234928547	25.126135	5.0125976
1.971856342629867	24.27998	4.927472
1.9893857079139496	23.70084	4.868351
2.006915119755667	23.228193	4.8195634
2.0244445785655945	22.68765	4.7631555
2.0419740847543175	22.132769	4.704548
2.0595036387324317	21.712952	4.6597157
2.0770332409105414	21.306177	4.6158614
2.094562891699263	20.959946	4.578203
2.1120925915092217	20.53896	4.531993
2.129622340751053	19.978258	4.4697046
2.1471521398354043	188.10927	13.715293
2.1646819891729323	444.4947	21.083042
2.182211889174303	440.5163	20.98848
2.1997418402501974	452.83313	21.279877
2.2172718428113023	432.7078	20.80163
2.234801897268317	320.78897	17.910583
2.2523320040319548	17.401508	4.1715117
2.269862163512935	17.268875	4.1555834
2.287392376121992	16.973057	4.119837
2.304922642269869	16.612679	4.0758653
2.322452962367322	16.085146	4.010629
2.3399833368251164	15.643779	3.9552217
2.357513766054032	15.476996	3.9340813
2.3750442504648586	15.219109	3.9011676
2.3925747904683963	14.976684	3.869972
2.410105386475459	14.691459	3.832944
2.4276360388968707	14.378733	3.79193
2.445166748143469	14.142941	3.7607102
2.4626975146261025	14.091496	3.7538643
2.4802283387556323	13.793735	3.7139916
2.4977592209429305	13.598737	3.6876464
2.5152901615988825	13.162721	3.6280465
2.5328211611343865	12.942738	3.5976017
2.5503522199603523	12.905141	3.5923727
2.5678833384877024	12.752495	3.5710635
2.5854145171273712	12.48722	3.533726
2.6029457562903064	12.204512	3.4934957
2.620477056387469	12.055133	3.4720502
2.6380084178298326	11.978816	3.4610426
2.655539841028383	11.722934	3.423877
2.673071326394119	11.667328	3.415747
2.6906028743380523	11.3668	3.3714685
2.708134485271211	11.292086	3.36037
2.7256661596046325	10.965985	3.311493
2.743197897749369	10.742557	3.2775838
2.760729700116486	10.537241	3.2461116
2.778261567117063	10.3245125	3.213178
2.795793499162193	10.346871	3.2166553
2.8133254966629817	10.206711	3.1947944
2.830857560030551	10.049837	3.170148
2.8483896896760337	9.681918	3.111578
2.865921886010578	9.574792	3.094316
2.883454149445347	9.522106	3.085791
2.9009864803915177	9.438476	3.0722103
2.91851887926028	9.259574	3.042955
2.9360513464628384	9.221754	3.036734
2.953583882410413	9.230277	3.0381372
2.9711164875142373	9.19263	3.031935
2.9886491621855606	9.035828	3.0059652
3.0061819068356455	8.813702	2.968788
3.023714721875769	8.583326	2.9297314
3.041247607717225	8.4429865	2.9056818
3.0587805647713213	8.394479	2.8973227
3.0763135934493806	8.404797	2.8991027
3.0938466941627407	8.295577	2.8802044
3.1113798673227544	8.197362	2.8631036
3.1289131133407904	7.990772	2.8267953
3.1464464326282315	7.878604	2.806885
3.1639798255964786	7.793773	2.791733
3.1815132926569443	7.7277646	2.7798858
3.1990468342210603	7.786656	2.790458
3.216580450700272	7.71477	2.7775474
3.2341141425060416	7.537937	2.7455304
3.251647910049847	7.414732	2.7230005
3.2691817537431813	7.3614593	2.7132008
3.286715673997555	7.2480936	2.6922283
3.3042496712244938	7.1743503	2.6784978
3.32178374583554	7.0735536	2.6596153
3.339317898242251	7.0476837	2.6547475
3.3568521288562034	6.900751	2.626928
3.3743864380889876	6.624608	2.5738313
3.3919208263522127	6.5480437	2.5589147
3.4094552940575023	6.6721983	2.5830598
3.4269898416164972	6.6820583	2.5849679
3.444524469440858	6.6001477	2.5690753
3.4620591779422587	6.4993186	2.549376
3.479593967532391	6.502621	2.5500238
3.4971288386229658	6.503564	2.5502086
3.5146637916257086	6.4994	2.5493922
3.5321988269523628	6.5114603	2.5517564
3.5497339450146903	6.477601	2.545113
3.5672691462244708	6.493432	2.5482213
3.5848044309934988	6.288295	2.5076473
3.60233979973359	6.225664	2.4951282
3.619875252856575	6.2761774	2.50523
3.6374107907743034	6.3754225	2.5249598
3.6549464138986427	6.4218874	2.5341444
3.6724821226414788	6.3639026	2.5226777
3.690017917414714	6.2598486	2.5019689
3.7075537986302702	6.3045683	2.51089
3.7250897667000857	6.3675246	2.5233955
3.7426258220361235	6.526204	2.5546436
3.7601619650503553	6.8584466	2.6188636
3.777698196154779	7.3378515	2.7088468
3.7952345157614067	8.437991	2.904822
3.8127709242822716	9.134182	3.022281
3.830307422129425	11.27839	3.3583314
3.847844009714936	30.10805	5.48708
3.8653806874508954	97.70569	9.884619
3.882917455749409	97.067726	9.852296
3.900454315022606	96.85272	9.841378
3.917991265682631	41.341034	6.4296994
3.9355283081416506	10.942345	3.3079214
3.9530654428118495	8.782325	2.9634988
3.970602670105433	7.452351	2.7298994
3.9881399904346244	6.6051803	2.5700545
4.005677404211669	6.502631	2.5500257
4.023214911848827	6.536043	2.5565686
4.0407525137583855	6.5939245	2.5678637
4.058290210352644	6.6269574	2.5742877
4.075828002043927	6.535767	2.5565147
4.0933658892445814	6.4119234	2.5321777
4.110903872366966	6.334707	2.5168843
4.128441951823468	6.2548127	2.5009623
4.145980128026488	6.2557626	2.5011523
4.163518401388452	6.0495825	2.45959
4.181056772321807	5.977149	2.444821
4.1985952412390155	5.9272256	2.4345894
4.216133808552567	5.9457912	2.4383993
4.233672474674966	6.0253844	2.454666
4.251211240018741	6.3374405	2.5174274
4.268750104996445	6.644524	2.5776975
4.286289070020643	7.6121626	2.7590148
4.303828135503928	9.252176	3.041739
4.3213673018589125	29.51845	5.4330883
4.3389065694982305	90.72408	9.5249195
4.356445938834537	166.03639	12.885511
4.3739854102805085	171.69795	13.103356
4.391524984248844	172.58778	13.137267
4.409064661152262	136.60136	11.687658
4.426604441403504	96.89664	9.843609
4.444144325415337	75.834854	8.708321
4.461684313600543	21.774462	4.6663113
4.47922440637193	22.144234	4.705766
4.496764604142329	20.45224	4.522415
4.5143049073245916	18.756443	4.330871
4.531845316331589	16.635246	4.078633
4.5493858315762195	13.812595	3.71653
4.566926453471405	11.354691	3.369672
4.584467182430081	9.297701	3.0492132
4.602008018865218	8.264761	2.8748498
4.619548963189798	7.6463037	2.7651951
4.637090015816834	7.115557	2.6675003
4.654631177159353	6.8016353	2.6079946
4.672172447630417	6.466608	2.5429525
4.689713827643102	6.2478576	2.4995716
4.7072553176105085	6.025933	2.4547775
4.724796917945764	5.868193	2.4224353
4.742338629062015	5.7996826	2.408253
4.759880451372434	5.8277016	2.4140632
4.777422385290215	5.8233423	2.4131603
4.794964431228581	5.7925267	2.406767
4.812506589600768	5.7289433	2.393521
4.830048860820047	5.7076354	2.3890657
4.847591245299709	5.758139	2.3996122
4.8651337434530655	5.751065	2.3981378
4.882676355693457	5.6335077	2.373501
4.900219082434242	5.5892587	2.3641613
4.917761924088813	5.519676	2.349399
4.935304881070575	5.494776	2.3440938
4.952847953792969	5.474861	2.339842
4.970391142669449	5.4376893	2.3318853
4.9879344481135055	5.3791714	2.319304
5.005477870538642	5.4090567	2.325738
5.023021410358394	5.3699245	2.3173099
5.040565067986324	5.417357	2.3275216
5.05810884383601	5.387792	2.3211617
5.075652738321066	5.390634	2.321774
5.09319675185512	5.324998	2.3075957
5.110740884851836	5.3023863	2.302691
5.128285137724894	5.2869544	2.2993379
5.145829510888007	5.304076	2.303058
5.163374004754908	5.3611965	2.3154259
5.1809186197393595	5.3531504	2.3136876
5.198463356255145	5.369671	2.317255
5.216008214716077	5.445669	2.3335958
5.233553195535998	5.412373	2.3264508
5.251098299128764	5.337876	2.3103843
5.268643525908272	5.219813	2.284691
5.286188876288432	5.150663	2.2695072
5.3037343506831895	5.253788	2.2921143
5.32127994950651	5.2853327	2.2989852
5.3388256731723915	5.2942777	2.3009298
5.356371522094851	5.2279143	2.2864633
5.373917496687938	5.1292787	2.264791
5.391463597365729	5.077591	2.253351
5.40900982454232	5.0617814	2.2498403
5.426556178631843	5.099852	2.2582853
5.444102660048449	5.133319	2.265683
5.4616492692063225	5.168787	2.2734966
5.479196006519669	5.163994	2.2724423
5.496742872402727	5.2040324	2.2812347
5.514289867269756	5.166398	2.2729712
5.531836991535049	5.153299	2.270088
5.549384245612924	5.2159867	2.2838535
5.566931629917724	5.2576137	2.2929487
5.584479144863822	5.3001966	2.3022156
5.6020267908656205	5.2678256	2.2951744
5.619574568337545	5.175181	2.2749023
5.637122477694054	5.1029096	2.2589622
5.654670519349629	5.0603046	2.2495122
5.672218693718784	5.0698123	2.2516243
5.689767001216059	5.1620765	2.2720203
5.707315442256021	5.231907	2.287336
5.724864017253266	5.2455883	2.290325
5.7424127266224225	5.285056	2.298925
5.75996157077814	5.2780128	2.2973926
5.777510550135105	5.3014703	2.3024921
5.795059665108022	5.2735114	2.2964127
5.812608916111639	5.218308	2.2843616
5.830158303560715	5.198898	2.2801092
5.847707827870055	5.2011323	2.280599
5.86525748945448	5.289705	2.2999358
5.8828072887288485	5.447254	2.3339353
5.900357226108044	5.5729504	2.3607097
5.917907302006979	5.6763005	2.3824987
5.9354575168406	6.2636323	2.502725
5.9530078710238765	6.916744	2.6299703
5.970558364971812	7.421808	2.7242994
5.988108999099438	7.715264	2.7776363
6.005659773821818	8.229905	2.868781
6.023210689554039	8.003073	2.8289702
6.040761746711227	8.436224	2.904518
6.058312945708531	7.916941	2.813706
6.075864286961132	7.4036045	2.7209566
6.093415770884244	6.7277293	2.5937867
6.1109673978931065	6.0904484	2.4678833
6.128519168402993	5.531609	2.3519373
6.146071082829204	5.4000897	2.3238094
6.163623141587075	5.2961874	2.3013446
6.181175345091969	5.2465186	2.290528
6.198727693759281	5.200841	2.2805352
6.216280188004435	5.192494	2.2787044
6.233832828242885	5.1841784	2.276879
6.251385614890126	5.1831636	2.2766562
6.268938548361669	5.1474085	2.26879
6.286491629073067	5.116878	2.2620518
6.304044857439898	5.129463	2.2648318
6.321598233877777	5.080458	2.253987
6.339151758802344	5.027828	2.242282
6.356705432629277	5.0157743	2.2395923
6.37425925577428	5.026422	2.2419684
6.391813228653095	5.0493555	2.247077
6.409367351681486	5.039596	2.2449045
6.426921625275259	4.9761295	2.230724
6.44447604985025	4.979889	2.2315664
6.46203062582232	5.071008	2.25189
6.47958535360737	5.139301	2.2670026
6.497140233621328	5.137984	2.2667122
6.514695266280161	5.1186666	2.262447
6.532250451999859	5.1172185	2.262127
6.549805791196454	5.1551704	2.2705
6.567361284286002	5.1500726	2.2693772
6.584916931684597	5.0815125	2.254221
6.602472733808367	5.055357	2.2484121
6.6200286910734665	5.128655	2.2646534
6.637584803896092	5.1268563	2.2642562
6.655141072692462	5.0874906	2.2555466
6.672697497878842	5.0261855	2.2419157
6.690254079871514	5.0144763	2.2393026
6.707810819086808	4.993394	2.2345903
6.725367715941078	5.0323353	2.2432866
6.742924770850719	5.0588226	2.2491827
6.760481984232151	5.073039	2.2523408
6.778039356501836	4.9993954	2.2359328
6.795596888076266	4.9843416	2.232564
6.813154579371963	5.05841	2.249091
6.830712430805492	5.0611525	2.2497005
6.84827044279344	5.04973	2.2471604
6.865828615752445	5.0133457	2.2390501
6.883386950099159	4.965351	2.2283068
6.900945446250287	4.948439	2.2245088
6.918504104622553	4.958591	2.2267895
6.936062925632727	5.0160975	2.2396646
6.953621909697607	4.9985886	2.2357523
6.971181057234028	4.962113	2.22758
6.988740368658859	4.9684176	2.2289948
7.006299844389007	5.079482	2.2537706
7.023859484841407	5.2140894	2.283438
7.041419290433036	5.353873	2.3138437
7.058979261580902	5.404704	2.324802
7.0765393987020495	5.6964397	2.3867216
7.094099702213559	6.0473533	2.4591367
7.111660172532549	6.4881797	2.5471907
7.129220810076164	6.8135633	2.6102803
7.146781615261595	7.429062	2.7256305
7.16434258850606	7.672263	2.769885
7.181903730226821	8.109158	2.8476582
7.1994650408411704	8.1315	2.8515785
7.217026520766437	8.212143	2.8656838
7.234588170419983	8.444847	2.9060018
7.252149990219215	8.559708	2.9256978
7.269711980581568	8.509354	2.9170797
7.2872741419245175	8.285882	2.8785207
7.304836474665574	7.859373	2.8034573
7.322398979222286	7.5551124	2.7486565
7.339961656012233	7.258553	2.6941702
7.357524505453039	6.930202	2.6325276
7.375087527962357	6.613087	2.5715923
7.392650723957886	6.382549	2.5263708
7.410214093857353	6.0274935	2.4550955
7.427777638078528	5.823527	2.4131985
7.445341357039213	5.616582	2.369933
7.4629052511572525	5.459474	2.3365517
7.480469320850524	5.3942857	2.32256
7.498033566536948	5.3485913	2.3127022
7.5155979886344735	5.223532	2.2855048
7.5331625875610975	5.174908	2.2748425
7.550727363734844	5.1533012	2.2700884
7.568292317573788	5.229274	2.2867606
7.585857449496025	5.2976294	2.301658
7.603422759919705	5.2607923	2.2936418
7.620988249263007	5.2326527	2.2874992
7.638553917944147	5.212741	2.2831428
7.656119766381391	5.2599177	2.293451
7.673685794993023	5.281448	2.29814
7.691252004197388	5.3772426	2.3188882
7.70881839441285	5.3176694	2.3060071
7.726384966057826	5.3010526	2.3024015
7.743951719550762	5.2717314	2.296025
7.761518655310149	5.3295875	2.30859
7.779085773754511	5.332822	2.3092904
7.796653075302419	5.3220696	2.306961
7.814220560372475	5.3108273	2.3045232
7.831788229383323	5.3084116	2.303999
7.8493560827536495	5.3297534	2.308626
7.866924120902174	5.3689494	2.3170993
7.884492344247663	5.3437905	2.311664
7.9020607532089135	5.3501253	2.3130338
7.919629348204771	5.369387	2.3171937
7.937198129654115	5.4301443	2.330267
7.954767097975865	5.4576454	2.3361604
7.972336253588986	5.410207	2.3259852
7.989905596912472	5.366883	2.3166533
8.007475128365371	5.3908525	2.321821
8.025044848366756	5.5167603	2.3487785
8.042614757335754	5.672787	2.3817613
8.060184855691523	5.768205	2.4017088
8.07775514385327	5.872769	2.4233797
8.095325622240228	5.917369	2.4325643
8.112896291271687	6.002157	2.44993
8.130467151366968	6.037733	2.4571798
8.148038202945436	6.1092114	2.4716818
8.165609446426497	6.183121	2.4865882
8.183180882229594	6.2029595	2.4905741
8.200752510774217	6.1525846	2.4804404
8.218324332479893	6.060292	2.461766
8.235896347766193	6.007389	2.4509976
8.253468557052724	6.0262613	2.4548445
8.27104096075914	5.9978895	2.449059
8.288613559305137	6.0316305	2.4559379
8.306186353110448	6.1096954	2.4717798
8.32375934259485	6.2815604	2.506304
8.341332528178162	6.3631134	2.5225213
8.358905910280246	6.413917	2.5325713
8.376479489321003	6.368451	2.5235791
8.394053265720377	6.444851	2.538671
8.411627239898356	6.3961644	2.529064
8.42920141227497	6.3839226	2.5266426
8.44677578327029	6.3786316	2.5255952
8.464350353304427	6.300565	2.5100925
8.48192512279754	6.2633357	2.5026658
8.499500092169827	6.2146044	2.4929109
8.51707526184153	6.2446637	2.4989326
8.534650632232934	6.2351384	2.497026
8.552226203764365	6.243504	2.4987004
8.569801976856192	6.300017	2.5099835
8.587377951928834	6.3358865	2.5171187
8.60495412940274	6.3772826	2.5253282
8.622530509698416	6.4236903	2.5345001
8.6401070932364	6.4743624	2.5444767
8.657683880437283	6.5455585	2.558429
8.675260871721695	6.6642814	2.581527
8.692838067510303	6.847345	2.616743
8.710415468223834	6.988785	2.643631
8.727993074283043	7.1082826	2.6661363
8.745570886108737	7.134573	2.6710622
8.763148904121765	7.2676573	2.6958592
8.78072712874302	7.3205285	2.7056475
8.798305560393441	7.596553	2.7561846
8.815884199494006	7.665951	2.7687454
8.833463046465745	7.8454823	2.800979
8.851042101729728	7.9595356	2.821265
8.86862136570707	8.206677	2.86473
8.886200838818924	8.309828	2.882677
8.903780521486505	8.313742	2.883356
8.921360414131055	8.43013	2.9034686
8.938940517173874	8.547069	2.923537
8.956520831036297	8.803486	2.9670668
8.97410135613971	9.072254	3.0120182
8.99168209290554	9.284039	3.046972
9.009263041755265	9.530479	3.0871475
9.026844203110405	9.818816	3.1334991
9.044425577392525	9.977897	3.1587808
9.062007165023239	10.130626	3.1828644
9.079588966424197	10.348137	3.216852
9.097170982017108	10.325851	3.2133863
9.11475321222372	11.232631	3.3515117
9.132335657465825	12.163083	3.4875612
9.149918318165264	12.351439	3.5144615
9.167501194743924	12.977301	3.602402
9.18508428762374	12.644982	3.5559783
9.202667597226693	12.521656	3.5385952
9.220251123974803	12.106652	3.4794614
9.237834868290143	11.750896	3.427958
9.255418830594836	11.6219845	3.4091032
9.273003011311046	11.12159	3.3349047
9.290587410860985	10.876558	3.2979627
9.308172029666911	10.254499	3.2022648
9.32575686815113	10.039992	3.1685946
9.343341926735997	8.927688	2.9879236
9.360927205843916	8.6603	2.942839
9.378512705897327	8.421347	2.9019556
9.396098427318728	8.174175	2.8590515
9.413684370530664	8.081944	2.8428762
9.431270535955722	7.9130464	2.8130138
9.448856924016539	7.832659	2.7986887
9.466443535135806	7.7822423	2.7896671
9.484030369736251	7.8747725	2.8062024
9.501617428240658	7.9260907	2.8153315
9.519204711071852	7.92982	2.8159935
9.536792218652714	7.9087076	2.8122425
9.55437995140617	7.896603	2.8100896
9.571967909755191	7.870352	2.8054147
9.589556094122802	7.8642426	2.8043256
9.60714450493207	7.9034915	2.8113148
9.624733142606116	7.9836526	2.8255358
9.642322007568108	8.091753	2.8446007
9.659911100241267	8.11107	2.847994
9.677500421048851	8.13972	2.8530195
9.695089970414175	8.089521	2.8442085
9.712679748760609	8.064207	2.8397548
9.730269756511557	8.063123	2.8395638
9.747859994090492	8.104869	2.8469052
9.765450461920915	8.179942	2.8600597
9.78304116042639	8.163917	2.857257
9.800632090030527	8.2244835	2.867836
9.81822325115699	8.166867	2.857773
9.835814644229481	8.25497	2.8731463
9.853406269671762	8.342742	2.8883805
9.870998127907646	8.4185505	2.9014738
9.888590219360985	8.47442	2.9110856
9.906182544455698	8.429434	2.9033487
9.923775103615734	8.454762	2.9077075
9.941367897265108	8.428304	2.9031541
9.958960925827878	8.419079	2.9015648
9.97655418972816	8.377642	2.8944156
9.994147689390106	8.351568	2.889908
10.011741425237934	8.364793	2.8921952
10.029335397695904	8.397629	2.8978662
10.04692960718833	8.435467	2.9043875
10.06452405413958	8.41298	2.9005136
10.082118738974064	8.459172	2.9084656
10.099713662116246	8.396728	2.8977108
10.117308823990651	8.399582	2.8982031
10.134904225021844	8.357642	2.8909588
10.152499865634445	8.353898	2.890311
10.170095746253125	8.357396	2.890916
10.18769186730261	8.330969	2.8863418
10.205288229207675	8.315361	2.8836367
10.222884832393145	8.194519	2.862607
10.2404816772839	8.13496	2.8521852
10.258078764304868	8.099408	2.8459458
10.275676093881035	8.081998	2.8428855
10.293273666437438	8.05324	2.8378232
10.310871482399158	8.085792	2.8435526
10.32846954219134	8.133616	2.8519497
10.346067846239173	8.22782	2.8684177
10.363666394967908	8.174981	2.8591924
10.38126518880283	8.174528	2.8591132
10.398864228169298	8.20848	2.8650446
10.416463513492713	8.231229	2.8690119
10.434063045198531	8.309935	2.8826957
10.451662823712262	8.317105	2.8839393
10.469262849459467	8.341749	2.8882086
10.486863122865758	8.22047	2.8671362
10.504463644356806	8.191904	2.8621502
10.522064414358338	8.100553	2.846147
10.539665433296118	8.028929	2.8335364
10.557266701595987	7.9241195	2.8149812
10.574868219683818	7.779194	2.7891207
10.592469987985552	7.6712337	2.769699
10.610072006927185	7.5778084	2.7527819
10.627674276934751	7.5871463	2.7544775
10.64527679843435	7.466036	2.7324047
10.662879571852143	7.431013	2.7259884
10.680482597614331	7.298472	2.7015684
10.698085876147173	7.1676817	2.6772525
10.715689407876988	7.033426	2.6520607
10.733293193230146	6.910296	2.6287441
10.750897232633072	6.8246117	2.6123958
10.76850152651225	6.69111	2.586718
10.786106075294207	6.5728407	2.5637553
10.803710879405534	6.422242	2.5342143
10.821315939272877	6.3945627	2.5287473
10.83892125532294	6.309386	2.5118492
10.856526827982472	6.2863946	2.5072684
10.874132657678285	6.246775	2.4993548
10.891738744837243	6.2306376	2.4961245
10.909345089886271	6.129271	2.4757364
10.926951693252343	6.1011147	2.4700434
10.944558555362494	6.0773764	2.4652336
10.96216567664381	6.1074805	2.4713318
10.979773057523436	6.12858	2.475597
10.997380698428573	6.0348763	2.4565985
11.014988599786477	5.93209	2.4355881
11.032596762024461	5.8118706	2.410782
11.050205185569892	5.7287445	2.3934796
11.067813870850198	5.700277	2.3875253
11.085422818292859	5.628166	2.3723757
11.10303202832541	5.5284114	2.3512573
11.120641501375454	5.4308834	2.3304255
11.138251237870636	5.3672256	2.3167274
11.155861238238671	5.3154354	2.305523
11.173471502907317	5.2748084	2.296695
11.191082032304402	5.2051687	2.281484
11.208692826857805	5.150343	2.2694366
11.226303886995465	5.066188	2.2508194
11.243915213145371	5.016085	2.239662
11.261526805735578	4.959264	2.2269404
11.279138665194196	4.8929563	2.2120028
11.296750791949393	4.8469224	2.2015727
11.314363186429393	4.7898574	2.1885743
11.331975849062479	4.7883983	2.188241
11.34958878027699	4.764214	2.182708
11.36720198050133	4.706187	2.1693747
11.384815450163948	4.6460676	2.155474
11.402429189693366	4.625233	2.1506355
11.420043199518153	4.585476	2.1413724
11.437657480066942	63.507027	7.9691296
11.455272031768422	85.22607	9.231796
11.472886855051353	107.6225	10.374126
11.490501950344528	99.23072	9.961462
11.508117318076819	84.54417	9.19479
11.52573295867715	45.933437	6.777421
11.543348872574514	4.2088275	2.0515428
11.560965060197946	4.1268296	2.03146
11.57858152197655	4.099409	2.0246997
11.59619825833949	4.0639386	2.0159214
11.613815269715985	4.0631332	2.0157216
11.631432556535323	38.549393	6.2088156
11.649050119226837	83.03104	9.112137
11.666667958219929	93.41921	9.665361
11.68428607394406	107.71372	10.378522
11.701904466828756	82.59592	9.088229
11.719523137303586	65.46079	8.090784
11.737142085798196	4.6723332	2.1615582
11.754761312742286	3.7588432	1.9387736
11.772380818565619	3.7425258	1.9345609
11.790000603698015	3.7120316	1.9266633
11.80762066856935	3.6946394	1.9221445
11.825241013609572	3.623729	1.9036095
11.842861639248683	3.5530741	1.8849599
11.860482545916748	3.5123947	1.8741384
11.878103734043883	3.4599302	1.8600887
11.895725204060282	3.3884308	1.840769
11.91334695639619	3.3521848	1.8308972
11.930968991481919	3.3631837	1.8338985
11.948591309747824	3.3978972	1.8433386
11.966213911624347	3.3704934	1.8358904
11.98383679754198	3.3226771	1.8228213
12.001459967931268	3.294769	1.8151499
12.019083423222835	3.264496	1.8067917
12.036707163847352	3.25309	1.8036324
12.05433119023556	3.2428257	1.8007847
12.071955502818259	3.238675	1.799632
12.089580102026313	3.210054	1.7916623
12.107204988290643	3.191189	1.78639
12.12483016204224	3.1853373	1.7847513
12.142455623712152	3.1712017	1.7807869
12.16008137373149	3.1654167	1.7791618
12.177707412531431	3.133847	1.7702675
12.19533374054321	3.1276844	1.7685261
12.212960358198126	3.1342704	1.770387
12.230587265927545	3.1280637	1.7686332
12.248214464162889	3.133744	1.7702384
12.265841953335649	3.077763	1.7543554
12.283469733877375	3.032584	1.7414316
12.301097806219685	2.9611964	1.7208127
12.31872617079425	2.9322507	1.7123816
12.336354828032825	2.9577382	1.7198076
12.353983778367205	2.9598737	1.7204283
12.371613022229262	2.9252272	1.7103295
12.389242560050928	2.9127169	1.7066684
12.406872392264201	2.8934684	1.7010198
12.424502519301143	2.8794456	1.6968929
12.442132941593874	2.8571815	1.6903199
12.459763659574586	2.8689497	1.6937973
12.477394673675532	2.863448	1.6921725
12.49502598432903	2.8620749	1.6917667
12.51265759196746	2.8438556	1.6863735
12.530289497023267	2.8100781	1.6763288
12.547921699928967	2.8050408	1.6748257
12.565554201117134	2.8059378	1.6750934
12.583187001020404	2.8238554	1.6804332
12.600820100071486	2.8403125	1.6853226
12.618453498703152	2.8418984	1.6857932
12.636087197348235	2.8229222	1.6801554
12.65372119643964	2.8041894	1.6745714
12.671355496410326	2.8035288	1.6743741
12.68899009769333	2.845499	1.6868607
12.706625000721749	2.8805952	1.6972317
12.724260205928752	2.9311483	1.7120596
12.741895713747551	2.933951	1.712878
12.759531524611454	3.0089018	1.7346187
12.777167638953818	3.0069096	1.7340443
12.794804057208072	3.0445974	1.7448775
12.812440779807702	3.0520527	1.7470125
12.830077807186271	3.1878402	1.7854524
12.847715139777405	3.1798942	1.7832258
12.865352778014795	3.3794622	1.8383313
12.882990722332197	3.5232134	1.8770225
12.90062897316344	3.6526797	1.9111985
12.918267530942412	3.7565904	1.9381926
12.935906396103071	3.638083	1.9073759
12.953545569079449	3.773139	1.942457
12.971185050305628	3.5682256	1.8889748
12.988824840215775	3.60249	1.8980227
13.006464939244115	3.6537063	1.9114671
13.024105347824943	3.530756	1.8790306
13.041746066392617	3.6140273	1.9010595
13.05938709538157	3.4119449	1.8471451
13.077028435226296	3.4168267	1.848466
13.094670086361363	3.2774627	1.8103764
13.112312049221401	3.1782463	1.7827636
13.129954324241112	3.1075969	1.7628378
13.147596911855258	2.9400983	1.7146715
13.165239812498685	2.9176538	1.7081141
13.182883026606293	2.838025	1.6846439
13.200526554613058	2.7948146	1.6717699
13.218170396954017	2.7767653	1.6663629
13.235814554064284	2.7707884	1.6645685
13.253459026379034	2.7353373	1.6538855
13.271103814333523	2.7122657	1.6468958
13.288748918363058	2.6798742	1.6370322
13.306394338903031	2.6610186	1.6312629
13.32404007638889	2.655323	1.6295162
13.341686131256164	2.7037551	1.6443099
13.359332503940449	2.7253432	1.6508614
13.376979194877402	2.724877	1.6507202
13.394626204502751	2.7120063	1.6468171
13.412273533252307	2.70562	1.644877
13.429921181561937	2.725056	1.6507744
13.447569149867581	2.777648	1.6666278
13.465217438605247	2.8446453	1.6866076
13.482866048211022	2.8068314	1.6753601
13.500514979121052	2.7445078	1.6566556
13.518164231771568	2.6948557	1.6416016
13.535813806598844	2.6715596	1.6344906
13.553463704039254	2.6700733	1.6340358
13.571113924529229	2.6512997	1.6282812
13.588764468505275	2.6403098	1.624903
13.606415336403956	2.7114935	1.6466613
13.624066528661917	2.7577708	1.6606537
13.641718045715882	2.8410923	1.685554
13.659369888002635	2.9165063	1.7077782
13.67702205595903	2.9380877	1.7140851
13.694674550021993	3.0013196	1.7324318
13.712327370628532	3.0479305	1.7458323
13.729980518215713	3.1302257	1.7692444
13.747633993220681	3.1536672	1.7758567
13.765287796080647	3.181597	1.7837032
13.7829419272329	3.2227004	1.7951881
13.800596387114801	3.2627075	1.8062966
13.818251176163775	3.270298	1.8083966
13.835906294817324	3.3523269	1.8309361
13.853561743513023	3.417104	1.848541
13.871217522688525	3.4610758	1.8603966
13.888873632781538	3.4628053	1.8608614
13.906530074229858	3.4973614	1.8701234
13.92418684747135	3.5104039	1.8736072
13.941843952943948	3.5102637	1.8735697
13.959501391085665	3.4743884	1.8639711
13.977159162334578	3.4195628	1.849206
13.994817267128846	3.3680418	1.8352225
14.012475705906693	3.317891	1.8215078
14.030134479106424	3.2229056	1.7952453
14.047793587166414	3.1517751	1.775324
14.065453030525108	3.0642796	1.7505084
14.083112809621026	3.0393138	1.7433628
14.100772924892766	2.978656	1.7258784
14.118433376778997	2.9189165	1.7084837
14.136094165718458	2.8531709	1.6891332
14.153755292149969	2.7854598	1.6689696
14.171416756512416	2.7173517	1.6484392
14.189078559244768	2.6311476	1.6220813
14.20674070078606	2.5847945	1.6077297
14.224403181575408	2.5473914	1.5960549
14.242066002051999	2.5255175	1.5891876
14.259729162655093	2.4986558	1.5807137
14.277392663824022	2.4491045	1.5649616
14.295056505998208	2.4484253	1.5647445
14.312720689617128	2.4397173	1.5619594
14.330385215120348	2.4160938	1.5543789
14.348050082947497	2.4069064	1.5514208
14.3657152935383	2.405849	1.55108
14.383380847332528	2.4044976	1.5506443
14.401046744770051	2.3840966	1.544052
14.418712986290798	2.3830059	1.5436988
14.436379572334793	2.38578	1.544597
14.454046503342123	2.4153445	1.5541378
14.471713779752946	2.3975663	1.5484077
14.489381402007504	2.3512492	1.5333784
14.507049370546113	2.3230696	1.5241619
14.524717685809168	2.365798	1.538115
14.542386348237134	2.4313152	1.5592675
14.560055358270553	2.4634569	1.5695404
14.577724716350051	2.5018766	1.5817322
14.595394422916325	2.4724963	1.5724174
14.61306447841015	2.501296	1.5815486
14.63073488327237	2.480325	1.5749048
14.648405637943917	2.5498962	1.5968394
14.6660767428658	2.5522203	1.597567
14.683748198479094	2.601991	1.6130688
14.701420005224954	2.639825	1.6247538
14.719092163544628	2.7103157	1.6463037
14.73676467387942	2.699104	1.642895
14.754437536670727	2.6895583	1.6399872
14.772110752360014	2.6697521	1.6339376
14.78978432138882	2.6435165	1.6258894
14.807458244198777	2.643515	1.6258891
14.82513252123159	2.6597216	1.6308653
14.842807152929028	2.732861	1.6531367
14.860482139732962	2.733165	1.6532286
14.87815748208531	2.7325652	1.6530472
14.8958331804281	2.7106059	1.6463917
14.91350923520342	2.6913826	1.6405433
14.931185646853438	2.688593	1.6396929
14.948862415820408	2.6747365	1.6354622
14.966539542546656	2.694657	1.6415411
14.98421702747459	2.6693099	1.6338023
15.001894871046696	2.6654162	1.6326102
15.019573073705542	2.6272786	1.6208882
15.037251635893766	2.6409066	1.6250867
15.054930558054092	2.6708884	1.6342853
15.072609840629323	2.7478786	1.6576726
15.090289484062351	2.908813	1.7055242
15.107969488796124	3.1665978	1.7794937
15.125649855273691	3.5621536	1.8873669
15.14333058393817	4.0577602	2.0143883
15.161011675232768	5.106984	2.2598639
15.17869312960076	6.531488	2.5556777
15.196374947485506	8.3666525	2.8925166
15.214057129330447	11.319611	3.3644629
15.231739675579114	15.88338	3.985396
15.249422586675102	20.877516	4.569192
15.267105863062092	24.0441	4.903478
15.284789505183847	24.373074	4.936909
15.302473513484218	22.219965	4.7138057
15.320157888407127	18.651964	4.318792
15.337842630396578	14.472355	3.8042548
15.355527739896656	11.325783	3.36538
15.37321321735153	8.830043	2.9715388
15.39089906320545	6.475713	2.544742
15.408585277902748	4.91436	2.2168355
15.42627186188783	3.804204	1.9504368
15.443958815605198	3.2903411	1.8139298
15.461646139499424	3.0286703	1.7403076
15.479333834015168	2.8849854	1.6985245
15.497021899597165	2.8031886	1.6742725
15.514710336690234	2.7131836	1.6471745
15.53239914573928	2.671416	1.6344467
15.550088327189297	2.6261272	1.620533
15.567777881485336	2.5919452	1.609952
15.58546780907256	2.5599334	1.5999792
15.6031581103962	2.5233288	1.588499
15.620848785901568	2.4518678	1.5658442
15.638539836034063	2.4268444	1.5578332
15.656231261239173	2.4173217	1.5547738
15.673923061962451	2.445808	1.5639079
15.691615238649552	2.4340456	1.5601428
15.709307791746202	2.3889363	1.5456184
15.727000721698221	2.3638737	1.5374894
15.744694028951498	2.3676183	1.5387067
15.76238771395202	2.3671374	1.5385504
15.780081777145844	2.3517847	1.533553
15.797776218979125	2.3378038	1.5289879
15.815471039898094	2.3362794	1.5284892
15.833166240349064	2.3810506	1.5430653
15.850861820778437	2.4157898	1.5542811
15.868557781632699	2.4244263	1.5570569
15.886254123358412	2.4063137	1.5512297
15.903950846402232	2.380028	1.5427339
15.921647951210897	2.3759124	1.5413995
15.939345438231225	2.404222	1.5505553
15.957043307910133	2.4204733	1.5557871
15.974741560694602	2.4340374	1.5601403
15.992440197031714	2.4265256	1.5577309
16.01013921736862	2.430373	1.5589653
16.02783862215259	2.4130268	1.553392
16.045538411830933	2.3762136	1.5414972
16.06323858685107	2.4109805	1.5527332
16.080939147660512	2.4383159	1.5615108
16.09864009470684	2.4391308	1.5617716
16.11634142843774	2.4296353	1.5587287
16.134043149300954	2.4055178	1.5509732
16.15174525774433	2.4030528	1.5501783
16.169447754215817	2.399098	1.5489022
16.18715063916342	2.4365408	1.5609423
16.204853913035244	2.4743147	1.5729954
16.222557576279478	2.4798167	1.5747434
16.240261629344403	22.451916	4.738345
16.257966072678386	42.988422	6.5565557
16.275670906729868	38.091232	6.1718097
16.293376131947387	2.5146875	1.5857767
16.31108174877957	2.540434	1.5938739
16.328787757675133	2.593218	1.6103472
16.34649415908287	2.598913	1.6121144
16.364200953451657	2.5820613	1.6068794
16.38190814123048	2.5751498	1.6047273
16.39961572286839	2.5925236	1.6101315
16.41732369881455	2.662713	1.6317822
16.43503206951817	2.7593725	1.6611359
16.45274083542859	2.8067832	1.6753457
16.47044999699522	2.8595543	1.6910217
16.488159554667558	2.9076016	1.7051691
16.505869508895184	2.9080296	1.7052946
16.523579860127786	2.916307	1.7077198
16.541290608815117	2.9484394	1.717102
16.559001755407035	2.988485	1.7287235
16.57671330035348	3.0371342	1.7427375
16.59442524410448	3.1349816	1.7705879
16.61213758711015	3.2589228	1.8052487
16.629850329820705	3.3402562	1.8276368
16.647563472686436	3.3764505	1.837512
16.665277016157724	3.355152	1.8317074
16.682990960685053	3.3788133	1.8381549
16.70070530671898	3.4058356	1.8454906
16.718420054710155	3.460619	1.8602738
16.736135205109335	3.5217912	1.8766437
16.753850758367335	3.6131277	1.9008229
16.771566714935087	3.6469114	1.9096888
16.789283075263597	3.6518843	1.9109904
16.80699983980398	3.691099	1.9212233
16.82471700900741	3.8236635	1.955419
16.84243458332518	3.9544907	1.9885901
16.860152563208665	4.0693283	2.0172577
16.87787094910932	4.1012444	2.025153
16.89558974147871	4.1176686	2.029204
16.913308940768466	4.155176	2.038425
16.931028547430333	4.20439	2.050461
16.94874856191613	4.2710404	2.0666497
16.966468984677785	4.29758	2.0730605
16.98418981616729	4.391983	2.0957057
17.00191105683676	4.473595	2.1150875
17.019632707138374	4.531736	2.1287875
17.03735476752442	4.5569487	2.134701
17.05507723844728	4.5343676	2.1294055
17.072800120359403	4.5996256	2.1446738
17.090523413713353	4.6395493	2.1539612
17.108247118961785	4.6314006	2.1520689
17.125971236557437	4.580109	2.1401188
17.143695766953133	4.6066484	2.1463103
17.161420710601806	4.655292	2.1576126
17.179146067956477	4.723082	2.1732652
17.19687183947025	4.7126603	2.1708663
17.21459802559634	4.694511	2.166682
17.232324626788028	4.6256022	2.1507213
17.25005164349871	4.6171045	2.1487448
17.267779076181863	4.649403	2.1562474
17.285506925291074	4.6591763	2.1585126
17.30323519127999	4.611165	2.1473622
17.320963874602384	4.6180325	2.1489608
17.33869297571211	4.643585	2.154898
17.356422495063114	4.640667	2.1542208
17.37415243310944	4.6060863	2.1461794
17.391882790305218	4.525101	2.1272285
17.40961356710468	4.470736	2.1144116
17.42734476396215	4.4681425	2.1137981
17.445076381332044	4.504203	2.1223106
17.462808419668868	4.6066556	2.146312
17.48054087942723	4.7609596	2.1819623
17.498273761061835	5.0603228	2.249516
17.51600706502747	5.55335	2.3565547
17.533740791779024	6.2499123	2.4999824
17.551474941771485	7.722165	2.7788785
17.56920951545993	8.824402	2.9705894
17.586944513299528	10.913216	3.3035157
17.60467993574556	12.546573	3.5421143
17.622415783253373	14.212931	3.770004
17.64015205627843	15.607347	3.9506135
17.657888755276293	16.675894	4.083613
17.675625880702604	17.208157	4.1482716
17.69336343301311	16.95292	4.1173925
17.71110141266366	16.05175	4.0064635
17.728839820110178	15.058874	3.8805766
17.746578655808705	14.181294	3.765806
17.764317920215372	12.8728895	3.5878808
17.7820576137864	11.491875	3.3899667
17.79979773697811	9.52933	3.0869613
17.81753829024692	7.697943	2.7745168
17.835279274049356	5.9556212	2.4404142
17.85302068884201	4.8995204	2.213486
17.870762535081607	4.222909	2.0549717
17.888504813224934	3.9252512	1.9812247
17.90624752372891	3.7088714	1.925843
17.923990667050536	3.6111505	1.9003028
17.941734243646895	3.547475	1.8834742
17.959478253975185	3.4919412	1.8686737
17.9772226984927	3.44424	1.8558664
17.994967577656833	3.4157712	1.8481805
18.01271289192506	3.3806663	1.8386588
18.030458641754965	3.365136	1.8344307
18.04820482760425	3.3296857	1.8247427
18.06595144993067	3.3198926	1.8220572
18.083698509192125	3.3205874	1.8222479
18.101446005846576	3.3359454	1.826457
18.119193940352105	3.2999053	1.8165642
18.136942313166887	3.2783754	1.8106284
18.1546911247492	3.2385848	1.7996068
18.1724403755574	3.1966343	1.7879134
18.19019006604997	3.1415434	1.77244
18.207940196685467	3.1169884	1.7654995
18.225690767922575	3.1000266	1.7606893
18.243441780220046	3.0927117	1.7586107
18.261193234036764	3.0816224	1.755455
18.278945129831676	3.0883617	1.7573736
18.29669746806386	3.0692117	1.7519165
18.314450249192483	3.085672	1.756608
18.3322034736768	3.0518332	1.7469497
18.349957141976184	3.056669	1.7483332
18.3677112545501	3.0357916	1.7423524
18.385465811858108	3.0482662	1.7459284
18.403220814359884	3.0023508	1.7327293
18.420976262515172	3.0172205	1.7370148
18.43873215678387	3.094603	1.7591484
18.456488497625923	3.1902018	1.7861136
18.474245285501407	3.2682495	1.8078301
18.492002520870486	3.3329375	1.8256334
18.50976020419343	3.4133089	1.8475143
18.527518335930615	3.7060208	1.9251028
18.545276916542516	4.24995	2.0615406
18.563035946489688	4.4174395	2.1017706
18.580795426232832	4.806349	2.1923387
18.598555356232698	4.71793	2.1720796
18.616315736950185	5.0517206	2.2476034
18.63407656884626	4.7355247	2.176126
18.65183785238201	4.928767	2.2200828
18.669599588018617	4.7357435	2.1761763
18.68736177621737	4.736832	2.1764264
18.705124417439652	4.714339	2.1712527
18.72288751214696	4.451396	2.1098332
18.740651060800886	4.6030583	2.145474
18.758415063863115	4.327342	2.0802264
18.77617952179546	4.5448937	2.1318758
18.793944435059814	4.2731957	2.0671709
18.811709804118184	4.30042	2.0737453
18.829475629432675	4.227318	2.056044
18.8472419114655	3.9915974	1.9978982
18.86500865067897	4.062042	2.015451
18.88277584753551	3.7731013	1.9424473
18.90054350249763	3.7887952	1.9464828
18.918311616027957	3.4622877	1.8607223
18.936080188589226	3.297352	1.8158612
18.953849220644265	2.9756472	1.7250065
18.971618712656007	2.7856731	1.6690336
18.9893886650875	2.7875278	1.6695892
19.007159078401887	8.043286	2.8360689
19.024929953062408	32.933144	5.7387404
19.042701289532435	32.846043	5.731147
19.060473088275405	25.36499	5.036367
19.07824534975489	2.6637743	1.6321073
19.096018074434568	2.6292493	1.621496
19.113791262778197	2.5779688	1.6056055
19.13156491524966	2.5492592	1.59664
19.149339032312945	2.5535989	1.5979984
19.167113614432136	2.551465	1.5973306
19.184888662071433	2.5349638	1.592157
19.202664175695123	2.5179515	1.5868055
19.220440155767623	2.5486016	1.596434
19.238216602753447	2.550305	1.5969675
19.2559935171172	2.5627599	1.6008623
19.27377089932361	2.5407634	1.5939772
19.291548749837514	2.554985	1.5984321
19.309327069123835	2.5147412	1.5857935
19.32710585764763	2.499792	1.581073
19.344885115874032	2.4823577	1.57555
19.362664844268313	2.4967222	1.580102
19.380445043295822	2.528826	1.5902283
19.39822571342203	2.5306067	1.5907881
19.41600685511252	2.5544968	1.5982794
19.43378846883297	2.5541089	1.598158
19.451570555049173	2.5533323	1.597915
19.469353114227037	2.5046186	1.5825987
19.48713614683254	2.486556	1.5768818
19.50491965333182	2.4447062	1.5635556
19.52270363419109	2.4545262	1.5666927
19.540488089876686	2.4664328	1.5704881
19.55827302085503	2.509303	1.584078
19.576058427592674	2.5037205	1.582315
19.593844310556282	2.5399554	1.5937238
19.611630670212598	2.5324268	1.5913601
19.629417507028506	2.5127478	1.5851649
19.64720482147098	2.4878888	1.5773042
19.6649926140071	2.4966733	1.5800865
19.682780885104084	2.5198236	1.5873952
19.70056963522921	2.534665	1.5920632
19.718358864849908	2.5340734	1.5918773
19.7361485744337	2.5436442	1.5948806
19.753938764448215	2.5005665	1.5813179
19.771729435361202	2.4662507	1.57043
19.789520587640506	2.468288	1.5710785
19.807312221754092	2.5319285	1.5912035
19.825104338170043	2.5577781	1.5993055
19.842896937356517	2.5717285	1.603661
19.860690019781824	2.548772	1.5964874
19.87848358591436	2.5332818	1.5916287
19.896277636222635	2.4913368	1.5783969
19.914072171175278	2.4779932	1.5741643
19.931867191241015	2.464225	1.569785
19.94966269688869	2.4649954	1.5700303
19.967458688587264	2.5028117	1.5820277
19.985255166805807	2.5426908	1.5945817
20.00305213201348	2.5696437	1.6030109
20.020849584679578	2.5895243	1.6091999
20.038647525273507	2.565199	1.6016238
20.05644595426477	2.5401597	1.5937878
20.07424487212299	2.5156746	1.5860878
20.092044279317903	2.476614	1.5737262
20.109844176319353	2.4368808	1.5610512
20.127644563597304	2.3805902	1.5429162
20.145445441621817	2.3604608	1.5363791
20.16324681086307	2.3781934	1.5421392
20.181048671791373	2.3796296	1.5426048
20.198851024877122	2.3673182	1.5386091
20.216653870590836	2.378291	1.5421709
20.234457209403146	2.396543	1.5480772
20.252261041784802	2.4334037	1.5599371
20.270065368206662	2.442904	1.5629792
20.287870189139685	2.428477	1.5583571
20.305675505054968	2.3805888	1.5429157
20.323481316423702	2.3483577	1.5324352
20.341287623717207	2.3682694	1.5389183
20.359094427406884	2.3482916	1.5324137
20.376901727964288	2.2958543	1.5152076
20.39470952586107	2.3174527	1.5223182
20.41251782156899	2.3413944	1.5301616
20.430326615559935	2.341516	1.5302013
20.448135908305886	2.3273647	1.5255703
20.465945700278965	2.3620594	1.5368992
20.483755991951384	2.3884661	1.5454663
20.50156678379548	2.3697164	1.5393883
20.519378076283708	2.3244572	1.5246171
20.537189869888635	2.3201315	1.5231978
20.55500216508294	2.303063	1.5175846
20.572814962339415	2.3206582	1.5233706
20.59062826213098	2.2885628	1.5127996
20.60844206493066	2.308258	1.5192952
20.626256371211593	2.3109565	1.5201831
20.644071181447032	2.3570926	1.5352826
20.66188649611036	2.3711526	1.5398548
20.67970231567506	2.3434558	1.530835
20.697518640614742	2.2785075	1.5094726
20.715335471403122	2.2890086	1.512947
20.73315280851404	2.3090003	1.5195395
20.750970652421447	2.3394291	1.5295192
20.768789003599412	2.3206015	1.523352
20.786607862522136	2.3410804	1.530059
20.8044272296639	2.3367643	1.5286479
20.82224710549913	2.3043697	1.518015
20.84006749050237	2.2820678	1.5106515
20.857888385148268	3.8179262	1.9539515
20.8757097899116	45.907906	6.7755375
20.893531705267254	64.75027	8.046755
20.911354131690224	83.78673	9.153509
20.92917706965566	69.028305	8.308328
20.94700051963877	50.095036	7.0777845
20.96482448211493	29.366903	5.4191236
20.982648957559622	4.123366	2.0306072
21.00047394644843	2.2352898	1.4950886
21.01829944925707	2.2639956	1.504658
21.036125466461375	2.2764587	1.5087938
21.053951998537297	2.266242	1.5054042
21.071779045960906	2.2348378	1.4949374
21.089606609208378	2.2174711	1.4891176
21.10743468875603	2.222745	1.4908873
21.12526328508028	2.196264	1.4819797
21.143092398657675	2.1717112	1.4736727
21.16092202996488	2.1517882	1.4668975
21.17875217947867	2.1883254	1.479299
21.19658284767596	2.1813686	1.4769456
21.21441403503377	2.1734025	1.4742464
21.232245742029225	2.1656003	1.4715979
21.2500779691396	2.1805584	1.4766715
21.26791071684227	2.1779964	1.4758036
21.28574398561475	2.1942008	1.4812834
21.30357777593465	2.190803	1.4801362
21.321412088279704	2.1941142	1.4812542
21.339246923127792	2.166453	1.4718875
21.357082280956888	2.1535497	1.4674977
21.3749181622451	2.1583798	1.4691426
21.392754567470647	2.1568453	1.4686202
21.41059149711187	2.138218	1.4622647
21.42842895164726	2.132269	1.460229
21.446266931555378	2.1280386	1.4587798
21.464105437314945	2.0866122	1.444511
21.481944469404798	2.071954	1.4394283
21.49978402830388	2.0647895	1.4369376
21.51762411449127	2.0838637	1.4435594
21.53546472844617	2.0629227	1.4362879
21.553305870647876	2.0507343	1.4320385
21.571147541575865	2.0954251	1.4475583
21.58898974170967	2.1425886	1.4637583
21.60683247152899	2.1561553	1.4683853
21.62467573151363	2.1227942	1.4569812
21.642519522143523	2.1105063	1.4527582
21.660363843898722	2.112744	1.4535282
21.6782086972594	2.0810165	1.4425728
21.696054082705864	2.0533628	1.432956
21.713900000718535	2.0500517	1.4318001
21.73174645177795	2.066583	1.4375614
21.749593436364794	2.0657716	1.4372792
21.767440954959845	2.0684192	1.4382
21.785289008044032	2.0608716	1.4355736
21.803137596098388	2.0596313	1.4351416
21.820986719604086	2.0358677	1.4268384
21.838836379042412	2.005461	1.416143
21.85668657489478	2.0039072	1.4155943
21.87453730764273	2.0149632	1.419494
21.892388577767914	2.0139375	1.4191326
21.91024038575213	2.0116105	1.4183125
21.928092732077285	2.0193028	1.4210218
21.945945617225426	2.0362182	1.4269612
21.963799041678694	1.9885604	1.4101633
21.981653005919398	31.295042	5.5941973
21.999507510429943	78.06928	8.835682
22.01736255569286	73.060486	8.547543
22.035218142190818	4.1684413	2.041676
22.05307427040661	2.0371265	1.4272795
22.07093094082315	2.0561712	1.4339355
22.088788153923474	2.0506325	1.4320029
22.106645910190746	2.0355864	1.4267398
22.12450421010827	2.030838	1.4250747
22.142363054159464	2.04786	1.4310346
22.16022244282787	2.0614715	1.4357826
22.178082376597164	2.0388482	1.4278824
22.195942855951145	2.0437799	1.4296083
22.213803881373742	2.0324225	1.4256306
22.231665453349002	2.0245337	1.4228611
22.24952757236111	2.0492704	1.4315273
22.26739023889438	2.0442684	1.4297792
22.28525345343323	2.060434	1.4354212
22.30311721646225	2.0176585	1.420443
22.320981528466113	1.9668761	1.4024537
22.33884638992964	1.9168088	1.3844887
22.356711801337788	1.9624709	1.4008821
22.37457776317561	2.0009885	1.4145631
22.392444275928337	1.9998664	1.4141663
22.410311340081282	1.9748741	1.4053022
22.428178956119904	1.9417639	1.3934718
22.446047124529805	1.922961	1.3867087
22.46391584579669	1.9438667	1.3942262
22.481785120406414	1.959998	1.3999993
22.49965494884496	1.9758807	1.4056603
22.51752533159841	1.9666071	1.4023577
22.53539626915302	1.9403208	1.392954
22.553267761995137	1.9266651	1.3880436
22.571139810611264	1.9335384	1.3905174
22.589012415488025	1.9256325	1.3876716
22.60688557711216	1.9073471	1.3810674
22.624759295970566	1.9222169	1.3864404
22.642633572550263	1.9659046	1.4021072
22.660508407338362	1.9636188	1.4012918
22.67838380082217	1.9440409	1.3942887
22.696259753489077	1.9568691	1.3988814
22.714136265826614	1.9503839	1.3965615
22.73201333832246	1.9269046	1.3881298
22.74989097146439	1.9332247	1.3904045
22.76776916574035	1.9617223	1.400615
22.785647921638393	1.9367172	1.3916599
22.803527239646712	1.9184817	1.3850926
22.82140712025363	1.9241605	1.3871411
22.839287563947593	1.9284514	1.3886869
22.85716857121719	1.9209896	1.3859977
22.875050142551135	1.9117547	1.3826622
22.892932278438277	1.9081082	1.3813429
22.910814979367604	1.8865424	1.3735147
22.928698245828222	1.8973213	1.3774328
22.946582078309387	1.9218148	1.3862953
22.96446647730047	1.9208882	1.385961
22.98235144329098	1.9051368	1.3802669
23.000236976770562	1.918	1.3849188
23.018123078229	1.9204669	1.3858091
23.03600974815619	1.9131297	1.3831593
23.053896987042194	1.8772945	1.370144
23.071784795377173	1.821629	1.3496774
23.08967317365145	1.8350356	1.3546349
23.10756212235546	1.8773484	1.3701637
23.125451641979787	1.9242141	1.3871604
23.143341733015134	1.9483337	1.3958273
23.161232395952357	1.916681	1.3844424
23.179123631282426	1.9054286	1.3803726
23.197015439496468	1.9061364	1.380629
23.214907821085717	1.9374273	1.391915
23.23280077654157	1.897521	1.3775053
23.250694306355538	1.8857033	1.3732091
23.268588411019277	1.9112242	1.3824704
23.28648309102458	1.9553314	1.3983316
23.304378346863356	1.9621438	1.4007654
23.322274179027676	1.9428872	1.3938749
23.340170588009723	1.9128762	1.3830677
23.358067574301852	1.8873644	1.3738139
23.37596513839651	1.8866769	1.3735635
23.39386328078629	1.8971772	1.3773806
23.411762001963947	1.9143695	1.3836074
23.429661302422353	1.9313036	1.3897135
23.4475611826545	1.972383	1.4044155
23.46546164315356	1.9547977	1.3981408
23.48336268441279	1.9325198	1.390151
23.501264306925638	1.9247018	1.3873363
23.51916651118564	1.9227587	1.3866358
23.537069297686497	1.9377717	1.3920387
23.554972666922037	1.948431	1.3958621
23.57287661938623	1.9560714	1.3985962
23.59078115557318	1.9440869	1.3943052
23.608686275977128	1.9003031	1.3785148
23.62659198109246	1.8767717	1.3699532
23.6444982714137	1.8908195	1.3750707
23.66240514743549	1.921668	1.3862424
23.68031260965263	1.9488062	1.3959965
23.698220658560068	1.9123263	1.3828689
23.716129294652845	1.8988274	1.3779795
23.7340385184262	1.8980651	1.3777028
23.75194833037546	1.9110119	1.3823936
23.769858730996123	1.9224446	1.3865225
23.78776972078382	1.9331226	1.3903677
23.80568130023431	1.9328154	1.3902574
23.823593469843495	1.9412974	1.3933045
23.841506230107424	1.9514874	1.3969564
23.859419581522275	1.9305961	1.3894589
23.87733352458438	1.9135708	1.3833188
23.89524805979019	1.902991	1.3794894
23.913163187636318	1.8909134	1.3751049
23.931078908619508	1.9131656	1.3831723
23.948995223236633	1.9418125	1.3934894
23.966912131984735	2.034471	1.4263488
23.98482963536096	2.094548	1.4472554
24.002747733862616	2.0984735	1.4486109
24.020666427987155	2.0963585	1.4478807
24.038585718232156	2.092823	1.4466592
24.056505605095353	2.082581	1.443115
24.074426089074617	2.0882218	1.4450681
24.092347170667946	2.0573678	1.4343528
24.110268850373515	2.043363	1.4294626
24.128191128689586	2.0612495	1.4357052
24.146114006114626	2.0891082	1.4453747
24.164037483147187	2.1005108	1.4493139
24.181961560286005	2.067742	1.4379646
24.199886238029926	2.0442502	1.4297729
24.21781151687797	2.0251155	1.4230655
24.235737397329274	2.0464556	1.4305438
24.253663879883135	2.0966306	1.4479747
24.271590965038975	2.1263618	1.458205
24.289518653296376	2.10422	1.450593
24.30744694515505	2.0594923	1.4350932
24.32537584111486	2.0311553	1.425186
24.34330534167581	2.0488222	1.4313707
24.361235447338046	2.101418	1.4496268
24.379166158601876	2.0574932	1.4343965
24.39709747596772	2.041264	1.4287281
24.41502939993615	2.0146046	1.4193677
24.432961931007917	1.9505128	1.3966076
24.450895069683856	1.9104347	1.3821847
24.468828816465	1.9156117	1.3840562
24.4867631718525	1.9552383	1.3982984
24.504698136347656	1.9860815	1.409284
24.52263371045192	2.0173144	1.420322
24.540569894666874	2.0389621	1.4279224
24.558506689494266	2.0057876	1.4162583
24.57644409543597	1.9741899	1.4050586
24.594382112994012	1.9381839	1.3921868
24.61232074267057	1.9592092	1.3997176
24.630259984967953	1.9635613	1.4012713
24.64819984038863	1.9506408	1.3966534
24.66614030943522	1.9000641	1.3784281
24.684081392610462	1.8716428	1.36808
24.702023090417274	1.9034108	1.3796415
24.7199654033587	1.8997738	1.3783228
24.737908331937927	1.9459691	1.39498
24.755851876658305	1.9758826	1.405661
24.773796038023324	2.0283186	1.4241905
24.79174081653661	2.0556514	1.4337543
24.809686212701962	2.1029923	1.4501698
24.827632227023294	2.11704	1.4550052
24.8455788600047	2.085362	1.4440782
24.8635261121504	2.0670695	1.4377307
24.88147398396475	2.0579402	1.4345523
24.899422475952303	2.0689416	1.4383816
24.917371588617698	2.0988138	1.4487283
24.935321322465768	2.1763716	1.4752531
24.953271678001478	2.324785	1.5247246
24.97122265572994	2.511911	1.584901
24.989174256156414	2.8401396	1.6852714
25.00712647978632	3.2946975	1.8151301
25.02507932712521	3.8338728	1.9580278
25.043032798678798	4.3269806	2.0801396
25.060986894952933	4.842589	2.2005882
25.078941616453637	5.5254045	2.350618
25.096896963687055	6.453422	2.5403585
25.114852937159508	7.679357	2.7711654
25.132809537377444	8.191042	2.8619998
25.150766764847468	8.180574	2.8601704
25.168724620076347	7.5815563	2.7534626
25.186683103570985	6.678688	2.5843158
25.204642215838426	5.6075897	2.368035
25.222601957385894	4.3226805	2.0791056
25.24056232872074	3.277873	1.8104898
25.25852333035048	2.6185915	1.6182063
25.276484962782778	2.2750533	1.508328
25.294447226525435	2.1181884	1.4553998
25.312410122086423	1.993892	1.4120524
25.330373649973843	1.8991468	1.3780954
25.348337810695988	1.8525109	1.3610698
25.366302604761245	1.8723378	1.3683339
25.384268032678207	1.8630794	1.3649467
25.40223409495558	1.8585595	1.36329
25.420200792102257	1.8673717	1.3665181
25.438168124627246	1.8926209	1.3757256
25.45613609303974	1.905925	1.3805524
25.474104697849057	1.9198519	1.3855872
25.492073939564698	1.8909616	1.3751224
25.510043818696285	1.8565059	1.3625365
25.528014335753614	1.8602681	1.3639165
25.54598549124664	1.862658	1.3647923
25.56395728568544	1.9032286	1.3795755
25.58192971958028	1.9356225	1.3912665
25.59990279344156	1.928684	1.3887707
25.617876507779833	1.8709011	1.3678088
25.635850863105826	1.8723179	1.3683267
25.653825859930386	1.8819517	1.3718424
25.671801498764548	1.8670458	1.3663988
25.68977778011949	1.8488057	1.359708
25.707754704506524	1.8285627	1.3522435
25.725732272437153	1.8236914	1.3504412
25.743710484423012	1.8143097	1.3469632
25.761689340975888	1.8213902	1.3495889
25.77966884260774	1.8330942	1.3539181
25.797648989830662	1.8557699	1.3622664
25.815629783156922	1.887216	1.3737597
25.83361122309895	1.889473	1.374581
25.85159331016929	1.8590996	1.3634881
25.869576044880695	1.8557225	1.3622491
25.887559427746034	1.8530453	1.3612661
25.90554345927836	1.8790051	1.3707681
25.92352813999086	1.9117224	1.3826505
25.94151347039689	1.9126636	1.3829908
25.959499451009965	1.8829716	1.3722142
25.97748608234374	1.847649	1.3592825
25.995473364912062	1.860434	1.3639773
26.013461299228904	1.8925947	1.3757161
26.03144988580839	1.8934636	1.3760319
26.04943912516483	1.8444556	1.3581073
26.067429017812675	1.8658546	1.3659629
26.085419564266537	1.8418946	1.3571641
26.103410765041186	1.811644	1.3459733
26.12140262065155	1.7623513	1.3275357
26.139395131612723	1.7625519	1.3276113
26.157388298439948	1.8271321	1.3517145
26.17538212164861	1.8771889	1.3701054
26.193376601754295	1.8411009	1.3568717
26.211371739272714	1.8047384	1.3434055
26.229367534719746	1.7647653	1.3284447
26.247363988611433	1.7731551	1.3315986
26.26536110146397	1.8056918	1.3437604
26.283358873793727	1.8695809	1.3673261
26.301357306117204	1.848025	1.3594208
26.319356398951104	1.8158368	1.3475299
26.33735615281224	1.7785363	1.3336178
26.35535656821762	1.7688794	1.3299923
26.373357645684404	1.8299698	1.3527638
26.39135938572991	1.8578199	1.3630186
26.409361788871614	1.8765998	1.3698905
26.427364855627165	1.8773415	1.3701612
26.445368586514352	1.8441879	1.3580087
26.46337298205115	1.8597172	1.3637145
26.48137804275568	1.8932992	1.3759722
26.499383769146217	1.8947355	1.3764939
26.517390161741215	1.838278	1.3558311
26.53539722105928	1.8205999	1.3492961
26.553404947619182	1.8108491	1.345678
26.571413341939856	1.8325763	1.3537269
26.589422404540397	1.8033371	1.3428838
26.60743213594006	1.7794429	1.3339576
26.62544253665827	1.7521137	1.3236743
26.64345360721459	1.778829	1.3337275
26.66146534812879	1.7894553	1.3377053
26.679477759920758	1.8378032	1.355656
26.69749084311057	1.8511137	1.3605564
26.71550459821847	1.8563461	1.3624779
26.733519025764842	1.8024182	1.3425417
26.751534126270258	1.8241645	1.3506163
26.769549900255434	1.8669242	1.3663543
26.787566348241267	1.8596857	1.3637029
26.80558347074881	1.8227626	1.3500973
26.823601268299267	1.8022738	1.3424879
26.841619741414036	1.8119103	1.3460722
26.85963889061465	1.8631061	1.3649565
26.877658716422832	1.8787694	1.3706821
26.89567921936045	1.8567196	1.362615
26.913700399949544	1.7865336	1.3366127
26.93172225871233	1.7791789	1.3338586
26.949744796171174	1.7969187	1.340492
26.967768012848605	1.8375016	1.3555448
26.98579190926733	1.8663951	1.3661608
27.003816485950225	1.8373468	1.3554877
27.021841743420318	1.8470416	1.3590591
27.039867682200814	1.8190172	1.3487095
27.057894302815072	1.8082569	1.3447144
27.07592160578664	1.8060355	1.3438882
27.0939495916392	1.8217127	1.3497084
27.111978260896635	1.8315531	1.3533489
27.13000761408296	1.816083	1.3476212
27.148037651722397	1.7839878	1.3356601
27.166068374339304	1.7719725	1.3311546
27.184099782458215	1.7693	1.3301504
27.20213187660384	1.805383	1.3436455
27.22016465730105	1.8327326	1.3537846
27.23819812507487	1.864803	1.3655779
27.256232280450533	1.9197192	1.3855393
27.274267123953383	1.9100853	1.3820584
27.292302656108987	1.8748059	1.3692355
27.31033887744306	1.8191414	1.3487555
27.32837578848146	1.8071563	1.3443052
27.34641338975026	1.7943667	1.3395398
27.364451681775673	1.7937963	1.3393269
27.382490665084074	1.7853202	1.3361588
27.400530340202046	1.7832153	1.3353709
27.41857070765629	1.8142477	1.3469402
27.436611767973726	1.7860183	1.3364199
27.454653521681404	1.7540237	1.3243955
27.472695969306564	1.7977723	1.3408103
27.490739111376627	1.841961	1.3571887
27.508782948419153	1.8082082	1.3446963
27.526827480961902	1.7673931	1.3294333
27.54487270953279	1.7779919	1.3334136
27.562918634659898	1.8164501	1.3477575
27.580965256871508	1.8669924	1.3663793
27.599012576696026	1.8516755	1.3607628
27.617060594662068	1.7980857	1.3409271
27.63510931129842	1.7656978	1.3287957
27.65315872713401	1.7684976	1.3298488
27.67120884269797	1.7927755	1.3389456
27.68925965851958	1.8920004	1.3755001
27.707311175128307	1.930977	1.389596
27.725363393053787	1.9084516	1.3814672
27.74341631282583	1.9156474	1.3840691
27.7614699349744	1.9191862	1.385347
27.77952426002968	2.0852158	1.4440277
27.797579288521973	2.1430728	1.4639238
27.815635020981784	2.628144	1.6211551
27.83369145793979	2.687295	1.6392971
27.85174859992682	2.4973502	1.5803007
27.869806447473923	2.3628933	1.5371705
27.887865001112267	2.0271294	1.4237729
27.905924261373233	1.9102968	1.3821349
27.92398422878836	1.8848126	1.3728848
27.94204490388936	1.8714441	1.3680073
27.96010628720813	1.8363792	1.3551307
27.978168379276728	1.8140937	1.3468829
27.9962311806274	1.8584677	1.3632563
28.014294691792568	1.8469322	1.3590188
28.0323589133048	1.8038785	1.3430854
28.050423845696887	1.8075724	1.3444599
28.068489489501758	1.8644841	1.3654611
28.086555845252523	1.8974059	1.3774636
28.104622913482487	1.902502	1.3793122
28.122690694725115	1.9085517	1.3815035
28.14075918951405	1.9023327	1.3792508
28.15882839838312	1.9308556	1.3895524
28.176898321866304	1.9181259	1.3849642
28.1949689604978	1.9149317	1.3838105
28.213040314811945	1.9242948	1.3871895
28.23111238534327	1.946941	1.3953283
28.249185172626493	1.9182192	1.384998
28.267258677196473	1.9172037	1.3846313
28.285332899588294	1.93398	1.3906761
28.303407840337172	1.9742433	1.4050777
28.321483499978545	1.9439964	1.3942727
28.33955987904799	1.9190512	1.3852983
28.357636978081285	1.9302782	1.3893446
28.37571479761439	1.9129945	1.3831104
28.393793338183425	1.9475532	1.3955476
28.41187260032469	1.9845611	1.4087445
28.429952584574686	1.9659777	1.4021332
28.448033291470065	1.9508322	1.396722
28.46611472154769	1.9593871	1.3997811
28.484196875344566	1.9473628	1.3954794
28.502279753397914	1.9769114	1.4060268
28.52036335624511	2.0076401	1.4169122
28.538447684423716	1.9848094	1.4088327
28.556532738471482	1.9719737	1.4042698
28.574618518926325	2.013785	1.4190788
28.59270502632635	2.006388	1.4164703
28.61079226120985	2.0191567	1.4209703
28.628880224115274	2.0184045	1.4207057
28.646968915581287	2.0431774	1.4293976
28.66505833614671	2.0775898	1.4413847
28.68314848635055	2.0877557	1.4449068
28.701239366732004	2.0592299	1.4350017
28.71933097783044	2.0678189	1.4379913
28.737423320185403	2.0750868	1.4405161
28.75551639433665	2.077961	1.4415134
28.773610200824074	2.0593274	1.4350357
28.791704740187793	2.104758	1.4507784
28.80980001296809	2.1356616	1.4613903
28.827896019705413	2.1498787	1.4662465
28.845992760940433	2.1281104	1.4588045
28.86409023721397	2.1512582	1.4667168
28.88218844906704	2.2048147	1.4848619
28.900287397040845	2.2132938	1.4877143
28.918387081676755	2.2293837	1.4931121
28.936487503516343	2.2672188	1.5057287
28.954588663101365	2.3252208	1.5248675
28.97269056097374	2.311714	1.5204321
28.990793197675597	2.325623	1.5249994
29.00889657374923	2.331212	1.5268307
29.027000689737125	2.378254	1.5421588
29.04510554618196	2.412893	1.553349
29.06321114362659	2.4256716	1.5574567
29.08131748261405	2.4458776	1.5639302
29.099424563687567	2.3762295	1.5415024
29.11753238739057	2.339259	1.5294636
29.13564095426663	2.4245086	1.5570834
29.15375026485954	2.5233	1.5884898
29.171860319713275	2.6186523	1.6182251
29.18997111937199	2.6302934	1.621818
29.20808266438002	2.7015343	1.6436344
29.226194955281898	2.7719886	1.664929
29.244307992622335	2.815169	1.6778466
29.26242177694624	2.8344693	1.6835883
29.2805363087987	2.854193	1.6894357
29.29865158872498	2.9188452	1.7084628
29.316767617270557	2.9650555	1.7219336
29.334884394981064	3.00332	1.733009
29.353001922402367	3.0229533	1.7386643
29.37112020008047	3.0292742	1.740481
29.389239228561596	3.10032	1.7607726
29.407359008392152	3.3640835	1.8341438
29.42547954011872	3.7193244	1.928555
29.44360082428809	4.3529086	2.0863626
29.46172286144722	5.3736095	2.3181047
29.479845652143283	6.880253	2.6230235
29.497969196923606	8.927703	2.9879262
29.516093496335728	11.401205	3.3765671
29.5342185509274	14.169427	3.76423
29.55234436124651	16.499258	4.061928
29.570470927841175	17.93732	4.2352476
29.588598251259686	17.736889	4.211519
29.60672633205055	16.379574	4.0471687
29.624855170762405	14.209629	3.769566
29.642984767944146	11.647105	3.4127855
29.66111512414481	8.966819	2.9944646
29.67924623991366	6.6784883	2.5842772
29.697378115800138	5.1661134	2.2729087
29.71551075235387	4.346786	2.0848947
29.733644150124675	3.9045064	1.9759824
29.751778309662576	3.5819538	1.8926051
29.769913231517766	3.4064162	1.8456479
29.78804891624066	3.3849416	1.8398211
29.806185364381818	3.3654845	1.8345257
29.82432257649206	3.2638628	1.8066164
29.842460553122333	3.2795672	1.8109576
29.86059929482382	3.3304303	1.8249466
29.878738802147872	3.2925193	1.81453
29.896879075646048	3.2302754	1.7972966
29.915020115870114	3.227998	1.796663
29.933161923371976	3.2167773	1.7935376
29.951304498703777	3.264221	1.8067155
29.969447842417857	3.2873383	1.8131019
29.987591955066733	3.2468185	1.801893
30.005736837203123	3.132182	1.7697971
30.023882489379943	3.0822222	1.7556258
30.04202891215028	3.0932505	1.7587639
30.060176106067455	3.1506844	1.7750167
30.078324071684946	3.1504345	1.7749463
30.09647280955646	3.1316931	1.769659
30.114622320235863	3.1147192	1.7648567
30.132772604277257	3.181035	1.7835456
30.1509236622349	3.172228	1.781075
30.16907549466328	3.2053297	1.7903434
30.18722810211705	3.1371086	1.7711885
30.205381485151097	3.0376801	1.7428942
30.22353564432045	2.9823499	1.7269481
30.241690580180403	2.9635756	1.7215039
30.25984629328638	3.0084372	1.7344847
30.278002784194037	3.0499856	1.7464209
30.296160053459246	3.080305	1.7550797
30.314318101638033	3.0566745	1.7483348
30.332476929286646	3.0218272	1.7383404
30.35063653696153	3.0098622	1.7348955
30.368796925219307	2.9611719	1.7208056
30.386958094616844	2.9475267	1.7168362
30.40512004571115	2.9163032	1.7077187
30.423282779059463	2.8527184	1.6889992
30.441446295219233	2.783519	1.6683881
30.459610594748067	2.7589793	1.6610175
30.47777567820382	2.829214	1.6820267
30.495941546144504	2.8577902	1.6905
30.51410819912835	2.872103	1.694728
30.532275637713795	2.8595095	1.6910084
30.55044386245946	2.7873132	1.6695249
30.56861287392416	2.8668985	1.6931918
30.586782672666956	2.8897932	1.6999391
30.604953259247047	2.8420634	1.685842
30.623124634223885	2.7705128	1.6644857
30.641296798157075	2.7806973	1.6675423
30.659469751606462	2.7724175	1.6650578
30.677643495132074	2.721244	1.6496193
30.695818029294152	2.686028	1.6389107
30.713993354653116	2.685501	1.6387498
30.73216947176962	2.7196941	1.6491495
30.75034638120448	2.717456	1.6484709
30.768524083518756	2.680443	1.6372058
30.786702579273673	2.7078643	1.645559
30.80488186903069	2.8212657	1.6796623
30.82306195335144	2.9121594	1.7065051
30.841242832797782	3.041014	1.7438504
30.85942450793176	3.2876444	1.8131863
30.877606979315637	3.6157415	1.9015104
30.895790247511883	4.0339975	2.0084815
30.913974313083134	4.4501467	2.1095371
30.932159176592283	4.635881	2.1531096
30.95034483860237	4.6985316	2.1676097
30.968531299676698	4.609488	2.146972
30.98671856037873	4.4051366	2.0988417
31.00490662127215	4.1175723	2.0291803
31.023095482920848	3.6299312	1.9052378
31.04128514588892	3.1277099	1.7685332
31.059475610740662	2.779567	1.6672033
31.07766687804056	2.6695974	1.6338903
31.09585894835335	2.6176355	1.6179109
31.11405182224393	2.5945313	1.6107548
31.132245500277417	2.5481017	1.5962775
31.15043998301914	2.497132	1.5802317
31.168635271034628	2.4582338	1.5678756
31.18683136488964	2.3896058	1.545835
31.20502826515008	2.3938634	1.5472115
31.223225972382135	2.5066633	1.5832446
31.241424487152155	2.5802982	1.6063306
31.259623810026692	2.5896573	1.6092412
31.27782394157253	2.5842135	1.607549
31.296024882356644	2.5877287	1.6086419
31.314226632946237	2.5333016	1.5916349
31.332429193908684	2.4629161	1.5693681
31.350632565811598	2.4591517	1.5681683
31.368836749222787	2.429609	1.5587204
31.387041744710295	2.426077	1.5575869
31.40524755284232	2.5049407	1.5827005
31.423454174187317	2.6038256	1.6136373
31.441661609313922	2.6397312	1.624725
31.459869858791002	2.5502481	1.5969497
31.478078923187628	2.344859	1.5312932
31.496288803073064	2.2893617	1.5130637
31.514499499016807	2.3191845	1.5228869
31.532711011588546	2.3149717	1.5215031
31.550923341358178	2.2670887	1.5056854
31.56913648889584	2.2829711	1.5109504
31.587350454771844	2.3298168	1.5263737
31.605565239556732	2.3263767	1.5252464
31.62378084382127	2.2484584	1.4994861
31.641997268136382	2.2280173	1.4926544
31.660214513073274	2.2357183	1.4952319
31.67843257920331	2.200696	1.4834743
31.6966514670981	2.291637	1.5138154
31.71487117732944	2.3267581	1.5253714
31.733091710469346	2.2743661	1.5081002
31.751313067090052	2.2594519	1.5031474
31.769535247764008	2.3061273	1.5185939
31.787758253063878	2.271293	1.5070809
31.805982083562526	2.2111726	1.4870012
31.824206739833024	2.2438638	1.4979532
31.84243222244869	2.2700293	1.5066617
31.860658531983013	2.3044248	1.5180331
31.878885669009737	2.3095381	1.5197165
31.897113634102784	2.3543828	1.5343997
31.91534242783632	2.2601275	1.5033721
31.933572050784694	2.228748	1.4928992
31.951802503522508	2.2197173	1.4898715
31.970033786624548	2.1254027	1.4578761
31.988265900665834	2.138317	1.4622985
32.006498846221575	2.182051	1.4771767
32.02473262386724	2.2084885	1.4860984
32.04296723417845	2.19111	1.4802399
32.0612026777311	2.190046	1.4798805
32.07943895510129	2.1313148	1.4599023
32.097676066865304	2.1328163	1.4604164
32.115914013599685	2.2201838	1.4900281
32.13415279588115	2.237513	1.4958318
32.152392414286666	2.2619305	1.5039716
32.1706328693934	2.2493193	1.4997731
32.18887416177875	2.184099	1.4778697
32.20711629202032	2.0872765	1.444741
32.225359260695924	2.0470726	1.4307594
32.243603068383614	2.153977	1.4676434
32.26184771566166	2.2014112	1.4837153
32.28009320310852	2.1371858	1.4619117
32.2983395313029	2.11051	1.4527595
32.31658670082372	2.1378953	1.4621544
32.33483471225012	2.129673	1.45934
32.35308356616143	2.0454018	1.4301754
32.371333263137245	2.0311306	1.4251773
32.38958380375734	2.0531566	1.432884
32.407835188601744	2.0012004	1.4146379
32.42608741825067	2.0145648	1.4193536
32.444340493284585	1.9845598	1.4087441
32.46259441428416	1.9627897	1.400996
32.48084918183028	1.9980257	1.4135153
32.49910479650405	1.9850688	1.4089247
32.51736125888683	2.0026336	1.4151443
32.53561856956014	1.9569886	1.3989241
32.5538767291058	1.9792686	1.4068648
32.572135738105764	2.0398273	1.4282253
32.59039559714228	2.1373162	1.4619563
32.608656306797776	2.2437968	1.4979309
32.62691786765491	2.2108023	1.4868767
32.645180280296586	2.12675	1.4583381
32.663443545305896	2.0515587	1.4323263
32.68170766326619	2.0511324	1.4321775
32.69997263476099	2.1614034	1.4701712
32.7182384603741	2.1429884	1.463895
32.7365051406895	2.0484104	1.4312268
32.75477267629144	1.9295298	1.3890752
32.77304106776434	1.9283857	1.3886633
32.79131031569289	1.9902526	1.4107631
32.809580420661966	1.9737006	1.4048846
32.827851383256714	2.0114152	1.4182438
32.84612320406245	2.0497928	1.4317098
32.86439588366476	2.0407028	1.4285316
32.88266942264945	1.9288299	1.3888232
32.9009438216025	1.9267523	1.388075
32.9192190811102	1.9779751	1.4064051
32.937495201758985	1.8806254	1.371359
32.95577218413556	1.8107069	1.345625
32.974050028826866	1.8861278	1.3733637
32.992328736420035	2.0603004	1.4353746
33.010608307502444	2.0249972	1.4230239
33.02888874266169	1.9882871	1.4100664
33.047170042485604	2.0280955	1.4241122
33.06545220756225	2.1002822	1.4492351
33.083735238479896	2.0691943	1.4384694
33.10201913582707	1.9377686	1.3920375
33.12030390019248	1.9349753	1.3910339
33.138589532165135	2.0207863	1.4215436
33.15687603233419	1.9859638	1.4092423
33.17516340128909	1.8885384	1.374241
33.19345163961947	1.9856962	1.4091474
33.211740747915215	2.05994	1.4352491
33.23003072676643	1.9891051	1.4103564
33.248321576763466	1.8546745	1.3618643
33.266613298496885	1.7937068	1.3392934
33.28490589255747	1.8382688	1.3558277
33.30319935953626	1.8601516	1.3638737
33.32149370002451	1.8105501	1.3455669
33.339788914613706	1.8443482	1.3580679
33.358085003895575	1.9065778	1.3807888
33.376381968462034	2.0224779	1.4221385
33.39467980890529	1.9841973	1.4086154
33.41297852581774	1.93116	1.3896618
33.43127811979204	1.9467921	1.3952749
33.44957859142105	1.9585506	1.3994823
33.467879941297866	1.9574074	1.3990737
33.486182170015844	2.0089052	1.4173585
33.50448527816853	1.9617132	1.4006118
33.522789266349754	1.8428206	1.3575053
33.541094135153514	1.8194313	1.348863
33.55939988517411	1.8620796	1.3645804
33.57770651700602	1.8722732	1.3683103
33.59601403124398	1.819743	1.3489785
33.61432242848296	1.8576335	1.3629503
33.632631709318154	1.9427152	1.3938131
33.650941874344994	1.9960093	1.412802
33.66925292415916	1.9744031	1.4051346
33.68756485935654	1.8544277	1.3617737
33.70587768053328	1.8190532	1.3487228
33.724191388285746	1.8897746	1.3746908
33.74250598321054	1.9396791	1.3927237
33.760821465904506	1.906805	1.380871
33.77913783696474	1.9261994	1.3878759
33.79745509698852	1.9928766	1.4116929
33.815773246573414	2.007866	1.4169918
33.8340922863172	1.8736252	1.3688043
33.852412216817896	1.8904213	1.374926
33.87073303867377	1.9033127	1.379606
33.889054752483304	1.7900017	1.3379095
33.907377358845245	1.7711322	1.3308389
33.92570085835853	1.8942275	1.3763094
33.94402525162239	1.9432834	1.394017
33.96235053923627	1.9326323	1.3901914
33.980676721799824	1.830746	1.3530506
33.999003799912984	1.8464061	1.3588252
34.01733177417592	1.9806691	1.4073625
34.03566064518901	1.9144478	1.3836358
34.0539904135529	1.9312197	1.3896834
34.07232107986846	2.0123196	1.4185625
34.090652644736785	2.027484	1.4238975
34.108985108759235	1.9709429	1.4039028
34.12731847253742	1.8115246	1.3459289
34.14565273667313	1.907864	1.3812544
34.16398790176847	2.061528	1.4358022
34.18232396842574	2.0075886	1.416894
34.20066093724749	1.9445279	1.3944633
34.21899880883651	1.9327941	1.3902496
34.23733758379583	1.9648929	1.4017464
34.25567726272874	1.9421443	1.3936083
34.27401784623872	1.9824022	1.407978
34.29235933492957	2.0020308	1.4149314
34.31070172940526	2.0161667	1.4199178
34.32904503027003	2.0407758	1.4285573
34.347389238128386	2.06623	1.4374387
34.36573435358502	2.0167544	1.4201248
34.38408037724492	1.9224931	1.3865399
34.402427309713296	1.8923279	1.375619
34.42077515159559	1.8416643	1.3570794
34.43912390349752	1.7879064	1.3371261
34.45747356602499	1.8328526	1.3538289
34.47582413978423	1.9489359	1.396043
34.49417562538163	1.973069	1.4046597
34.51252802342388	1.9673917	1.4026374
34.53088133451789	1.873713	1.3688364
34.54923555927084	1.8321487	1.3535689
34.567590698290104	2.0719008	1.4394099
34.58594675218336	2.1731694	1.4741673
34.6043037215585	2.0858421	1.4442445
34.62266160702365	2.053481	1.4329972
34.641020409187234	2.0324416	1.4256372
34.65938012865785	2.1019025	1.4497939
34.677740766044394	2.1493359	1.4660614
34.69610232195598	2.171503	1.473602
34.714464797002016	2.1064932	1.4513763
34.73282819179208	2.112784	1.4535419
34.751192506936064	1.9311614	1.3896624
34.76955774304408	1.8950921	1.3766235
34.7879239007265	2.01405	1.4191723
34.80629098059391	2.1855164	1.4783492
34.824658983257194	2.1238177	1.4573324
34.843027909327446	1.9486973	1.3959575
34.86139775941603	1.9142767	1.3835739
34.879768534134534	1.9600754	1.4000269
34.89814023409483	1.9283904	1.388665
34.91651285990901	1.7502365	1.322965
34.93488641218944	1.6417291	1.2812998
34.95326089154871	1.6277971	1.2758515
34.97163629859967	1.7438488	1.3205487
34.99001263395542	1.9795444	1.4069629
35.00838989822934	2.2021449	1.4839625
35.02676809203499	2.17912	1.4761842
35.04514721598624	2.0063453	1.4164551
35.063527270697215	1.9642627	1.4015216
35.081908256782256	1.9401964	1.3929093
35.10029017485597	2.1355894	1.4613656
35.11867302553321	1.9253359	1.3875648
35.137056809429104	1.7711678	1.3308523
35.155441527159006	1.9527612	1.3974123
35.173827179338524	2.1300051	1.4594537
35.19221376658354	1.9695385	1.4034024
35.21060128951017	1.9120276	1.3827609
35.2289897487348	1.9764264	1.4058543
35.24737914487405	2.095173	1.4474713
35.26576947854479	2.0162103	1.4199332
35.28416075036418	2.0301735	1.4248416
35.30255296094958	2.2983408	1.5160279
35.32094611091867	2.3667345	1.5384195
35.33934020088932	2.2918067	1.5138714
35.35773523147969	2.238853	1.4962797
35.3761312033082	2.454296	1.5666193
35.394528116993506	2.5622575	1.6007053
35.41292597315452	2.4304245	1.5589819
35.431324772410434	2.1471584	1.4653186
35.449724515380666	2.277434	1.509117
35.46812520268491	2.3264816	1.5252808
35.486526834943106	2.3063858	1.5186789
35.504929412775454	2.4622695	1.569162
35.52333293680242	2.6612797	1.6313429
35.54173740764471	2.3453798	1.5314633
35.560142825923286	2.0726428	1.4396676
35.5785491922594	2.7217937	1.649786
35.59695650727454	3.224776	1.7957661
35.61536477159042	2.6216114	1.6191391
