0.008763373481513119	0.0	0.0
0.026290120649546365	0.0	0.0
0.043816868432600686	0.0	0.0
0.06134361724069026	0.07129023	0.2670023
0.07887036748382949	0.06477356	0.2545065
0.0963971195720331	0.0535538	0.23141694
0.11392387391531617	0.09506403	0.30832455
0.1314506309236943	0.1634262	0.40426007
0.1489773910071836	0.20470335	0.45244154
0.16650415457580078	0.1796476	0.42384854
0.18403092203956356	0.13315351	0.36490205
0.20155769380849	0.16032761	0.4004093
0.2190844702925996	0.21843988	0.46737552
0.2366112519019124	0.2135999	0.4621687
0.2541380390464497	0.15892045	0.3986483
0.27166483213623416	0.1305709	0.36134595
0.28919163158128947	0.09798782	0.31303006
0.3067184377916406	0.09807356	0.31316698
0.324245251177314	0.059287213	0.24348965
0.34177207214833777	0.070678554	0.2658544
0.3592989011147415	0.08983938	0.29973218
0.37682573848655654	0.09456422	0.30751297
0.39435258467381573	0.09177652	0.3029464
0.41187944008655414	0.07967609	0.28226954
0.42940630513480854	0.12878278	0.35886317
0.446933180228618	0.20337832	0.45097485
0.4644600657780234	0.20509899	0.45287856
0.48198696219306775	0.16963056	0.4118623
0.49951386988379676	0.13385345	0.36585987
0.5170407892602581	0.16312875	0.403892
0.5345677207325025	0.21267402	0.46116593
0.5520946647105822	0.19484076	0.4414077
0.5696216216045534	0.1689592	0.41104648
0.5871485918244737	0.16198286	0.40247095
0.6046755757804043	0.1398708	0.37399304
0.6222025738824094	0.1434004	0.37868246
0.6397295865405557	0.15169144	0.38947585
0.6572566141649129	0.174382	0.4175907
0.6747836571655547	0.24896307	0.498962
0.6923107159525568	0.2754735	0.5248557
0.7098377909359992	0.2730126	0.52250606
0.7273648825259653	0.23370288	0.48342827
0.7448919911325411	0.17322902	0.4162079
0.762419117165817	0.14442036	0.3800268
0.7799462610358868	0.16609737	0.40755045
0.7974734231528482	0.17245434	0.41527623
0.8150006039268024	0.19504696	0.4416412
0.8325278037678551	0.20938249	0.4575833
0.8500550230861152	0.23513585	0.48490807
0.8675822622916969	0.23253849	0.48222244
0.8851095217947171	0.21051072	0.45881447
0.9026368020052984	0.197435	0.4443366
0.9201641033335665	0.17019077	0.41254184
0.9376914261896523	0.1600663	0.4000829
0.9552187709836915	0.18130438	0.42579854
0.9727461381258234	0.20482583	0.45257688
0.990273528026193	0.24226211	0.4922013
1.0078009410949496	0.23190638	0.4815666
1.0253283777422473	0.23838408	0.48824593
1.0428558383782454	0.2582199	0.50815344
1.0603833234131086	0.29504716	0.54318243
1.0779108332570058	0.33332145	0.57734
1.0954383683201119	0.35899276	0.59916
1.112965929012607	0.42068577	0.64860296
1.1304935157446763	0.46382433	0.6810465
1.1480211289265108	0.48233345	0.6945023
1.1655487689683062	1.4910443	1.2210833
1.1830764362802655	1.8549063	1.3619494
1.200604131272596	2.2861195	1.5119919
1.2181318543555117	2.4432316	1.563084
1.235659605939232	2.459752	1.5683597
1.253187386433982	3.968294	1.9920577
1.270715196249994	6.2325153	2.4965007
1.2882430357975057	11.64041	3.4118047
1.3057709054867608	16.331528	4.0412283
1.3232988057280106	22.101955	4.7012715
1.3408267369315112	26.846348	5.181346
1.358354699507526	29.990473	5.476356
1.3758826938663256	33.92234	5.824289
1.3934107204181858	35.901924	5.9918213
1.410938779573391	36.417507	6.034692
1.4284668717422309	37.625134	6.133933
1.4459949973350033	37.479218	6.1220274
1.4635231567620117	37.823963	6.150119
1.4810513504335687	37.528664	6.1260643
1.4985795787599925	36.802414	6.066499
1.5161078421516088	36.15988	6.0133085
1.5336361410187505	34.934258	5.910521
1.5511644757717598	34.754616	5.8953047
1.5686928468209842	34.82785	5.9015126
1.58622125457678	35.444775	5.9535513
1.6037496994495108	36.88402	6.0732217
1.621278181849548	36.894993	6.074125
1.6388067021872719	37.89977	6.1562786
1.6563352608730693	37.156063	6.0955772
1.673863858317336	36.553185	6.0459228
1.6913924949304753	35.71429	5.9761434
1.7089211711228998	34.940594	5.911057
1.7264498873050296	33.846115	5.8177414
1.7439786438872935	32.856743	5.73208
1.7615074412801288	32.08927	5.664739
1.779036279893981	31.60744	5.6220493
1.796565160139305	30.756521	5.545856
1.814094082426564	29.983696	5.475737
1.8316230471662298	29.253433	5.408644
1.849152054768784	28.23863	5.314003
1.8666811056447168	27.421183	5.236524
1.8842102002045273	26.43231	5.1412363
1.901739338858724	25.619379	5.0615587
1.9192685220178245	25.205315	5.0204897
1.9367977500923557	24.626972	4.962557
1.9543270234928547	24.443848	4.944072
1.971856342629867	23.908796	4.8896623
1.9893857079139496	23.29841	4.826843
2.006915119755667	22.487242	4.7420716
2.0244445785655945	21.718903	4.660354
2.0419740847543175	21.638062	4.651673
2.0595036387324317	21.358572	4.6215334
2.0770332409105414	21.162798	4.600304
2.094562891699263	20.720259	4.551951
2.1120925915092217	20.239748	4.498861
2.129622340751053	19.821634	4.4521494
2.1471521398354043	188.03415	13.712554
2.1646819891729323	444.31372	21.07875
2.182211889174303	440.49542	20.987984
2.1997418402501974	452.66934	21.276028
2.2172718428113023	432.40872	20.79444
2.234801897268317	320.28937	17.89663
2.2523320040319548	16.778702	4.0961814
2.269862163512935	16.693996	4.085829
2.287392376121992	16.457817	4.0568237
2.304922642269869	15.917991	3.9897356
2.322452962367322	15.603149	3.9500823
2.3399833368251164	15.3945265	3.923586
2.357513766054032	15.198574	3.8985348
2.3750442504648586	15.210123	3.9000158
2.3925747904683963	15.142129	3.8912888
2.410105386475459	14.9645	3.8683977
2.4276360388968707	14.232224	3.772562
2.445166748143469	13.709823	3.7026777
2.4626975146261025	13.478885	3.67136
2.4802283387556323	13.44733	3.6670601
2.4977592209429305	13.387386	3.6588778
2.5152901615988825	13.153726	3.6268065
2.5328211611343865	12.965558	3.600772
2.5503522199603523	12.702274	3.564025
2.5678833384877024	12.37128	3.517283
2.5854145171273712	12.152743	3.4860785
2.6029457562903064	11.999518	3.4640322
2.620477056387469	11.845984	3.4417996
2.6380084178298326	11.673792	3.4166932
2.655539841028383	11.42433	3.3799896
2.673071326394119	11.174156	3.3427768
2.6906028743380523	10.967582	3.311734
2.708134485271211	10.708257	3.2723472
2.7256661596046325	10.639797	3.2618701
2.743197897749369	10.494795	3.239567
2.760729700116486	10.485053	3.238063
2.778261567117063	10.411794	3.226731
2.795793499162193	10.41287	3.226898
2.8133254966629817	10.258917	3.2029543
2.830857560030551	9.972093	3.157862
2.8483896896760337	9.722693	3.1181233
2.865921886010578	9.603912	3.0990179
2.883454149445347	9.487992	3.0802584
2.9009864803915177	9.410093	3.0675876
2.91851887926028	9.284016	3.0469682
2.9360513464628384	9.2066345	3.0342436
2.953583882410413	9.075288	3.0125217
2.9711164875142373	8.867599	2.9778514
2.9886491621855606	8.62387	2.9366426
3.0061819068356455	8.40349	2.8988774
3.023714721875769	8.44985	2.9068625
3.041247607717225	8.484298	2.9127817
3.0587805647713213	8.4972105	2.9149976
3.0763135934493806	8.317856	2.8840692
3.0938466941627407	8.148482	2.8545547
3.1113798673227544	8.041698	2.835789
3.1289131133407904	7.914718	2.8133109
3.1464464326282315	7.78589	2.7903209
3.1639798255964786	7.666949	2.7689257
3.1815132926569443	7.486364	2.7361221
3.1990468342210603	7.39275	2.7189612
3.216580450700272	7.4004536	2.7203774
3.2341141425060416	7.307038	2.7031534
3.251647910049847	7.241006	2.6909118
3.2691817537431813	7.1039066	2.6653154
3.286715673997555	6.9231772	2.6311932
3.3042496712244938	6.847955	2.61686
3.32178374583554	6.8216944	2.6118374
3.339317898242251	6.8287873	2.613195
3.3568521288562034	6.843894	2.6160836
3.3743864380889876	6.7830257	2.6044242
3.3919208263522127	6.712113	2.5907745
3.4094552940575023	6.6480975	2.5783906
3.4269898416164972	6.658097	2.5803287
3.444524469440858	6.6513696	2.579025
3.4620591779422587	6.5917873	2.5674477
3.479593967532391	6.5103974	2.551548
3.4971288386229658	6.4758377	2.5447667
3.5146637916257086	6.532891	2.555952
3.5321988269523628	6.487387	2.547035
3.5497339450146903	6.389846	2.5278144
3.5672691462244708	6.2442446	2.4988487
3.5848044309934988	6.173529	2.4846587
3.60233979973359	6.1712666	2.4842033
3.619875252856575	6.187065	2.4873812
3.6374107907743034	6.2010145	2.4901836
3.6549464138986427	6.106163	2.471065
3.6724821226414788	6.0740423	2.4645572
3.690017917414714	6.093626	2.468527
3.7075537986302702	6.164541	2.4828494
3.7250897667000857	6.170469	2.484043
3.7426258220361235	6.4280653	2.535363
3.7601619650503553	6.8330956	2.6140192
3.777698196154779	7.3331294	2.7079751
3.7952345157614067	8.4232855	2.9022896
3.8127709242822716	9.134188	3.022282
3.830307422129425	11.321847	3.3647952
3.847844009714936	30.044525	5.4812884
3.8653806874508954	97.51197	9.874815
3.882917455749409	96.88502	9.843019
3.900454315022606	96.92836	9.845221
3.917991265682631	41.58891	6.4489465
3.9355283081416506	11.244868	3.3533368
3.9530654428118495	8.786041	2.9641256
3.970602670105433	7.361044	2.7131243
3.9881399904346244	6.490881	2.5477207
4.005677404211669	6.5753264	2.56424
4.023214911848827	6.4869137	2.546942
4.0407525137583855	6.3874803	2.5273464
4.058290210352644	6.317619	2.5134873
4.075828002043927	6.306602	2.5112948
4.0933658892445814	6.2769094	2.505376
4.110903872366966	6.279348	2.5058627
4.128441951823468	6.189986	2.4879682
4.145980128026488	6.1678457	2.4835148
4.163518401388452	6.095234	2.4688528
4.181056772321807	6.057005	2.4610984
4.1985952412390155	6.119951	2.4738533
4.216133808552567	6.2665467	2.503307
4.233672474674966	6.3659534	2.5230842
4.251211240018741	6.4666967	2.5429702
4.268750104996445	6.638849	2.5765963
4.286289070020643	7.5027895	2.739122
4.303828135503928	9.131686	3.021868
4.3213673018589125	29.409412	5.4230447
4.3389065694982305	90.464516	9.511284
4.356445938834537	165.63158	12.869793
4.3739854102805085	171.50513	13.095997
4.391524984248844	172.46368	13.132543
4.409064661152262	136.50063	11.683349
4.426604441403504	96.69783	9.833506
4.444144325415337	75.45827	8.686672
4.461684313600543	21.477098	4.634339
4.47922440637193	21.843763	4.6737313
4.496764604142329	20.272873	4.5025406
4.5143049073245916	18.551897	4.3071914
4.531845316331589	16.491093	4.0609226
4.5493858315762195	13.672303	3.6976078
4.566926453471405	11.337929	3.3671842
4.584467182430081	9.46403	3.0763664
4.602008018865218	8.250804	2.8724213
4.619548963189798	7.564432	2.7503512
4.637090015816834	7.0607333	2.6572042
4.654631177159353	6.8566756	2.6185255
4.672172447630417	6.5264244	2.5546868
4.689713827643102	6.333904	2.5167248
4.7072553176105085	6.013378	2.452219
4.724796917945764	5.8041296	2.409176
4.742338629062015	5.721105	2.3918831
4.759880451372434	5.699867	2.3874395
4.777422385290215	5.6647334	2.38007
4.794964431228581	5.5894036	2.364192
4.812506589600768	5.555401	2.3569899
4.830048860820047	5.531562	2.3519273
4.847591245299709	5.535512	2.352767
4.8651337434530655	5.5846434	2.363185
4.882676355693457	5.615232	2.369648
4.900219082434242	5.7024055	2.387971
4.917761924088813	5.6580954	2.3786752
4.935304881070575	5.629493	2.3726554
4.952847953792969	5.5447288	2.354725
4.970391142669449	5.4977736	2.3447332
4.9879344481135055	5.51032	2.347407
5.005477870538642	5.415645	2.327154
5.023021410358394	5.4734764	2.3395462
5.040565067986324	5.401924	2.324204
5.05810884383601	5.3268256	2.3079917
5.075652738321066	5.261905	2.2938843
5.09319675185512	5.248606	2.2909837
5.110740884851836	5.368916	2.3170922
5.128285137724894	5.3947845	2.3226676
5.145829510888007	5.35801	2.3147376
5.163374004754908	5.3439913	2.3117075
5.1809186197393595	5.283286	2.2985399
5.198463356255145	5.3183656	2.306158
5.216008214716077	5.323243	2.3072155
5.233553195535998	5.3285594	2.3083673
5.251098299128764	5.2622333	2.2939558
5.268643525908272	5.210802	2.2827182
5.286188876288432	5.21501	2.2836397
5.3037343506831895	5.1478424	2.2688856
5.32127994950651	5.184037	2.276848
5.3388256731723915	5.2015257	2.2806854
5.356371522094851	5.1799054	2.2759407
5.373917496687938	5.1204004	2.2628303
5.391463597365729	5.094105	2.2570124
5.40900982454232	5.138893	2.2669127
5.426556178631843	5.236704	2.2883844
5.444102660048449	5.2345853	2.2879217
5.4616492692063225	5.216335	2.2839296
5.479196006519669	5.212141	2.2830114
5.496742872402727	5.2129254	2.283183
5.514289867269756	5.1624436	2.2721012
5.531836991535049	5.0596504	2.2493668
5.549384245612924	4.958065	2.2266712
5.566931629917724	4.9406104	2.2227483
5.584479144863822	4.9239874	2.219006
5.6020267908656205	4.9575987	2.2265666
5.619574568337545	4.983297	2.2323298
5.637122477694054	5.0231657	2.241242
5.654670519349629	5.0457573	2.2462764
5.672218693718784	5.04925	2.2470536
5.689767001216059	5.039552	2.2448947
5.707315442256021	5.079092	2.253684
5.724864017253266	5.040193	2.2450373
5.7424127266224225	5.039458	2.2448738
5.75996157077814	5.0475993	2.2466862
5.777510550135105	5.0998464	2.2582839
5.795059665108022	5.0914636	2.256427
5.812608916111639	5.071646	2.2520316
5.830158303560715	5.138501	2.2668262
5.847707827870055	5.253679	2.2920904
5.86525748945448	5.2974677	2.3016229
5.8828072887288485	5.36724	2.3167305
5.900357226108044	5.4565473	2.3359253
5.917907302006979	5.551988	2.3562658
5.9354575168406	6.173445	2.4846418
5.9530078710238765	6.724129	2.5930927
5.970558364971812	7.2145844	2.6859977
5.988108999099438	7.5214715	2.74253
6.005659773821818	8.027342	2.8332565
6.023210689554039	7.763031	2.7862217
6.040761746711227	8.123536	2.8501818
6.058312945708531	7.517256	2.7417614
6.075864286961132	7.191198	2.6816409
6.093415770884244	6.643963	2.5775886
6.1109673978931065	6.1047964	2.4707887
6.128519168402993	5.479819	2.3409014
6.146071082829204	5.3143516	2.3052878
6.163623141587075	5.2217703	2.2851193
6.181175345091969	5.186202	2.2773235
6.198727693759281	5.192835	2.2787793
6.216280188004435	5.131967	2.2653844
6.233832828242885	5.02284	2.2411695
6.251385614890126	4.972675	2.2299495
6.268938548361669	5.0440426	2.2458947
6.286491629073067	4.995268	2.2350097
6.304044857439898	5.0347176	2.2438176
6.321598233877777	5.0051317	2.2372153
6.339151758802344	5.0302	2.2428107
6.356705432629277	4.991788	2.234231
6.37425925577428	4.914294	2.2168207
6.391813228653095	4.9256673	2.2193844
6.409367351681486	4.982689	2.2321937
6.426921625275259	4.9985685	2.2357478
6.44447604985025	4.981073	2.2318318
6.46203062582232	4.956351	2.2262864
6.47958535360737	4.983413	2.232356
6.497140233621328	4.986194	2.2329788
6.514695266280161	5.059207	2.249268
6.532250451999859	5.0815225	2.2542233
6.549805791196454	5.1172414	2.262132
6.567361284286002	5.1084247	2.2601824
6.584916931684597	5.064378	2.2504172
6.602472733808367	5.004566	2.2370887
6.6200286910734665	4.961843	2.2275195
6.637584803896092	4.913389	2.2166166
6.655141072692462	4.9073396	2.2152517
6.672697497878842	4.878134	2.2086499
6.690254079871514	4.921447	2.2184334
6.707810819086808	4.94253	2.2231803
6.725367715941078	4.978938	2.2313535
6.742924770850719	5.00885	2.238046
6.760481984232151	4.980328	2.231665
6.778039356501836	4.979387	2.231454
6.795596888076266	4.939451	2.2224877
6.813154579371963	4.8902144	2.2113829
6.830712430805492	4.906762	2.2151213
6.84827044279344	4.93142	2.22068
6.865828615752445	4.9857097	2.2328703
6.883386950099159	5.000461	2.236171
6.900945446250287	4.9513516	2.2251632
6.918504104622553	4.921766	2.2185054
6.936062925632727	4.9630113	2.2277818
6.953621909697607	4.9821267	2.2320678
6.971181057234028	5.0565367	2.2486744
6.988740368658859	5.079122	2.2536907
7.006299844389007	5.0838714	2.2547443
7.023859484841407	5.1222878	2.2632473
7.041419290433036	5.228642	2.2866223
7.058979261580902	5.409969	2.325934
7.0765393987020495	5.7138615	2.3903685
7.094099702213559	6.175453	2.485046
7.111660172532549	6.577085	2.5645828
7.129220810076164	6.8732433	2.6216872
7.146781615261595	7.400962	2.720471
7.16434258850606	7.486423	2.7361329
7.181903730226821	7.9342923	2.8167875
7.1994650408411704	7.988559	2.8264039
7.217026520766437	8.077636	2.8421183
7.234588170419983	8.311099	2.8828976
7.252149990219215	8.311759	2.883012
7.269711980581568	8.292356	2.879645
7.2872741419245175	8.077413	2.842079
7.304836474665574	7.6443624	2.764844
7.322398979222286	7.3249884	2.7064717
7.339961656012233	7.070189	2.6589828
7.357524505453039	6.7730894	2.602516
7.375087527962357	6.541539	2.5576432
7.392650723957886	6.259778	2.5019548
7.410214093857353	5.9411263	2.4374425
7.427777638078528	5.6667247	2.3804884
7.445341357039213	5.4827933	2.3415365
7.4629052511572525	5.373501	2.3180814
7.480469320850524	5.3349504	2.3097513
7.498033566536948	5.3374224	2.3102863
7.5155979886344735	5.2855463	2.2990315
7.5331625875610975	5.2066097	2.2817996
7.550727363734844	5.1406794	2.2673066
7.568292317573788	5.1088934	2.260286
7.585857449496025	5.1205206	2.2628567
7.603422759919705	5.1447296	2.2681997
7.620988249263007	5.1725802	2.2743306
7.638553917944147	5.168643	2.273465
7.656119766381391	5.1528583	2.269991
7.673685794993023	5.1501927	2.2694037
7.691252004197388	5.1088567	2.260278
7.70881839441285	5.127217	2.2643359
7.726384966057826	5.0581236	2.2490273
7.743951719550762	5.1355357	2.266172
7.761518655310149	5.1603646	2.2716436
7.779085773754511	5.2406163	2.2892392
7.796653075302419	5.227949	2.286471
7.814220560372475	5.290601	2.3001306
7.831788229383323	5.271949	2.2960725
7.8493560827536495	5.276037	2.2969625
7.866924120902174	5.253352	2.2920191
7.884492344247663	5.2163153	2.2839253
7.9020607532089135	5.2367086	2.2883856
7.919629348204771	5.2495885	2.291198
7.937198129654115	5.2918897	2.3004107
7.954767097975865	5.323664	2.3073068
7.972336253588986	5.3029966	2.3028235
7.989905596912472	5.31575	2.305591
8.007475128365371	5.362318	2.3156679
8.025044848366756	5.410611	2.326072
8.042614757335754	5.507554	2.346818
8.060184855691523	5.5190935	2.349275
8.07775514385327	5.6495934	2.3768873
8.095325622240228	5.7732377	2.4027562
8.112896291271687	5.833915	2.41535
8.130467151366968	5.8824944	2.4253855
8.148038202945436	5.9342823	2.4360383
8.165609446426497	6.018004	2.453162
8.183180882229594	6.0564795	2.4609916
8.200752510774217	6.009916	2.451513
8.218324332479893	5.9497023	2.439201
8.235896347766193	5.86539	2.4218566
8.253468557052724	5.8411303	2.416843
8.27104096075914	5.895004	2.4279628
8.288613559305137	5.929275	2.4350102
8.306186353110448	6.025398	2.4546685
8.32375934259485	6.0642586	2.4625716
8.341332528178162	6.168186	2.4835835
8.358905910280246	6.2689614	2.5037894
8.376479489321003	6.2919807	2.508382
8.394053265720377	6.2890677	2.5078013
8.411627239898356	6.2107773	2.4921432
8.42920141227497	6.20644	2.4912727
8.44677578327029	6.1546226	2.4808512
8.464350353304427	6.0748343	2.4647179
8.48192512279754	6.0361285	2.4568534
8.499500092169827	6.0687823	2.4634898
8.51707526184153	6.0952396	2.468854
8.534650632232934	6.1150746	2.4728677
8.552226203764365	6.093854	2.4685733
8.569801976856192	6.0758376	2.4649215
8.587377951928834	6.105349	2.4709005
8.60495412940274	6.165347	2.4830117
8.622530509698416	6.2236595	2.4947264
8.6401070932364	6.315888	2.513143
8.657683880437283	6.3599176	2.5218878
8.675260871721695	6.5756316	2.5642993
8.692838067510303	6.8363423	2.61464
8.710415468223834	7.073178	2.6595447
8.727993074283043	7.23188	2.6892154
8.745570886108737	7.1829777	2.6801078
8.763148904121765	7.1724133	2.678136
8.78072712874302	7.175589	2.678729
8.798305560393441	7.3653393	2.7139158
8.815884199494006	7.5267153	2.743486
8.833463046465745	7.667572	2.7690382
8.851042101729728	7.7766232	2.7886598
8.86862136570707	8.092764	2.8447783
8.886200838818924	8.264725	2.8748434
8.903780521486505	8.289437	2.8791382
8.921360414131055	8.348917	2.8894494
8.938940517173874	8.462717	2.909075
8.956520831036297	8.604073	2.93327
8.97410135613971	8.89774	2.982908
8.99168209290554	9.117843	3.0195765
9.009263041755265	9.401677	3.0662155
9.026844203110405	9.603644	3.0989747
9.044425577392525	9.756539	3.123546
9.062007165023239	9.841443	3.1371074
9.079588966424197	10.125787	3.182104
9.097170982017108	10.251505	3.2017972
9.11475321222372	11.098697	3.3314707
9.132335657465825	11.961184	3.4584944
9.149918318165264	12.025867	3.4678333
9.167501194743924	12.596242	3.5491185
9.18508428762374	12.372224	3.5174172
9.202667597226693	12.405509	3.5221455
9.220251123974803	12.081063	3.4757824
9.237834868290143	11.741183	3.426541
9.255418830594836	11.554794	3.3992343
9.273003011311046	11.049144	3.3240252
9.290587410860985	10.758617	3.280033
9.308172029666911	10.088701	3.1762717
9.32575686815113	9.848567	3.1382427
9.343341926735997	8.660779	2.9429202
9.360927205843916	8.424674	2.902529
9.378512705897327	8.212719	2.8657842
9.396098427318728	8.00635	2.8295493
9.413684370530664	7.923918	2.8149455
9.431270535955722	7.8167024	2.7958367
9.448856924016539	7.697182	2.7743795
9.466443535135806	7.573881	2.7520685
9.484030369736251	7.6335883	2.7628949
9.501617428240658	7.656595	2.7670553
9.519204711071852	7.710989	2.7768667
9.536792218652714	7.785234	2.7902033
9.55437995140617	7.8619576	2.8039184
9.571967909755191	7.904918	2.8115687
9.589556094122802	7.87598	2.8064177
9.60714450493207	7.856931	2.803022
9.624733142606116	7.8686066	2.8051038
9.642322007568108	7.895546	2.8099015
9.659911100241267	7.8940654	2.809638
9.677500421048851	7.9384556	2.8175266
9.695089970414175	8.005886	2.8294675
9.712679748760609	8.007149	2.8296905
9.730269756511557	8.053111	2.8378005
9.747859994090492	8.090554	2.84439
9.765450461920915	8.125554	2.8505359
9.78304116042639	8.134793	2.852156
9.800632090030527	8.0603285	2.8390718
9.81822325115699	8.093977	2.8449914
9.835814644229481	8.129739	2.8512697
9.853406269671762	8.187149	2.8613195
9.870998127907646	8.13579	2.8523307
9.888590219360985	8.156391	2.8559396
9.906182544455698	8.235337	2.8697278
9.923775103615734	8.292271	2.8796303
9.941367897265108	8.299798	2.880937
9.958960925827878	8.291493	2.8794954
9.97655418972816	8.302279	2.8813677
9.994147689390106	8.331873	2.8864985
10.011741425237934	8.300391	2.8810399
10.029335397695904	8.198604	2.8633204
10.04692960718833	8.130274	2.8513634
10.06452405413958	8.135561	2.8522904
10.082118738974064	8.163572	2.8571966
10.099713662116246	8.163592	2.8572001
10.117308823990651	8.118436	2.8492868
10.134904225021844	8.128255	2.8510094
10.152499865634445	8.172409	2.8587425
10.170095746253125	8.181823	2.8603885
10.18769186730261	8.213866	2.8659844
10.205288229207675	8.110411	2.8478782
10.222884832393145	8.129171	2.85117
10.2404816772839	8.122757	2.850045
10.258078764304868	8.12953	2.851233
10.275676093881035	8.100002	2.8460503
10.293273666437438	8.053791	2.8379202
10.310871482399158	8.060118	2.8390346
10.32846954219134	8.031141	2.833927
10.346067846239173	8.083985	2.843235
10.363666394967908	8.170602	2.8584266
10.38126518880283	8.199859	2.8635395
10.398864228169298	8.258487	2.8737583
10.416463513492713	8.20573	2.8645647
10.434063045198531	8.088845	2.8440895
10.451662823712262	8.063743	2.839673
10.469262849459467	7.9859266	2.8259382
10.486863122865758	7.9308643	2.816179
10.504463644356806	7.905037	2.8115897
10.522064414358338	7.867673	2.8049371
10.539665433296118	7.879076	2.8069692
10.557266701595987	7.8865967	2.8083086
10.574868219683818	7.8154726	2.7956166
10.592469987985552	7.772492	2.7879188
10.610072006927185	7.6535635	2.7665074
10.627674276934751	7.6060715	2.7579107
10.64527679843435	7.4312205	2.7260265
10.662879571852143	7.322199	2.7059562
10.680482597614331	7.184173	2.6803308
10.698085876147173	7.0552564	2.6561732
10.715689407876988	6.985677	2.643043
10.733293193230146	6.8978477	2.6263754
10.750897232633072	6.810777	2.6097465
10.76850152651225	6.642624	2.577329
10.786106075294207	6.539188	2.5571835
10.803710879405534	6.3980317	2.529433
10.821315939272877	6.3467546	2.5192766
10.83892125532294	6.245162	2.4990323
10.856526827982472	6.209678	2.4919226
10.874132657678285	6.1544538	2.480817
10.891738744837243	6.1950803	2.4889917
10.909345089886271	6.1707406	2.4840975
10.926951693252343	6.1557474	2.481078
10.944558555362494	6.078205	2.4654016
10.96216567664381	6.00974	2.451477
10.979773057523436	5.9313607	2.4354384
10.997380698428573	5.8926225	2.4274724
11.014988599786477	5.8571696	2.420159
11.032596762024461	5.792283	2.4067163
11.050205185569892	5.7089334	2.3893375
11.067813870850198	5.6056166	2.3676183
11.085422818292859	5.539467	2.3536072
11.10303202832541	5.4668407	2.3381276
11.120641501375454	5.4030366	2.3244433
11.138251237870636	5.325645	2.307736
11.155861238238671	5.233722	2.287733
11.173471502907317	5.2034874	2.2811153
11.191082032304402	5.098949	2.2580853
11.208692826857805	5.0804725	2.2539904
11.226303886995465	5.026775	2.242047
11.243915213145371	4.978056	2.2311556
11.261526805735578	4.904499	2.2146103
11.279138665194196	4.852631	2.202869
11.296750791949393	4.826073	2.1968324
11.314363186429393	4.776594	2.185542
11.331975849062479	4.693837	2.1665266
11.34958878027699	4.606648	2.1463103
11.36720198050133	4.55974	2.1353548
11.384815450163948	4.4979305	2.1208324
11.402429189693366	4.504521	2.1223857
11.420043199518153	4.463428	2.1126826
11.437657480066942	63.45242	7.9657025
11.455272031768422	85.136635	9.226952
11.472886855051353	107.49432	10.367947
11.490501950344528	99.068054	9.953294
11.508117318076819	84.409966	9.1874895
11.52573295867715	45.80648	6.7680483
11.543348872574514	4.1460156	2.0361767
11.560965060197946	4.1183305	2.029367
11.57858152197655	4.041112	2.0102518
11.59619825833949	3.9688022	1.9921852
11.613815269715985	3.8741796	1.9682935
11.631432556535323	38.40959	6.1975474
11.649050119226837	83.018776	9.111464
11.666667958219929	93.436966	9.66628
11.68428607394406	107.69224	10.377487
11.701904466828756	82.50301	9.083117
11.719523137303586	65.344444	8.083591
11.737142085798196	4.569496	2.137638
11.754761312742286	3.7210667	1.9290067
11.772380818565619	3.6769218	1.9175302
11.790000603698015	3.6711154	1.9160155
11.80762066856935	3.5838084	1.8930949
11.825241013609572	3.5211663	1.8764771
11.842861639248683	3.5067155	1.8726226
11.860482545916748	3.4582646	1.859641
11.878103734043883	3.429239	1.8518205
11.895725204060282	3.378235	1.8379976
11.91334695639619	3.3291473	1.8245951
11.930968991481919	3.3396506	1.8274711
11.948591309747824	3.3356085	1.8263649
11.966213911624347	3.366193	1.8347188
11.98383679754198	3.3580835	1.8325075
12.001459967931268	3.367427	1.8350551
12.019083423222835	3.3446207	1.8288304
12.036707163847352	3.2910595	1.8141278
12.05433119023556	3.1914327	1.7864581
12.071955502818259	3.118327	1.7658786
12.089580102026313	3.1061156	1.7624176
12.107204988290643	3.145923	1.773675
12.12483016204224	3.1280851	1.7686393
12.142455623712152	3.1144733	1.7647871
12.16008137373149	3.0757642	1.7537857
12.177707412531431	3.1123068	1.7641732
12.19533374054321	3.0829606	1.7558361
12.212960358198126	3.0379002	1.7429574
12.230587265927545	3.0135643	1.735962
12.248214464162889	3.019939	1.7377971
12.265841953335649	3.0454657	1.7451262
12.283469733877375	3.0613358	1.7496673
12.301097806219685	3.0569649	1.7484179
12.31872617079425	3.045915	1.745255
12.336354828032825	3.0117579	1.7354417
12.353983778367205	2.9661846	1.7222614
12.371613022229262	2.953684	1.7186285
12.389242560050928	2.9390016	1.7143517
12.406872392264201	2.931839	1.7122613
12.424502519301143	2.908556	1.7054489
12.442132941593874	2.8598704	1.6911151
12.459763659574586	2.8322325	1.6829238
12.477394673675532	2.8372371	1.68441
12.49502598432903	2.8430772	1.6861427
12.51265759196746	2.841539	1.6856865
12.530289497023267	2.8284724	1.6818063
12.547921699928967	2.811347	1.6767071
12.565554201117134	2.7878025	1.6696714
12.583187001020404	2.8009448	1.6736023
12.600820100071486	2.815469	1.677936
12.618453498703152	2.834932	1.6837257
12.636087197348235	2.8064573	1.6752484
12.65372119643964	2.8095744	1.6761785
12.671355496410326	2.801064	1.673638
12.68899009769333	2.8222265	1.6799483
12.706625000721749	2.8229554	1.6801653
12.724260205928752	2.8934457	1.7010132
12.741895713747551	2.9113233	1.7062601
12.759531524611454	2.968508	1.7229359
12.777167638953818	2.968617	1.7229675
12.794804057208072	3.0067897	1.7340097
12.812440779807702	3.0462604	1.7453539
12.830077807186271	3.2215328	1.7948629
12.847715139777405	3.246721	1.8018659
12.865352778014795	3.429411	1.8518668
12.882990722332197	3.4991841	1.8706106
12.90062897316344	3.566679	1.8885653
12.918267530942412	3.626555	1.9043516
12.935906396103071	3.5055501	1.8723115
12.953545569079449	3.6864958	1.920025
12.971185050305628	3.5564554	1.8858566
12.988824840215775	3.5783837	1.8916616
13.006464939244115	3.6236045	1.9035767
13.024105347824943	3.4807165	1.8656678
13.041746066392617	3.5418432	1.8819785
13.05938709538157	3.318025	1.8215446
13.077028435226296	3.3454876	1.8290675
13.094670086361363	3.3153522	1.8208109
13.112312049221401	3.226039	1.7961178
13.129954324241112	3.1081054	1.762982
13.147596911855258	2.885194	1.6985859
13.165239812498685	2.8667037	1.6931343
13.182883026606293	2.7849662	1.6688218
13.200526554613058	2.7381248	1.654728
13.218170396954017	2.6902354	1.6401937
13.235814554064284	2.714195	1.6474814
13.253459026379034	2.7205064	1.6493958
13.271103814333523	2.7095847	1.6460816
13.288748918363058	2.6699772	1.6340065
13.306394338903031	2.6475098	1.627117
13.32404007638889	2.6135375	1.6166439
13.341686131256164	2.6264007	1.6206174
13.359332503940449	2.6096697	1.6154472
13.376979194877402	2.6393788	1.6246165
13.394626204502751	2.6584513	1.6304758
13.412273533252307	2.6675146	1.6332527
13.429921181561937	2.6448426	1.6262972
13.447569149867581	2.6603646	1.6310624
13.465217438605247	2.6770964	1.6361835
13.482866048211022	2.6882734	1.6395955
13.500514979121052	2.7125802	1.6469913
13.518164231771568	2.6841407	1.6383348
13.535813806598844	2.669922	1.6339896
13.553463704039254	2.6243749	1.6199923
13.571113924529229	2.6394193	1.624629
13.588764468505275	2.685258	1.6386757
13.606415336403956	2.7040975	1.6444141
13.624066528661917	2.7246013	1.6506367
13.641718045715882	2.7692683	1.6641119
13.659369888002635	2.8320472	1.6828687
13.67702205595903	2.8999197	1.7029151
13.694674550021993	2.9045823	1.7042835
13.712327370628532	2.9853973	1.7278303
13.729980518215713	3.0659406	1.7509828
13.747633993220681	3.1879683	1.7854882
13.765287796080647	3.2024343	1.7895347
13.7829419272329	3.2253568	1.7959279
13.800596387114801	3.2223518	1.795091
13.818251176163775	3.2625842	1.8062625
13.835906294817324	3.2975452	1.8159144
13.853561743513023	3.3371632	1.8267905
13.871217522688525	3.3128855	1.8201333
13.888873632781538	3.3382235	1.8270806
13.906530074229858	3.391924	1.8417176
13.92418684747135	3.442429	1.8553784
13.941843952943948	3.4476097	1.856774
13.959501391085665	3.4006407	1.8440826
13.977159162334578	3.3175848	1.8214238
13.994817267128846	3.3064222	1.818357
14.012475705906693	3.2467155	1.8018645
14.030134479106424	3.188492	1.7856349
14.047793587166414	3.1085305	1.7631025
14.065453030525108	3.0475385	1.74572
14.083112809621026	2.9800148	1.726272
14.100772924892766	2.8892279	1.6997728
14.118433376778997	2.8438096	1.6863599
14.136094165718458	2.769266	1.6641111
14.153755292149969	2.727007	1.6513652
14.171416756512416	2.6799824	1.6370652
14.189078559244768	2.6588318	1.6305925
14.20674070078606	2.5821865	1.6069183
14.224403181575408	2.5245183	1.5888733
14.242066002051999	2.492038	1.578619
14.259729162655093	2.4800816	1.5748274
14.277392663824022	2.4533153	1.5663062
14.295056505998208	2.4154155	1.5541607
14.312720689617128	2.3977542	1.5484684
14.330385215120348	2.375799	1.5413626
14.348050082947497	2.4069912	1.5514481
14.3657152935383	2.4398155	1.5619909
14.383380847332528	2.448265	1.5646933
14.401046744770051	2.4053571	1.5509213
14.418712986290798	2.3427243	1.530596
14.436379572334793	2.3473122	1.532094
14.454046503342123	2.3635473	1.5373833
14.471713779752946	2.3546755	1.5344952
14.489381402007504	2.3676038	1.538702
14.507049370546113	2.367938	1.5388106
14.524717685809168	2.3656185	1.5380567
14.542386348237134	2.3743515	1.5408931
14.560055358270553	2.3929782	1.5469254
14.577724716350051	2.408454	1.5519195
14.595394422916325	2.392855	1.5468856
14.61306447841015	2.4322295	1.5595607
14.63073488327237	2.4474432	1.5644306
14.648405637943917	2.5047677	1.5826458
14.6660767428658	2.5265691	1.5895185
14.683748198479094	2.5750346	1.6046914
14.701420005224954	2.5757036	1.6048999
14.719092163544628	2.5965118	1.6113696
14.73676467387942	2.6268718	1.6207627
14.754437536670727	2.631182	1.6220919
14.772110752360014	2.6481953	1.6273277
14.78978432138882	2.6433008	1.6258231
14.807458244198777	2.6585798	1.6305152
14.82513252123159	2.685545	1.6387632
14.842807152929028	2.7054558	1.644827
14.860482139732962	2.6841965	1.6383518
14.87815748208531	2.6783595	1.6365694
14.8958331804281	2.6795619	1.6369368
14.91350923520342	2.6741967	1.6352972
14.931185646853438	2.685106	1.6386293
14.948862415820408	2.662193	1.6316228
14.966539542546656	2.6789575	1.6367521
14.98421702747459	2.6616778	1.631465
15.001894871046696	2.6498058	1.6278224
15.019573073705542	2.6251156	1.6202209
15.037251635893766	2.599091	1.6121696
15.054930558054092	2.6045053	1.613848
15.072609840629323	2.6724148	1.6347522
15.090289484062351	2.7906787	1.6705325
15.107969488796124	3.0902827	1.75792
15.125649855273691	3.5707312	1.8896378
15.14333058393817	4.0939846	2.0233598
15.161011675232768	5.047276	2.2466145
15.17869312960076	6.354669	2.5208468
15.196374947485506	8.184691	2.86089
15.214057129330447	11.233584	3.351654
15.231739675579114	15.911882	3.98897
15.249422586675102	20.740059	4.5541253
15.267105863062092	23.70997	4.8692884
15.284789505183847	23.833923	4.882
15.302473513484218	21.683836	4.6565905
15.320157888407127	18.144276	4.2596097
15.337842630396578	14.062545	3.750006
15.355527739896656	11.006843	3.3176563
15.37321321735153	8.598479	2.9323163
15.39089906320545	6.304306	2.5108378
15.408585277902748	4.7533174	2.1802104
15.42627186188783	3.6745632	1.916915
15.443958815605198	3.2175686	1.7937583
15.461646139499424	2.9281569	1.7111858
15.479333834015168	2.7724748	1.665075
15.497021899597165	2.6852155	1.6386627
15.514710336690234	2.646421	1.6267824
15.53239914573928	2.6366556	1.6237782
15.550088327189297	2.5790882	1.6059539
15.567777881485336	2.5158834	1.5861536
15.58546780907256	2.4467354	1.5642043
15.6031581103962	2.4149787	1.5540202
15.620848785901568	2.3911734	1.5463419
15.638539836034063	2.3990457	1.5488853
15.656231261239173	2.4259005	1.5575303
15.673923061962451	2.3965085	1.548066
15.691615238649552	2.3730428	1.5404683
15.709307791746202	2.3448443	1.5312885
15.727000721698221	2.3764012	1.541558
15.744694028951498	2.3839316	1.5439986
15.76238771395202	2.3692827	1.5392475
15.780081777145844	2.3499784	1.532964
15.797776218979125	2.3758967	1.5413944
15.815471039898094	2.3766556	1.5416405
15.833166240349064	2.3714418	1.5399487
15.850861820778437	2.3621738	1.5369365
15.868557781632699	2.3841326	1.5440637
15.886254123358412	2.3969572	1.548211
15.903950846402232	2.3980808	1.5485739
15.921647951210897	2.4248588	1.5571958
15.939345438231225	2.4205322	1.5558059
15.957043307910133	2.4060698	1.5511512
15.974741560694602	2.3730714	1.5404776
15.992440197031714	2.3658988	1.5381478
16.01013921736862	2.343522	1.5308566
16.02783862215259	2.327913	1.52575
16.045538411830933	2.307835	1.5191561
16.06323858685107	2.3316507	1.5269743
16.080939147660512	2.3277438	1.5256945
16.09864009470684	2.2955008	1.5150911
16.11634142843774	2.296552	1.5154378
16.134043149300954	2.3198714	1.5231124
16.15174525774433	2.3570244	1.5352603
16.169447754215817	2.3868773	1.5449522
16.18715063916342	2.407977	1.5517658
16.204853913035244	2.4440136	1.5633341
16.222557576279478	2.4394636	1.5618782
16.240261629344403	22.40866	4.7337785
16.257966072678386	42.922535	6.5515294
16.275670906729868	38.017002	6.165793
16.293376131947387	2.4542892	1.5666171
16.31108174877957	2.4841578	1.5761211
16.328787757675133	2.531877	1.5911874
16.34649415908287	2.5608768	1.600274
16.364200953451657	2.558118	1.5994118
16.38190814123048	2.5453568	1.5954174
16.39961572286839	2.5752258	1.604751
16.41732369881455	2.6290312	1.6214287
16.43503206951817	2.648066	1.627288
16.45274083542859	2.7203646	1.6493528
16.47044999699522	2.7674732	1.6635724
16.488159554667558	2.8182034	1.6787505
16.505869508895184	2.871307	1.694493
16.523579860127786	2.8783622	1.6965736
16.541290608815117	2.9096391	1.7057664
16.559001755407035	2.9371881	1.7138227
16.57671330035348	2.9914403	1.729578
16.59442524410448	3.0777102	1.7543404
16.61213758711015	3.1159525	1.7652061
16.629850329820705	3.2075152	1.7909538
16.647563472686436	3.306348	1.8183366
16.665277016157724	3.4032073	1.8447784
16.682990960685053	3.4378881	1.8541543
16.70070530671898	3.4485445	1.8570257
16.718420054710155	3.4683635	1.8623543
16.736135205109335	3.5515437	1.884554
16.753850758367335	3.6086512	1.899645
16.771566714935087	3.5857863	1.8936173
16.789283075263597	3.5944204	1.8958957
16.80699983980398	3.638445	1.9074708
16.82471700900741	3.7215805	1.9291399
16.84243458332518	3.8015344	1.9497524
16.860152563208665	3.8571038	1.9639511
16.87787094910932	3.9588022	1.9896739
16.89558974147871	4.0563836	2.0140467
16.913308940768466	4.1412754	2.0350125
16.931028547430333	4.2054963	2.0507307
16.94874856191613	4.2654657	2.0653005
16.966468984677785	4.319659	2.078379
16.98418981616729	4.325697	2.079831
17.00191105683676	4.3205624	2.0785964
17.019632707138374	4.344543	2.0843568
17.03735476752442	4.392172	2.0957508
17.05507723844728	4.5199237	2.1260111
17.072800120359403	4.572961	2.1384482
17.090523413713353	4.586997	2.1417277
17.108247118961785	4.5529146	2.133756
17.125971236557437	4.525649	2.1273572
17.143695766953133	4.597364	2.1441464
17.161420710601806	4.5874853	2.1418417
17.179146067956477	4.634247	2.15273
17.19687183947025	4.6578937	2.1582153
17.21459802559634	4.729413	2.1747215
17.232324626788028	4.677602	2.1627765
17.25005164349871	4.630864	2.1519442
17.267779076181863	4.5722127	2.1382732
17.285506925291074	4.523367	2.1268208
17.30323519127999	4.5353436	2.1296346
17.320963874602384	4.5239143	2.1269495
17.33869297571211	4.5248713	2.1271746
17.356422495063114	4.466598	2.1134326
17.37415243310944	4.4488482	2.1092293
17.391882790305218	4.451081	2.1097584
17.40961356710468	4.500756	2.1214986
17.42734476396215	4.518004	2.1255596
17.445076381332044	4.554661	2.134165
17.462808419668868	4.6374	2.1534624
17.48054087942723	4.7411704	2.177423
17.498273761061835	5.0295258	2.2426605
17.51600706502747	5.4692802	2.3386493
17.533740791779024	6.1651735	2.4829767
17.551474941771485	7.540743	2.7460413
17.56920951545993	8.590869	2.9310184
17.586944513299528	10.74522	3.2779903
17.60467993574556	12.421568	3.5244246
17.622415783253373	14.066172	3.7504895
17.64015205627843	15.411181	3.9257078
17.657888755276293	16.362547	4.0450644
17.675625880702604	16.793837	4.098028
17.69336343301311	16.424658	4.0527344
17.71110141266366	15.618306	3.9520004
17.728839820110178	14.725758	3.8374155
17.746578655808705	14.024427	3.7449203
17.764317920215372	12.774009	3.5740745
17.7820576137864	11.435672	3.381667
17.79979773697811	9.448798	3.0738897
17.81753829024692	7.5687222	2.751131
17.835279274049356	5.8700805	2.4228249
17.85302068884201	4.8401375	2.2000313
17.870762535081607	4.1870885	2.0462377
17.888504813224934	3.8674266	1.9665774
17.90624752372891	3.7004857	1.9236647
17.923990667050536	3.6424484	1.90852
17.941734243646895	3.5882933	1.8942791
17.959478253975185	3.5280988	1.8783234
17.9772226984927	3.4800088	1.8654782
17.994967577656833	3.43846	1.8543085
18.01271289192506	3.3743875	1.8369505
18.030458641754965	3.3345041	1.8260624
18.04820482760425	3.3254125	1.8235713
18.06595144993067	3.3354232	1.8263141
18.083698509192125	3.3109772	1.819609
18.101446005846576	3.2720523	1.8088815
18.119193940352105	3.2253294	1.7959203
18.136942313166887	3.2108855	1.7918944
18.1546911247492	3.1812868	1.7836162
18.1724403755574	3.1714025	1.7808431
18.19019006604997	3.13887	1.7716856
18.207940196685467	3.0776408	1.7543206
18.225690767922575	3.0194016	1.7376425
18.243441780220046	3.01972	1.7377342
18.261193234036764	3.0512273	1.7467762
18.278945129831676	3.0469086	1.7455397
18.29669746806386	3.059437	1.7491246
18.314450249192483	3.0673637	1.7513891
18.3322034736768	3.088235	1.7573375
18.349957141976184	3.0800884	1.7550181
18.3677112545501	3.0514107	1.7468288
18.385465811858108	3.000395	1.7321649
18.403220814359884	2.9556193	1.7191914
18.420976262515172	3.005186	1.7335472
18.43873215678387	3.067614	1.7514606
18.456488497625923	3.0870733	1.7570069
18.474245285501407	3.1828876	1.7840649
18.492002520870486	3.2466466	1.8018453
18.50976020419343	3.328041	1.824292
18.527518335930615	3.5839195	1.8931242
18.545276916542516	4.143513	2.035562
18.563035946489688	4.321213	2.0787528
18.580795426232832	4.78561	2.1876037
18.598555356232698	4.6693325	2.1608639
18.616315736950185	4.9664774	2.2285595
18.63407656884626	4.6298265	2.1517031
18.65183785238201	4.901856	2.2140136
18.669599588018617	4.659694	2.1586325
18.68736177621737	4.6521244	2.1568785
18.705124417439652	4.603314	2.1455336
18.72288751214696	4.4261665	2.1038456
18.740651060800886	4.562496	2.1360002
18.758415063863115	4.231372	2.05703
18.77617952179546	4.328914	2.0806043
18.793944435059814	4.1127734	2.0279975
18.811709804118184	4.1247735	2.030954
18.829475629432675	4.120308	2.029854
18.8472419114655	3.8979955	1.9743342
18.86500865067897	4.009393	2.002347
18.88277584753551	3.7049427	1.9248228
18.90054350249763	3.7737026	1.942602
18.918311616027957	3.481309	1.8658266
18.936080188589226	3.3520374	1.830857
18.953849220644265	2.9816418	1.7267431
18.971618712656007	2.8006372	1.6735104
18.9893886650875	2.7479312	1.6576885
19.007159078401887	7.9358644	2.8170667
19.024929953062408	32.84848	5.7313595
19.042701289532435	32.83413	5.7301073
19.060473088275405	25.413511	5.0411816
19.07824534975489	2.6905615	1.6402931
19.096018074434568	2.6841195	1.6383282
19.113791262778197	2.6461546	1.6267005
19.13156491524966	2.6223345	1.6193624
19.149339032312945	2.562101	1.6006564
19.167113614432136	2.5308568	1.5908667
19.184888662071433	2.5223095	1.588178
19.202664175695123	2.518874	1.5870961
19.220440155767623	2.4830427	1.5757674
19.238216602753447	2.4942813	1.5793294
19.2559935171172	2.474061	1.5729148
19.27377089932361	2.5064373	1.5831732
19.291548749837514	2.4919844	1.5786021
19.309327069123835	2.4931147	1.5789601
19.32710585764763	2.48816	1.5773902
19.344885115874032	2.4917605	1.5785311
19.362664844268313	2.4973307	1.5802945
19.380445043295822	2.4905121	1.5781356
19.39822571342203	2.475823	1.5734748
19.41600685511252	2.4810357	1.5751303
19.43378846883297	2.4431703	1.5630645
19.451570555049173	2.4288523	1.5584775
19.469353114227037	2.4244726	1.5570718
19.48713614683254	2.419795	1.555569
19.50491965333182	2.435322	1.5605519
19.52270363419109	2.4757133	1.57344
19.540488089876686	2.498861	1.5807786
19.55827302085503	2.501336	1.5815613
19.576058427592674	2.4637322	1.569628
19.593844310556282	2.4664834	1.5705042
19.611630670212598	2.488791	1.5775902
19.629417507028506	2.4822407	1.5755129
19.64720482147098	2.4687905	1.5712385
19.6649926140071	2.4624965	1.5692344
19.682780885104084	2.4882295	1.5774122
19.70056963522921	2.508241	1.5837427
19.718358864849908	2.5338502	1.5918072
19.7361485744337	2.5256019	1.5892142
19.753938764448215	2.5115619	1.5847908
19.771729435361202	2.529182	1.5903403
19.789520587640506	2.5246284	1.588908
19.807312221754092	2.4857116	1.5766139
19.825104338170043	2.4405463	1.5622247
19.842896937356517	2.4538655	1.566482
19.860690019781824	2.4968412	1.5801396
19.87848358591436	2.4963646	1.5799888
19.896277636222635	2.4438891	1.5632943
19.914072171175278	2.446485	1.5641243
19.931867191241015	2.473134	1.5726202
19.94966269688869	2.4762113	1.5735981
19.967458688587264	2.4725802	1.572444
19.985255166805807	2.4354367	1.5605886
20.00305213201348	2.4574263	1.567618
20.020849584679578	2.4632986	1.56949
20.038647525273507	2.5039864	1.5823989
20.05644595426477	2.4662218	1.5704209
20.07424487212299	2.4191532	1.5553627
20.092044279317903	2.3475244	1.5321633
20.109844176319353	2.3514383	1.53344
20.127644563597304	2.3746102	1.540977
20.145445441621817	2.4109201	1.5527138
20.16324681086307	2.4288433	1.5584747
20.181048671791373	2.4210823	1.5559827
20.198851024877122	2.3821862	1.5434332
20.216653870590836	2.318434	1.5226405
20.234457209403146	2.306813	1.5188196
20.252261041784802	2.3509212	1.5332714
20.270065368206662	2.4049296	1.5507835
20.287870189139685	2.419034	1.5553244
20.305675505054968	2.3819237	1.5433482
20.323481316423702	2.359381	1.5360277
20.341287623717207	2.3480725	1.5323422
20.359094427406884	2.3299935	1.5264316
20.376901727964288	2.301774	1.5171598
20.39470952586107	2.3083272	1.519318
20.41251782156899	2.3092194	1.5196116
20.430326615559935	2.306034	1.5185632
20.448135908305886	2.3184707	1.5226525
20.465945700278965	2.3194113	1.5229614
20.483755991951384	2.3353868	1.5281972
20.50156678379548	2.3322146	1.527159
20.519378076283708	2.3175519	1.5223508
20.537189869888635	2.272495	1.5074797
20.55500216508294	2.267478	1.5058147
20.572814962339415	2.269505	1.5064876
20.59062826213098	2.267797	1.5059206
20.60844206493066	2.294246	1.5146768
20.626256371211593	2.31165	1.5204111
20.644071181447032	2.300572	1.5167637
20.66188649611036	2.2954175	1.5150635
20.67970231567506	2.315346	1.5216261
20.697518640614742	2.3205624	1.5233393
20.715335471403122	2.277193	1.5090371
20.73315280851404	2.2572322	1.5024087
20.750970652421447	2.2655358	1.5051697
20.768789003599412	2.294165	1.5146501
20.786607862522136	2.308092	1.5192406
20.8044272296639	2.2903647	1.5133951
20.82224710549913	2.2560105	1.5020021
20.84006749050237	2.2412298	1.4970738
20.857888385148268	3.7857983	1.9457128
20.8757097899116	45.90869	6.775595
20.893531705267254	64.79802	8.049722
20.911354131690224	83.82501	9.1556
20.92917706965566	69.04765	8.309492
20.94700051963877	50.12772	7.0800934
20.96482448211493	29.409672	5.4230685
20.982648957559622	4.1339264	2.033206
21.00047394644843	2.2007055	1.4834775
21.01829944925707	2.1687078	1.4726534
21.036125466461375	2.173436	1.4742577
21.053951998537297	2.2035456	1.4844345
21.071779045960906	2.2096107	1.486476
21.089606609208378	2.1875958	1.4790523
21.10743468875603	2.1744995	1.4746184
21.12526328508028	2.189908	1.4798338
21.143092398657675	2.2109652	1.4869314
21.16092202996488	2.1818826	1.4771197
21.17875217947867	2.1083424	1.4520133
21.19658284767596	2.1181931	1.4554014
21.21441403503377	2.1641784	1.4711146
21.232245742029225	2.1707172	1.4733354
21.2500779691396	2.1586027	1.4692184
21.26791071684227	2.1263454	1.4581994
21.28574398561475	2.1212811	1.4564619
21.30357777593465	2.1661172	1.4717735
21.321412088279704	2.2109754	1.4869349
21.339246923127792	2.209715	1.486511
21.357082280956888	2.1574285	1.4688188
21.3749181622451	2.1369243	1.4618223
21.392754567470647	2.1358945	1.46147
21.41059149711187	2.1108906	1.4528904
21.42842895164726	2.0991423	1.4488417
21.446266931555378	2.1082053	1.451966
21.464105437314945	2.0808225	1.4425056
21.481944469404798	2.054011	1.4331821
21.49978402830388	2.0624115	1.4361099
21.51762411449127	2.07954	1.4420611
21.53546472844617	2.093187	1.4467851
21.553305870647876	2.067774	1.4379756
21.571147541575865	2.0522382	1.4325635
21.58898974170967	2.0402477	1.4283724
21.60683247152899	2.0495212	1.4316149
21.62467573151363	2.0619056	1.4359337
21.642519522143523	2.0333312	1.4259492
21.660363843898722	2.0202963	1.4213713
21.6782086972594	2.0050502	1.415998
21.696054082705864	2.0474083	1.4308767
21.713900000718535	2.042785	1.4292603
21.73174645177795	2.0373676	1.4273639
21.749593436364794	1.9926077	1.4115976
21.767440954959845	2.0041506	1.4156803
21.785289008044032	1.9964107	1.412944
21.803137596098388	2.021209	1.4216923
21.820986719604086	2.0052614	1.4160725
21.838836379042412	2.0213122	1.4217286
21.85668657489478	2.0213242	1.4217328
21.87453730764273	2.0385618	1.4277822
21.892388577767914	2.0157464	1.4197699
21.91024038575213	2.0038354	1.415569
21.928092732077285	1.9905937	1.410884
21.945945617225426	1.9656892	1.4020303
21.963799041678694	1.9635463	1.401266
21.981653005919398	31.284678	5.593271
21.999507510429943	78.113556	8.838187
22.01736255569286	73.08229	8.548818
22.035218142190818	4.2113495	2.0521572
22.05307427040661	2.0145888	1.4193621
22.07093094082315	1.9766096	1.4059194
22.088788153923474	1.9321785	1.3900282
22.106645910190746	1.925659	1.3876811
22.12450421010827	1.940251	1.392929
22.142363054159464	1.9580444	1.3993014
22.16022244282787	1.9803542	1.4072505
22.178082376597164	1.9558675	1.3985233
22.195942855951145	1.9535087	1.3976798
22.213803881373742	1.9420782	1.3935847
22.231665453349002	1.9484648	1.3958741
22.24952757236111	1.9388865	1.392439
22.26739023889438	1.9389038	1.3924452
22.28525345343323	1.9114666	1.382558
22.30311721646225	1.9399588	1.392824
22.320981528466113	1.9742996	1.4050977
22.33884638992964	1.9434208	1.3940662
22.356711801337788	1.9244541	1.387247
22.37457776317561	1.9312366	1.3896894
22.392444275928337	1.9499056	1.3963902
22.410311340081282	1.9291317	1.3889319
22.428178956119904	1.9256313	1.3876712
22.446047124529805	1.9370066	1.3917638
22.46391584579669	1.9603463	1.4001237
22.481785120406414	1.9801439	1.4071759
22.49965494884496	1.9893324	1.410437
22.51752533159841	1.9546757	1.3980972
22.53539626915302	1.9541177	1.3978976
22.553267761995137	1.931684	1.3898504
22.571139810611264	1.916141	1.3842474
22.589012415488025	1.8805519	1.3713322
22.60688557711216	1.8694775	1.3672884
22.624759295970566	1.8718227	1.3681457
22.642633572550263	1.8911753	1.3752
22.660508407338362	1.8842744	1.3726888
22.67838380082217	1.8763163	1.369787
22.696259753489077	1.8725554	1.3684134
22.714136265826614	1.8962247	1.3770348
22.73201333832246	1.9064659	1.3807483
22.74989097146439	1.8914082	1.3752848
22.76776916574035	1.9290208	1.3888919
22.785647921638393	1.9669948	1.4024959
22.803527239646712	1.9623644	1.4008442
22.82140712025363	1.929859	1.3891937
22.839287563947593	1.8789241	1.3707385
22.85716857121719	1.8699925	1.3674767
22.875050142551135	1.9085226	1.3814929
22.892932278438277	1.8824974	1.3720413
22.910814979367604	1.890199	1.374845
22.928698245828222	1.9028099	1.3794237
22.946582078309387	1.9025176	1.3793178
22.96446647730047	1.8741454	1.3689944
22.98235144329098	1.8763679	1.3698058
23.000236976770562	1.9263961	1.3879467
23.018123078229	1.9215965	1.3862166
23.03600974815619	1.9351072	1.3910813
23.053896987042194	1.8994046	1.3781888
23.071784795377173	1.87664	1.3699051
23.08967317365145	1.8601518	1.3638738
23.10756212235546	1.9072942	1.3810482
23.125451641979787	1.9187635	1.3851944
23.143341733015134	1.9158938	1.3841581
23.161232395952357	1.869258	1.3672081
23.179123631282426	1.9119074	1.3827174
23.197015439496468	1.9467015	1.3952425
23.214907821085717	1.9450929	1.3946658
23.23280077654157	1.9058176	1.3805135
23.250694306355538	1.9018358	1.3790706
23.268588411019277	1.9092495	1.381756
23.28648309102458	1.9121037	1.3827884
23.304378346863356	1.9280413	1.3885393
23.322274179027676	1.8977009	1.3775706
23.340170588009723	1.8894857	1.3745856
23.358067574301852	1.89727	1.3774142
23.37596513839651	1.8979148	1.3776482
23.39386328078629	1.936875	1.3917166
23.411762001963947	1.9436731	1.3941568
23.429661302422353	1.9397683	1.3927556
23.4475611826545	1.9141195	1.383517
23.46546164315356	1.9056458	1.3804513
23.48336268441279	1.8918164	1.3754332
23.501264306925638	1.8621613	1.3646103
23.51916651118564	1.8721757	1.3682747
23.537069297686497	1.8881949	1.3741161
23.554972666922037	1.9307488	1.3895139
23.57287661938623	1.9176186	1.3847811
23.59078115557318	1.9264702	1.3879734
23.608686275977128	1.919301	1.3853884
23.62659198109246	1.9325353	1.3901566
23.6444982714137	1.9126842	1.3829982
23.66240514743549	1.8987889	1.3779655
23.68031260965263	1.8763635	1.3698041
23.698220658560068	1.8552121	1.3620617
23.716129294652845	1.8514013	1.3606621
23.7340385184262	1.8629293	1.3648916
23.75194833037546	1.890447	1.3749353
23.769858730996123	1.9125081	1.3829346
23.78776972078382	1.9171059	1.384596
23.80568130023431	1.8955109	1.3767755
23.823593469843495	1.8761015	1.3697085
23.841506230107424	1.8790988	1.3708023
23.859419581522275	1.865348	1.3657774
23.87733352458438	1.8951024	1.3766272
23.89524805979019	1.9156029	1.3840531
23.913163187636318	1.9435834	1.3941246
23.931078908619508	1.9518948	1.3971022
23.948995223236633	1.983492	1.408365
23.966912131984735	1.9943774	1.4122243
23.98482963536096	2.0445535	1.4298788
24.002747733862616	2.0288079	1.4243623
24.020666427987155	2.0372205	1.4273124
24.038585718232156	2.0335872	1.426039
24.056505605095353	2.062471	1.4361305
24.074426089074617	2.0748694	1.4404407
24.092347170667946	2.06703	1.437717
24.110268850373515	2.0409048	1.4286023
24.128191128689586	2.046892	1.4306964
24.146114006114626	2.030721	1.4250337
24.164037483147187	2.0006676	1.4144496
24.181961560286005	2.020751	1.4215312
24.199886238029926	2.0252006	1.4230955
24.21781151687797	2.05363	1.4330492
24.235737397329274	2.079703	1.4421176
24.253663879883135	2.0688264	1.4383415
24.271590965038975	2.0275931	1.4239358
24.289518653296376	2.0044816	1.4157971
24.30744694515505	2.0299284	1.4247556
24.32537584111486	2.046927	1.4307085
24.34330534167581	2.0265954	1.4235854
24.361235447338046	1.9882652	1.4100586
24.379166158601876	1.9748245	1.4052845
24.39709747596772	1.9743223	1.4051058
24.41502939993615	1.9746087	1.4052076
24.432961931007917	1.9678872	1.402814
24.450895069683856	1.9543105	1.3979666
24.468828816465	1.9366891	1.3916498
24.4867631718525	1.8900802	1.3748019
24.504698136347656	1.889056	1.3744293
24.52263371045192	1.912483	1.3829255
24.540569894666874	1.919324	1.3853967
24.558506689494266	1.9075868	1.3811542
24.57644409543597	1.9225081	1.3865454
24.594382112994012	1.925737	1.3877093
24.61232074267057	1.9521776	1.3972036
24.630259984967953	1.925888	1.3877636
24.64819984038863	1.9570209	1.3989357
24.66614030943522	2.0066285	1.4165552
24.684081392610462	1.9913752	1.411161
24.702023090417274	1.9570733	1.3989544
24.7199654033587	1.9713241	1.4040385
24.737908331937927	1.9715947	1.4041349
24.755851876658305	1.9717222	1.4041803
24.773796038023324	2.020624	1.4214865
24.79174081653661	2.0589957	1.4349201
24.809686212701962	2.106432	1.4513552
24.827632227023294	2.123547	1.4572395
24.8455788600047	2.1321344	1.460183
24.8635261121504	2.1293972	1.4592454
24.88147398396475	2.094816	1.4473479
24.899422475952303	2.0904984	1.4458556
24.917371588617698	2.058719	1.4348236
24.935321322465768	2.1320596	1.4601574
24.953271678001478	2.2369764	1.4956524
24.97122265572994	2.3974879	1.5483824
24.989174256156414	2.6825242	1.6378413
25.00712647978632	3.0951564	1.7593057
25.02507932712521	3.655683	1.9119841
25.043032798678798	4.2014346	2.04974
25.060986894952933	4.81935	2.1953018
25.078941616453637	5.5017757	2.3455865
25.096896963687055	6.413795	2.5325472
25.114852937159508	7.5000052	2.7386138
25.132809537377444	8.036392	2.8348532
25.150766764847468	8.119152	2.8494127
25.168724620076347	7.571624	2.7516584
25.186683103570985	6.5142655	2.552306
25.204642215838426	5.380613	2.319615
25.222601957385894	4.0642366	2.0159953
25.24056232872074	3.0980844	1.7601377
25.25852333035048	2.5784078	1.6057421
25.276484962782778	2.27891	1.5096059
25.294447226525435	2.1167	1.4548883
25.312410122086423	1.9906664	1.4109098
25.330373649973843	1.8914388	1.3752959
25.348337810695988	1.8770086	1.3700396
25.366302604761245	1.8722365	1.368297
25.384268032678207	1.8944625	1.3763947
25.40223409495558	1.9050894	1.3802497
25.420200792102257	1.9112227	1.3824698
25.438168124627246	1.9113977	1.3825331
25.45613609303974	1.8682699	1.3668467
25.474104697849057	1.8096839	1.3452449
25.492073939564698	1.8238313	1.350493
25.510043818696285	1.8706567	1.3677195
25.528014335753614	1.8823036	1.3719707
25.54598549124664	1.8368583	1.3553075
25.56395728568544	1.8179535	1.348315
25.58192971958028	1.8316245	1.3533752
25.59990279344156	1.8332617	1.35398
25.617876507779833	1.8348181	1.3545545
25.635850863105826	1.8338873	1.354211
25.653825859930386	1.8329217	1.3538544
25.671801498764548	1.7909745	1.3382729
25.68977778011949	1.807712	1.3445117
25.707754704506524	1.8326088	1.3537388
25.725732272437153	1.8425874	1.3574194
25.743710484423012	1.8202834	1.3491788
25.761689340975888	1.8281367	1.3520861
25.77966884260774	1.8243283	1.350677
25.797648989830662	1.8197163	1.3489686
25.815629783156922	1.8065605	1.3440835
25.83361122309895	1.8084885	1.3448006
25.85159331016929	1.7662919	1.3290192
25.869576044880695	1.754138	1.3244387
25.887559427746034	1.7735672	1.3317534
25.90554345927836	1.8092873	1.3450975
25.92352813999086	1.8076121	1.3444747
25.94151347039689	1.8114874	1.3459151
25.959499451009965	1.7989007	1.341231
25.97748608234374	1.7933905	1.3391753
25.995473364912062	1.7954494	1.3399438
26.013461299228904	1.7934637	1.3392026
26.03144988580839	1.775837	1.3326054
26.04943912516483	1.7839491	1.3356456
26.067429017812675	1.782868	1.3352408
26.085419564266537	1.7758666	1.3326164
26.103410765041186	1.7817315	1.3348151
26.12140262065155	1.7976397	1.3407608
26.139395131612723	1.8188545	1.3486491
26.157388298439948	1.8261497	1.351351
26.17538212164861	1.8419832	1.3571968
26.193376601754295	1.8726494	1.3684478
26.211371739272714	1.8273855	1.3518083
26.229367534719746	1.7650557	1.3285539
26.247363988611433	1.7292609	1.3150136
26.26536110146397	1.7311306	1.3157244
26.283358873793727	1.7436286	1.3204653
26.301357306117204	1.750938	1.3232301
26.319356398951104	1.7343999	1.3169662
26.33735615281224	1.7305412	1.3155004
26.35535656821762	1.7544916	1.3245722
26.373357645684404	1.7691553	1.330096
26.39135938572991	1.8010503	1.3420322
26.409361788871614	1.8041363	1.3431814
26.427364855627165	1.772045	1.3311818
26.445368586514352	1.7807839	1.3344601
26.46337298205115	1.7883157	1.3372792
26.48137804275568	1.7925079	1.3388457
26.499383769146217	1.8131634	1.3465376
26.517390161741215	1.8344241	1.3544091
26.53539722105928	1.8057618	1.3437864
26.553404947619182	1.7817631	1.334827
26.571413341939856	1.8256912	1.3511814
26.589422404540397	1.847021	1.3590515
26.60743213594006	1.8156892	1.3474752
26.62544253665827	1.7798351	1.3341047
26.64345360721459	1.737156	1.3180121
26.66146534812879	1.7315712	1.3158917
26.679477759920758	1.7449133	1.3209517
26.69749084311057	1.8070074	1.3442497
26.71550459821847	1.8216515	1.3496857
26.733519025764842	1.797879	1.3408501
26.751534126270258	1.7844318	1.3358263
26.769549900255434	1.7922839	1.338762
26.787566348241267	1.8133448	1.346605
26.80558347074881	1.8202364	1.3491614
26.823601268299267	1.8020487	1.3424041
26.841619741414036	1.788539	1.3373628
26.85963889061465	1.7696497	1.3302819
26.877658716422832	1.781531	1.33474
26.89567921936045	1.804327	1.3432524
26.913700399949544	1.7769511	1.3330233
26.93172225871233	1.7235581	1.3128436
26.949744796171174	1.7504156	1.3230327
26.967768012848605	1.8005226	1.3418355
26.98579190926733	1.8054329	1.3436639
27.003816485950225	1.8095162	1.3451825
27.021841743420318	1.8326668	1.3537602
27.039867682200814	1.8386556	1.3559704
27.057894302815072	1.8408167	1.356767
27.07592160578664	1.802024	1.3423948
27.0939495916392	1.7404976	1.3192792
27.111978260896635	1.7245793	1.3132324
27.13000761408296	1.7316337	1.3159155
27.148037651722397	1.7622173	1.3274853
27.166068374339304	1.7778872	1.3333744
27.184099782458215	1.7650518	1.3285525
27.20213187660384	1.7601063	1.32669
27.22016465730105	1.7514678	1.3234303
27.23819812507487	1.745268	1.3210859
27.256232280450533	1.7522304	1.3237184
27.274267123953383	1.7981421	1.3409482
27.292302656108987	1.7934203	1.3391864
27.31033887744306	1.7567778	1.3254349
27.32837578848146	1.7865856	1.3366321
27.34641338975026	1.7964003	1.3402985
27.364451681775673	1.8384011	1.3558764
27.382490665084074	1.7959961	1.3401477
27.400530340202046	1.7512125	1.3233339
27.41857070765629	1.7449704	1.3209733
27.436611767973726	1.7679591	1.3296462
27.454653521681404	1.7817382	1.3348176
27.472695969306564	1.7996767	1.3415203
27.490739111376627	1.7857277	1.3363112
27.508782948419153	1.8675333	1.3665773
27.526827480961902	1.8642142	1.3653623
27.54487270953279	1.8686044	1.3669691
27.562918634659898	1.7754043	1.332443
27.580965256871508	1.7447495	1.3208897
27.599012576696026	1.7774221	1.3332
27.617060594662068	1.8550047	1.3619856
27.63510931129842	1.8477756	1.3593291
27.65315872713401	1.7987388	1.3411707
27.67120884269797	1.7629629	1.3277662
27.68925965851958	1.7916065	1.3385091
27.707311175128307	1.8029814	1.3427514
27.725363393053787	1.7958493	1.340093
27.74341631282583	1.8723322	1.3683319
27.7614699349744	1.8653195	1.365767
27.77952426002968	2.0098782	1.4177017
27.797579288521973	2.08167	1.4427993
27.815635020981784	2.5246568	1.5889169
27.83369145793979	2.5769212	1.6052792
27.85174859992682	2.4270787	1.5579084
27.869806447473923	2.2714026	1.5071173
27.887865001112267	1.9622775	1.4008132
27.905924261373233	1.8859288	1.3732913
27.92398422878836	1.8774483	1.3702002
27.94204490388936	1.864593	1.365501
27.96010628720813	1.8698038	1.3674077
27.978168379276728	1.8187194	1.3485991
27.9962311806274	1.8284183	1.3521901
28.014294691792568	1.872111	1.3682511
28.0323589133048	1.8838154	1.3725215
28.050423845696887	1.8607044	1.3640764
28.068489489501758	1.864631	1.365515
28.086555845252523	1.8411996	1.3569081
28.104622913482487	1.8252054	1.3510016
28.122690694725115	1.8111113	1.3457754
28.14075918951405	1.8219588	1.3497995
28.15882839838312	1.8152571	1.3473147
28.176898321866304	1.8713173	1.3679609
28.1949689604978	1.9111814	1.3824549
28.213040314811945	1.9037963	1.3797812
28.23111238534327	1.9129577	1.3830972
28.249185172626493	1.963085	1.4011014
28.267258677196473	1.9442148	1.394351
28.285332899588294	1.858264	1.3631816
28.303407840337172	1.7953216	1.3398961
28.321483499978545	1.8345422	1.3544527
28.33955987904799	1.8784924	1.370581
28.357636978081285	1.8886105	1.3742672
28.37571479761439	1.8985007	1.3778609
28.393793338183425	1.8528435	1.361192
28.41187260032469	1.8712373	1.3679317
28.429952584574686	1.9182159	1.3849967
28.448033291470065	1.9158297	1.384135
28.46611472154769	1.9179493	1.3849005
28.484196875344566	1.9624965	1.4008913
28.502279753397914	1.9838474	1.4084911
28.52036335624511	1.9585018	1.3994648
28.538447684423716	1.9671016	1.402534
28.556532738471482	1.9877145	1.4098634
28.574618518926325	1.9589748	1.3996338
28.59270502632635	1.9787884	1.4066942
28.61079226120985	1.9905504	1.4108686
28.628880224115274	2.0113602	1.4182243
28.646968915581287	1.9900922	1.4107063
28.66505833614671	1.9962038	1.4128708
28.68314848635055	2.0073	1.4167922
28.701239366732004	2.0600393	1.4352837
28.71933097783044	2.0884955	1.4451628
28.737423320185403	2.0406146	1.4285008
28.75551639433665	1.9843808	1.4086806
28.773610200824074	2.0020213	1.4149281
28.791704740187793	2.0880334	1.4450029
28.80980001296809	2.1374497	1.4620019
28.827896019705413	2.1336265	1.4606938
28.845992760940433	2.146851	1.4652137
28.86409023721397	2.151697	1.4668664
28.88218844906704	2.0946398	1.4472871
28.900287397040845	2.1085768	1.452094
28.918387081676755	2.173344	1.4742266
28.936487503516343	2.2039657	1.4845759
28.954588663101365	2.2303288	1.4934286
28.97269056097374	2.3060973	1.518584
28.990793197675597	2.297433	1.5157285
29.00889657374923	2.302886	1.5175263
29.027000689737125	2.3314178	1.5268981
29.04510554618196	2.3286839	1.5260025
29.06321114362659	2.347872	1.5322767
29.08131748261405	2.4038897	1.5504482
29.099424563687567	2.4496496	1.5651356
29.11753238739057	2.4620512	1.5690925
29.13564095426663	2.459402	1.5682482
29.15375026485954	2.4820008	1.5754367
29.171860319713275	2.5563831	1.5988693
29.18997111937199	2.6602287	1.6310208
29.20808266438002	2.7027833	1.6440144
29.226194955281898	2.6952205	1.6417127
29.244307992622335	2.7627292	1.662146
29.26242177694624	2.8028648	1.6741759
29.2805363087987	2.8543334	1.6894772
29.29865158872498	2.9068885	1.70496
29.316767617270557	2.9376073	1.7139449
29.334884394981064	2.970001	1.7233691
29.353001922402367	2.9760756	1.7251307
29.37112020008047	2.9941332	1.7303563
29.389239228561596	3.1678119	1.7798347
29.407359008392152	3.3837724	1.8395033
29.42547954011872	3.7104368	1.9262494
29.44360082428809	4.25682	2.0632062
29.46172286144722	5.2420187	2.2895455
29.479845652143283	6.791718	2.6060925
29.497969196923606	8.9036455	2.9838977
29.516093496335728	11.440592	3.3823943
29.5342185509274	14.097002	3.7545974
29.55234436124651	16.086538	4.0108027
29.570470927841175	17.4238	4.1741824
29.588598251259686	17.166782	4.1432815
29.60672633205055	15.796279	3.9744532
29.624855170762405	13.723146	3.7044766
29.642984767944146	11.2550955	3.3548615
29.66111512414481	8.648072	2.9407604
29.67924623991366	6.481974	2.545972
29.697378115800138	5.00898	2.238075
29.71551075235387	4.165246	2.0408933
29.733644150124675	3.6850896	1.9196587
29.751778309662576	3.4806817	1.8656585
29.769913231517766	3.3774478	1.8377835
29.78804891624066	3.3841102	1.8395951
29.806185364381818	3.3876276	1.8405509
29.82432257649206	3.3238018	1.8231297
29.842460553122333	3.2179654	1.7938688
29.86059929482382	3.2349164	1.7985873
29.878738802147872	3.2500417	1.8027872
29.896879075646048	3.2408621	1.8002394
29.915020115870114	3.22739	1.7964938
29.933161923371976	3.2167473	1.7935293
29.951304498703777	3.1626945	1.7783966
29.969447842417857	3.1566725	1.7767026
29.987591955066733	3.211553	1.7920806
30.005736837203123	3.2553985	1.8042723
30.023882489379943	3.2688599	1.8079989
30.04202891215028	3.2051182	1.7902844
30.060176106067455	3.1681528	1.7799306
30.078324071684946	3.1454582	1.773544
30.09647280955646	3.1097965	1.7634615
30.114622320235863	3.126343	1.7681468
30.132772604277257	3.1571684	1.7768422
30.1509236622349	3.0748618	1.7535284
30.16907549466328	3.0021985	1.7326853
30.18722810211705	3.0071487	1.7341132
30.205381485151097	2.9917288	1.7296615
30.22353564432045	3.0009034	1.7323116
30.241690580180403	2.9991164	1.7317957
30.25984629328638	2.9746716	1.7247236
30.278002784194037	2.967525	1.7226505
30.296160053459246	2.954666	1.7189142
30.314318101638033	2.9495912	1.7174374
30.332476929286646	2.9485404	1.7171315
30.35063653696153	2.9686904	1.7229888
30.368796925219307	2.961631	1.720939
30.386958094616844	2.953658	1.718621
30.40512004571115	2.8647454	1.6925559
30.423282779059463	2.7833033	1.6683235
30.441446295219233	2.7294946	1.6521182
30.459610594748067	2.767339	1.6635321
30.47777567820382	2.8153415	1.6778979
30.495941546144504	2.8619835	1.6917398
30.51410819912835	2.9017031	1.7034386
30.532275637713795	2.8668816	1.6931869
30.55044386245946	2.8670583	1.693239
30.56861287392416	2.8051178	1.6748486
30.586782672666956	2.802172	1.6739689
30.604953259247047	2.8397064	1.6851429
30.623124634223885	2.7973616	1.6725315
30.641296798157075	2.7099984	1.6462072
30.659469751606462	2.7278123	1.651609
30.677643495132074	2.7654605	1.6629673
30.695818029294152	2.7193224	1.6490368
30.713993354653116	2.6964722	1.6420938
30.73216947176962	2.7094035	1.6460266
30.75034638120448	2.718788	1.6488748
30.768524083518756	2.7315094	1.6527278
30.786702579273673	2.7227097	1.6500635
30.80488186903069	2.7118244	1.6467618
30.82306195335144	2.8517206	1.6887038
30.841242832797782	3.0775907	1.7543063
30.85942450793176	3.3485558	1.829906
30.877606979315637	3.6659975	1.9146795
30.895790247511883	4.0431	2.010746
30.913974313083134	4.450266	2.1095653
30.932159176592283	4.7372856	2.1765306
30.95034483860237	4.6976795	2.167413
30.968531299676698	4.42438	2.103421
30.98671856037873	4.176417	2.0436285
31.00490662127215	3.8679657	1.9667145
31.023095482920848	3.4295664	1.8519088
31.04128514588892	3.002867	1.7328782
31.059475610740662	2.6668289	1.6330428
31.07766687804056	2.5254447	1.5891649
31.09585894835335	2.4750788	1.5732384
31.11405182224393	2.4551313	1.5668858
31.132245500277417	2.4242957	1.557015
31.15043998301914	2.43263	1.559689
31.168635271034628	2.42787	1.5581623
31.18683136488964	2.417817	1.5549332
31.20502826515008	2.395808	1.5478398
31.223225972382135	2.3471992	1.5320572
31.241424487152155	2.3467474	1.5319097
31.259623810026692	2.3754206	1.54124
31.27782394157253	2.3583674	1.5356977
31.296024882356644	2.326447	1.5252695
31.314226632946237	2.309584	1.5197315
31.332429193908684	2.3839507	1.5440048
31.350632565811598	2.4017355	1.5497534
31.368836749222787	2.4502008	1.5653117
31.387041744710295	2.5217216	1.5879929
31.40524755284232	2.6680014	1.6334018
31.423454174187317	2.6138008	1.6167253
31.441661609313922	2.474261	1.5729784
31.459869858791002	2.4241414	1.5569655
31.478078923187628	2.4057448	1.5510464
31.496288803073064	2.3335252	1.527588
31.514499499016807	2.2382882	1.496091
31.532711011588546	2.225635	1.4918562
31.550923341358178	2.2768006	1.5089071
31.56913648889584	2.3209953	1.5234814
31.587350454771844	2.3305154	1.5266025
31.605565239556732	2.3847344	1.5442585
31.62378084382127	2.3502247	1.5330442
31.641997268136382	2.3198078	1.5230916
31.660214513073274	2.3095777	1.5197295
31.67843257920331	2.3797903	1.5426569
31.6966514670981	2.374652	1.5409906
31.71487117732944	2.2807102	1.510202
31.733091710469346	2.24251	1.4975013
31.751313067090052	2.2964828	1.5154151
31.769535247764008	2.3625405	1.5370557
31.787758253063878	2.3705454	1.5396576
31.805982083562526	2.271612	1.5071868
31.824206739833024	2.2117543	1.4871968
31.84243222244869	2.2687035	1.5062215
31.860658531983013	2.3096905	1.5197666
31.878885669009737	2.264389	1.5047888
31.897113634102784	2.232036	1.4940001
31.91534242783632	2.197988	1.4825613
31.933572050784694	2.0850894	1.4439839
31.951802503522508	2.0190191	1.4209219
31.970033786624548	2.1142108	1.4540327
31.988265900665834	2.1370914	1.4618794
32.006498846221575	2.1161463	1.454698
32.02473262386724	2.117131	1.4550364
32.04296723417845	2.1235456	1.457239
32.0612026777311	2.0872777	1.4447414
32.07943895510129	2.0878165	1.4449278
32.097676066865304	2.03986	1.4282367
32.115914013599685	2.0808444	1.4425132
32.13415279588115	2.0861845	1.444363
32.152392414286666	2.089247	1.4454228
32.1706328693934	2.0279274	1.4240532
32.18887416177875	2.0865483	1.444489
32.20711629202032	2.1654484	1.4715463
32.225359260695924	2.1945071	1.4813869
32.243603068383614	2.1297975	1.4593825
32.26184771566166	2.0284123	1.4242234
32.28009320310852	2.0573559	1.4343486
32.2983395313029	2.1034906	1.4503416
32.31658670082372	2.0755062	1.4406617
32.33483471225012	2.069828	1.4386897
32.35308356616143	2.079913	1.4421903
32.371333263137245	1.9891468	1.4103712
32.38958380375734	1.9764367	1.405858
32.407835188601744	2.0127106	1.4187003
32.42608741825067	2.0254066	1.4231678
32.444340493284585	2.032884	1.4257923
32.46259441428416	2.131098	1.4598281
32.48084918183028	2.0504203	1.4319289
32.49910479650405	2.035587	1.42674
32.51736125888683	2.0212998	1.4217242
32.53561856956014	2.0208135	1.4215531
32.5538767291058	2.0294232	1.4245783
32.572135738105764	1.9999219	1.414186
32.59039559714228	1.9265692	1.3880091
32.608656306797776	1.9378623	1.3920712
32.62691786765491	1.9538119	1.3977882
32.645180280296586	1.9394264	1.392633
32.663443545305896	1.982582	1.4080418
32.68170766326619	2.011088	1.4181283
32.69997263476099	2.0541868	1.4332435
32.7182384603741	2.0345914	1.426391
32.7365051406895	1.9801084	1.4071633
32.75477267629144	1.998755	1.4137733
32.77304106776434	2.0624106	1.4361095
32.79131031569289	2.007982	1.4170328
32.809580420661966	2.0405965	1.4284945
32.827851383256714	2.0711527	1.43915
32.84612320406245	1.9812789	1.4075791
32.86439588366476	1.8936992	1.3761175
32.88266942264945	1.8694171	1.3672663
32.9009438216025	1.919028	1.3852899
32.9192190811102	1.944497	1.3944522
32.937495201758985	1.8854569	1.3731194
32.95577218413556	1.826058	1.3513172
32.974050028826866	1.7880934	1.3371961
32.992328736420035	1.8060251	1.3438843
33.010608307502444	1.8790355	1.3707792
33.02888874266169	1.925731	1.3877071
33.047170042485604	1.9439777	1.394266
33.06545220756225	1.9320621	1.3899864
33.083735238479896	1.9880787	1.4099925
33.10201913582707	1.9810619	1.407502
33.12030390019248	1.9341462	1.3907359
33.138589532165135	1.865722	1.3659143
33.15687603233419	1.9050454	1.3802338
33.17516340128909	1.9369788	1.3917539
33.19345163961947	1.9150549	1.3838551
33.211740747915215	1.7752973	1.3324028
33.23003072676643	1.8494921	1.3599603
33.248321576763466	1.9256392	1.387674
33.266613298496885	1.9891009	1.4103549
33.28490589255747	1.9833947	1.4083304
33.30319935953626	1.9328759	1.390279
33.32149370002451	1.9076315	1.3811704
33.339788914613706	1.9065095	1.3807641
33.358085003895575	1.8520153	1.3608876
33.376381968462034	1.8263314	1.3514183
33.39467980890529	1.8815353	1.3716906
33.41297852581774	1.8366365	1.3552257
33.43127811979204	1.8671793	1.3664477
33.44957859142105	1.8704219	1.3676337
33.467879941297866	1.8883538	1.3741739
33.486182170015844	1.8573751	1.3628556
33.50448527816853	1.9914545	1.4111891
33.522789266349754	2.0507884	1.4320574
33.541094135153514	2.008311	1.417149
33.55939988517411	1.9323522	1.3900907
33.57770651700602	1.854004	1.3616182
33.59601403124398	1.8031753	1.3428236
33.61432242848296	1.8070005	1.3442472
33.632631709318154	1.8153119	1.3473351
33.650941874344994	1.8038683	1.3430816
33.66925292415916	1.8555576	1.3621886
33.68756485935654	1.9408623	1.3931483
33.70587768053328	1.9739972	1.4049901
33.724191388285746	1.8764137	1.3698225
33.74250598321054	1.7754798	1.3324713
33.760821465904506	1.7574432	1.325686
33.77913783696474	1.7920226	1.3386645
33.79745509698852	1.8938339	1.3761663
33.815773246573414	1.9515522	1.3969797
33.8340922863172	1.9555416	1.3984069
33.852412216817896	1.8954337	1.3767475
33.87073303867377	1.9170285	1.384568
33.889054752483304	1.9769082	1.4060256
33.907377358845245	1.8979064	1.3776453
33.92570085835853	1.918104	1.3849564
33.94402525162239	1.8715665	1.3680521
33.96235053923627	1.8015915	1.3422338
33.980676721799824	1.7789581	1.3337759
33.999003799912984	1.7869949	1.3367853
34.01733177417592	1.7395033	1.3189023
34.03566064518901	1.7850152	1.3360447
34.0539904135529	1.8498045	1.3600752
34.07232107986846	1.9453884	1.3947718
34.090652644736785	2.047201	1.4308043
34.108985108759235	1.9264559	1.3879683
34.12731847253742	1.82998	1.3527676
34.14565273667313	1.8100263	1.3453722
34.16398790176847	1.7462621	1.3214622
34.18232396842574	1.7965466	1.3403531
34.20066093724749	2.1253688	1.4578645
34.21899880883651	2.2280831	1.4926765
34.23733758379583	2.204359	1.4847084
34.25567726272874	2.0417955	1.4289141
34.27401784623872	1.9231832	1.3867888
34.29235933492957	1.8807905	1.3714192
34.31070172940526	1.8783276	1.370521
34.32904503027003	1.8156984	1.3474785
34.347389238128386	1.8562171	1.3624306
34.36573435358502	1.8942052	1.3763013
34.38408037724492	1.9309863	1.3895993
34.402427309713296	1.9216199	1.3862251
34.42077515159559	1.8869947	1.3736793
34.43912390349752	1.9391491	1.3925333
34.45747356602499	1.9383082	1.3922313
34.47582413978423	1.9007094	1.3786622
34.49417562538163	1.9191791	1.3853444
34.51252802342388	1.9213951	1.3861439
34.53088133451789	1.9467542	1.3952613
34.54923555927084	2.0079787	1.4170316
34.567590698290104	1.9477688	1.3956249
34.58594675218336	1.9949256	1.4124184
34.6043037215585	2.0002046	1.4142859
34.62266160702365	1.9931654	1.4117951
34.641020409187234	1.993449	1.4118955
34.65938012865785	1.9417113	1.393453
34.677740766044394	1.9318588	1.3899132
34.69610232195598	2.0221457	1.4220217
34.714464797002016	2.0109813	1.4180907
34.73282819179208	2.032021	1.4254898
34.751192506936064	2.1462007	1.4649917
34.76955774304408	2.1354454	1.4613163
34.7879239007265	2.078181	1.4415897
34.80629098059391	2.1216307	1.4565818
34.824658983257194	2.1130688	1.4536399
34.843027909327446	2.1576502	1.4688942
34.86139775941603	2.1781075	1.4758413
34.879768534134534	2.059	1.4349216
34.89814023409483	1.875948	1.3696525
34.91651285990901	1.8258579	1.3512431
34.93488641218944	2.043501	1.4295107
34.95326089154871	2.1964867	1.482055
34.97163629859967	2.0831833	1.4433237
34.99001263395542	1.7655189	1.3287283
35.00838989822934	1.9407455	1.3931065
35.02676809203499	2.0920525	1.4463929
35.04514721598624	2.088085	1.4450208
35.063527270697215	1.9615083	1.4005386
35.081908256782256	2.0244305	1.4228249
35.10029017485597	2.201716	1.483818
35.11867302553321	2.16293	1.4706904
35.137056809429104	2.0284517	1.4242373
35.155441527159006	2.0383844	1.4277201
35.173827179338524	2.0694063	1.4385431
35.19221376658354	1.94873	1.3959692
35.21060128951017	1.9755739	1.4055511
35.2289897487348	2.0832913	1.4433612
35.24737914487405	2.0830348	1.4432722
35.26576947854479	1.9769124	1.4060272
35.28416075036418	2.0481522	1.4311367
35.30255296094958	2.0068026	1.4166166
35.32094611091867	2.101896	1.4497917
35.33934020088932	2.3615909	1.5367469
35.35773523147969	2.4685276	1.5711548
35.3761312033082	2.096417	1.4479009
35.394528116993506	1.7506052	1.3231044
35.41292597315452	1.974	1.4049911
35.431324772410434	2.4301052	1.5588795
35.449724515380666	2.507675	1.583564
35.46812520268491	2.121083	1.4563938
35.486526834943106	1.7146013	1.3094279
35.504929412775454	1.862832	1.364856
35.52333293680242	1.8857408	1.3732227
35.54173740764471	1.8657624	1.3659291
35.560142825923286	2.0134556	1.4189628
35.5785491922594	1.7524124	1.3237872
35.59695650727454	1.4604983	1.2085108
35.61536477159042	0.6898081	0.83054686
