0.008763373481513119	0.0	0.0
0.026290120649546365	0.0	0.0
0.043816868432600686	0.13632606	0.3692236
0.06134361724069026	0.18301807	0.4278061
0.07887036748382949	0.16891725	0.41099545
0.0963971195720331	0.11132843	0.33365914
0.11392387391531617	0.07860744	0.28037018
0.1314506309236943	0.083710864	0.2893283
0.1489773910071836	0.094976544	0.30818266
0.16650415457580078	0.094071835	0.30671132
0.18403092203956356	0.114831686	0.33886823
0.20155769380849	0.12971257	0.3601563
0.2190844702925996	0.14432542	0.37990186
0.2366112519019124	0.12377838	0.3518215
0.2541380390464497	0.12671421	0.3559694
0.27166483213623416	0.13779709	0.3712103
0.28919163158128947	0.11566876	0.3401011
0.3067184377916406	0.11845308	0.34417012
0.324245251177314	0.13117006	0.3621741
0.34177207214833777	0.14300053	0.3781541
0.3592989011147415	0.1359325	0.36869025
0.37682573848655654	0.10107104	0.31791672
0.39435258467381573	0.07980698	0.2825013
0.41187944008655414	0.076346904	0.27630943
0.42940630513480854	0.11312104	0.3363347
0.446933180228618	0.13681626	0.36988682
0.4644600657780234	0.1477114	0.3843324
0.48198696219306775	0.15158746	0.38934234
0.49951386988379676	0.1403316	0.37460858
0.5170407892602581	0.16594936	0.40736884
0.5345677207325025	0.21485955	0.46352944
0.5520946647105822	0.21120487	0.45957032
0.5696216216045534	0.24083036	0.4907447
0.5871485918244737	0.2319025	0.48156255
0.6046755757804043	0.21641353	0.46520266
0.6222025738824094	0.1845356	0.42957607
0.6397295865405557	0.1659011	0.4073096
0.6572566141649129	0.17712232	0.42085904
0.6747836571655547	0.16801988	0.40990227
0.6923107159525568	0.16888598	0.4109574
0.7098377909359992	0.16050434	0.40062994
0.7273648825259653	0.20525081	0.45304614
0.7448919911325411	0.22420526	0.47350317
0.762419117165817	0.22454986	0.4738669
0.7799462610358868	0.1835718	0.4284528
0.7974734231528482	0.17819917	0.42213643
0.8150006039268024	0.18484202	0.42993256
0.8325278037678551	0.1950752	0.4416732
0.8500550230861152	0.22596176	0.47535434
0.8675822622916969	0.25596464	0.50592947
0.8851095217947171	0.24767348	0.49766806
0.9026368020052984	0.24253546	0.49247888
0.9201641033335665	0.2272108	0.47666633
0.9376914261896523	0.19430557	0.44080105
0.9552187709836915	0.17586683	0.41936478
0.9727461381258234	0.17942698	0.42358822
0.990273528026193	0.22288433	0.47210628
1.0078009410949496	0.26556572	0.5153307
1.0253283777422473	0.27803946	0.52729446
1.0428558383782454	0.26053712	0.51042837
1.0603833234131086	0.23655231	0.48636645
1.0779108332570058	0.2598976	0.5098015
1.0954383683201119	0.29083195	0.5392884
1.112965929012607	0.39295223	0.626859
1.1304935157446763	0.55131805	0.74250793
1.1480211289265108	0.6056159	0.77821326
1.1655487689683062	1.520418	1.2330524
1.1830764362802655	1.817042	1.347977
1.200604131272596	2.237775	1.4959195
1.2181318543555117	2.4774325	1.5739862
1.235659605939232	2.5371356	1.5928389
1.253187386433982	4.112671	2.0279722
1.270715196249994	6.4707975	2.5437763
1.2882430357975057	12.041002	3.4700148
1.3057709054867608	16.673735	4.0833483
1.3232988057280106	22.34274	4.7268105
1.3408267369315112	27.150568	5.210621
1.358354699507526	30.71255	5.5418906
1.3758826938663256	34.807156	5.899759
1.3934107204181858	36.72438	6.0600643
1.410938779573391	36.994766	6.082332
1.4284668717422309	37.684696	6.1387863
1.4459949973350033	37.374172	6.113442
1.4635231567620117	37.68162	6.138536
1.4810513504335687	37.11838	6.0924854
1.4985795787599925	36.180584	6.01503
1.5161078421516088	36.412083	6.0342426
1.5336361410187505	35.718914	5.97653
1.5511644757717598	35.425938	5.951969
1.5686928468209842	35.8751	5.9895825
1.58622125457678	36.7398	6.0613365
1.6037496994495108	37.710648	6.1408997
1.621278181849548	37.075123	6.0889344
1.6388067021872719	37.06119	6.0877905
1.6563352608730693	36.72832	6.0603895
1.673863858317336	36.28189	6.023445
1.6913924949304753	35.622143	5.9684286
1.7089211711228998	34.023464	5.8329635
1.7264498873050296	33.36449	5.7762003
1.7439786438872935	32.681454	5.7167697
1.7615074412801288	32.370396	5.689499
1.779036279893981	31.633785	5.624392
1.796565160139305	30.482296	5.5210776
1.814094082426564	29.757732	5.455065
1.8316230471662298	28.994724	5.384675
1.849152054768784	27.989586	5.2905183
1.8666811056447168	27.208141	5.216142
1.8842102002045273	26.628939	5.1603236
1.901739338858724	26.556345	5.153285
1.9192685220178245	26.404308	5.138512
1.9367977500923557	25.770863	5.076501
1.9543270234928547	25.048203	5.004818
1.971856342629867	24.055779	4.9046693
1.9893857079139496	23.392408	4.83657
2.006915119755667	22.663269	4.7605953
2.0244445785655945	22.120533	4.703247
2.0419740847543175	21.679897	4.6561675
2.0595036387324317	21.265419	4.6114445
2.0770332409105414	21.02736	4.58556
2.094562891699263	20.954645	4.5776243
2.1120925915092217	20.752516	4.555493
2.129622340751053	20.298185	4.5053506
2.1471521398354043	188.4834	13.728926
2.1646819891729323	444.75397	21.089191
2.182211889174303	440.79742	20.995176
2.1997418402501974	452.92917	21.282133
2.2172718428113023	432.75864	20.80285
2.234801897268317	320.64944	17.906687
2.2523320040319548	17.044508	4.1284995
2.269862163512935	16.862297	4.106373
2.287392376121992	16.771648	4.09532
2.304922642269869	16.535467	4.0663824
2.322452962367322	16.113003	4.0141006
2.3399833368251164	15.487968	3.9354756
2.357513766054032	15.225101	3.9019356
2.3750442504648586	15.121533	3.8886416
2.3925747904683963	14.861494	3.8550608
2.410105386475459	14.7824135	3.8447905
2.4276360388968707	14.378127	3.79185
2.445166748143469	14.081269	3.7525017
2.4626975146261025	13.821218	3.7176898
2.4802283387556323	13.600292	3.6878574
2.4977592209429305	13.494045	3.6734242
2.5152901615988825	13.258347	3.6412013
2.5328211611343865	13.033932	3.6102538
2.5503522199603523	12.846879	3.5842543
2.5678833384877024	12.602919	3.5500588
2.5854145171273712	12.4471035	3.5280452
2.6029457562903064	12.212184	3.4945936
2.620477056387469	12.073743	3.474729
2.6380084178298326	11.764803	3.4299858
2.655539841028383	11.763578	3.4298074
2.673071326394119	11.513724	3.393188
2.6906028743380523	11.422435	3.3797092
2.708134485271211	11.232832	3.3515418
2.7256661596046325	10.926571	3.3055365
2.743197897749369	10.7557125	3.2795904
2.760729700116486	10.541528	3.2467718
2.778261567117063	10.367031	3.2197874
2.795793499162193	10.200407	3.1938076
2.8133254966629817	9.87085	3.1417909
2.830857560030551	9.607813	3.0996473
2.8483896896760337	9.4760895	3.0783257
2.865921886010578	9.547721	3.0899386
2.883454149445347	9.573609	3.094125
2.9009864803915177	9.43495	3.0716364
2.91851887926028	9.28605	3.047302
2.9360513464628384	9.134366	3.0223114
2.953583882410413	9.094488	3.015707
2.9711164875142373	8.98571	2.9976175
2.9886491621855606	8.978416	2.9964006
3.0061819068356455	8.723349	2.9535315
3.023714721875769	8.472677	2.9107864
3.041247607717225	8.234857	2.869644
3.0587805647713213	8.207175	2.864817
3.0763135934493806	8.213905	2.865991
3.0938466941627407	8.211515	2.8655741
3.1113798673227544	8.046751	2.8366795
3.1289131133407904	7.9207044	2.8143747
3.1464464326282315	7.870823	2.8054986
3.1639798255964786	7.839539	2.7999177
3.1815132926569443	7.6748137	2.7703454
3.1990468342210603	7.546914	2.7471647
3.216580450700272	7.391881	2.7188015
3.2341141425060416	7.2858086	2.6992238
3.251647910049847	7.27243	2.6967444
3.2691817537431813	7.267669	2.6958616
3.286715673997555	7.2882094	2.6996684
3.3042496712244938	7.319706	2.7054956
3.32178374583554	7.245081	2.6916687
3.339317898242251	7.0662875	2.658249
3.3568521288562034	6.8991113	2.626616
3.3743864380889876	6.8887553	2.6246438
3.3919208263522127	6.8242445	2.6123254
3.4094552940575023	6.6947646	2.5874243
3.4269898416164972	6.520724	2.5535707
3.444524469440858	6.4947033	2.5484707
3.4620591779422587	6.4938316	2.5482998
3.479593967532391	6.5514817	2.5595863
3.4971288386229658	6.459194	2.5414944
3.5146637916257086	6.4442143	2.5385456
3.5321988269523628	6.3548527	2.5208833
3.5497339450146903	6.344313	2.518792
3.5672691462244708	6.248987	2.4997973
3.5848044309934988	6.1779103	2.4855402
3.60233979973359	6.2437344	2.4987466
3.619875252856575	6.3061543	2.5112057
3.6374107907743034	6.3377414	2.517487
3.6549464138986427	6.372167	2.524315
3.6724821226414788	6.3072515	2.5114243
3.690017917414714	6.1856937	2.4871056
3.7075537986302702	6.16057	2.4820497
3.7250897667000857	6.2696953	2.503936
3.7426258220361235	6.4839725	2.5463645
3.7601619650503553	6.8826065	2.6234722
3.777698196154779	7.396536	2.7196574
3.7952345157614067	8.481057	2.9122255
3.8127709242822716	9.299543	3.0495152
3.830307422129425	11.602743	3.40628
3.847844009714936	30.423841	5.515781
3.8653806874508954	97.81314	9.890053
3.882917455749409	97.02532	9.850143
3.900454315022606	96.81373	9.839396
3.917991265682631	41.500793	6.442111
3.9355283081416506	11.259711	3.3555493
3.9530654428118495	8.957376	2.9928875
3.970602670105433	7.6147676	2.759487
3.9881399904346244	6.6249995	2.5739074
4.005677404211669	6.4692035	2.543463
4.023214911848827	6.3920503	2.5282505
4.0407525137583855	6.4481745	2.5393255
4.058290210352644	6.529193	2.5552285
4.075828002043927	6.431242	2.5359893
4.0933658892445814	6.348192	2.519562
4.110903872366966	6.258071	2.5016136
4.128441951823468	6.167272	2.4833994
4.145980128026488	6.182157	2.4863944
4.163518401388452	6.2381277	2.4976244
4.181056772321807	6.2025375	2.4904895
4.1985952412390155	6.2052603	2.491036
4.216133808552567	6.2118444	2.4923573
4.233672474674966	6.2347164	2.4969413
4.251211240018741	6.3759894	2.525072
4.268750104996445	6.5429254	2.5579143
4.286289070020643	7.585884	2.7542484
4.303828135503928	9.3131275	3.0517416
4.3213673018589125	29.5994	5.440533
4.3389065694982305	90.80961	9.5294075
4.356445938834537	166.05345	12.886173
4.3739854102805085	171.51364	13.096322
4.391524984248844	172.45905	13.132366
4.409064661152262	136.49736	11.683208
4.426604441403504	96.79586	9.838489
4.444144325415337	75.92737	8.713632
4.461684313600543	22.006643	4.691124
4.47922440637193	22.37475	4.7301955
4.496764604142329	20.591843	4.5378237
4.5143049073245916	18.76736	4.3321314
4.531845316331589	16.749275	4.092588
4.5493858315762195	13.94951	3.7349043
4.566926453471405	11.610373	3.4073997
4.584467182430081	9.54845	3.0900567
4.602008018865218	8.3297205	2.8861256
4.619548963189798	7.5750704	2.7522845
4.637090015816834	6.9971066	2.6452045
4.654631177159353	6.7256756	2.5933907
4.672172447630417	6.4476557	2.5392234
4.689713827643102	6.2193594	2.4938643
4.7072553176105085	6.059651	2.4616358
4.724796917945764	5.8098025	2.4103532
4.742338629062015	5.7761807	2.4033687
4.759880451372434	5.658904	2.3788452
4.777422385290215	5.697145	2.3868692
4.794964431228581	5.736481	2.3950953
4.812506589600768	5.843245	2.4172804
4.830048860820047	5.7669935	2.4014566
4.847591245299709	5.7312646	2.394006
4.8651337434530655	5.667908	2.3807368
4.882676355693457	5.600634	2.366566
4.900219082434242	5.5827436	2.362783
4.917761924088813	5.4850283	2.3420138
4.935304881070575	5.4844236	2.3418846
4.952847953792969	5.493636	2.3438506
4.970391142669449	5.4496784	2.3344545
4.9879344481135055	5.435883	2.331498
5.005477870538642	5.41453	2.3269143
5.023021410358394	5.40215	2.3242526
5.040565067986324	5.5286727	2.3513129
5.05810884383601	5.5218554	2.3498628
5.075652738321066	5.512804	2.3479362
5.09319675185512	5.4127917	2.3265407
5.110740884851836	5.4214854	2.3284082
5.128285137724894	5.3932357	2.322334
5.145829510888007	5.3575735	2.3146434
5.163374004754908	5.3421764	2.3113148
5.1809186197393595	5.3290377	2.308471
5.198463356255145	5.3782563	2.3191068
5.216008214716077	5.3719983	2.3177571
5.233553195535998	5.3299723	2.3086734
5.251098299128764	5.2949166	2.3010685
5.268643525908272	5.243455	2.289859
5.286188876288432	5.1732817	2.2744849
5.3037343506831895	5.2367935	2.2884042
5.32127994950651	5.275906	2.2969341
5.3388256731723915	5.2522416	2.291777
5.356371522094851	5.1746936	2.2747953
5.373917496687938	5.0905213	2.2562184
5.391463597365729	5.085721	2.2551544
5.40900982454232	5.041859	2.2454085
5.426556178631843	5.058999	2.2492218
5.444102660048449	5.1267743	2.264238
5.4616492692063225	5.173716	2.2745805
5.479196006519669	5.1266093	2.2642016
5.496742872402727	5.1241837	2.263666
5.514289867269756	5.120517	2.262856
5.531836991535049	5.193608	2.2789488
5.549384245612924	5.204663	2.281373
5.566931629917724	5.1807704	2.2761307
5.584479144863822	5.195867	2.2794445
5.6020267908656205	5.207153	2.2819188
5.619574568337545	5.2022424	2.2808425
5.637122477694054	5.158921	2.2713258
5.654670519349629	5.0371103	2.2443507
5.672218693718784	5.0184994	2.2402008
5.689767001216059	5.117605	2.2622125
5.707315442256021	5.196607	2.2796068
5.724864017253266	5.2552805	2.29244
5.7424127266224225	5.224979	2.2858212
5.75996157077814	5.169316	2.273613
5.777510550135105	5.138983	2.2669325
5.795059665108022	5.151409	2.2696717
5.812608916111639	5.205579	2.2815738
5.830158303560715	5.30492	2.3032413
5.847707827870055	5.2959847	2.3013008
5.86525748945448	5.332582	2.3092384
5.8828072887288485	5.3867493	2.3209372
5.900357226108044	5.393063	2.3222969
5.917907302006979	5.4360085	2.3315248
5.9354575168406	5.986963	2.4468272
5.9530078710238765	6.7101994	2.5904052
5.970558364971812	7.317843	2.705151
5.988108999099438	7.671988	2.7698355
6.005659773821818	8.226495	2.8681867
6.023210689554039	7.9803147	2.824945
6.040761746711227	8.401425	2.8985212
6.058312945708531	7.6802115	2.7713194
6.075864286961132	7.2095084	2.6850529
6.093415770884244	6.6011443	2.5692692
6.1109673978931065	6.133225	2.4765348
6.128519168402993	5.5641017	2.3588347
6.146071082829204	5.4521856	2.3349915
6.163623141587075	5.3441257	2.3117366
6.181175345091969	5.2684145	2.2953026
6.198727693759281	5.2269607	2.2862546
6.216280188004435	5.145717	2.2684174
6.233832828242885	5.0856905	2.2551475
6.251385614890126	5.1295347	2.2648475
6.268938548361669	5.1495523	2.2692626
6.286491629073067	5.1305966	2.2650821
6.304044857439898	5.1012073	2.2585852
6.321598233877777	4.9881454	2.2334156
6.339151758802344	4.942167	2.2230985
6.356705432629277	4.950526	2.2249777
6.37425925577428	4.923262	2.2188425
6.391813228653095	4.9377794	2.2221115
6.409367351681486	4.9785748	2.231272
6.426921625275259	4.987569	2.2332866
6.44447604985025	5.0005918	2.2362003
6.46203062582232	4.9784007	2.2312331
6.47958535360737	5.002921	2.236721
6.497140233621328	5.0107074	2.238461
6.514695266280161	4.9993653	2.2359262
6.532250451999859	4.9759994	2.2306948
6.549805791196454	4.9773355	2.2309942
6.567361284286002	4.994194	2.2347693
6.584916931684597	5.026138	2.241905
6.602472733808367	4.979353	2.2314463
6.6200286910734665	4.9433494	2.2233644
6.637584803896092	4.966183	2.2284935
6.655141072692462	5.0228357	2.2411685
6.672697497878842	5.0425053	2.2455523
6.690254079871514	5.012986	2.2389698
6.707810819086808	4.9794326	2.2314641
6.725367715941078	4.9313984	2.2206752
6.742924770850719	4.936602	2.2218466
6.760481984232151	4.973087	2.230042
6.778039356501836	4.957172	2.2264707
6.795596888076266	5.0020733	2.2365315
6.813154579371963	5.035205	2.2439263
6.830712430805492	5.0310087	2.242991
6.84827044279344	4.9796944	2.2315228
6.865828615752445	4.9027915	2.2142248
6.883386950099159	4.965945	2.22844
6.900945446250287	4.9899726	2.2338247
6.918504104622553	5.0023713	2.2365983
6.936062925632727	5.0181875	2.2401311
6.953621909697607	5.0144324	2.2392929
6.971181057234028	5.101769	2.2587097
6.988740368658859	5.134101	2.2658556
7.006299844389007	5.1683426	2.2733989
7.023859484841407	5.207206	2.2819302
7.041419290433036	5.3314404	2.3089912
7.058979261580902	5.4459114	2.3336477
7.0765393987020495	5.6309543	2.3729632
7.094099702213559	6.020195	2.4536085
7.111660172532549	6.357177	2.5213442
7.129220810076164	6.7261624	2.5934846
7.146781615261595	7.294422	2.7008188
7.16434258850606	7.5790076	2.7529998
7.181903730226821	8.026031	2.833025
7.1994650408411704	8.118988	2.8493838
7.217026520766437	8.190348	2.8618784
7.234588170419983	8.464753	2.9094248
7.252149990219215	8.454615	2.907682
7.269711980581568	8.381815	2.8951364
7.2872741419245175	8.240647	2.8706527
7.304836474665574	7.8033276	2.7934437
7.322398979222286	7.4619865	2.7316637
7.339961656012233	7.185089	2.6805017
7.357524505453039	6.8425837	2.6158333
7.375087527962357	6.582801	2.565697
7.392650723957886	6.2139206	2.4927738
7.410214093857353	5.8385563	2.4163105
7.427777638078528	5.655041	2.3780332
7.445341357039213	5.461161	2.3369126
7.4629052511572525	5.3277555	2.3081932
7.480469320850524	5.220603	2.284864
7.498033566536948	5.2390985	2.2889078
7.5155979886344735	5.1998243	2.2803123
7.5331625875610975	5.1782165	2.2755694
7.550727363734844	5.1575894	2.2710326
7.568292317573788	5.1646323	2.2725828
7.585857449496025	5.2122273	2.2830303
7.603422759919705	5.2531853	2.291983
7.620988249263007	5.229247	2.2867546
7.638553917944147	5.2289634	2.2866926
7.656119766381391	5.13536	2.2661333
7.673685794993023	5.119264	2.2625792
7.691252004197388	5.155339	2.2705371
7.70881839441285	5.1958804	2.2794473
7.726384966057826	5.2121863	2.2830212
7.743951719550762	5.1869416	2.2774858
7.761518655310149	5.206683	2.2818158
7.779085773754511	5.263821	2.294302
7.796653075302419	5.273489	2.296408
7.814220560372475	5.330599	2.308809
7.831788229383323	5.346736	2.312301
7.8493560827536495	5.336284	2.3100398
7.866924120902174	5.407231	2.3253453
7.884492344247663	5.432028	2.330671
7.9020607532089135	5.460413	2.3367527
7.919629348204771	5.382972	2.3201232
7.937198129654115	5.331319	2.308965
7.954767097975865	5.3269873	2.3080268
7.972336253588986	5.359812	2.3151267
7.989905596912472	5.377186	2.318876
8.007475128365371	5.386228	2.3208249
8.025044848366756	5.395264	2.3227708
8.042614757335754	5.5596066	2.3578818
8.060184855691523	5.6737347	2.3819602
8.07775514385327	5.8197083	2.4124072
8.095325622240228	5.8932877	2.4276094
8.112896291271687	5.845338	2.4177134
8.130467151366968	5.860993	2.4209487
8.148038202945436	5.859734	2.4206889
8.165609446426497	5.9050217	2.430025
8.183180882229594	5.955502	2.4403896
8.200752510774217	5.999299	2.4493465
8.218324332479893	6.0327144	2.4561584
8.235896347766193	6.074335	2.4646165
8.253468557052724	6.0615945	2.4620306
8.27104096075914	6.075866	2.4649272
8.288613559305137	6.0999045	2.4697986
8.306186353110448	6.163486	2.482637
8.32375934259485	6.2438755	2.4987748
8.341332528178162	6.2102475	2.4920368
8.358905910280246	6.1973214	2.4894419
8.376479489321003	6.148819	2.4796813
8.394053265720377	6.228595	2.4957154
8.411627239898356	6.264701	2.5029385
8.42920141227497	6.2261915	2.4952338
8.44677578327029	6.1719813	2.4843473
8.464350353304427	6.158615	2.4816558
8.48192512279754	6.1294622	2.475775
8.499500092169827	6.1125026	2.4723475
8.51707526184153	6.07315	2.4643762
8.534650632232934	6.090075	2.4678078
8.552226203764365	6.1685877	2.4836643
8.569801976856192	6.168776	2.4837022
8.587377951928834	6.1406965	2.4780428
8.60495412940274	6.1863227	2.487232
8.622530509698416	6.2854443	2.507079
8.6401070932364	6.5129075	2.5520399
8.657683880437283	6.64707	2.5781913
8.675260871721695	6.8051596	2.60867
8.692838067510303	6.924705	2.6314833
8.710415468223834	7.0259905	2.6506586
8.727993074283043	7.071819	2.6592891
8.745570886108737	7.048696	2.654938
8.763148904121765	7.1180115	2.6679602
8.78072712874302	7.187922	2.68103
8.798305560393441	7.4681144	2.732785
8.815884199494006	7.609402	2.7585144
8.833463046465745	7.7806783	2.7893867
8.851042101729728	7.860174	2.8036003
8.86862136570707	8.175387	2.8592634
8.886200838818924	8.33755	2.8874817
8.903780521486505	8.382877	2.89532
8.921360414131055	8.490034	2.9137664
8.938940517173874	8.5593	2.9256282
8.956520831036297	8.728946	2.954479
8.97410135613971	8.984723	2.9974527
8.99168209290554	9.175482	3.0291057
9.009263041755265	9.43543	3.0717144
9.026844203110405	9.725186	3.1185231
9.044425577392525	9.852617	3.138888
9.062007165023239	9.925499	3.150476
9.079588966424197	10.150676	3.1860125
9.097170982017108	10.233517	3.1989868
9.11475321222372	11.281852	3.358847
9.132335657465825	12.201381	3.4930475
9.149918318165264	12.262003	3.5017142
9.167501194743924	12.929982	3.5958285
9.18508428762374	12.5976	3.5493097
9.202667597226693	12.584266	3.5474308
9.220251123974803	12.223822	3.4962583
9.237834868290143	11.9337845	3.454531
9.255418830594836	11.807229	3.4361649
9.273003011311046	11.336656	3.366995
9.290587410860985	11.142979	3.33811
9.308172029666911	10.433053	3.2300236
9.32575686815113	10.091312	3.1766827
9.343341926735997	8.770792	2.9615524
9.360927205843916	8.506961	2.9166694
9.378512705897327	8.30922	2.882572
9.396098427318728	8.102312	2.846456
9.413684370530664	8.019323	2.831841
9.431270535955722	8.000171	2.8284574
9.448856924016539	7.958397	2.821063
9.466443535135806	7.9022017	2.8110855
9.484030369736251	7.8150687	2.7955444
9.501617428240658	7.7551694	2.7848105
9.519204711071852	7.7059307	2.775956
9.536792218652714	7.7863092	2.790396
9.55437995140617	7.877515	2.8066912
9.571967909755191	7.965785	2.8223722
9.589556094122802	7.9590034	2.8211706
9.60714450493207	7.9103804	2.8125398
9.624733142606116	7.918298	2.813947
9.642322007568108	7.972973	2.8236454
9.659911100241267	8.003332	2.8290162
9.677500421048851	8.058451	2.838741
9.695089970414175	8.055302	2.8381863
9.712679748760609	8.1322	2.8517013
9.730269756511557	8.163413	2.8571687
9.747859994090492	8.183669	2.8607113
9.765450461920915	8.1616335	2.8568573
9.78304116042639	8.1843605	2.8608322
9.800632090030527	8.196929	2.863028
9.81822325115699	8.242746	2.8710184
9.835814644229481	8.2476225	2.8718674
9.853406269671762	8.199167	2.8634188
9.870998127907646	8.162575	2.857022
9.888590219360985	8.149443	2.854723
9.906182544455698	8.187546	2.8613887
9.923775103615734	8.26892	2.875573
9.941367897265108	8.315895	2.8837295
9.958960925827878	8.345276	2.8888192
9.97655418972816	8.311674	2.8829975
9.994147689390106	8.290458	2.8793156
10.011741425237934	8.207587	2.8648887
10.029335397695904	8.174177	2.8590517
10.04692960718833	8.138439	2.852795
10.06452405413958	8.19986	2.8635397
10.082118738974064	8.253389	2.8728712
10.099713662116246	8.30802	2.8823636
10.117308823990651	8.289889	2.879217
10.134904225021844	8.300053	2.8809812
10.152499865634445	8.2655115	2.8749802
10.170095746253125	8.191618	2.8621004
10.18769186730261	8.147226	2.8543346
10.205288229207675	8.092896	2.8448017
10.222884832393145	8.116497	2.8489466
10.2404816772839	8.118236	2.8492517
10.258078764304868	8.145656	2.8540595
10.275676093881035	8.086254	2.843634
10.293273666437438	8.110368	2.8478708
10.310871482399158	8.160422	2.8566453
10.32846954219134	8.1228895	2.8500683
10.346067846239173	8.0879	2.8439233
10.363666394967908	8.047651	2.8368382
10.38126518880283	8.074184	2.841511
10.398864228169298	8.183165	2.8606231
10.416463513492713	8.141275	2.853292
10.434063045198531	8.138168	2.8527474
10.451662823712262	8.1319065	2.8516498
10.469262849459467	8.198758	2.8633473
10.486863122865758	8.115858	2.8488345
10.504463644356806	8.059347	2.838899
10.522064414358338	7.982726	2.8253717
10.539665433296118	7.9646535	2.8221717
10.557266701595987	7.89242	2.809345
10.574868219683818	7.807936	2.7942684
10.592469987985552	7.7100077	2.77669
10.610072006927185	7.5868607	2.7544258
10.627674276934751	7.49599	2.7378805
10.64527679843435	7.4075017	2.7216725
10.662879571852143	7.387651	2.7180233
10.680482597614331	7.2077365	2.684723
10.698085876147173	7.0713763	2.659206
10.715689407876988	6.9074817	2.6282089
10.733293193230146	6.853907	2.6179967
10.750897232633072	6.764396	2.6008453
10.76850152651225	6.6957145	2.5876079
10.786106075294207	6.6398864	2.5767977
10.803710879405534	6.622228	2.573369
10.821315939272877	6.599882	2.5690236
10.83892125532294	6.503955	2.5502853
10.856526827982472	6.430249	2.5357935
10.874132657678285	6.3368564	2.5173113
10.891738744837243	6.314746	2.5129158
10.909345089886271	6.257297	2.501459
10.926951693252343	6.1672225	2.4833894
10.944558555362494	6.097227	2.4692564
10.96216567664381	5.938997	2.4370058
10.979773057523436	5.929129	2.4349804
10.997380698428573	5.868587	2.4225166
11.014988599786477	5.8106875	2.4105368
11.032596762024461	5.6740427	2.382025
11.050205185569892	5.625521	2.371818
11.067813870850198	5.5586576	2.3576806
11.085422818292859	5.4656115	2.3378646
11.10303202832541	5.4031973	2.324478
11.120641501375454	5.3769126	2.3188171
11.138251237870636	5.3928614	2.3222535
11.155861238238671	5.332519	2.3092248
11.173471502907317	5.2267466	2.286208
11.191082032304402	5.172791	2.274377
11.208692826857805	5.115706	2.2617927
11.226303886995465	5.1432786	2.2678797
11.243915213145371	5.10669	2.2597988
11.261526805735578	4.987896	2.2333598
11.279138665194196	4.9426756	2.223213
11.296750791949393	4.905908	2.2149284
11.314363186429393	4.8542595	2.2032385
11.331975849062479	4.8192434	2.1952775
11.34958878027699	4.7154875	2.1715174
11.36720198050133	4.6386185	2.1537452
11.384815450163948	4.5772867	2.1394594
11.402429189693366	4.518617	2.1257038
11.420043199518153	4.489916	2.1189423
11.437657480066942	63.464558	7.9664645
11.455272031768422	85.17314	9.2289295
11.472886855051353	107.55809	10.371021
11.490501950344528	99.11967	9.955886
11.508117318076819	84.44483	9.189387
11.52573295867715	45.846863	6.7710314
11.543348872574514	4.200536	2.049521
11.560965060197946	4.2038713	2.0503345
11.57858152197655	4.194149	2.0479622
11.59619825833949	4.1353316	2.0335515
11.613815269715985	4.077681	2.019327
11.631432556535323	38.54064	6.208111
11.649050119226837	83.06075	9.113768
11.666667958219929	93.4496	9.666933
11.68428607394406	107.71254	10.378466
11.701904466828756	82.573906	9.087019
11.719523137303586	65.413994	8.087892
11.737142085798196	4.609421	2.1469562
11.754761312742286	3.6902266	1.9209962
11.772380818565619	3.6624112	1.9137428
11.790000603698015	3.657211	1.9123836
11.80762066856935	3.6532855	1.9113569
11.825241013609572	3.5976005	1.8967341
11.842861639248683	3.4931438	1.8689954
11.860482545916748	3.4795754	1.865362
11.878103734043883	3.4798281	1.8654298
11.895725204060282	3.4928596	1.8689194
11.91334695639619	3.4474428	1.856729
11.930968991481919	3.3714833	1.83616
11.948591309747824	3.334636	1.8260986
11.966213911624347	3.2973351	1.8158566
11.98383679754198	3.3371613	1.8267899
12.001459967931268	3.345033	1.8289431
12.019083423222835	3.3314238	1.8252188
12.036707163847352	3.268649	1.8079406
12.05433119023556	3.2058132	1.7904785
12.071955502818259	3.1796203	1.783149
12.089580102026313	3.1842551	1.7844481
12.107204988290643	3.1919405	1.7866002
12.12483016204224	3.1403184	1.7720944
12.142455623712152	3.1046085	1.76199
12.16008137373149	3.0596664	1.7491902
12.177707412531431	3.0334015	1.7416663
12.19533374054321	2.9942229	1.7303823
12.212960358198126	2.9928362	1.7299815
12.230587265927545	2.9877696	1.7285166
12.248214464162889	3.023288	1.7387605
12.265841953335649	3.0193279	1.7376213
12.283469733877375	2.990046	1.729175
12.301097806219685	2.9269366	1.7108293
12.31872617079425	2.9257596	1.7104852
12.336354828032825	2.9559119	1.7192765
12.353983778367205	2.9982538	1.7315466
12.371613022229262	2.978611	1.7258652
12.389242560050928	2.9410667	1.7149539
12.406872392264201	2.9021766	1.7035776
12.424502519301143	2.9133253	1.7068466
12.442132941593874	2.927977	1.7111332
12.459763659574586	2.9204264	1.7089255
12.477394673675532	2.9493713	1.7173734
12.49502598432903	2.917079	1.7079458
12.51265759196746	2.8814785	1.6974919
12.530289497023267	2.8188527	1.6789439
12.547921699928967	2.7809613	1.6676215
12.565554201117134	2.7686267	1.6639191
12.583187001020404	2.770086	1.6643575
12.600820100071486	2.7578712	1.660684
12.618453498703152	2.7409363	1.6555773
12.636087197348235	2.7033494	1.6441865
12.65372119643964	2.777011	1.6664366
12.671355496410326	2.7791338	1.6670734
12.68899009769333	2.7971485	1.6724678
12.706625000721749	2.8443508	1.6865203
12.724260205928752	2.9190972	1.7085365
12.741895713747551	2.9961147	1.7309289
12.759531524611454	3.0260208	1.7395462
12.777167638953818	3.0063338	1.7338783
12.794804057208072	2.9868891	1.7282618
12.812440779807702	3.0368826	1.7426654
12.830077807186271	3.1624243	1.7783207
12.847715139777405	3.1808598	1.7834965
12.865352778014795	3.3894157	1.8410366
12.882990722332197	3.5459743	1.8830757
12.90062897316344	3.6529293	1.9112638
12.918267530942412	3.7629738	1.9398386
12.935906396103071	3.6815445	1.9187351
12.953545569079449	3.8707457	1.967421
12.971185050305628	3.6569011	1.9123026
12.988824840215775	3.6389034	1.907591
13.006464939244115	3.6194942	1.9024968
13.024105347824943	3.474175	1.8639139
13.041746066392617	3.5419562	1.8820086
13.05938709538157	3.3925374	1.8418841
13.077028435226296	3.4083028	1.846159
13.094670086361363	3.3589706	1.8327495
13.112312049221401	3.2143605	1.7928637
13.129954324241112	3.0678043	1.7515149
13.147596911855258	2.8544288	1.6895055
13.165239812498685	2.8437874	1.6863533
13.182883026606293	2.8106322	1.676494
13.200526554613058	2.7936234	1.6714137
13.218170396954017	2.7639241	1.6625054
13.235814554064284	2.7145996	1.6476042
13.253459026379034	2.6532528	1.6288809
13.271103814333523	2.6357427	1.623497
13.288748918363058	2.6718159	1.634569
13.306394338903031	2.690975	1.6404191
13.32404007638889	2.6901617	1.6401713
13.341686131256164	2.6955009	1.641798
13.359332503940449	2.6894817	1.639964
13.376979194877402	2.7315977	1.6527545
13.394626204502751	2.7681375	1.6637721
13.412273533252307	2.7773125	1.666527
13.429921181561937	2.751811	1.6588583
13.447569149867581	2.7319896	1.6528732
13.465217438605247	2.7462904	1.6571935
13.482866048211022	2.7484245	1.6578373
13.500514979121052	2.7534556	1.659354
13.518164231771568	2.715366	1.6478367
13.535813806598844	2.7086077	1.6457849
13.553463704039254	2.7058985	1.6449616
13.571113924529229	2.688007	1.6395143
13.588764468505275	2.6408143	1.6250583
13.606415336403956	2.645606	1.626532
13.624066528661917	2.6738844	1.6352017
13.641718045715882	2.7305365	1.6524335
13.659369888002635	2.7871068	1.669463
13.67702205595903	2.8793058	1.6968517
13.694674550021993	2.9660892	1.7222338
13.712327370628532	3.0399141	1.7435349
13.729980518215713	3.0789306	1.7546881
13.747633993220681	3.148039	1.7742715
13.765287796080647	3.2126539	1.7923877
13.7829419272329	3.2525437	1.803481
13.800596387114801	3.3087525	1.8189976
13.818251176163775	3.3265762	1.8238904
13.835906294817324	3.364661	1.8343012
13.853561743513023	3.3706145	1.8359233
13.871217522688525	3.3911512	1.8415079
13.888873632781538	3.425015	1.8506796
13.906530074229858	3.4586318	1.8597397
13.92418684747135	3.4829733	1.8662726
13.941843952943948	3.488426	1.8677329
13.959501391085665	3.4924889	1.8688202
13.977159162334578	3.4352918	1.853454
13.994817267128846	3.4026697	1.8446326
14.012475705906693	3.337712	1.8269407
14.030134479106424	3.2823498	1.8117256
14.047793587166414	3.1708622	1.7806915
14.065453030525108	3.0892487	1.7576258
14.083112809621026	2.978512	1.7258366
14.100772924892766	2.9198759	1.7087644
14.118433376778997	2.8700993	1.6941367
14.136094165718458	2.7959042	1.6720958
14.153755292149969	2.73336	1.6532876
14.171416756512416	2.6491706	1.6276273
14.189078559244768	2.598795	1.6120778
14.20674070078606	2.5412815	1.5941397
14.224403181575408	2.5161211	1.5862286
14.242066002051999	2.4662292	1.5704232
14.259729162655093	2.4241755	1.5569764
14.277392663824022	2.39532	1.5476822
14.295056505998208	2.405556	1.5509855
14.312720689617128	2.4210699	1.5559788
14.330385215120348	2.4355838	1.5606357
14.348050082947497	2.4441812	1.5633878
14.3657152935383	2.4424632	1.5628382
14.383380847332528	2.430447	1.5589892
14.401046744770051	2.4217448	1.5561956
14.418712986290798	2.4185865	1.5551805
14.436379572334793	2.4127846	1.5533141
14.454046503342123	2.3973355	1.5483332
14.471713779752946	2.3908532	1.5462384
14.489381402007504	2.3688896	1.5391197
14.507049370546113	2.3729687	1.5404443
14.524717685809168	2.374749	1.5410221
14.542386348237134	2.4262738	1.5576501
14.560055358270553	2.4294016	1.5586538
14.577724716350051	2.477468	1.5739975
14.595394422916325	2.4505227	1.5654145
14.61306447841015	2.453029	1.5662148
14.63073488327237	2.4405825	1.5622364
14.648405637943917	2.4565506	1.5673387
14.6660767428658	2.4206908	1.555857
14.683748198479094	2.4031303	1.5502033
14.701420005224954	2.444172	1.5633848
14.719092163544628	2.5562165	1.5988172
14.73676467387942	2.6657615	1.632716
14.754437536670727	2.6947355	1.641565
14.772110752360014	2.6982505	1.6426352
14.78978432138882	2.683835	1.6382414
14.807458244198777	2.7106612	1.6464086
14.82513252123159	2.7104526	1.6463453
14.842807152929028	2.731891	1.6528432
14.860482139732962	2.7078915	1.6455672
14.87815748208531	2.7068174	1.6452408
14.8958331804281	2.714971	1.6477169
14.91350923520342	2.704392	1.6445036
14.931185646853438	2.73381	1.6534237
14.948862415820408	2.7211995	1.6496059
14.966539542546656	2.743962	1.6564909
14.98421702747459	2.6830633	1.6380059
15.001894871046696	2.6629725	1.6318617
15.019573073705542	2.6451159	1.6263812
15.037251635893766	2.6194427	1.6184692
15.054930558054092	2.6341453	1.623005
15.072609840629323	2.7143672	1.6475337
15.090289484062351	2.8815346	1.6975083
15.107969488796124	3.1620903	1.7782267
15.125649855273691	3.5481563	1.8836551
15.14333058393817	4.0353904	2.0088282
15.161011675232768	5.0504384	2.247318
15.17869312960076	6.3943515	2.5287056
15.196374947485506	8.254851	2.8731258
15.214057129330447	11.315395	3.3638363
15.231739675579114	15.967448	3.995929
15.249422586675102	21.056229	4.5887065
15.267105863062092	24.301662	4.929672
15.284789505183847	24.610474	4.9608946
15.302473513484218	22.566643	4.750436
15.320157888407127	18.903612	4.3478284
15.337842630396578	14.755604	3.8413024
15.355527739896656	11.495324	3.3904755
15.37321321735153	8.972442	2.9954035
15.39089906320545	6.5672727	2.562669
15.408585277902748	4.933959	2.2212517
15.42627186188783	3.7661471	1.9406564
15.443958815605198	3.2332015	1.7981105
15.461646139499424	2.9131017	1.706781
15.479333834015168	2.7628887	1.6621939
15.497021899597165	2.681254	1.6374534
15.514710336690234	2.6442993	1.6261301
15.53239914573928	2.595714	1.611122
15.550088327189297	2.5409646	1.5940404
15.567777881485336	2.4964886	1.580028
15.58546780907256	2.469047	1.5713202
15.6031581103962	2.4597695	1.5683652
15.620848785901568	2.4703696	1.571741
15.638539836034063	2.478241	1.574243
15.656231261239173	2.4696465	1.5715109
15.673923061962451	2.4508376	1.5655152
15.691615238649552	2.466236	1.5704255
15.709307791746202	2.4685767	1.5711704
15.727000721698221	2.467968	1.5709767
15.744694028951498	2.4215298	1.5561265
15.76238771395202	2.388253	1.5453974
15.780081777145844	2.3902955	1.546058
15.797776218979125	2.4186583	1.5552036
15.815471039898094	2.422403	1.5564071
15.833166240349064	2.3916636	1.5465004
15.850861820778437	2.3679452	1.5388129
15.868557781632699	2.364707	1.5377604
15.886254123358412	2.368584	1.5390204
15.903950846402232	2.3602343	1.5363054
15.921647951210897	2.3377836	1.5289812
15.939345438231225	2.3327117	1.5273217
15.957043307910133	2.3224626	1.5239627
15.974741560694602	2.3482425	1.5323976
15.992440197031714	2.36899	1.5391524
16.01013921736862	2.380307	1.5428244
16.02783862215259	2.3935502	1.5471103
16.045538411830933	2.392703	1.5468365
16.06323858685107	2.4068427	1.5514002
16.080939147660512	2.4182186	1.5550623
16.09864009470684	2.390426	1.5461003
16.11634142843774	2.3928297	1.5468774
16.134043149300954	2.3996267	1.5490729
16.15174525774433	2.4255788	1.557427
16.169447754215817	2.4283288	1.5583096
16.18715063916342	2.418287	1.5550842
16.204853913035244	2.4301567	1.558896
16.222557576279478	2.4530392	1.5662181
16.240261629344403	22.441677	4.7372646
16.257966072678386	42.981384	6.556019
16.275670906729868	38.09856	6.1724033
16.293376131947387	2.547108	1.5959661
16.31108174877957	2.5452275	1.595377
16.328787757675133	2.5883334	1.6088299
16.34649415908287	2.6115148	1.6160182
16.364200953451657	2.6334357	1.6227864
16.38190814123048	2.6485753	1.6274444
16.39961572286839	2.6838772	1.6382543
16.41732369881455	2.714181	1.6474771
16.43503206951817	2.7615643	1.6617955
16.45274083542859	2.7809956	1.6676317
16.47044999699522	2.8043044	1.6746057
16.488159554667558	2.8252707	1.6808542
16.505869508895184	2.896672	1.7019613
16.523579860127786	2.9289768	1.7114253
16.541290608815117	2.9501352	1.7175958
16.559001755407035	2.9879408	1.728566
16.57671330035348	3.077195	1.7541935
16.59442524410448	3.134655	1.7704957
16.61213758711015	3.200581	1.7890168
16.629850329820705	3.246512	1.801808
16.647563472686436	3.3459358	1.8291899
16.665277016157724	3.3946893	1.8424683
16.682990960685053	3.4254224	1.8507897
16.70070530671898	3.4229274	1.8501155
16.718420054710155	3.4628134	1.8608636
16.736135205109335	3.5420995	1.8820466
16.753850758367335	3.611953	1.9005139
16.771566714935087	3.6648858	1.9143891
16.789283075263597	3.7261546	1.930325
16.80699983980398	3.760462	1.9391911
16.82471700900741	3.8715227	1.9676186
16.84243458332518	3.93565	1.9838473
16.860152563208665	4.0041595	2.0010395
16.87787094910932	4.028997	2.0072362
16.89558974147871	4.0861998	2.021435
16.913308940768466	4.136365	2.0338056
16.931028547430333	4.2123246	2.0523949
16.94874856191613	4.2686715	2.0660763
16.966468984677785	4.3144956	2.0771363
16.98418981616729	4.3382525	2.082847
17.00191105683676	4.371583	2.0908332
17.019632707138374	4.449991	2.1095002
17.03735476752442	4.5031457	2.1220617
17.05507723844728	4.5519085	2.1335201
17.072800120359403	4.5555625	2.1343763
17.090523413713353	4.5784993	2.1397429
17.108247118961785	4.6241875	2.1503923
17.125971236557437	4.621161	2.1496885
17.143695766953133	4.58756	2.141859
17.161420710601806	4.6123333	2.1476343
17.179146067956477	4.615838	2.1484501
17.19687183947025	4.657591	2.1581452
17.21459802559634	4.675355	2.162257
17.232324626788028	4.673405	2.161806
17.25005164349871	4.672452	2.1615856
17.267779076181863	4.625058	2.150595
17.285506925291074	4.599124	2.1445568
17.30323519127999	4.578235	2.139681
17.320963874602384	4.5406976	2.1308913
17.33869297571211	4.525295	2.127274
17.356422495063114	4.507847	2.123169
17.37415243310944	4.515771	2.1250343
17.391882790305218	4.5419245	2.131179
17.40961356710468	4.5387125	2.1304255
17.42734476396215	4.5409427	2.1309488
17.445076381332044	4.528714	2.1280775
17.462808419668868	4.5534143	2.133873
17.48054087942723	4.673071	2.1617286
17.498273761061835	4.9781284	2.231172
17.51600706502747	5.5081654	2.3469481
17.533740791779024	6.205798	2.491144
17.551474941771485	7.6018443	2.7571442
17.56920951545993	8.744822	2.9571645
17.586944513299528	10.957606	3.3102276
17.60467993574556	12.654226	3.557278
17.622415783253373	14.436518	3.7995417
17.64015205627843	15.877108	3.984609
17.657888755276293	16.877005	4.1081634
17.675625880702604	17.324133	4.162227
17.69336343301311	17.146772	4.1408663
17.71110141266366	16.33605	4.041788
17.728839820110178	15.393674	3.9234772
17.746578655808705	14.476725	3.8048291
17.764317920215372	12.958054	3.5997295
17.7820576137864	11.449637	3.3837314
17.79979773697811	9.468942	3.0771646
17.81753829024692	7.5780773	2.7528307
17.835279274049356	5.926765	2.4344947
17.85302068884201	4.8667164	2.2060635
17.870762535081607	4.223319	2.0550716
17.888504813224934	3.8721213	1.9677707
17.90624752372891	3.6992047	1.9233316
17.923990667050536	3.6058364	1.898904
17.941734243646895	3.562067	1.8873439
17.959478253975185	3.5150795	1.8748546
17.9772226984927	3.453337	1.8583156
17.994967577656833	3.3827143	1.8392156
18.01271289192506	3.3676832	1.8351249
18.030458641754965	3.350803	1.8305198
18.04820482760425	3.3576264	1.8323827
18.06595144993067	3.4017334	1.8443788
18.083698509192125	3.403091	1.8447468
18.101446005846576	3.2983966	1.8161489
18.119193940352105	3.1700287	1.7804575
18.136942313166887	3.1431131	1.7728827
18.1546911247492	3.1970532	1.7880305
18.1724403755574	3.2026832	1.7896042
18.19019006604997	3.1686246	1.7800632
18.207940196685467	3.154922	1.7762101
18.225690767922575	3.1367574	1.7710893
18.243441780220046	3.1094077	1.7633512
18.261193234036764	3.0881648	1.7573175
18.278945129831676	3.0875342	1.757138
18.29669746806386	3.0821233	1.7555977
18.314450249192483	3.1092744	1.7633134
18.3322034736768	3.0792212	1.754771
18.349957141976184	3.0607762	1.7495074
18.3677112545501	3.055383	1.7479653
18.385465811858108	3.053691	1.7474813
18.403220814359884	2.9989264	1.7317408
18.420976262515172	2.9771004	1.7254276
18.43873215678387	2.9936655	1.7302213
18.456488497625923	3.0480742	1.7458735
18.474245285501407	3.1696515	1.7803515
18.492002520870486	3.240682	1.8001894
18.50976020419343	3.3212452	1.8224283
18.527518335930615	3.6455038	1.9093202
18.545276916542516	4.2777033	2.068261
18.563035946489688	4.476608	2.1157997
18.580795426232832	4.888512	2.210998
18.598555356232698	4.7649765	2.1828825
18.616315736950185	5.026095	2.2418954
18.63407656884626	4.643485	2.1548748
18.65183785238201	4.781641	2.1866963
18.669599588018617	4.5796595	2.140014
18.68736177621737	4.6436424	2.1549113
18.705124417439652	4.7009635	2.1681705
18.72288751214696	4.4949803	2.120137
18.740651060800886	4.602904	2.145438
18.758415063863115	4.3083353	2.075653
18.77617952179546	4.4871483	2.118289
18.793944435059814	4.2225504	2.0548844
18.811709804118184	4.231561	2.057076
18.829475629432675	4.1972365	2.0487158
18.8472419114655	3.9530754	1.9882343
18.86500865067897	4.061975	2.0154343
18.88277584753551	3.7876475	1.946188
18.90054350249763	3.840647	1.9597569
18.918311616027957	3.4893699	1.8679855
18.936080188589226	3.3668396	1.834895
18.953849220644265	3.0484781	1.7459892
18.971618712656007	2.888367	1.6995196
18.9893886650875	2.8442225	1.6864823
19.007159078401887	7.973936	2.8238158
19.024929953062408	32.85643	5.732053
19.042701289532435	32.78812	5.7260914
19.060473088275405	25.363499	5.0362186
19.07824534975489	2.647834	1.6272167
19.096018074434568	2.6288824	1.6213828
19.113791262778197	2.6068597	1.6145773
19.13156491524966	2.5851262	1.6078328
19.149339032312945	2.5480478	1.5962605
19.167113614432136	2.5360036	1.5924835
19.184888662071433	2.5193427	1.5872437
19.202664175695123	2.5541925	1.5981841
19.220440155767623	2.5658565	1.601829
19.238216602753447	2.5593321	1.5997913
19.2559935171172	2.5151577	1.5859249
19.27377089932361	2.5204794	1.5876018
19.291548749837514	2.5357125	1.5923921
19.309327069123835	2.5017934	1.5817058
19.32710585764763	2.5022569	1.5818523
19.344885115874032	2.4884698	1.5774884
19.362664844268313	2.4961474	1.57992
19.380445043295822	2.4673524	1.5707809
19.39822571342203	2.4637702	1.5696402
19.41600685511252	2.4754097	1.5733435
19.43378846883297	2.4953954	1.5796821
19.451570555049173	2.5029504	1.5820715
19.469353114227037	2.514972	1.5858663
19.48713614683254	2.4900045	1.5779748
19.50491965333182	2.5181699	1.5868742
19.52270363419109	2.520413	1.5875808
19.540488089876686	2.51396	1.5855472
19.55827302085503	2.4905448	1.578146
19.576058427592674	2.446722	1.5642002
19.593844310556282	2.4463687	1.5640872
19.611630670212598	2.4543078	1.5666231
19.629417507028506	2.4448109	1.5635891
19.64720482147098	2.4506686	1.5654612
19.6649926140071	2.4552531	1.5669247
19.682780885104084	2.5029685	1.5820773
19.70056963522921	2.50135	1.5815656
19.718358864849908	2.5120866	1.5849564
19.7361485744337	2.510467	1.5844454
19.753938764448215	2.519639	1.5873371
19.771729435361202	2.5478642	1.5962031
19.789520587640506	2.5609274	1.6002898
19.807312221754092	2.5914104	1.6097858
19.825104338170043	2.5504384	1.5970092
19.842896937356517	2.5070271	1.5833595
19.860690019781824	2.508237	1.5837414
19.87848358591436	2.5294626	1.5904285
19.896277636222635	2.5374663	1.5929426
19.914072171175278	2.4999366	1.5811188
19.931867191241015	2.4802914	1.5748941
19.94966269688869	2.4578772	1.5677618
19.967458688587264	2.4876275	1.5772214
19.985255166805807	2.5024323	1.5819079
20.00305213201348	2.4679666	1.5709763
20.020849584679578	2.394384	1.5473797
20.038647525273507	2.3883371	1.5454246
20.05644595426477	2.4353456	1.5605594
20.07424487212299	2.4775794	1.5740328
20.092044279317903	2.4925787	1.5787903
20.109844176319353	2.4924407	1.5787466
20.127644563597304	2.478821	1.5744272
20.145445441621817	2.460974	1.5687492
20.16324681086307	2.4010124	1.54952
20.181048671791373	2.3823462	1.543485
20.198851024877122	2.3679616	1.5388182
20.216653870590836	2.3535383	1.5341246
20.234457209403146	2.3973527	1.5483387
20.252261041784802	2.407537	1.551624
20.270065368206662	2.4207065	1.555862
20.287870189139685	2.388676	1.5455341
20.305675505054968	2.3553667	1.5347204
20.323481316423702	2.3383968	1.5291817
20.341287623717207	2.3557599	1.5348485
20.359094427406884	2.344935	1.5313181
20.376901727964288	2.3129385	1.5208348
20.39470952586107	2.3167183	1.522077
20.41251782156899	2.3296673	1.5263247
20.430326615559935	2.341169	1.530088
20.448135908305886	2.3439543	1.5309979
20.465945700278965	2.3609366	1.536534
20.483755991951384	2.3471854	1.5320526
20.50156678379548	2.3543847	1.5344005
20.519378076283708	2.367374	1.5386273
20.537189869888635	2.3734612	1.5406042
20.55500216508294	2.3537364	1.5341892
20.572814962339415	2.3594105	1.5360373
20.59062826213098	2.343603	1.5308831
20.60844206493066	2.3545277	1.5344471
20.626256371211593	2.3564477	1.5350726
20.644071181447032	2.3665874	1.5383717
20.66188649611036	2.3373778	1.5288485
20.67970231567506	2.2855885	1.5118163
20.697518640614742	2.2632337	1.5044048
20.715335471403122	2.272042	1.5073295
20.73315280851404	2.3162944	1.5219377
20.750970652421447	2.3029861	1.5175593
20.768789003599412	2.2911177	1.5136439
20.786607862522136	2.2871628	1.5123369
20.8044272296639	2.2987452	1.5161613
20.82224710549913	2.2634733	1.5044844
20.84006749050237	2.2605877	1.5035251
20.857888385148268	3.8401284	1.9596245
20.8757097899116	45.989113	6.7815275
20.893531705267254	64.85176	8.053059
20.911354131690224	83.84771	9.156839
20.92917706965566	69.08721	8.311872
20.94700051963877	50.148373	7.0815516
20.96482448211493	29.422691	5.4242687
20.982648957559622	4.134969	2.0334623
21.00047394644843	2.2289486	1.4929664
21.01829944925707	2.2263386	1.492092
21.036125466461375	2.235666	1.4952143
21.053951998537297	2.2344213	1.4947981
21.071779045960906	2.2422235	1.4974056
21.089606609208378	2.2726288	1.507524
21.10743468875603	2.282571	1.510818
21.12526328508028	2.2427404	1.4975781
21.143092398657675	2.2240078	1.4913108
21.16092202996488	2.2301922	1.4933828
21.17875217947867	2.2230728	1.4909972
21.19658284767596	2.2227566	1.4908912
21.21441403503377	2.1905344	1.4800454
21.232245742029225	2.1680055	1.4724149
21.2500779691396	2.16762	1.472284
21.26791071684227	2.1598458	1.4696414
21.28574398561475	2.1482325	1.465685
21.30357777593465	2.1180527	1.4553531
21.321412088279704	2.1332073	1.4605503
21.339246923127792	2.1536136	1.4675195
21.357082280956888	2.1682427	1.4724954
21.3749181622451	2.1698303	1.4730344
21.392754567470647	2.1663806	1.471863
21.41059149711187	2.1905444	1.4800488
21.42842895164726	2.1649108	1.4713635
21.446266931555378	2.1355386	1.4613482
21.464105437314945	2.0889702	1.445327
21.481944469404798	2.1038582	1.4504683
21.49978402830388	2.1250505	1.4577553
21.51762411449127	2.1334417	1.4606305
21.53546472844617	2.143012	1.4639031
21.553305870647876	2.1499496	1.4662707
21.571147541575865	2.1698866	1.4730535
21.58898974170967	2.1111991	1.4529966
21.60683247152899	2.0702844	1.4388483
21.62467573151363	2.0801668	1.4422784
21.642519522143523	2.119155	1.4557317
21.660363843898722	2.1061168	1.4512466
21.6782086972594	2.04779	1.4310101
21.696054082705864	2.0182598	1.4206547
21.713900000718535	2.013519	1.4189852
21.73174645177795	2.039522	1.4281183
21.749593436364794	2.0594172	1.4350669
21.767440954959845	2.0524163	1.4326257
21.785289008044032	2.0214257	1.4217685
21.803137596098388	1.9806718	1.4073634
21.820986719604086	1.9808234	1.4074173
21.838836379042412	1.9723196	1.404393
21.85668657489478	1.9982076	1.4135797
21.87453730764273	1.9962007	1.4128697
21.892388577767914	2.022187	1.4220362
21.91024038575213	2.004732	1.4158856
21.928092732077285	1.984776	1.4088207
21.945945617225426	1.9786336	1.4066391
21.963799041678694	1.984292	1.408649
21.981653005919398	31.316418	5.5961075
21.999507510429943	78.1561	8.840593
22.01736255569286	73.07614	8.548458
22.035218142190818	4.156708	2.0388005
22.05307427040661	1.9682074	1.4029281
22.07093094082315	1.9753498	1.4054713
22.088788153923474	1.978978	1.4067615
22.106645910190746	1.9423363	1.3936772
22.12450421010827	1.9400021	1.3928396
22.142363054159464	1.9610716	1.4003826
22.16022244282787	2.018604	1.4207759
22.178082376597164	2.0029385	1.4152521
22.195942855951145	1.984697	1.4087927
22.213803881373742	1.9755324	1.4055363
22.231665453349002	1.9637723	1.4013466
22.24952757236111	1.950514	1.396608
22.26739023889438	1.9633223	1.401186
22.28525345343323	1.962195	1.4007838
22.30311721646225	1.934225	1.3907641
22.320981528466113	1.919928	1.3856146
22.33884638992964	1.9352106	1.3911184
22.356711801337788	1.9640446	1.4014437
22.37457776317561	1.9582641	1.3993798
22.392444275928337	1.9544281	1.3980086
22.410311340081282	1.9536098	1.3977159
22.428178956119904	1.9740057	1.4049932
22.446047124529805	1.9774488	1.4062179
22.46391584579669	1.9670005	1.4024979
22.481785120406414	1.9326723	1.3902059
22.49965494884496	1.9417888	1.3934808
22.51752533159841	1.9618094	1.4006461
22.53539626915302	2.0009062	1.414534
22.553267761995137	1.9911504	1.4110813
22.571139810611264	1.9638121	1.4013608
22.589012415488025	1.9477988	1.3956356
22.60688557711216	1.9378175	1.3920552
22.624759295970566	1.9057842	1.3805014
22.642633572550263	1.9152987	1.3839432
22.660508407338362	1.9404501	1.3930004
22.67838380082217	1.9739681	1.4049798
22.696259753489077	1.9582196	1.399364
22.714136265826614	1.9167097	1.3844528
22.73201333832246	1.9220113	1.3863662
22.74989097146439	1.9158139	1.3841293
22.76776916574035	1.9239584	1.3870683
22.785647921638393	1.9332193	1.3904026
22.803527239646712	1.9819524	1.4078183
22.82140712025363	1.9716153	1.4041421
22.839287563947593	1.931399	1.3897479
22.85716857121719	1.922092	1.3863953
22.875050142551135	1.9477818	1.3956295
22.892932278438277	1.9534936	1.3976743
22.910814979367604	1.9034953	1.3796722
22.928698245828222	1.8841547	1.3726451
22.946582078309387	1.906732	1.3808447
22.96446647730047	1.922968	1.3867112
22.98235144329098	1.9371226	1.3918055
23.000236976770562	1.9366927	1.391651
23.018123078229	1.9168068	1.3844879
23.03600974815619	1.9406526	1.3930731
23.053896987042194	1.9407735	1.3931165
23.071784795377173	1.9129708	1.3831018
23.08967317365145	1.931945	1.3899442
23.10756212235546	1.9055281	1.3804086
23.125451641979787	1.9081515	1.3813586
23.143341733015134	1.8444446	1.3581033
23.161232395952357	1.8431801	1.3576376
23.179123631282426	1.885513	1.3731399
23.197015439496468	1.9599124	1.3999687
23.214907821085717	1.9727606	1.40455
23.23280077654157	1.9414474	1.3933583
23.250694306355538	1.9479773	1.3956996
23.268588411019277	1.9377861	1.3920438
23.28648309102458	1.9546186	1.3980768
23.304378346863356	1.9321554	1.3900199
23.322274179027676	1.9396578	1.3927159
23.340170588009723	1.9317217	1.389864
23.358067574301852	1.8916396	1.3753688
23.37596513839651	1.9051656	1.3802774
23.39386328078629	1.9117477	1.3826597
23.411762001963947	1.9367006	1.3916539
23.429661302422353	1.8655709	1.365859
23.4475611826545	1.8749623	1.3692926
23.46546164315356	1.8672915	1.3664887
23.48336268441279	1.8981038	1.3777169
23.501264306925638	1.8877677	1.3739606
23.51916651118564	1.9507036	1.396676
23.537069297686497	1.9823128	1.4079463
23.554972666922037	1.998086	1.4135367
23.57287661938623	1.9405427	1.3930336
23.59078115557318	1.9269658	1.388152
23.608686275977128	1.94225	1.3936464
23.62659198109246	1.9118654	1.3827022
23.6444982714137	1.8958498	1.3768986
23.66240514743549	1.890534	1.374967
23.68031260965263	1.899134	1.3780907
23.698220658560068	1.887312	1.3737948
23.716129294652845	1.8793292	1.3708863
23.7340385184262	1.8860627	1.37334
23.75194833037546	1.9147565	1.3837473
23.769858730996123	1.9222429	1.3864497
23.78776972078382	1.8980607	1.3777013
23.80568130023431	1.827083	1.3516964
23.823593469843495	1.7858576	1.3363599
23.841506230107424	1.8186511	1.3485737
23.859419581522275	1.87803	1.3704123
23.87733352458438	1.895192	1.3766598
23.89524805979019	1.9111974	1.3824606
23.913163187636318	1.8912874	1.3752409
23.931078908619508	1.9286473	1.3887575
23.948995223236633	1.9440283	1.3942841
23.966912131984735	1.9801093	1.4071636
23.98482963536096	2.0096009	1.417604
24.002747733862616	2.0408735	1.4285915
24.020666427987155	2.0339336	1.4261605
24.038585718232156	2.014126	1.4191991
24.056505605095353	2.0308628	1.4250834
24.074426089074617	2.088902	1.4453034
24.092347170667946	2.0715876	1.439301
24.110268850373515	2.0349588	1.4265199
24.128191128689586	2.0460324	1.4303958
24.146114006114626	2.0448017	1.4299656
24.164037483147187	2.0341005	1.426219
24.181961560286005	2.018721	1.420817
24.199886238029926	2.0492754	1.431529
24.21781151687797	2.053686	1.4330688
24.235737397329274	2.054883	1.4334863
24.253663879883135	2.0643678	1.4367908
24.271590965038975	2.0721376	1.4394921
24.289518653296376	2.0763955	1.4409703
24.30744694515505	2.0811954	1.4426348
24.32537584111486	2.1027153	1.4500742
24.34330534167581	2.1077166	1.4517977
24.361235447338046	2.094436	1.4472166
24.379166158601876	2.0409513	1.4286187
24.39709747596772	2.0298092	1.4247137
24.41502939993615	1.9630798	1.4010994
24.432961931007917	1.9411242	1.3932424
24.450895069683856	1.9134406	1.3832717
24.468828816465	1.9370543	1.391781
24.4867631718525	1.8877594	1.3739576
24.504698136347656	1.8758197	1.3696057
24.52263371045192	1.8617285	1.3644518
24.540569894666874	1.9072374	1.3810277
24.558506689494266	1.900975	1.3787585
24.57644409543597	1.8914483	1.3752993
24.594382112994012	1.8806047	1.3713515
24.61232074267057	1.9506599	1.3966602
24.630259984967953	1.9718455	1.4042242
24.64819984038863	1.9556828	1.3984573
24.66614030943522	1.937779	1.3920413
24.684081392610462	1.9522487	1.397229
24.702023090417274	1.9551392	1.3982629
24.7199654033587	1.9481646	1.3957666
24.737908331937927	1.9239795	1.3870759
24.755851876658305	1.9450791	1.394661
24.773796038023324	1.9963682	1.4129289
24.79174081653661	2.0544434	1.4333329
24.809686212701962	2.0816343	1.4427869
24.827632227023294	2.1285915	1.4589694
24.8455788600047	2.1335528	1.4606686
24.8635261121504	2.1145518	1.4541498
24.88147398396475	2.1259806	1.4580743
24.899422475952303	2.1236587	1.4572778
24.917371588617698	2.1337914	1.4607503
24.935321322465768	2.1020293	1.4498377
24.953271678001478	2.2131038	1.4876504
24.97122265572994	2.4539235	1.5665004
24.989174256156414	2.8161855	1.6781495
25.00712647978632	3.2310312	1.7975069
25.02507932712521	3.7809854	1.9444757
25.043032798678798	4.336773	2.082492
25.060986894952933	5.0128727	2.2389445
25.078941616453637	5.7946777	2.4072137
25.096896963687055	6.721199	2.5925276
25.114852937159508	7.941005	2.8179789
25.132809537377444	8.388841	2.8963494
25.150766764847468	8.419544	2.9016452
25.168724620076347	7.7217855	2.77881
25.186683103570985	6.6863365	2.5857952
25.204642215838426	5.493598	2.3438425
25.222601957385894	4.2372313	2.0584536
25.24056232872074	3.2124434	1.7923291
25.25852333035048	2.5961218	1.6112485
25.276484962782778	2.2452114	1.498403
25.294447226525435	2.0929382	1.446699
25.312410122086423	2.0614874	1.435788
25.330373649973843	2.0367513	1.427148
25.348337810695988	1.9874645	1.4097747
25.366302604761245	1.9005436	1.378602
25.384268032678207	1.8916752	1.3753818
25.40223409495558	1.9087899	1.3815897
25.420200792102257	1.9419837	1.3935508
25.438168124627246	1.8903863	1.3749132
25.45613609303974	1.8331671	1.353945
25.474104697849057	1.8108712	1.3456862
25.492073939564698	1.8213365	1.349569
25.510043818696285	1.8373957	1.3555057
25.528014335753614	1.9001278	1.3784512
25.54598549124664	1.8945739	1.3764353
25.56395728568544	1.8785247	1.3705928
25.58192971958028	1.8483958	1.3595573
25.59990279344156	1.8517904	1.360805
25.617876507779833	1.8665314	1.3662106
25.635850863105826	1.9010794	1.3787963
25.653825859930386	1.9196867	1.3855276
25.671801498764548	1.859365	1.3635854
25.68977778011949	1.84383	1.357877
25.707754704506524	1.8394604	1.3562671
25.725732272437153	1.8780624	1.3704242
25.743710484423012	1.8823451	1.3719858
25.761689340975888	1.8788382	1.3707072
25.77966884260774	1.8089844	1.3449849
25.797648989830662	1.7705688	1.3306272
25.815629783156922	1.7502388	1.3229659
25.83361122309895	1.7789806	1.3337843
25.85159331016929	1.8135335	1.346675
25.869576044880695	1.775403	1.3324425
25.887559427746034	1.781196	1.3346145
25.90554345927836	1.810908	1.3456998
25.92352813999086	1.7987369	1.34117
25.94151347039689	1.8073039	1.34436
25.959499451009965	1.847255	1.3591375
25.97748608234374	1.8682518	1.3668401
25.995473364912062	1.8717527	1.3681202
26.013461299228904	1.8569227	1.3626895
26.03144988580839	1.8097181	1.3452576
26.04943912516483	1.7903925	1.3380555
26.067429017812675	1.8260113	1.3512999
26.085419564266537	1.847061	1.3590662
26.103410765041186	1.834562	1.35446
26.12140262065155	1.7994114	1.3414214
26.139395131612723	1.8008087	1.3419421
26.157388298439948	1.8367686	1.3552743
26.17538212164861	1.8239081	1.3505214
26.193376601754295	1.8231281	1.3502326
26.211371739272714	1.8113813	1.3458756
26.229367534719746	1.7922722	1.3387578
26.247363988611433	1.7565852	1.3253623
26.26536110146397	1.793238	1.3391184
26.283358873793727	1.8290621	1.3524282
26.301357306117204	1.8236209	1.3504151
26.319356398951104	1.8359714	1.3549802
26.33735615281224	1.8330802	1.353913
26.35535656821762	1.8322186	1.3535947
26.373357645684404	1.8098066	1.3452905
26.39135938572991	1.8484939	1.3595933
26.409361788871614	1.8144032	1.3469979
26.427364855627165	1.7883016	1.337274
26.445368586514352	1.8061626	1.3439355
26.46337298205115	1.854597	1.3618358
26.48137804275568	1.88431	1.3727018
26.499383769146217	1.8723812	1.3683498
26.517390161741215	1.8369217	1.3553308
26.53539722105928	1.7919457	1.3386358
26.553404947619182	1.8110716	1.3457606
26.571413341939856	1.8414432	1.3569978
26.589422404540397	1.8409944	1.3568325
26.60743213594006	1.8010602	1.3420359
26.62544253665827	1.8064473	1.3440413
26.64345360721459	1.84951	1.3599669
26.66146534812879	1.8215399	1.3496443
26.679477759920758	1.8244393	1.350718
26.69749084311057	1.8365031	1.3551764
26.71550459821847	1.8277096	1.3519281
26.733519025764842	1.8306695	1.3530223
26.751534126270258	1.839731	1.3563669
26.769549900255434	1.8097792	1.3452803
26.787566348241267	1.8212125	1.3495231
26.80558347074881	1.8409078	1.3568006
26.823601268299267	1.8112508	1.3458272
26.841619741414036	1.7904295	1.3380693
26.85963889061465	1.7554222	1.3249235
26.877658716422832	1.7738519	1.3318603
26.89567921936045	1.7867931	1.3367099
26.913700399949544	1.8012493	1.3421062
26.93172225871233	1.8287532	1.352314
26.949744796171174	1.8066269	1.3441082
26.967768012848605	1.831837	1.3534538
26.98579190926733	1.875129	1.3693535
27.003816485950225	1.8637115	1.3651782
27.021841743420318	1.8347805	1.3545407
27.039867682200814	1.8248879	1.3508841
27.057894302815072	1.8274746	1.3518412
27.07592160578664	1.8380469	1.3557459
27.0939495916392	1.8748163	1.3692393
27.111978260896635	1.8832153	1.3723029
27.13000761408296	1.8717928	1.3681347
27.148037651722397	1.8346908	1.3545076
27.166068374339304	1.8390604	1.3561196
27.184099782458215	1.8497969	1.3600724
27.20213187660384	1.8236173	1.3504138
27.22016465730105	1.7793603	1.3339267
27.23819812507487	1.7447145	1.3208764
27.256232280450533	1.7880845	1.3371928
27.274267123953383	1.8280249	1.3520447
27.292302656108987	1.8400247	1.3564751
27.31033887744306	1.8191477	1.3487579
27.32837578848146	1.8219091	1.3497812
27.34641338975026	1.8041536	1.3431878
27.364451681775673	1.7987937	1.3411912
27.382490665084074	1.8015326	1.3422118
27.400530340202046	1.7960541	1.3401694
27.41857070765629	1.8066671	1.3441231
27.436611767973726	1.8028107	1.3426878
27.454653521681404	1.8063078	1.3439895
27.472695969306564	1.8159842	1.3475846
27.490739111376627	1.8112327	1.3458204
27.508782948419153	1.8022794	1.34249
27.526827480961902	1.786668	1.336663
27.54487270953279	1.8081989	1.3446928
27.562918634659898	1.8092546	1.3450854
27.580965256871508	1.8105255	1.3455577
27.599012576696026	1.827162	1.3517256
27.617060594662068	1.8355391	1.3548207
27.63510931129842	1.8402793	1.3565689
27.65315872713401	1.824159	1.3506143
27.67120884269797	1.8101088	1.3454028
27.68925965851958	1.84341	1.3577224
27.707311175128307	1.8258593	1.3512436
27.725363393053787	1.852964	1.3612362
27.74341631282583	1.8746529	1.3691796
27.7614699349744	1.878602	1.3706211
27.77952426002968	2.0275526	1.4239216
27.797579288521973	2.109515	1.4524169
27.815635020981784	2.5530133	1.5978152
27.83369145793979	2.5694513	1.6029508
27.85174859992682	2.3387194	1.5292872
27.869806447473923	2.2395804	1.4965228
27.887865001112267	1.9707923	1.4038491
27.905924261373233	1.9136703	1.3833548
27.92398422878836	1.8433678	1.3577068
27.94204490388936	1.8633142	1.3650327
27.96010628720813	1.9087396	1.3815714
27.978168379276728	1.935125	1.3910877
27.9962311806274	1.9096681	1.3819075
28.014294691792568	1.8382477	1.35582
28.0323589133048	1.8002213	1.3417233
28.050423845696887	1.7986685	1.3411444
28.068489489501758	1.8498266	1.3600833
28.086555845252523	1.8633233	1.365036
28.104622913482487	1.8529763	1.3612407
28.122690694725115	1.8624334	1.36471
28.14075918951405	1.8639903	1.3652803
28.15882839838312	1.8648721	1.3656032
28.176898321866304	1.9019336	1.379106
28.1949689604978	1.9599347	1.3999767
28.213040314811945	1.9673231	1.4026129
28.23111238534327	1.9314455	1.3897645
28.249185172626493	1.9264575	1.3879689
28.267258677196473	1.9127827	1.3830339
28.285332899588294	1.9194251	1.3854332
28.303407840337172	1.933533	1.3905153
28.321483499978545	1.94969	1.396313
28.33955987904799	1.916972	1.3845476
28.357636978081285	1.8624996	1.3647343
28.37571479761439	1.8819188	1.3718305
28.393793338183425	1.9198873	1.3856
28.41187260032469	1.9134369	1.3832704
28.429952584574686	1.93889	1.3924403
28.448033291470065	1.9637895	1.4013528
28.46611472154769	1.9483355	1.3958279
28.484196875344566	1.9382453	1.3922088
28.502279753397914	1.9267486	1.3880737
28.52036335624511	1.894105	1.3762648
28.538447684423716	1.9456689	1.3948724
28.556532738471482	1.9989768	1.4138517
28.574618518926325	2.0352428	1.4266194
28.59270502632635	2.0279436	1.4240588
28.61079226120985	2.0199695	1.4212563
28.628880224115274	2.057979	1.4345658
28.646968915581287	2.0637076	1.436561
28.66505833614671	2.0813131	1.4426757
28.68314848635055	2.0669782	1.437699
28.701239366732004	2.0186818	1.4208032
28.71933097783044	2.0156927	1.4197509
28.737423320185403	2.0699427	1.4387295
28.75551639433665	2.0948515	1.4473602
28.773610200824074	2.1167238	1.4548965
28.791704740187793	2.1443264	1.4643519
28.80980001296809	2.115819	1.4545856
28.827896019705413	2.1398084	1.4628084
28.845992760940433	2.1646378	1.4712708
28.86409023721397	2.216224	1.4886987
28.88218844906704	2.1978195	1.4825045
28.900287397040845	2.1531365	1.4673569
28.918387081676755	2.106358	1.4513297
28.936487503516343	2.1611362	1.4700804
28.954588663101365	2.2150333	1.4882988
28.97269056097374	2.2821796	1.5106884
28.990793197675597	2.3227286	1.5240501
29.00889657374923	2.3756015	1.5412986
29.027000689737125	2.3925395	1.5467836
29.04510554618196	2.3994195	1.549006
29.06321114362659	2.3863828	1.5447922
29.08131748261405	2.4146411	1.5539116
29.099424563687567	2.4351196	1.560487
29.11753238739057	2.4332657	1.5598929
29.13564095426663	2.457867	1.5677586
29.15375026485954	2.4808958	1.575086
29.171860319713275	2.5767329	1.6052206
29.18997111937199	2.669276	1.6337919
29.20808266438002	2.7182813	1.6487211
29.226194955281898	2.7738016	1.6654733
29.244307992622335	2.8376381	1.6845291
29.26242177694624	2.830721	1.6824746
29.2805363087987	2.8189483	1.6789724
29.29865158872498	2.918437	1.7083434
29.316767617270557	2.9699857	1.7233647
29.334884394981064	2.9540904	1.7187468
29.353001922402367	2.8866067	1.6990017
29.37112020008047	2.96642	1.7223299
29.389239228561596	3.1817186	1.7837373
29.407359008392152	3.3898299	1.8411491
29.42547954011872	3.6570904	1.9123521
29.44360082428809	4.273433	2.0672283
29.46172286144722	5.3434668	2.311594
29.479845652143283	6.8668413	2.6204658
29.497969196923606	8.967356	2.9945543
29.516093496335728	11.588021	3.4041183
29.5342185509274	14.424458	3.7979543
29.55234436124651	16.734991	4.0908422
29.570470927841175	18.193136	4.2653413
29.588598251259686	18.017591	4.2447133
29.60672633205055	16.725885	4.0897293
29.624855170762405	14.606153	3.8217998
29.642984767944146	11.848246	3.4421282
29.66111512414481	9.053805	3.0089543
29.67924623991366	6.7225327	2.5927846
29.697378115800138	5.134523	2.2659485
29.71551075235387	4.2148695	2.0530148
29.733644150124675	3.7723398	1.9422512
29.751778309662576	3.4820905	1.866036
29.769913231517766	3.3765337	1.8375347
29.78804891624066	3.3535593	1.8312726
29.806185364381818	3.3698883	1.8357255
29.82432257649206	3.3784878	1.8380663
29.842460553122333	3.3409715	1.8278325
29.86059929482382	3.304054	1.8177058
29.878738802147872	3.2366989	1.7990828
29.896879075646048	3.2530973	1.8036345
29.915020115870114	3.305263	1.8180382
29.933161923371976	3.313951	1.8204261
29.951304498703777	3.294415	1.8150524
29.969447842417857	3.2269168	1.796362
29.987591955066733	3.2069147	1.790786
30.005736837203123	3.1643047	1.7788492
30.023882489379943	3.1426947	1.7727647
30.04202891215028	3.1471703	1.7740266
30.060176106067455	3.1662962	1.7794089
30.078324071684946	3.13617	1.7709235
30.09647280955646	3.1360505	1.7708898
30.114622320235863	3.1025112	1.7613946
30.132772604277257	3.0526884	1.7471944
30.1509236622349	3.1570492	1.7768087
30.16907549466328	3.1686835	1.7800796
30.18722810211705	3.1215804	1.7667994
30.205381485151097	3.1473238	1.7740699
30.22353564432045	3.0839443	1.7561163
30.241690580180403	2.9831078	1.7271676
30.25984629328638	2.974037	1.7245396
30.278002784194037	2.9788067	1.725922
30.296160053459246	2.9742596	1.7246042
30.314318101638033	2.9604194	1.7205869
30.332476929286646	2.9606106	1.7206424
30.35063653696153	2.9656842	1.7221162
30.368796925219307	2.9537172	1.7186382
30.386958094616844	2.9298937	1.7116933
30.40512004571115	2.905836	1.7046514
30.423282779059463	2.835729	1.6839622
30.441446295219233	2.7889967	1.6700289
30.459610594748067	2.7759542	1.6661196
30.47777567820382	2.7479858	1.657705
30.495941546144504	2.790546	1.6704928
30.51410819912835	2.8566184	1.6901534
30.532275637713795	2.8106732	1.6765063
30.55044386245946	2.8294191	1.6820878
30.56861287392416	2.8366723	1.6842424
30.586782672666956	2.8387332	1.684854
30.604953259247047	2.8478096	1.6875454
30.623124634223885	2.8206968	1.6794931
30.641296798157075	2.7438052	1.6564435
30.659469751606462	2.6243393	1.6199813
30.677643495132074	2.6644359	1.63231
30.695818029294152	2.765149	1.6628737
30.713993354653116	2.7531724	1.6592686
30.73216947176962	2.7453437	1.6569079
30.75034638120448	2.7422185	1.6559645
30.768524083518756	2.7862883	1.6692178
30.786702579273673	2.8620956	1.6917729
30.80488186903069	2.8843234	1.6983296
30.82306195335144	2.9372256	1.7138336
30.841242832797782	3.0468154	1.745513
30.85942450793176	3.3683813	1.835315
30.877606979315637	3.8061259	1.9509295
30.895790247511883	4.163344	2.0404274
30.913974313083134	4.4803863	2.1166923
30.932159176592283	4.7605124	2.1818597
30.95034483860237	4.8456078	2.2012742
30.968531299676698	4.6290655	2.1515262
30.98671856037873	4.2049227	2.0505908
31.00490662127215	3.8224134	1.9550993
31.023095482920848	3.529348	1.8786559
31.04128514588892	3.1179097	1.7657604
31.059475610740662	2.757859	1.6606803
31.07766687804056	2.579224	1.6059963
31.09585894835335	2.5315	1.5910689
31.11405182224393	2.476526	1.5736982
31.132245500277417	2.4575932	1.5676713
31.15043998301914	2.4591386	1.5681641
31.168635271034628	2.426821	1.5578257
31.18683136488964	2.374484	1.5409361
31.20502826515008	2.4181433	1.555038
31.223225972382135	2.4245012	1.557081
31.241424487152155	2.42834	1.5583131
31.259623810026692	2.4222455	1.5563564
31.27782394157253	2.4588416	1.5680693
31.296024882356644	2.4677207	1.570898
31.314226632946237	2.4217556	1.5561991
31.332429193908684	2.353669	1.5341672
31.350632565811598	2.334023	1.527751
31.368836749222787	2.3908515	1.5462378
31.387041744710295	2.456457	1.5673088
31.40524755284232	2.518651	1.5870259
31.423454174187317	2.540577	1.5939187
31.441661609313922	2.473444	1.5727186
31.459869858791002	2.4111125	1.5527757
31.478078923187628	2.3672302	1.5385805
31.496288803073064	2.3153992	1.5216435
31.514499499016807	2.3465807	1.5318553
31.532711011588546	2.3595707	1.5360894
31.550923341358178	2.3153026	1.5216118
31.56913648889584	2.2576797	1.5025578
31.587350454771844	2.2929242	1.5142405
31.605565239556732	2.2983778	1.5160402
31.62378084382127	2.3291523	1.5261561
31.641997268136382	2.3043287	1.5180016
31.660214513073274	2.2896035	1.5131435
31.67843257920331	2.2664483	1.5054728
31.6966514670981	2.2830274	1.510969
31.71487117732944	2.3168933	1.5221344
31.733091710469346	2.2999008	1.5165423
31.751313067090052	2.281305	1.510399
31.769535247764008	2.319519	1.5229968
31.787758253063878	2.32954	1.526283
31.805982083562526	2.3522298	1.5336981
31.824206739833024	2.3671641	1.5385591
31.84243222244869	2.3203778	1.5232786
31.860658531983013	2.2501662	1.5000554
31.878885669009737	2.281975	1.5106207
31.897113634102784	2.269027	1.5063289
31.91534242783632	2.2546213	1.5015396
31.933572050784694	2.2424893	1.4974943
31.951802503522508	2.229865	1.4932733
31.970033786624548	2.2044182	1.4847283
31.988265900665834	2.217942	1.4892757
32.006498846221575	2.255082	1.501693
32.02473262386724	2.2295372	1.4931635
32.04296723417845	2.1905222	1.4800413
32.0612026777311	2.1717653	1.4736911
32.07943895510129	2.1926012	1.4807434
32.097676066865304	2.1307077	1.4596944
32.115914013599685	2.152072	1.4669942
32.13415279588115	2.132794	1.4604088
32.152392414286666	2.1027892	1.4500997
32.1706328693934	2.0234404	1.4224769
32.18887416177875	2.0185316	1.4207504
32.20711629202032	2.1019828	1.4498217
32.225359260695924	2.1981494	1.4826157
32.243603068383614	2.2128663	1.4875706
32.26184771566166	2.2268538	1.4922646
32.28009320310852	2.3232958	1.5242362
32.2983395313029	2.2773225	1.50908
32.31658670082372	2.1510491	1.4666456
32.33483471225012	2.1356595	1.4613895
32.35308356616143	2.1625357	1.4705563
32.371333263137245	2.1857018	1.4784119
32.38958380375734	2.1571925	1.4687384
32.407835188601744	2.1206377	1.4562409
32.42608741825067	2.097354	1.4482244
32.444340493284585	2.0905545	1.4458749
32.46259441428416	2.1066558	1.4514323
32.48084918183028	2.0903823	1.4458154
32.49910479650405	2.0464444	1.4305398
32.51736125888683	2.0120122	1.4184542
32.53561856956014	2.0343919	1.4263211
32.5538767291058	1.9823177	1.407948
32.572135738105764	1.9151063	1.3838737
32.59039559714228	1.8994182	1.3781939
32.608656306797776	2.0290382	1.4244431
32.62691786765491	2.1390147	1.462537
32.645180280296586	2.1331916	1.460545
32.663443545305896	2.1002243	1.449215
32.68170766326619	2.0303745	1.4249121
32.69997263476099	1.9832098	1.4082649
32.7182384603741	2.0048919	1.4159421
32.7365051406895	2.1306272	1.4596668
32.75477267629144	2.1193879	1.4558117
32.77304106776434	2.0419168	1.4289565
32.79131031569289	1.9914215	1.4111773
32.809580420661966	2.025688	1.4232666
32.827851383256714	2.0269613	1.4237139
32.84612320406245	2.0129216	1.4187747
32.86439588366476	1.9772185	1.406136
32.88266942264945	1.9865613	1.4094542
32.9009438216025	2.0087059	1.4172882
32.9192190811102	2.0719218	1.4394171
32.937495201758985	2.066331	1.4374738
32.95577218413556	1.9564672	1.3987377
32.974050028826866	1.902763	1.3794068
32.992328736420035	1.9615865	1.4005665
33.010608307502444	2.03898	1.4279286
33.02888874266169	1.9690495	1.4032283
33.047170042485604	1.8783394	1.3705252
33.06545220756225	1.8927623	1.375777
33.083735238479896	1.9372257	1.3918426
33.10201913582707	1.9130988	1.3831482
33.12030390019248	1.854921	1.3619548
33.138589532165135	1.8844808	1.372764
33.15687603233419	1.99767	1.4133896
33.17516340128909	2.041381	1.428769
33.19345163961947	1.8920892	1.3755324
33.211740747915215	1.7983545	1.3410274
33.23003072676643	1.8568256	1.3626539
33.248321576763466	1.9382606	1.3922143
33.266613298496885	1.9702271	1.4036478
33.28490589255747	1.9744725	1.4051592
33.30319935953626	1.9933883	1.411874
33.32149370002451	1.9641056	1.4014655
33.339788914613706	1.9009784	1.3787597
33.358085003895575	1.912283	1.3828532
33.376381968462034	1.8932976	1.3759714
33.39467980890529	1.9018669	1.379082
33.41297852581774	1.8376698	1.3556068
33.43127811979204	1.856241	1.3624394
33.44957859142105	1.850761	1.3604268
33.467879941297866	1.9085383	1.3814986
33.486182170015844	1.9007211	1.3786664
33.50448527816853	1.9047096	1.3801122
33.522789266349754	1.9669302	1.4024729
33.541094135153514	1.9831979	1.4082606
33.55939988517411	1.8987799	1.3779622
33.57770651700602	1.9066133	1.3808017
33.59601403124398	1.9972214	1.4132308
33.61432242848296	1.931636	1.3898331
33.632631709318154	1.8158473	1.3475338
33.650941874344994	1.8735304	1.3687696
33.66925292415916	1.9563714	1.3987035
33.68756485935654	1.876014	1.3696766
33.70587768053328	1.9061587	1.380637
33.724191388285746	2.0147843	1.419431
33.74250598321054	2.00633	1.4164498
33.760821465904506	2.0656857	1.4372494
33.77913783696474	2.1357877	1.4614334
33.79745509698852	2.0542288	1.433258
33.815773246573414	2.009495	1.4175665
33.8340922863172	1.9308536	1.3895516
33.852412216817896	1.925833	1.3877438
33.87073303867377	2.0305643	1.4249787
33.889054752483304	2.1998265	1.4831812
33.907377358845245	2.1418333	1.4635004
33.92570085835853	1.9362288	1.3914844
33.94402525162239	1.8777853	1.3703231
33.96235053923627	1.8973283	1.3774354
33.980676721799824	1.9745722	1.4051948
33.999003799912984	1.9257455	1.3877124
34.01733177417592	1.8947239	1.3764898
34.03566064518901	1.9398935	1.3928006
34.0539904135529	2.13288	1.4604383
34.07232107986846	2.1806738	1.4767104
34.090652644736785	2.0771804	1.4412427
34.108985108759235	1.9697505	1.403478
34.12731847253742	1.8684517	1.3669132
34.14565273667313	1.9219193	1.3863331
34.16398790176847	1.9848117	1.4088334
34.18232396842574	2.0451586	1.4300904
34.20066093724749	2.054716	1.433428
34.21899880883651	2.0467472	1.4306457
34.23733758379583	2.001676	1.414806
34.25567726272874	1.9936767	1.4119761
34.27401784623872	2.009205	1.4174644
34.29235933492957	2.0223715	1.4221011
34.31070172940526	1.9566048	1.3987869
34.32904503027003	1.9142543	1.3835658
34.347389238128386	2.061403	1.4357587
34.36573435358502	2.1121287	1.4533165
34.38408037724492	1.9525403	1.3973333
34.402427309713296	1.771816	1.3310958
34.42077515159559	1.8003391	1.3417672
34.43912390349752	1.9223949	1.3865045
34.45747356602499	1.9341279	1.3907293
34.47582413978423	2.0706687	1.4389818
34.49417562538163	2.1842968	1.4779367
34.51252802342388	2.0527508	1.4327424
34.53088133451789	1.7628516	1.3277242
34.54923555927084	1.7012359	1.3043144
34.567590698290104	1.8760355	1.3696845
34.58594675218336	1.980371	1.4072566
34.6043037215585	1.8602501	1.3639098
34.62266160702365	1.839113	1.356139
34.641020409187234	1.9321235	1.3900084
34.65938012865785	1.9786904	1.4066592
34.677740766044394	1.9030696	1.3795179
34.69610232195598	1.7802861	1.3342736
34.714464797002016	1.7760103	1.3326703
34.73282819179208	1.9183496	1.3850449
34.751192506936064	1.9370097	1.391765
34.76955774304408	1.9014041	1.3789141
34.7879239007265	1.9028971	1.3794553
34.80629098059391	1.7946664	1.3396516
34.824658983257194	1.8718053	1.3681394
34.843027909327446	2.0713336	1.4392128
34.86139775941603	2.1997259	1.4831473
34.879768534134534	2.1331544	1.4605322
34.89814023409483	1.9846976	1.408793
34.91651285990901	1.8659493	1.3659976
34.93488641218944	1.8762974	1.3697801
34.95326089154871	1.9415743	1.3934039
34.97163629859967	1.9686592	1.4030892
34.99001263395542	1.8568599	1.3626665
35.00838989822934	1.8795118	1.3709528
35.02676809203499	1.8088692	1.3449421
35.04514721598624	1.7657428	1.3288126
35.063527270697215	1.9659039	1.402107
35.081908256782256	2.035537	1.4267225
35.10029017485597	2.0780156	1.4415324
35.11867302553321	2.0994065	1.4489329
35.137056809429104	1.9403619	1.3929688
35.155441527159006	2.0379958	1.4275839
35.173827179338524	1.9851034	1.408937
35.19221376658354	1.8807557	1.3714064
35.21060128951017	1.804034	1.3431433
35.2289897487348	1.6475163	1.2835561
35.24737914487405	1.8515822	1.3607285
35.26576947854479	2.1745071	1.474621
35.28416075036418	2.1582522	1.4690992
35.30255296094958	2.0891018	1.4453726
35.32094611091867	1.7553906	1.3249116
35.33934020088932	1.857806	1.3630135
35.35773523147969	2.2252686	1.4917334
35.3761312033082	2.2563279	1.5021079
35.394528116993506	2.1323707	1.460264
35.41292597315452	2.1069732	1.4515417
35.431324772410434	1.9243582	1.3872124
35.449724515380666	2.0256178	1.423242
35.46812520268491	2.030649	1.4250084
35.486526834943106	1.9561344	1.3986188
35.504929412775454	2.0101614	1.4178016
35.52333293680242	2.1068368	1.4514947
35.54173740764471	1.7750773	1.3323203
35.560142825923286	1.6335032	1.2780857
35.5785491922594	1.4861602	1.2190816
35.59695650727454	0.8429279	0.918111
35.61536477159042	0.0	0.0
