0.008763373481513119	0.3822274	0.6182454
0.026290120649546365	0.3681276	0.6067352
0.043816868432600686	0.25180787	0.5018046
0.06134361724069026	0.09818891	0.3133511
0.07887036748382949	0.04575256	0.21389848
0.0963971195720331	0.05314522	0.23053247
0.11392387391531617	0.056969136	0.23868208
0.1314506309236943	0.10472146	0.32360694
0.1489773910071836	0.11645341	0.3412527
0.16650415457580078	0.15299894	0.3911508
0.18403092203956356	0.19444627	0.44096062
0.20155769380849	0.15516359	0.39390808
0.2190844702925996	0.12191074	0.34915718
0.2366112519019124	0.10639618	0.32618427
0.2541380390464497	0.16109669	0.40136853
0.27166483213623416	0.17403919	0.41718003
0.28919163158128947	0.16650909	0.40805525
0.3067184377916406	0.12680115	0.3560915
0.324245251177314	0.102965444	0.3208823
0.34177207214833777	0.08611391	0.29345173
0.3592989011147415	0.08712073	0.2951622
0.37682573848655654	0.09781454	0.31275317
0.39435258467381573	0.13100795	0.36195022
0.41187944008655414	0.18340935	0.4282632
0.42940630513480854	0.1994087	0.446552
0.446933180228618	0.22189789	0.4710604
0.4644600657780234	0.21535872	0.46406758
0.48198696219306775	0.17362949	0.4166887
0.49951386988379676	0.18803506	0.43363008
0.5170407892602581	0.1733431	0.41634494
0.5345677207325025	0.19429308	0.4407869
0.5520946647105822	0.18895565	0.4346903
0.5696216216045534	0.17197056	0.41469333
0.5871485918244737	0.1593608	0.3992002
0.6046755757804043	0.12903053	0.3592082
0.6222025738824094	0.10157353	0.318706
0.6397295865405557	0.111048885	0.33323997
0.6572566141649129	0.1660375	0.407477
0.6747836571655547	0.20711397	0.45509776
0.6923107159525568	0.22548878	0.4748566
0.7098377909359992	0.17793214	0.42182004
0.7273648825259653	0.14863917	0.3855375
0.7448919911325411	0.13192995	0.36322162
0.762419117165817	0.16749378	0.40926003
0.7799462610358868	0.17470512	0.41797742
0.7974734231528482	0.18165992	0.42621583
0.8150006039268024	0.17693032	0.42063087
0.8325278037678551	0.18189089	0.42648667
0.8500550230861152	0.19465156	0.44119334
0.8675822622916969	0.18542303	0.43060774
0.8851095217947171	0.1828897	0.42765605
0.9026368020052984	0.19605233	0.44277796
0.9201641033335665	0.22358014	0.4728426
0.9376914261896523	0.22228663	0.47147283
0.9552187709836915	0.22586887	0.47525662
0.9727461381258234	0.21390654	0.4625003
0.990273528026193	0.21425578	0.46287772
1.0078009410949496	0.22757643	0.4770497
1.0253283777422473	0.23732091	0.48715594
1.0428558383782454	0.25946465	0.5093767
1.0603833234131086	0.24289115	0.49283987
1.0779108332570058	0.30777836	0.55477774
1.0954383683201119	0.27443385	0.5238643
1.112965929012607	0.3087462	0.55564934
1.1304935157446763	0.45868528	0.6772631
1.1480211289265108	0.5080619	0.7127846
1.1655487689683062	1.3225465	1.1500202
1.1830764362802655	1.558146	1.2482572
1.200604131272596	1.9559065	1.3985373
1.2181318543555117	2.2183464	1.4894114
1.235659605939232	2.236453	1.4954776
1.253187386433982	4.0159173	2.0039754
1.270715196249994	6.2750487	2.5050046
1.2882430357975057	11.523069	3.3945646
1.3057709054867608	16.103659	4.0129366
1.3232988057280106	21.84813	4.674198
1.3408267369315112	26.592695	5.1568108
1.358354699507526	30.448788	5.518042
1.3758826938663256	34.41311	5.8662686
1.3934107204181858	36.88206	6.07306
1.410938779573391	37.58376	6.1305594
1.4284668717422309	38.04592	6.1681376
1.4459949973350033	37.430695	6.118063
1.4635231567620117	37.17762	6.0973454
1.4810513504335687	36.699512	6.0580125
1.4985795787599925	36.021107	6.0017586
1.5161078421516088	35.412575	5.9508467
1.5336361410187505	34.675434	5.888585
1.5511644757717598	34.711197	5.891621
1.5686928468209842	35.472214	5.9558554
1.58622125457678	35.636417	5.9696245
1.6037496994495108	37.162594	6.096113
1.621278181849548	37.07856	6.0892167
1.6388067021872719	38.189754	6.1797857
1.6563352608730693	37.591778	6.131213
1.673863858317336	36.76836	6.063692
1.6913924949304753	35.849613	5.9874544
1.7089211711228998	34.694756	5.8902254
1.7264498873050296	33.481323	5.786305
1.7439786438872935	32.50725	5.7015133
1.7615074412801288	31.465128	5.6093783
1.779036279893981	30.999506	5.56772
1.796565160139305	30.139977	5.489989
1.814094082426564	29.4553	5.4272738
1.8316230471662298	28.936783	5.379292
1.849152054768784	27.893576	5.281437
1.8666811056447168	27.429476	5.2373157
1.8842102002045273	26.6641	5.163729
1.901739338858724	26.332033	5.131475
1.9192685220178245	25.77268	5.07668
1.9367977500923557	25.217434	5.021696
1.9543270234928547	24.603268	4.960168
1.971856342629867	23.973253	4.896249
1.9893857079139496	23.52	4.8497424
2.006915119755667	22.96866	4.792563
2.0244445785655945	22.385397	4.731321
2.0419740847543175	21.864082	4.6759043
2.0595036387324317	21.44811	4.6312103
2.0770332409105414	21.074131	4.5906568
2.094562891699263	20.555355	4.5338016
2.1120925915092217	19.99351	4.4714103
2.129622340751053	19.524935	4.4187026
2.1471521398354043	187.44981	13.691232
2.1646819891729323	443.93832	21.069843
2.182211889174303	440.05563	20.977503
2.1997418402501974	452.5883	21.274122
2.2172718428113023	432.6541	20.800339
2.234801897268317	320.64493	17.90656
2.2523320040319548	17.200134	4.1473045
2.269862163512935	16.757423	4.093583
2.287392376121992	16.222672	4.0277376
2.304922642269869	15.979541	3.9974418
2.322452962367322	15.80895	3.976047
2.3399833368251164	15.674513	3.959105
2.357513766054032	15.303725	3.9119976
2.3750442504648586	15.019033	3.87544
2.3925747904683963	14.754646	3.8411777
2.410105386475459	14.711083	3.835503
2.4276360388968707	14.321854	3.7844224
2.445166748143469	14.046576	3.7478762
2.4626975146261025	13.74842	3.7078862
2.4802283387556323	13.56104	3.6825318
2.4977592209429305	13.38995	3.659228
2.5152901615988825	13.062063	3.6141477
2.5328211611343865	12.840268	3.583332
2.5503522199603523	12.51474	3.537618
2.5678833384877024	12.239893	3.498556
2.5854145171273712	12.030533	3.4685059
2.6029457562903064	11.893692	3.4487233
2.620477056387469	11.760694	3.4293869
2.6380084178298326	11.52268	3.3945074
2.655539841028383	11.408655	3.37767
2.673071326394119	11.382851	3.373848
2.6906028743380523	11.288535	3.3598416
2.708134485271211	11.034745	3.3218586
2.7256661596046325	10.783333	3.2837985
2.743197897749369	10.503504	3.240911
2.760729700116486	10.391002	3.2235076
2.778261567117063	10.303101	3.2098444
2.795793499162193	10.402634	3.2253115
2.8133254966629817	10.167055	3.188582
2.830857560030551	9.957453	3.155543
2.8483896896760337	9.591934	3.0970848
2.865921886010578	9.4538965	3.074719
2.883454149445347	9.291369	3.0481749
2.9009864803915177	9.301499	3.049836
2.91851887926028	9.215753	3.0357459
2.9360513464628384	9.195902	3.0324745
2.953583882410413	8.99516	2.9991932
2.9711164875142373	8.823504	2.9704385
2.9886491621855606	8.713288	2.951828
3.0061819068356455	8.600013	2.9325778
3.023714721875769	8.637059	2.9388874
3.041247607717225	8.522065	2.9192576
3.0587805647713213	8.327793	2.8857915
3.0763135934493806	8.163983	2.8572686
3.0938466941627407	8.06627	2.840118
3.1113798673227544	8.028607	2.8334796
3.1289131133407904	7.7919955	2.7914145
3.1464464326282315	7.7867923	2.7904825
3.1639798255964786	7.690668	2.7732053
3.1815132926569443	7.6901164	2.7731059
3.1990468342210603	7.5167093	2.7416618
3.216580450700272	7.3548064	2.7119746
3.2341141425060416	7.251468	2.6928551
3.251647910049847	7.309646	2.7036357
3.2691817537431813	7.181698	2.679869
3.286715673997555	7.154309	2.674754
3.3042496712244938	6.928157	2.6321392
3.32178374583554	6.9015765	2.6270852
3.339317898242251	6.90915	2.6285262
3.3568521288562034	6.909719	2.6286345
3.3743864380889876	6.8547473	2.6181571
3.3919208263522127	6.6236367	2.5736427
3.4094552940575023	6.542069	2.557747
3.4269898416164972	6.539531	2.5572507
3.444524469440858	6.5951505	2.5681026
3.4620591779422587	6.5663333	2.5624857
3.479593967532391	6.473684	2.5443435
3.4971288386229658	6.327589	2.51547
3.5146637916257086	6.3242064	2.5147974
3.5321988269523628	6.279661	2.5059252
3.5497339450146903	6.375754	2.5250256
3.5672691462244708	6.36509	2.522913
3.5848044309934988	6.361867	2.5222743
3.60233979973359	6.2985992	2.509701
3.619875252856575	6.1931577	2.4886055
3.6374107907743034	6.163829	2.482706
3.6549464138986427	6.2837787	2.5067465
3.6724821226414788	6.3089776	2.5117679
3.690017917414714	6.411129	2.5320208
3.7075537986302702	6.3663807	2.5231688
3.7250897667000857	6.4284077	2.5354304
3.7426258220361235	6.5993	2.5689104
3.7601619650503553	6.8672333	2.6205406
3.777698196154779	7.432765	2.7263098
3.7952345157614067	8.542701	2.9227898
3.8127709242822716	9.398941	3.0657692
3.830307422129425	11.735803	3.4257557
3.847844009714936	30.336594	5.5078664
3.8653806874508954	97.7384	9.886273
3.882917455749409	96.79801	9.838598
3.900454315022606	96.5611	9.8265505
3.917991265682631	41.2265	6.420787
3.9355283081416506	10.896333	3.3009593
3.9530654428118495	8.734225	2.9553723
3.970602670105433	7.4894547	2.7366867
3.9881399904346244	6.530885	2.5555596
4.005677404211669	6.4301496	2.535774
4.023214911848827	6.3483067	2.5195847
4.0407525137583855	6.2896767	2.507923
4.058290210352644	6.302809	2.5105395
4.075828002043927	6.2733197	2.5046597
4.0933658892445814	6.3042145	2.5108194
4.110903872366966	6.3112254	2.5122151
4.128441951823468	6.4007187	2.5299642
4.145980128026488	6.2568007	2.5013597
4.163518401388452	6.225164	2.4950278
4.181056772321807	6.116701	2.4731965
4.1985952412390155	6.205982	2.491181
4.216133808552567	6.209515	2.49189
4.233672474674966	6.230354	2.4960678
4.251211240018741	6.4044313	2.5306978
4.268750104996445	6.630502	2.5749762
4.286289070020643	7.5911236	2.7551994
4.303828135503928	9.156695	3.0260031
4.3213673018589125	29.475277	5.429114
4.3389065694982305	90.62656	9.519798
4.356445938834537	165.92381	12.881142
4.3739854102805085	171.47656	13.094906
4.391524984248844	172.34982	13.128207
4.409064661152262	136.39275	11.678731
4.426604441403504	96.56313	9.826654
4.444144325415337	75.399185	8.68327
4.461684313600543	21.470728	4.6336517
4.47922440637193	21.776308	4.666509
4.496764604142329	20.124908	4.486079
4.5143049073245916	18.321917	4.280411
4.531845316331589	16.313086	4.038946
4.5493858315762195	13.504642	3.6748662
4.566926453471405	11.209388	3.3480425
4.584467182430081	9.1185465	3.0196931
4.602008018865218	8.075621	2.8417637
4.619548963189798	7.431607	2.7260973
4.637090015816834	7.0132604	2.648256
4.654631177159353	6.7341332	2.5950208
4.672172447630417	6.4854484	2.5466545
4.689713827643102	6.274127	2.5048208
4.7072553176105085	5.9674025	2.4428267
4.724796917945764	5.792339	2.4067278
4.742338629062015	5.685297	2.384386
4.759880451372434	5.7169724	2.391019
4.777422385290215	5.7417994	2.3962052
4.794964431228581	5.7199607	2.391644
4.812506589600768	5.717923	2.391218
4.830048860820047	5.646876	2.3763156
4.847591245299709	5.6319904	2.3731816
4.8651337434530655	5.5385056	2.353403
4.882676355693457	5.5882773	2.3639538
4.900219082434242	5.641902	2.375269
4.917761924088813	5.6562653	2.3782904
4.935304881070575	5.562639	2.3585248
4.952847953792969	5.484285	2.341855
4.970391142669449	5.450522	2.3346353
4.9879344481135055	5.452898	2.335144
5.005477870538642	5.4142504	2.3268542
5.023021410358394	5.4019074	2.3242004
5.040565067986324	5.400767	2.323955
5.05810884383601	5.4960213	2.3443594
5.075652738321066	5.530299	2.3516588
5.09319675185512	5.5532484	2.356533
5.110740884851836	5.499556	2.3451133
5.128285137724894	5.431258	2.330506
5.145829510888007	5.364811	2.3162062
5.163374004754908	5.283522	2.2985914
5.1809186197393595	5.2649226	2.2945418
5.198463356255145	5.266237	2.2948282
5.216008214716077	5.3417363	2.3112197
5.233553195535998	5.3206167	2.306646
5.251098299128764	5.2652526	2.2946138
5.268643525908272	5.1839643	2.276832
5.286188876288432	5.184854	2.2770274
5.3037343506831895	5.2462955	2.2904794
5.32127994950651	5.1925535	2.2787175
5.3388256731723915	5.203539	2.2811267
5.356371522094851	5.2131286	2.2832277
5.373917496687938	5.292787	2.3006058
5.391463597365729	5.3916883	2.322001
5.40900982454232	5.375143	2.3184354
5.426556178631843	5.3743644	2.3182676
5.444102660048449	5.3123627	2.3048563
5.4616492692063225	5.23434	2.287868
5.479196006519669	5.174805	2.2748199
5.496742872402727	5.1773114	2.2753706
5.514289867269756	5.182019	2.2764049
5.531836991535049	5.2568493	2.292782
5.549384245612924	5.2060237	2.2816713
5.566931629917724	5.1480937	2.2689412
5.584479144863822	5.032241	2.2432656
5.6020267908656205	5.0504475	2.2473202
5.619574568337545	5.0632014	2.250156
5.637122477694054	5.161307	2.271851
5.654670519349629	5.1854453	2.2771573
5.672218693718784	5.148635	2.2690604
5.689767001216059	5.1752667	2.2749212
5.707315442256021	5.182669	2.2765477
5.724864017253266	5.2075	2.2819948
5.7424127266224225	5.239939	2.2890913
5.75996157077814	5.2277045	2.2864175
5.777510550135105	5.2611275	2.2937148
5.795059665108022	5.232461	2.2874572
5.812608916111639	5.2326765	2.2875044
5.830158303560715	5.26051	2.29358
5.847707827870055	5.2310405	2.2871468
5.86525748945448	5.350827	2.3131855
5.8828072887288485	5.566673	2.3593798
5.900357226108044	5.6292715	2.3726087
5.917907302006979	5.695041	2.3864286
5.9354575168406	6.238861	2.4977713
5.9530078710238765	6.8295975	2.61335
5.970558364971812	7.387931	2.7180748
5.988108999099438	7.68493	2.7721705
6.005659773821818	8.252514	2.8727188
6.023210689554039	7.991327	2.8268936
6.040761746711227	8.457044	2.9080997
6.058312945708531	7.811205	2.7948532
6.075864286961132	7.3373084	2.7087467
6.093415770884244	6.6947145	2.5874147
6.1109673978931065	6.095953	2.4689984
6.128519168402993	5.5308404	2.351774
6.146071082829204	5.393546	2.322401
6.163623141587075	5.342229	2.3113263
6.181175345091969	5.294487	2.3009753
6.198727693759281	5.231881	2.2873306
6.216280188004435	5.210235	2.282594
6.233832828242885	5.17055	2.2738843
6.251385614890126	5.1192474	2.2625754
6.268938548361669	5.1182017	2.2623444
6.286491629073067	5.0557637	2.2485025
6.304044857439898	5.0502386	2.2472737
6.321598233877777	5.011739	2.2386913
6.339151758802344	4.973159	2.230058
6.356705432629277	4.936057	2.2217238
6.37425925577428	4.9378567	2.2221289
6.391813228653095	4.982453	2.2321408
6.409367351681486	4.987027	2.2331653
6.426921625275259	4.9681053	2.2289248
6.44447604985025	4.975235	2.2305236
6.46203062582232	4.981616	2.2319534
6.47958535360737	5.042274	2.2455008
6.497140233621328	5.061992	2.2498872
6.514695266280161	5.006148	2.2374423
6.532250451999859	4.996078	2.2351909
6.549805791196454	5.0157547	2.239588
6.567361284286002	5.0454736	2.2462132
6.584916931684597	5.0220757	2.2409987
6.602472733808367	5.051819	2.247625
6.6200286910734665	5.0624895	2.2499976
6.637584803896092	5.041566	2.2453432
6.655141072692462	5.013305	2.239041
6.672697497878842	5.0023875	2.2366018
6.690254079871514	5.001199	2.236336
6.707810819086808	5.022177	2.2410214
6.725367715941078	5.0000014	2.2360682
6.742924770850719	4.942368	2.2231438
6.760481984232151	4.928175	2.2199492
6.778039356501836	4.958977	2.226876
6.795596888076266	5.036764	2.2442737
6.813154579371963	5.0546665	2.2482586
6.830712430805492	5.00753	2.2377512
6.84827044279344	4.9512205	2.225134
6.865828615752445	4.924496	2.2191205
6.883386950099159	4.9227257	2.2187216
6.900945446250287	4.950816	2.225043
6.918504104622553	4.947325	2.2242584
6.936062925632727	5.018118	2.2401156
6.953621909697607	5.0534315	2.247984
6.971181057234028	5.1576767	2.271052
6.988740368658859	5.207192	2.2819273
7.006299844389007	5.3008795	2.3023639
7.023859484841407	5.3650327	2.316254
7.041419290433036	5.3723316	2.3178291
7.058979261580902	5.4733367	2.3395164
7.0765393987020495	5.6783023	2.3829188
7.094099702213559	6.120839	2.4740329
7.111660172532549	6.4796467	2.545515
7.129220810076164	6.797371	2.6071768
7.146781615261595	7.3063717	2.70303
7.16434258850606	7.543788	2.7465956
7.181903730226821	7.970932	2.823284
7.1994650408411704	8.10103	2.846231
7.217026520766437	8.217399	2.8666005
7.234588170419983	8.4473915	2.9064398
7.252149990219215	8.407184	2.8995144
7.269711980581568	8.362813	2.8918529
7.2872741419245175	8.22893	2.8686113
7.304836474665574	7.8811054	2.8073306
7.322398979222286	7.518474	2.7419837
7.339961656012233	7.1883407	2.681108
7.357524505453039	6.8792367	2.62283
7.375087527962357	6.6447783	2.5777466
7.392650723957886	6.3411317	2.5181603
7.410214093857353	5.922514	2.4336216
7.427777638078528	5.693	2.3860009
7.445341357039213	5.544284	2.3546302
7.4629052511572525	5.4123654	2.3264492
7.480469320850524	5.3341937	2.3095872
7.498033566536948	5.3091626	2.304162
7.5155979886344735	5.262762	2.294071
7.5331625875610975	5.244752	2.2901423
7.550727363734844	5.186585	2.2774074
7.568292317573788	5.1294975	2.2648394
7.585857449496025	5.1649804	2.2726593
7.603422759919705	5.175674	2.2750108
7.620988249263007	5.180497	2.2760706
7.638553917944147	5.1538987	2.27022
7.656119766381391	5.159239	2.2713957
7.673685794993023	5.1710706	2.2739987
7.691252004197388	5.2176137	2.2842097
7.70881839441285	5.158817	2.271303
7.726384966057826	5.124424	2.263719
7.743951719550762	5.1016912	2.2586923
7.761518655310149	5.1707172	2.273921
7.779085773754511	5.2221103	2.2851937
7.796653075302419	5.2638836	2.2943156
7.814220560372475	5.272509	2.2961946
7.831788229383323	5.2331805	2.2876146
7.8493560827536495	5.237093	2.2884696
7.866924120902174	5.235409	2.2881017
7.884492344247663	5.2591033	2.2932734
7.9020607532089135	5.325172	2.3076334
7.919629348204771	5.350513	2.3131175
7.937198129654115	5.3668737	2.3166513
7.954767097975865	5.325033	2.3076034
7.972336253588986	5.3520484	2.3134494
7.989905596912472	5.3802867	2.3195446
8.007475128365371	5.4165435	2.3273468
8.025044848366756	5.4269385	2.329579
8.042614757335754	5.5000496	2.3452184
8.060184855691523	5.598476	2.3661098
8.07775514385327	5.730197	2.393783
8.095325622240228	5.7559376	2.3991535
8.112896291271687	5.76254	2.4005291
8.130467151366968	5.827927	2.41411
8.148038202945436	5.7932878	2.406925
8.165609446426497	5.877558	2.4243677
8.183180882229594	5.952135	2.4397
8.200752510774217	5.9660196	2.4425437
8.218324332479893	5.9536796	2.4400163
8.235896347766193	5.9194045	2.4329827
8.253468557052724	5.8886228	2.4266484
8.27104096075914	5.912758	2.4316163
8.288613559305137	5.902553	2.429517
8.306186353110448	5.9840474	2.4462314
8.32375934259485	6.0656404	2.462852
8.341332528178162	6.1148233	2.472817
8.358905910280246	6.15363	2.4806511
8.376479489321003	6.1231766	2.4745054
8.394053265720377	6.0854387	2.4668682
8.411627239898356	6.059367	2.4615781
8.42920141227497	6.1627707	2.482493
8.44677578327029	6.194512	2.4888775
8.464350353304427	6.1576147	2.4814541
8.48192512279754	6.1102057	2.471883
8.499500092169827	6.159767	2.4818878
8.51707526184153	6.137683	2.4774346
8.534650632232934	6.113168	2.4724822
8.552226203764365	6.1105213	2.471947
8.569801976856192	6.18167	2.4862964
8.587377951928834	6.2676377	2.503525
8.60495412940274	6.323477	2.5146525
8.622530509698416	6.3377094	2.5174809
8.6401070932364	6.4498553	2.5396566
8.657683880437283	6.5506086	2.5594156
8.675260871721695	6.6701818	2.5826695
8.692838067510303	6.7662215	2.6011963
8.710415468223834	6.8800716	2.6229892
8.727993074283043	7.047284	2.6546721
8.745570886108737	7.103857	2.665306
8.763148904121765	7.160033	2.675824
8.78072712874302	7.177552	2.6790955
8.798305560393441	7.477118	2.734432
8.815884199494006	7.6885943	2.7728314
8.833463046465745	7.8267045	2.7976248
8.851042101729728	7.9199142	2.8142343
8.86862136570707	8.155996	2.8558705
8.886200838818924	8.312226	2.883093
8.903780521486505	8.349219	2.8895016
8.921360414131055	8.483095	2.9125752
8.938940517173874	8.661669	2.9430714
8.956520831036297	8.7649	2.9605575
8.97410135613971	8.985237	2.9975386
8.99168209290554	9.119583	3.0198648
9.009263041755265	9.35487	3.0585732
9.026844203110405	9.588224	3.0964859
9.044425577392525	9.770907	3.125845
9.062007165023239	9.869254	3.141537
9.079588966424197	10.130066	3.1827765
9.097170982017108	10.253079	3.202043
9.11475321222372	11.314756	3.3637414
9.132335657465825	12.215755	3.4951046
9.149918318165264	12.337632	3.5124965
9.167501194743924	12.861741	3.586327
9.18508428762374	12.542361	3.5415196
9.202667597226693	12.536848	3.5407412
9.220251123974803	12.190466	3.4914849
9.237834868290143	11.794577	3.4343233
9.255418830594836	11.5300865	3.3955982
9.273003011311046	11.104066	3.3322763
9.290587410860985	11.003581	3.3171647
9.308172029666911	10.419215	3.227881
9.32575686815113	10.104494	3.1787567
9.343341926735997	8.873204	2.9787924
9.360927205843916	8.604662	2.9333704
9.378512705897327	8.364183	2.8920898
9.396098427318728	8.138309	2.852772
9.413684370530664	8.041113	2.8356857
9.431270535955722	7.978145	2.824561
9.448856924016539	7.961098	2.8215418
9.466443535135806	7.827595	2.797784
9.484030369736251	7.7610135	2.7858596
9.501617428240658	7.6790595	2.7711115
9.519204711071852	7.6645427	2.768491
9.536792218652714	7.7389617	2.781899
9.55437995140617	7.813593	2.7952805
9.571967909755191	7.8104515	2.7947185
9.589556094122802	7.8087983	2.7944226
9.60714450493207	7.846293	2.8011236
9.624733142606116	7.886905	2.8083634
9.642322007568108	7.936109	2.81711
9.659911100241267	7.92239	2.8146741
9.677500421048851	7.8584046	2.8032846
9.695089970414175	7.8724318	2.8057854
9.712679748760609	7.918763	2.8140297
9.730269756511557	8.050539	2.8373473
9.747859994090492	8.147657	2.8544102
9.765450461920915	8.185338	2.861003
9.78304116042639	8.225753	2.8680573
9.800632090030527	8.224092	2.8677676
9.81822325115699	8.256358	2.8733878
9.835814644229481	8.212552	2.865755
9.853406269671762	8.27555	2.8767254
9.870998127907646	8.317916	2.8840797
9.888590219360985	8.414963	2.9008555
9.906182544455698	8.422112	2.9020877
9.923775103615734	8.427049	2.902938
9.941367897265108	8.439772	2.9051285
9.958960925827878	8.479416	2.9119437
9.97655418972816	8.379866	2.8947997
9.994147689390106	8.376242	2.8941739
10.011741425237934	8.312055	2.8830633
10.029335397695904	8.290617	2.8793433
10.04692960718833	8.243346	2.8711228
10.06452405413958	8.200924	2.8637254
10.082118738974064	8.227876	2.8684273
10.099713662116246	8.234263	2.8695407
10.117308823990651	8.223645	2.8676898
10.134904225021844	8.174748	2.8591516
10.152499865634445	8.163336	2.857155
10.170095746253125	8.225702	2.8680484
10.18769186730261	8.166732	2.8577495
10.205288229207675	8.23156	2.8690696
10.222884832393145	8.2209635	2.8672223
10.2404816772839	8.195014	2.8626935
10.258078764304868	8.144579	2.8538709
10.275676093881035	8.083153	2.8430886
10.293273666437438	8.019587	2.8318875
10.310871482399158	8.07461	2.8415859
10.32846954219134	8.106733	2.8472326
10.346067846239173	8.072099	2.8411438
10.363666394967908	8.046472	2.8366303
10.38126518880283	7.989695	2.8266048
10.398864228169298	8.09072	2.8444192
10.416463513492713	8.122128	2.8499346
10.434063045198531	8.079361	2.8424218
10.451662823712262	8.090344	2.844353
10.469262849459467	8.155681	2.8558152
10.486863122865758	8.195452	2.8627698
10.504463644356806	8.158551	2.8563178
10.522064414358338	8.095584	2.845274
10.539665433296118	8.038216	2.8351748
10.557266701595987	7.9394283	2.8176992
10.574868219683818	7.833865	2.7989042
10.592469987985552	7.6947327	2.7739382
10.610072006927185	7.533352	2.7446952
10.627674276934751	7.435651	2.726839
10.64527679843435	7.291635	2.7003028
10.662879571852143	7.2599897	2.6944368
10.680482597614331	7.138627	2.6718209
10.698085876147173	7.02728	2.6509018
10.715689407876988	6.999062	2.645574
10.733293193230146	6.9474077	2.6357934
10.750897232633072	6.959164	2.6380227
10.76850152651225	6.8037844	2.6084065
10.786106075294207	6.656273	2.5799754
10.803710879405534	6.562396	2.5617175
10.821315939272877	6.5437346	2.5580723
10.83892125532294	6.473056	2.54422
10.856526827982472	6.3449087	2.5189102
10.874132657678285	6.237536	2.497506
10.891738744837243	6.1755037	2.4850562
10.909345089886271	6.198808	2.4897406
10.926951693252343	6.194255	2.488826
10.944558555362494	6.1479154	2.479499
10.96216567664381	6.0131774	2.452178
10.979773057523436	5.9448113	2.4381983
10.997380698428573	5.892158	2.4273767
11.014988599786477	5.8146496	2.4113584
11.032596762024461	5.718503	2.391339
11.050205185569892	5.659399	2.3789492
11.067813870850198	5.6428943	2.3754778
11.085422818292859	5.5504932	2.3559484
11.10303202832541	5.4625936	2.3372192
11.120641501375454	5.392211	2.3221135
11.138251237870636	5.3945837	2.3226242
11.155861238238671	5.3161383	2.3056753
11.173471502907317	5.259713	2.2934065
11.191082032304402	5.1472898	2.268764
11.208692826857805	5.13624	2.2663274
11.226303886995465	5.032905	2.2434137
11.243915213145371	5.025065	2.2416656
11.261526805735578	4.974498	2.2303581
11.279138665194196	4.943433	2.2233832
11.296750791949393	4.855453	2.2035093
11.314363186429393	4.79779	2.1903858
11.331975849062479	4.7968426	2.1901696
11.34958878027699	4.7358484	2.1762004
11.36720198050133	4.676759	2.1625814
11.384815450163948	4.595884	2.1438012
11.402429189693366	4.521331	2.126342
11.420043199518153	4.501294	2.1216254
11.437657480066942	63.421265	7.963747
11.455272031768422	85.137985	9.227025
11.472886855051353	107.55684	10.370961
11.490501950344528	99.16899	9.958363
11.508117318076819	84.55999	9.195651
11.52573295867715	45.865566	6.7724123
11.543348872574514	4.1592083	2.0394137
11.560965060197946	4.095727	2.0237904
11.57858152197655	4.05755	2.014336
11.59619825833949	4.0098243	2.0024545
11.613815269715985	3.9750593	1.9937551
11.631432556535323	38.525562	6.2068963
11.649050119226837	83.08424	9.115056
11.666667958219929	93.456696	9.6673
11.68428607394406	107.66708	10.376275
11.701904466828756	82.456474	9.080555
11.719523137303586	65.3193	8.082035
11.737142085798196	4.557767	2.1348927
11.754761312742286	3.6621456	1.9136733
11.772380818565619	3.6114235	1.9003745
11.790000603698015	3.5998745	1.8973335
11.80762066856935	3.5997534	1.8973016
11.825241013609572	3.5525537	1.8848219
11.842861639248683	3.523941	1.8772163
11.860482545916748	3.52165	1.876606
11.878103734043883	3.4954145	1.8696028
11.895725204060282	3.4582186	1.8596286
11.91334695639619	3.404292	1.8450724
11.930968991481919	3.3909893	1.8414639
11.948591309747824	3.417073	1.8485327
11.966213911624347	3.406335	1.845626
11.98383679754198	3.362445	1.8336971
12.001459967931268	3.296843	1.815721
12.019083423222835	3.241681	1.8004669
12.036707163847352	3.20922	1.7914295
12.05433119023556	3.2136464	1.7926646
12.071955502818259	3.188476	1.7856305
12.089580102026313	3.1800542	1.7832706
12.107204988290643	3.1917608	1.7865499
12.12483016204224	3.2088957	1.791339
12.142455623712152	3.1759808	1.7821282
12.16008137373149	3.0880296	1.757279
12.177707412531431	3.0662115	1.7510601
12.19533374054321	3.0691216	1.7518909
12.212960358198126	3.1199267	1.7663314
12.230587265927545	3.0953913	1.7593724
12.248214464162889	3.0218294	1.738341
12.265841953335649	2.9751606	1.7248654
12.283469733877375	2.9753315	1.7249149
12.301097806219685	2.9933536	1.7301311
12.31872617079425	2.979747	1.7261944
12.336354828032825	2.903408	1.703939
12.353983778367205	2.9022694	1.7036048
12.371613022229262	2.933488	1.7127428
12.389242560050928	2.9054313	1.7045326
12.406872392264201	2.8870142	1.6991216
12.424502519301143	2.8426623	1.6860197
12.442132941593874	2.8553782	1.6897864
12.459763659574586	2.842271	1.6859037
12.477394673675532	2.8269536	1.6813548
12.49502598432903	2.8274882	1.6815137
12.51265759196746	2.8396227	1.685118
12.530289497023267	2.8440425	1.6864289
12.547921699928967	2.8079033	1.6756799
12.565554201117134	2.7722793	1.6650163
12.583187001020404	2.7859783	1.669125
12.600820100071486	2.80127	1.6736995
12.618453498703152	2.8272443	1.6814412
12.636087197348235	2.847809	1.6875453
12.65372119643964	2.844496	1.6865634
12.671355496410326	2.8852303	1.6985966
12.68899009769333	2.881187	1.6974059
12.706625000721749	2.8618765	1.6917082
12.724260205928752	2.9093797	1.7056904
12.741895713747551	2.9430957	1.7155453
12.759531524611454	2.9936688	1.7302222
12.777167638953818	2.954691	1.7189214
12.794804057208072	2.9536157	1.7186086
12.812440779807702	3.032796	1.7414924
12.830077807186271	3.2186103	1.7940485
12.847715139777405	3.2679248	1.8077402
12.865352778014795	3.4771943	1.8647237
12.882990722332197	3.5521855	1.8847243
12.90062897316344	3.6035767	1.8983089
12.918267530942412	3.657302	1.9124074
12.935906396103071	3.5143204	1.874652
12.953545569079449	3.7308633	1.9315443
12.971185050305628	3.6050339	1.8986927
12.988824840215775	3.6626356	1.9138013
13.006464939244115	3.597701	1.8967607
13.024105347824943	3.4353254	1.853463
13.041746066392617	3.5223744	1.876799
13.05938709538157	3.34501	1.8289368
13.077028435226296	3.3868763	1.8403468
13.094670086361363	3.2768576	1.8102093
13.112312049221401	3.156405	1.7766274
13.129954324241112	3.0356925	1.7423239
13.147596911855258	2.8420434	1.6858361
13.165239812498685	2.8460865	1.6870348
13.182883026606293	2.8411484	1.6855706
13.200526554613058	2.8264656	1.6812096
13.218170396954017	2.7529314	1.659196
13.235814554064284	2.7055137	1.6448445
13.253459026379034	2.6997921	1.6431044
13.271103814333523	2.6946943	1.6415524
13.288748918363058	2.7169178	1.6483076
13.306394338903031	2.6975982	1.6424366
13.32404007638889	2.6525316	1.6286595
13.341686131256164	2.6331763	1.6227065
13.359332503940449	2.6118288	1.6161153
13.376979194877402	2.6596806	1.6308527
13.394626204502751	2.7567992	1.6603612
13.412273533252307	2.7758658	1.666093
13.429921181561937	2.7692742	1.6641136
13.447569149867581	2.7379565	1.6546772
13.465217438605247	2.7446246	1.6566908
13.482866048211022	2.7027972	1.6440187
13.500514979121052	2.6989415	1.6428455
13.518164231771568	2.6560352	1.6297348
13.535813806598844	2.6575525	1.6302001
13.553463704039254	2.6435058	1.6258862
13.571113924529229	2.658785	1.6305782
13.588764468505275	2.6580005	1.6303375
13.606415336403956	2.6762702	1.635931
13.624066528661917	2.6605747	1.6311268
13.641718045715882	2.7173262	1.6484314
13.659369888002635	2.7794068	1.6671553
13.67702205595903	2.926068	1.7105753
13.694674550021993	3.0100079	1.7349374
13.712327370628532	3.0730562	1.7530135
13.729980518215713	3.140953	1.7722734
13.747633993220681	3.2021909	1.7894666
13.765287796080647	3.2772927	1.8103294
13.7829419272329	3.328348	1.824376
13.800596387114801	3.338892	1.8272635
13.818251176163775	3.333283	1.825728
13.835906294817324	3.3426414	1.8282892
13.853561743513023	3.3876874	1.8405671
13.871217522688525	3.454747	1.8586949
13.888873632781538	3.470335	1.8628836
13.906530074229858	3.5279	1.8782705
13.92418684747135	3.5584366	1.8863819
13.941843952943948	3.521015	1.8764367
13.959501391085665	3.4909418	1.8684062
13.977159162334578	3.4141142	1.8477322
13.994817267128846	3.3587315	1.8326843
14.012475705906693	3.2357912	1.7988305
14.030134479106424	3.1356122	1.770766
14.047793587166414	3.0675895	1.7514535
14.065453030525108	3.0019016	1.7325996
14.083112809621026	2.9351757	1.7132354
14.100772924892766	2.8479006	1.6875724
14.118433376778997	2.8198733	1.6792479
14.136094165718458	2.7735555	1.6653996
14.153755292149969	2.763398	1.6623471
14.171416756512416	2.7124166	1.6469417
14.189078559244768	2.6603084	1.6310452
14.20674070078606	2.5984404	1.6119679
14.224403181575408	2.5356514	1.5923729
14.242066002051999	2.489808	1.5779126
14.259729162655093	2.4698017	1.5715603
14.277392663824022	2.490358	1.5780869
14.295056505998208	2.4728575	1.5725322
14.312720689617128	2.4415927	1.5625596
14.330385215120348	2.409093	1.5521253
14.348050082947497	2.413767	1.5536304
14.3657152935383	2.4047465	1.5507245
14.383380847332528	2.4060316	1.5511388
14.401046744770051	2.3789926	1.5423983
14.418712986290798	2.3733559	1.54057
14.436379572334793	2.3627179	1.5371134
14.454046503342123	2.3580165	1.5355835
14.471713779752946	2.3484194	1.5324553
14.489381402007504	2.358088	1.5356067
14.507049370546113	2.3752577	1.5411872
14.524717685809168	2.4091675	1.5521493
14.542386348237134	2.4195852	1.5555016
14.560055358270553	2.4037352	1.5503983
14.577724716350051	2.4147015	1.553931
14.595394422916325	2.4170532	1.5546875
14.61306447841015	2.4519908	1.5658834
14.63073488327237	2.4763436	1.5736402
14.648405637943917	2.5035076	1.5822476
14.6660767428658	2.4691172	1.5713425
14.683748198479094	2.4802885	1.5748931
14.701420005224954	2.5488074	1.5964985
14.719092163544628	2.6433067	1.6258249
14.73676467387942	2.7016954	1.6436836
14.754437536670727	2.7079687	1.6455907
14.772110752360014	2.7040417	1.644397
14.78978432138882	2.67302	1.6349373
14.807458244198777	2.6740947	1.635266
14.82513252123159	2.6626642	1.6317672
14.842807152929028	2.6834161	1.6381136
14.860482139732962	2.6691918	1.6337662
14.87815748208531	2.6732335	1.6350026
14.8958331804281	2.6950274	1.6416539
14.91350923520342	2.6499367	1.6278626
14.931185646853438	2.6469696	1.626951
14.948862415820408	2.6260707	1.6205156
14.966539542546656	2.67999	1.6370676
14.98421702747459	2.6399229	1.624784
15.001894871046696	2.6332123	1.6227176
15.019573073705542	2.6364307	1.623709
15.037251635893766	2.6848094	1.6385388
15.054930558054092	2.7546475	1.659713
15.072609840629323	2.7778027	1.6666741
15.090289484062351	2.8800983	1.6970853
15.107969488796124	3.0986207	1.7602899
15.125649855273691	3.4895895	1.8680443
15.14333058393817	4.0064244	2.0016055
15.161011675232768	4.9945993	2.23486
15.17869312960076	6.4443417	2.538571
15.196374947485506	8.273892	2.8764374
15.214057129330447	11.413735	3.378422
15.231739675579114	16.111464	4.013909
15.249422586675102	21.116655	4.5952864
15.267105863062092	24.226555	4.9220476
15.284789505183847	24.427105	4.9423785
15.302473513484218	22.420616	4.735041
15.320157888407127	18.902803	4.3477354
15.337842630396578	14.85199	3.853828
15.355527739896656	11.608944	3.40719
15.37321321735153	9.013337	3.002222
15.39089906320545	6.5384183	2.557033
15.408585277902748	4.887794	2.2108357
15.42627186188783	3.758451	1.9386724
15.443958815605198	3.205107	1.7902813
15.461646139499424	2.8889291	1.699685
15.479333834015168	2.7352228	1.6538509
15.497021899597165	2.6964643	1.6420914
15.514710336690234	2.6861675	1.6389532
15.53239914573928	2.6436408	1.6259277
15.550088327189297	2.5784342	1.6057503
15.567777881485336	2.5203507	1.5875612
15.58546780907256	2.5090349	1.5839933
15.6031581103962	2.5201473	1.5874972
15.620848785901568	2.5083716	1.583784
15.638539836034063	2.47572	1.5734421
15.656231261239173	2.4214005	1.556085
15.673923061962451	2.39099	1.5462826
15.691615238649552	2.3689337	1.539134
15.709307791746202	2.393328	1.5470384
15.727000721698221	2.3629074	1.5371752
15.744694028951498	2.400145	1.5492401
15.76238771395202	2.3906577	1.5461751
15.780081777145844	2.4068584	1.5514053
15.797776218979125	2.3633647	1.5373238
15.815471039898094	2.3708959	1.5397713
15.833166240349064	2.362496	1.5370413
15.850861820778437	2.3668714	1.538464
15.868557781632699	2.3681211	1.5388701
15.886254123358412	2.364588	1.5377218
15.903950846402232	2.3958752	1.5478615
15.921647951210897	2.4183764	1.555113
15.939345438231225	2.4250584	1.5572599
15.957043307910133	2.4004824	1.5493491
15.974741560694602	2.338958	1.5293652
15.992440197031714	2.3301668	1.5264884
16.01013921736862	2.3514333	1.5334383
16.02783862215259	2.4051023	1.5508392
16.045538411830933	2.429191	1.5585862
16.06323858685107	2.4294665	1.5586746
16.080939147660512	2.387643	1.5452
16.09864009470684	2.3658395	1.5381286
16.11634142843774	2.354691	1.5345002
16.134043149300954	2.363275	1.5372947
16.15174525774433	2.3532887	1.5340432
16.169447754215817	2.3614388	1.5366974
16.18715063916342	2.3920276	1.5466181
16.204853913035244	2.4264464	1.5577055
16.222557576279478	2.400149	1.5492414
16.240261629344403	22.37708	4.730442
16.257966072678386	42.881794	6.548419
16.275670906729868	38.007473	6.16502
16.293376131947387	2.434854	1.5604019
16.31108174877957	2.5090158	1.5839874
16.328787757675133	2.5701556	1.6031705
16.34649415908287	2.6001773	1.6125065
16.364200953451657	2.623093	1.6195965
16.38190814123048	2.6453233	1.6264449
16.39961572286839	2.6521025	1.6285276
16.41732369881455	2.7115507	1.6466787
16.43503206951817	2.7385967	1.6548706
16.45274083542859	2.7756228	1.66602
16.47044999699522	2.8109694	1.6765946
16.488159554667558	2.8472419	1.6873772
16.505869508895184	2.8778136	1.696412
16.523579860127786	2.9084668	1.7054228
16.541290608815117	2.9430323	1.7155268
16.559001755407035	2.9947338	1.7305299
16.57671330035348	3.0580964	1.7487414
16.59442524410448	3.1052961	1.7621851
16.61213758711015	3.1507235	1.7750278
16.629850329820705	3.189135	1.785815
16.647563472686436	3.2663212	1.8072966
16.665277016157724	3.3147566	1.8206474
16.682990960685053	3.3567939	1.8321556
16.70070530671898	3.4153101	1.8480557
16.718420054710155	3.4744189	1.8639793
16.736135205109335	3.532728	1.8795552
16.753850758367335	3.58751	1.8940724
16.771566714935087	3.66529	1.9144948
16.789283075263597	3.725013	1.9300293
16.80699983980398	3.7363913	1.9329747
16.82471700900741	3.793332	1.9476478
16.84243458332518	3.8658917	1.9661871
16.860152563208665	3.9455297	1.9863358
16.87787094910932	4.0134387	2.003357
16.89558974147871	4.0806084	2.0200515
16.913308940768466	4.1411486	2.0349813
16.931028547430333	4.1937327	2.0478606
16.94874856191613	4.241075	2.059387
16.966468984677785	4.318042	2.0779898
16.98418981616729	4.422634	2.103006
17.00191105683676	4.43752	2.106542
17.019632707138374	4.489355	2.11881
17.03735476752442	4.5557933	2.1344304
17.05507723844728	4.614966	2.1482472
17.072800120359403	4.6173496	2.1488018
17.090523413713353	4.6009192	2.1449754
17.108247118961785	4.606541	2.1462855
17.125971236557437	4.657764	2.1581852
17.143695766953133	4.6305556	2.1518726
17.161420710601806	4.5942445	2.1434188
17.179146067956477	4.5683503	2.1373699
17.19687183947025	4.575584	2.1390615
17.21459802559634	4.6122117	2.1476061
17.232324626788028	4.640278	2.1541305
17.25005164349871	4.669888	2.1609924
17.267779076181863	4.6845784	2.1643887
17.285506925291074	4.645005	2.1552274
17.30323519127999	4.6295733	2.1516442
17.320963874602384	4.584573	2.1411614
17.33869297571211	4.49841	2.1209457
17.356422495063114	4.4914656	2.1193078
17.37415243310944	4.469856	2.1142035
17.391882790305218	4.516441	2.125192
17.40961356710468	4.4662476	2.11335
17.42734476396215	4.4815865	2.1169758
17.445076381332044	4.497878	2.12082
17.462808419668868	4.6424527	2.1546352
17.48054087942723	4.762858	2.1823974
17.498273761061835	5.0648317	2.250518
17.51600706502747	5.525686	2.3506777
17.533740791779024	6.2463098	2.4992619
17.551474941771485	7.676332	2.7706194
17.56920951545993	8.793781	2.965431
17.586944513299528	11.130433	3.3362303
17.60467993574556	12.825674	3.581295
17.622415783253373	14.58893	3.8195457
17.64015205627843	15.982417	3.9978015
17.657888755276293	17.079504	4.1327357
17.675625880702604	17.512173	4.184755
17.69336343301311	17.39159	4.1703224
17.71110141266366	16.557873	4.0691366
17.728839820110178	15.586307	3.9479496
17.746578655808705	14.565566	3.8164861
17.764317920215372	13.037753	3.6107829
17.7820576137864	11.4848385	3.388929
17.79979773697811	9.484759	3.0797336
17.81753829024692	7.579153	2.7530262
17.835279274049356	5.830566	2.4146564
17.85302068884201	4.726949	2.1741548
17.870762535081607	4.091381	2.0227163
17.888504813224934	3.8195174	1.9543586
17.90624752372891	3.700361	1.9236323
17.923990667050536	3.6610544	1.9133881
17.941734243646895	3.5561724	1.8857816
17.959478253975185	3.4668846	1.8619572
17.9772226984927	3.4268146	1.8511658
17.994967577656833	3.382927	1.8392735
18.01271289192506	3.386068	1.8401272
18.030458641754965	3.329862	1.824791
18.04820482760425	3.2915773	1.8142705
18.06595144993067	3.2884774	1.813416
18.083698509192125	3.3244982	1.8233206
18.101446005846576	3.3063622	1.8183405
18.119193940352105	3.2331343	1.7980919
18.136942313166887	3.210058	1.7916634
18.1546911247492	3.1918774	1.7865826
18.1724403755574	3.2069058	1.7907835
18.19019006604997	3.1729956	1.7812904
18.207940196685467	3.1723037	1.7810962
18.225690767922575	3.148177	1.7743102
18.243441780220046	3.1375215	1.7713051
18.261193234036764	3.1334357	1.7701514
18.278945129831676	3.1004071	1.7607973
18.29669746806386	3.0510805	1.7467343
18.314450249192483	3.0174654	1.7370853
18.3322034736768	2.9905224	1.7293127
18.349957141976184	2.989178	1.7289239
18.3677112545501	3.0251698	1.7393016
18.385465811858108	3.0748017	1.7535112
18.403220814359884	3.0895026	1.757698
18.420976262515172	3.120208	1.7664111
18.43873215678387	3.137601	1.7713275
18.456488497625923	3.1844265	1.7844962
18.474245285501407	3.245581	1.8015496
18.492002520870486	3.2972386	1.81583
18.50976020419343	3.358712	1.8326789
18.527518335930615	3.66857	1.9153512
18.545276916542516	4.2124143	2.0524168
18.563035946489688	4.390739	2.095409
18.580795426232832	4.8636484	2.205368
18.598555356232698	4.7969275	2.190189
18.616315736950185	5.062649	2.2500331
18.63407656884626	4.658118	2.1582673
18.65183785238201	4.8296094	2.1976373
18.669599588018617	4.6301513	2.1517787
18.68736177621737	4.6227965	2.150069
18.705124417439652	4.6018934	2.1452024
18.72288751214696	4.424683	2.103493
18.740651060800886	4.588459	2.1420689
18.758415063863115	4.3263035	2.0799768
18.77617952179546	4.4910297	2.119205
18.793944435059814	4.2447076	2.0602689
18.811709804118184	4.2703285	2.0664773
18.829475629432675	4.2063317	2.0509343
18.8472419114655	4.0082126	2.002052
18.86500865067897	4.075295	2.018736
18.88277584753551	3.7457452	1.9353927
18.90054350249763	3.7071354	1.9253923
18.918311616027957	3.4038591	1.8449551
18.936080188589226	3.3497534	1.8302331
18.953849220644265	3.1133337	1.7644641
18.971618712656007	2.9405162	1.7147933
18.9893886650875	2.8373606	1.6844467
19.007159078401887	7.981967	2.8252375
19.024929953062408	32.83305	5.730013
19.042701289532435	32.794918	5.7266846
19.060473088275405	25.385252	5.038378
19.07824534975489	2.650716	1.628102
19.096018074434568	2.6325693	1.6225195
19.113791262778197	2.6344526	1.6230997
19.13156491524966	2.6282103	1.6211756
19.149339032312945	2.5814085	1.6066762
19.167113614432136	2.5521693	1.597551
19.184888662071433	2.5421429	1.5944098
19.202664175695123	2.5609927	1.6003102
19.220440155767623	2.5493932	1.596682
19.238216602753447	2.5528889	1.5977762
19.2559935171172	2.5615966	1.6004989
19.27377089932361	2.56698	1.6021798
19.291548749837514	2.5614264	1.6004457
19.309327069123835	2.5513506	1.5972948
19.32710585764763	2.5252593	1.5891064
19.344885115874032	2.5189502	1.58712
19.362664844268313	2.5154834	1.5860275
19.380445043295822	2.5199275	1.587428
19.39822571342203	2.5089214	1.5839576
19.41600685511252	2.5344856	1.5920068
19.43378846883297	2.512326	1.5850319
19.451570555049173	2.4983206	1.5806077
19.469353114227037	2.464861	1.5699875
19.48713614683254	2.4579968	1.5678
19.50491965333182	2.4789288	1.5744615
19.52270363419109	2.4832838	1.5758438
19.540488089876686	2.487463	1.5771693
19.55827302085503	2.4910433	1.5783039
19.576058427592674	2.4559145	1.5671358
19.593844310556282	2.4625819	1.5692616
19.611630670212598	2.435852	1.5607216
19.629417507028506	2.4632792	1.5694838
19.64720482147098	2.4680622	1.5710068
19.6649926140071	2.4889681	1.5776464
19.682780885104084	2.4976995	1.5804112
19.70056963522921	2.503746	1.582323
19.718358864849908	2.4975567	1.580366
19.7361485744337	2.506698	1.5832555
19.753938764448215	2.543174	1.5947332
19.771729435361202	2.5305068	1.5907567
19.789520587640506	2.5438445	1.5949434
19.807312221754092	2.5374982	1.5929527
19.825104338170043	2.5248878	1.5889895
19.842896937356517	2.5241127	1.5887456
19.860690019781824	2.4858274	1.5766507
19.87848358591436	2.4996583	1.5810307
19.896277636222635	2.4790304	1.5744936
19.914072171175278	2.494416	1.579372
19.931867191241015	2.4971683	1.5802431
19.94966269688869	2.4909763	1.5782827
19.967458688587264	2.4803176	1.5749024
19.985255166805807	2.4735165	1.5727417
20.00305213201348	2.5049524	1.5827042
20.020849584679578	2.5009437	1.5814372
20.038647525273507	2.5026984	1.5819919
20.05644595426477	2.493192	1.5789845
20.07424487212299	2.4614387	1.5688972
20.092044279317903	2.4070668	1.5514724
20.109844176319353	2.3949404	1.5475595
20.127644563597304	2.4360685	1.560791
20.145445441621817	2.4489226	1.5649034
20.16324681086307	2.427664	1.5580963
20.181048671791373	2.410529	1.5525877
20.198851024877122	2.413043	1.5533973
20.216653870590836	2.4231684	1.5566529
20.234457209403146	2.4039335	1.5504624
20.252261041784802	2.365447	1.538001
20.270065368206662	2.3482625	1.5324042
20.287870189139685	2.3699389	1.5394605
20.305675505054968	2.3962328	1.547977
20.323481316423702	2.402413	1.5499719
20.341287623717207	2.3758516	1.5413798
20.359094427406884	2.371649	1.5400159
20.376901727964288	2.3605478	1.5364075
20.39470952586107	2.3840995	1.544053
20.41251782156899	2.3791423	1.5424469
20.430326615559935	2.3520107	1.5336267
20.448135908305886	2.3673015	1.5386038
20.465945700278965	2.3694365	1.5392975
20.483755991951384	2.4082315	1.5518478
20.50156678379548	2.3931355	1.5469762
20.519378076283708	2.3624833	1.5370371
20.537189869888635	2.3320634	1.5271095
20.55500216508294	2.3249846	1.52479
20.572814962339415	2.3625848	1.5370702
20.59062826213098	2.368168	1.5388854
20.60844206493066	2.3578665	1.5355346
20.626256371211593	2.334564	1.527928
20.644071181447032	2.3220637	1.523832
20.66188649611036	2.3031156	1.517602
20.67970231567506	2.3036451	1.5177764
20.697518640614742	2.320953	1.5234674
20.715335471403122	2.3276768	1.5256726
20.73315280851404	2.3026452	1.517447
20.750970652421447	2.285958	1.5119385
20.768789003599412	2.2525015	1.5008336
20.786607862522136	2.2903938	1.5134047
20.8044272296639	2.2936184	1.5144697
20.82224710549913	2.2964177	1.5153936
20.84006749050237	2.2633278	1.504436
20.857888385148268	3.831786	1.9574949
20.8757097899116	45.917484	6.776244
20.893531705267254	64.801674	8.049949
20.911354131690224	83.822525	9.155464
20.92917706965566	69.11403	8.313485
20.94700051963877	50.13616	7.0806894
20.96482448211493	29.401905	5.4223523
20.982648957559622	4.173307	2.0428674
21.00047394644843	2.3298397	1.5263813
21.01829944925707	2.2956467	1.5151391
21.036125466461375	2.2280731	1.4926732
21.053951998537297	2.211697	1.4871776
21.071779045960906	2.184212	1.477908
21.089606609208378	2.173121	1.4741509
21.10743468875603	2.1708288	1.4733733
21.12526328508028	2.1892529	1.4796124
21.143092398657675	2.1933577	1.4809989
21.16092202996488	2.1938436	1.4811629
21.17875217947867	2.1991637	1.4829577
21.19658284767596	2.1953332	1.4816657
21.21441403503377	2.1620176	1.4703801
21.232245742029225	2.1432314	1.4639779
21.2500779691396	2.1448534	1.4645318
21.26791071684227	2.1209557	1.4563501
21.28574398561475	2.113972	1.4539504
21.30357777593465	2.1215956	1.4565698
21.321412088279704	2.1419032	1.4635242
21.339246923127792	2.1463218	1.465033
21.357082280956888	2.1445713	1.4644355
21.3749181622451	2.1638117	1.4709901
21.392754567470647	2.1396475	1.4627534
21.41059149711187	2.1272168	1.4584981
21.42842895164726	2.1248884	1.4576997
21.446266931555378	2.1148171	1.454241
21.464105437314945	2.0907884	1.4459559
21.481944469404798	2.0998504	1.4490861
21.49978402830388	2.1226196	1.4569213
21.51762411449127	2.1332293	1.4605578
21.53546472844617	2.114728	1.4542104
21.553305870647876	2.1057446	1.4511184
21.571147541575865	2.0653036	1.4371164
21.58898974170967	2.0507782	1.4320538
21.60683247152899	2.0466545	1.4306133
21.62467573151363	2.0692983	1.4385055
21.642519522143523	2.0302672	1.4248744
21.660363843898722	2.0313344	1.4252489
21.6782086972594	2.0518088	1.4324137
21.696054082705864	2.0598624	1.435222
21.713900000718535	2.0305753	1.4249825
21.73174645177795	2.0110297	1.4181077
21.749593436364794	2.032603	1.4256939
21.767440954959845	2.0540307	1.433189
21.785289008044032	2.072236	1.4395263
21.803137596098388	2.0545666	1.433376
21.820986719604086	2.0262995	1.4234815
21.838836379042412	1.9862492	1.4093435
21.85668657489478	1.979169	1.4068295
21.87453730764273	1.9748645	1.4052987
21.892388577767914	1.9628893	1.4010315
21.91024038575213	1.9617054	1.4006089
21.928092732077285	1.9930886	1.4117678
21.945945617225426	2.0134118	1.4189475
21.963799041678694	2.0300229	1.4247887
21.981653005919398	31.339905	5.5982056
21.999507510429943	78.13366	8.839325
22.01736255569286	73.106186	8.550216
22.035218142190818	4.219335	2.054102
22.05307427040661	2.009389	1.4175291
22.07093094082315	1.9813517	1.4076049
22.088788153923474	1.9737847	1.4049145
22.106645910190746	1.9753435	1.4054692
22.12450421010827	1.9686861	1.4030987
22.142363054159464	1.9650556	1.4018044
22.16022244282787	1.9718642	1.4042308
22.178082376597164	1.9732418	1.4047213
22.195942855951145	1.9948171	1.41238
22.213803881373742	1.9829173	1.4081609
22.231665453349002	1.9810246	1.4074888
22.24952757236111	1.9791892	1.4068366
22.26739023889438	1.9680165	1.4028602
22.28525345343323	1.9653256	1.4019006
22.30311721646225	1.9616987	1.4006065
22.320981528466113	1.9562235	1.3986506
22.33884638992964	1.9699938	1.4035647
22.356711801337788	1.9771441	1.4061096
22.37457776317561	1.9881675	1.4100239
22.392444275928337	1.9624732	1.400883
22.410311340081282	1.9167306	1.3844604
22.428178956119904	1.9203656	1.3857726
22.446047124529805	1.9348264	1.3909804
22.46391584579669	1.967608	1.4027145
22.481785120406414	1.9745352	1.4051815
22.49965494884496	1.9636698	1.40131
22.51752533159841	1.9376851	1.3920076
22.53539626915302	1.9152329	1.3839194
22.553267761995137	1.9424542	1.3937196
22.571139810611264	1.955391	1.398353
22.589012415488025	1.998995	1.4138582
22.60688557711216	1.9686933	1.4031013
22.624759295970566	1.9599708	1.3999896
22.642633572550263	1.9548799	1.3981702
22.660508407338362	1.9429238	1.393888
22.67838380082217	1.9189439	1.3852595
22.696259753489077	1.9197128	1.385537
22.714136265826614	1.8971217	1.3773603
22.73201333832246	1.8564117	1.362502
22.74989097146439	1.8530023	1.3612503
22.76776916574035	1.895559	1.376793
22.785647921638393	1.9019339	1.3791062
22.803527239646712	1.899239	1.3781288
22.82140712025363	1.9073629	1.3810731
22.839287563947593	1.9248239	1.3873802
22.85716857121719	1.9613945	1.4004979
22.875050142551135	1.949921	1.3963957
22.892932278438277	1.9181014	1.3849554
22.910814979367604	1.8991312	1.3780897
22.928698245828222	1.901215	1.3788456
22.946582078309387	1.8991667	1.3781025
22.96446647730047	1.9559484	1.3985522
22.98235144329098	1.9475461	1.3955451
23.000236976770562	1.9366698	1.3916428
23.018123078229	1.9197817	1.3855618
23.03600974815619	1.8863354	1.3734392
23.053896987042194	1.8903798	1.3749108
23.071784795377173	1.9325525	1.3901627
23.08967317365145	1.9751524	1.4054011
23.10756212235546	1.9404633	1.3930051
23.125451641979787	1.9140449	1.3834901
23.143341733015134	1.8993521	1.3781698
23.161232395952357	1.9314511	1.3897666
23.179123631282426	1.9638171	1.4013625
23.197015439496468	1.9608614	1.4003077
23.214907821085717	1.9254278	1.3875978
23.23280077654157	1.9275577	1.3883651
23.250694306355538	1.9380938	1.3921543
23.268588411019277	1.9767928	1.4059846
23.28648309102458	1.9469252	1.3953226
23.304378346863356	1.9158609	1.3841462
23.322274179027676	1.9149497	1.3838171
23.340170588009723	1.9114774	1.3825619
23.358067574301852	1.927881	1.3884815
23.37596513839651	1.9577699	1.3992033
23.39386328078629	2.0079412	1.4170184
23.411762001963947	1.9983896	1.4136441
23.429661302422353	1.9821821	1.4078999
23.4475611826545	1.968303	1.4029622
23.46546164315356	1.9602244	1.4000801
23.48336268441279	1.949079	1.3960942
23.501264306925638	1.972349	1.4044034
23.51916651118564	1.9730352	1.4046477
23.537069297686497	1.9420258	1.3935659
23.554972666922037	1.9291579	1.3889413
23.57287661938623	1.9346035	1.3909003
23.59078115557318	1.8804065	1.3712791
23.608686275977128	1.8163984	1.3477383
23.62659198109246	1.8392737	1.3561982
23.6444982714137	1.8431658	1.3576324
23.66240514743549	1.8542795	1.3617194
23.68031260965263	1.8761482	1.3697256
23.698220658560068	1.9142488	1.3835638
23.716129294652845	1.9518343	1.3970807
23.7340385184262	1.9492887	1.3961693
23.75194833037546	1.9311936	1.389674
23.769858730996123	1.900651	1.378641
23.78776972078382	1.8927982	1.37579
23.80568130023431	1.9208207	1.3859367
23.823593469843495	1.9086369	1.3815342
23.841506230107424	1.8953229	1.3767073
23.859419581522275	1.9032011	1.3795656
23.87733352458438	1.9080498	1.3813218
23.89524805979019	1.8993214	1.3781587
23.913163187636318	1.90868	1.3815498
23.931078908619508	1.9270332	1.3881762
23.948995223236633	1.9810126	1.4074845
23.966912131984735	1.9997847	1.4141375
23.98482963536096	2.0032606	1.4153659
24.002747733862616	1.9934928	1.411911
24.020666427987155	2.0282912	1.4241809
24.038585718232156	2.0653298	1.4371256
24.056505605095353	2.0987327	1.4487003
24.074426089074617	2.1399543	1.4628583
24.092347170667946	2.1003923	1.449273
24.110268850373515	2.0681999	1.4381237
24.128191128689586	2.082442	1.4430668
24.146114006114626	2.0584683	1.4347364
24.164037483147187	1.9869837	1.4096041
24.181961560286005	1.9820718	1.4078608
24.199886238029926	2.0075011	1.4168631
24.21781151687797	2.0413146	1.4287459
24.235737397329274	2.0318632	1.4254344
24.253663879883135	1.9849377	1.4088782
24.271590965038975	2.0197425	1.4211764
24.289518653296376	2.0301614	1.4248374
24.30744694515505	1.9927574	1.4116507
24.32537584111486	2.00325	1.4153621
24.34330534167581	2.0334237	1.4259816
24.361235447338046	2.0572658	1.4343172
24.379166158601876	2.0245574	1.4228694
24.39709747596772	2.0221012	1.422006
24.41502939993615	2.0139759	1.4191462
24.432961931007917	1.9952377	1.4125289
24.450895069683856	1.9605281	1.4001886
24.468828816465	1.9098501	1.3819733
24.4867631718525	1.9576522	1.3991612
24.504698136347656	2.0267153	1.4236275
24.52263371045192	2.021784	1.4218946
24.540569894666874	1.9837302	1.4084495
24.558506689494266	1.9824169	1.4079833
24.57644409543597	1.9709024	1.4038883
24.594382112994012	1.9600189	1.4000068
24.61232074267057	1.9635606	1.4012711
24.630259984967953	1.9387013	1.3923725
24.64819984038863	1.9392645	1.3925748
24.66614030943522	1.9585481	1.3994814
24.684081392610462	1.968948	1.403192
24.702023090417274	2.0061526	1.4163872
24.7199654033587	2.046795	1.4306624
24.737908331937927	2.0655906	1.4372163
24.755851876658305	2.0741076	1.4401762
24.773796038023324	2.1114686	1.4530894
24.79174081653661	2.1615422	1.4702184
24.809686212701962	2.1350806	1.4611915
24.827632227023294	2.0806706	1.442453
24.8455788600047	2.0521688	1.4325393
24.8635261121504	2.037702	1.427481
24.88147398396475	2.0658028	1.4372901
24.899422475952303	2.1018333	1.4497701
24.917371588617698	2.1099112	1.4525534
24.935321322465768	2.155433	1.4681393
24.953271678001478	2.3006155	1.516778
24.97122265572994	2.4950101	1.5795602
24.989174256156414	2.7761261	1.6661711
25.00712647978632	3.2106633	1.7918324
25.02507932712521	3.8259177	1.9559953
25.043032798678798	4.431802	2.1051846
25.060986894952933	5.1097155	2.260468
25.078941616453637	5.8427334	2.4171746
25.096896963687055	6.766716	2.6012912
25.114852937159508	7.8466625	2.8011894
25.132809537377444	8.241221	2.8707528
25.150766764847468	8.24742	2.8718321
25.168724620076347	7.7036605	2.7755468
25.186683103570985	6.638178	2.576466
25.204642215838426	5.425139	2.3291929
25.222601957385894	4.054249	2.0135164
25.24056232872074	3.1026576	1.7614362
25.25852333035048	2.575261	1.604762
25.276484962782778	2.231585	1.493849
25.294447226525435	2.0743873	1.4402734
25.312410122086423	2.0051374	1.4160287
25.330373649973843	1.9703801	1.4037023
25.348337810695988	1.9505373	1.3966163
25.366302604761245	1.9162202	1.384276
25.384268032678207	1.8683751	1.3668852
25.40223409495558	1.8385122	1.3559175
25.420200792102257	1.8835365	1.37242
25.438168124627246	1.8924862	1.3756766
25.45613609303974	1.8910257	1.3751457
25.474104697849057	1.8736752	1.3688226
25.492073939564698	1.8639821	1.3652773
25.510043818696285	1.8452284	1.3583919
25.528014335753614	1.8200485	1.3490918
25.54598549124664	1.8153955	1.3473661
25.56395728568544	1.8503138	1.3602624
25.58192971958028	1.8926916	1.3757513
25.59990279344156	1.8951403	1.3766409
25.617876507779833	1.8354697	1.3547951
25.635850863105826	1.7944452	1.339569
25.653825859930386	1.8048118	1.3434329
25.671801498764548	1.8159462	1.3475705
25.68977778011949	1.8066554	1.3441188
25.707754704506524	1.7968847	1.3404793
25.725732272437153	1.8494384	1.3599406
25.743710484423012	1.8845671	1.3727953
25.761689340975888	1.8793167	1.3708817
25.77966884260774	1.9187465	1.3851882
25.797648989830662	1.9243696	1.3872164
25.815629783156922	1.9107907	1.3823135
25.83361122309895	1.8829281	1.3721983
25.85159331016929	1.8666825	1.3662659
25.869576044880695	1.8639836	1.3652779
25.887559427746034	1.8528922	1.3612099
25.90554345927836	1.8307412	1.3530488
25.92352813999086	1.8126247	1.3463376
25.94151347039689	1.8115304	1.345931
25.959499451009965	1.8511696	1.360577
25.97748608234374	1.8822165	1.371939
25.995473364912062	1.8632324	1.3650028
26.013461299228904	1.8225108	1.350004
26.03144988580839	1.8080165	1.344625
26.04943912516483	1.8275777	1.3518794
26.067429017812675	1.847147	1.3590978
26.085419564266537	1.8621999	1.3646245
26.103410765041186	1.8823674	1.3719939
26.12140262065155	1.8596488	1.3636894
26.139395131612723	1.8269228	1.3516371
26.157388298439948	1.821421	1.3496003
26.17538212164861	1.8124129	1.3462589
26.193376601754295	1.8330107	1.3538872
26.211371739272714	1.8295267	1.3526
26.229367534719746	1.8041784	1.3431971
26.247363988611433	1.7817005	1.3348036
26.26536110146397	1.7690402	1.3300527
26.283358873793727	1.766569	1.3291234
26.301357306117204	1.837944	1.355708
26.319356398951104	1.8429445	1.357551
26.33735615281224	1.816505	1.3477778
26.35535656821762	1.7878991	1.3371235
26.373357645684404	1.7864301	1.3365741
26.39135938572991	1.7751046	1.3323306
26.409361788871614	1.7920686	1.3386817
26.427364855627165	1.8207268	1.3493431
26.445368586514352	1.8220831	1.3498456
26.46337298205115	1.7787242	1.3336881
26.48137804275568	1.7481064	1.3221598
26.499383769146217	1.7656766	1.3287877
26.517390161741215	1.7899243	1.3378805
26.53539722105928	1.8077686	1.3445328
26.553404947619182	1.8167562	1.3478711
26.571413341939856	1.8355696	1.3548319
26.589422404540397	1.8278066	1.351964
26.60743213594006	1.8049997	1.3435028
26.62544253665827	1.7618563	1.3273493
26.64345360721459	1.7495222	1.322695
26.66146534812879	1.7836572	1.3355362
26.679477759920758	1.8068147	1.3441781
26.69749084311057	1.8452022	1.3583822
26.71550459821847	1.8399013	1.3564296
26.733519025764842	1.8000759	1.3416691
26.751534126270258	1.7859508	1.3363947
26.769549900255434	1.7925279	1.3388532
26.787566348241267	1.8000593	1.3416629
26.80558347074881	1.8561177	1.3623941
26.823601268299267	1.8765696	1.3698794
26.841619741414036	1.8525203	1.3610733
26.85963889061465	1.8254416	1.351089
26.877658716422832	1.8257061	1.351187
26.89567921936045	1.8411907	1.3569049
26.913700399949544	1.8279423	1.3520142
26.93172225871233	1.8422855	1.3573081
26.949744796171174	1.848131	1.3594598
26.967768012848605	1.8206332	1.3493084
26.98579190926733	1.7948675	1.3397267
27.003816485950225	1.8064669	1.3440487
27.021841743420318	1.8121029	1.3461437
27.039867682200814	1.8039209	1.3431013
27.057894302815072	1.7737007	1.3318036
27.07592160578664	1.7619196	1.3273731
27.0939495916392	1.7827013	1.3351784
27.111978260896635	1.8058851	1.3438323
27.13000761408296	1.779968	1.3341544
27.148037651722397	1.7351837	1.3172637
27.166068374339304	1.7255925	1.3136181
27.184099782458215	1.7796025	1.3340174
27.20213187660384	1.8117403	1.346009
27.22016465730105	1.8010632	1.342037
27.23819812507487	1.7890096	1.3375386
27.256232280450533	1.776122	1.3327123
27.274267123953383	1.7752968	1.3324026
27.292302656108987	1.7712922	1.330899
27.31033887744306	1.8044956	1.3433151
27.32837578848146	1.8114525	1.3459021
27.34641338975026	1.7981704	1.3409588
27.364451681775673	1.7964219	1.3403066
27.382490665084074	1.7817459	1.3348205
27.400530340202046	1.7910793	1.3383121
27.41857070765629	1.7999697	1.3416295
27.436611767973726	1.7842406	1.3357548
27.454653521681404	1.7614497	1.3271961
27.472695969306564	1.7720639	1.3311889
27.490739111376627	1.820072	1.3491005
27.508782948419153	1.8396376	1.3563324
27.526827480961902	1.8235972	1.3504063
27.54487270953279	1.8250589	1.3509474
27.562918634659898	1.8322194	1.353595
27.580965256871508	1.7695006	1.3302258
27.599012576696026	1.7496297	1.3227357
27.617060594662068	1.7560196	1.3251489
27.63510931129842	1.7833521	1.335422
27.65315872713401	1.7583182	1.326016
27.67120884269797	1.755799	1.3250657
27.68925965851958	1.8075838	1.3444642
27.707311175128307	1.8701204	1.3675234
27.725363393053787	1.8536228	1.3614782
27.74341631282583	1.8741523	1.3689969
27.7614699349744	1.8972071	1.3773915
27.77952426002968	2.074568	1.4403361
27.797579288521973	2.1852105	1.4782457
27.815635020981784	2.6178994	1.6179924
27.83369145793979	2.6353896	1.6233883
27.85174859992682	2.4274893	1.5580403
27.869806447473923	2.2612445	1.5037435
27.887865001112267	1.9448756	1.394588
27.905924261373233	1.8450526	1.3583272
27.92398422878836	1.8869438	1.3736607
27.94204490388936	1.8844223	1.3727427
27.96010628720813	1.853931	1.3615913
27.978168379276728	1.8506212	1.3603754
27.9962311806274	1.8333237	1.3540028
28.014294691792568	1.8076999	1.3445073
28.0323589133048	1.8749982	1.3693057
28.050423845696887	1.887245	1.3737704
28.068489489501758	1.8557132	1.3622457
28.086555845252523	1.8221301	1.3498629
28.104622913482487	1.8808413	1.3714377
28.122690694725115	1.8833684	1.3723587
28.14075918951405	1.861691	1.3644379
28.15882839838312	1.8568115	1.3626487
28.176898321866304	1.911295	1.382496
28.1949689604978	1.8930757	1.3758909
28.213040314811945	1.8772353	1.3701223
28.23111238534327	1.8454208	1.3584627
28.249185172626493	1.8681855	1.3668158
28.267258677196473	1.918452	1.385082
28.285332899588294	1.9430083	1.3939183
28.303407840337172	1.9096217	1.3818907
28.321483499978545	1.875832	1.3696102
28.33955987904799	1.8948548	1.3765372
28.357636978081285	1.8920491	1.3755177
28.37571479761439	1.923633	1.386951
28.393793338183425	1.9638827	1.401386
28.41187260032469	1.9617796	1.4006355
28.429952584574686	1.9569329	1.3989042
28.448033291470065	1.9439778	1.394266
28.46611472154769	1.9671984	1.4025685
28.484196875344566	2.0069087	1.416654
28.502279753397914	2.029506	1.4246073
28.52036335624511	2.06715	1.4377587
28.538447684423716	2.073513	1.4399698
28.556532738471482	2.0718105	1.4393785
28.574618518926325	1.9817201	1.4077358
28.59270502632635	1.9641781	1.4014914
28.61079226120985	2.0356853	1.4267744
28.628880224115274	2.0653157	1.4371207
28.646968915581287	2.055319	1.4336385
28.66505833614671	2.027657	1.4239582
28.68314848635055	2.0394468	1.428092
28.701239366732004	2.0398486	1.4282327
28.71933097783044	2.0796492	1.4420989
28.737423320185403	2.1340232	1.4608296
28.75551639433665	2.1368072	1.4617822
28.773610200824074	2.1106822	1.4528188
28.791704740187793	2.1491108	1.4659846
28.80980001296809	2.1844149	1.4779766
28.827896019705413	2.1206882	1.4562583
28.845992760940433	2.1421125	1.4635957
28.86409023721397	2.2028053	1.4841851
28.88218844906704	2.214285	1.4880474
28.900287397040845	2.2247608	1.4915632
28.918387081676755	2.2042623	1.4846758
28.936487503516343	2.2225478	1.4908211
28.954588663101365	2.278383	1.5094314
28.97269056097374	2.3330357	1.5274278
28.990793197675597	2.2870505	1.5122998
29.00889657374923	2.2947059	1.5148287
29.027000689737125	2.3663213	1.5382851
29.04510554618196	2.4610622	1.5687773
29.06321114362659	2.4810808	1.5751446
29.08131748261405	2.4344602	1.5602757
29.099424563687567	2.4450521	1.5636662
29.11753238739057	2.4971473	1.5802364
29.13564095426663	2.528033	1.5899789
29.15375026485954	2.544482	1.5951432
29.171860319713275	2.5571342	1.5991042
29.18997111937199	2.635961	1.6235644
29.20808266438002	2.752952	1.6592022
29.226194955281898	2.8494363	1.6880274
29.244307992622335	2.8037617	1.6744437
29.26242177694624	2.7701108	1.664365
29.2805363087987	2.7590358	1.6610346
29.29865158872498	2.7852144	1.6688962
29.316767617270557	2.8848279	1.6984781
29.334884394981064	2.9272323	1.7109156
29.353001922402367	2.9405344	1.7147987
29.37112020008047	3.042343	1.7442313
29.389239228561596	3.1584725	1.7772092
29.407359008392152	3.3417451	1.828044
29.42547954011872	3.7021997	1.92411
29.44360082428809	4.330052	2.0808778
29.46172286144722	5.354718	2.3140264
29.479845652143283	7.022711	2.6500397
29.497969196923606	9.270675	3.0447783
29.516093496335728	11.936575	3.4549348
29.5342185509274	14.796859	3.8466685
29.55234436124651	17.077753	4.132524
29.570470927841175	18.336607	4.2821264
29.588598251259686	17.918324	4.233004
29.60672633205055	16.39297	4.0488234
29.624855170762405	14.145721	3.7610798
29.642984767944146	11.549476	3.398452
29.66111512414481	8.8527565	2.9753582
29.67924623991366	6.580991	2.565344
29.697378115800138	5.113202	2.261239
29.71551075235387	4.2706594	2.0665574
29.733644150124675	3.796953	1.9485772
29.751778309662576	3.52392	1.8772107
29.769913231517766	3.3728986	1.8365452
29.78804891624066	3.3567173	1.8321346
29.806185364381818	3.379133	1.8382418
29.82432257649206	3.443196	1.8555851
29.842460553122333	3.421187	1.8496451
29.86059929482382	3.3593624	1.8328563
29.878738802147872	3.2885797	1.8134441
29.896879075646048	3.2152379	1.7931085
29.915020115870114	3.2193327	1.7942499
29.933161923371976	3.2331123	1.7980857
29.951304498703777	3.2436929	1.8010255
29.969447842417857	3.2706397	1.808491
29.987591955066733	3.2421622	1.8006005
30.005736837203123	3.204988	1.790248
30.023882489379943	3.1475194	1.774125
30.04202891215028	3.170154	1.7804927
30.060176106067455	3.2026777	1.7896026
30.078324071684946	3.1408737	1.772251
30.09647280955646	3.0892437	1.7576244
30.114622320235863	3.0645905	1.7505971
30.132772604277257	3.0748124	1.7535143
30.1509236622349	3.1025894	1.7614169
30.16907549466328	3.0557346	1.748066
30.18722810211705	3.0044007	1.7333207
30.205381485151097	3.0281303	1.7401524
30.22353564432045	3.0556073	1.7480296
30.241690580180403	3.013076	1.7358215
30.25984629328638	2.990309	1.729251
30.278002784194037	3.0442486	1.7447776
30.296160053459246	3.0499368	1.7464068
30.314318101638033	3.0287614	1.7403337
30.332476929286646	3.0090213	1.7346531
30.35063653696153	3.005965	1.7337719
30.368796925219307	2.9285676	1.7113059
30.386958094616844	2.8908567	1.7002519
30.40512004571115	2.836822	1.6842868
30.423282779059463	2.8025606	1.674085
30.441446295219233	2.725776	1.6509924
30.459610594748067	2.8005776	1.6734927
30.47777567820382	2.8228476	1.6801332
30.495941546144504	2.788319	1.669826
30.51410819912835	2.7454462	1.6569388
30.532275637713795	2.7962594	1.672202
30.55044386245946	2.8681555	1.693563
30.56861287392416	2.8605917	1.6913284
30.586782672666956	2.8139472	1.6774824
30.604953259247047	2.8255622	1.6809409
30.623124634223885	2.7876873	1.6696368
30.641296798157075	2.7818391	1.6678846
30.659469751606462	2.798018	1.6727277
30.677643495132074	2.7948215	1.671772
30.695818029294152	2.7841296	1.6685711
30.713993354653116	2.7351007	1.653814
30.73216947176962	2.726768	1.6512928
30.75034638120448	2.7097213	1.6461232
30.768524083518756	2.7084575	1.6457392
30.786702579273673	2.7797384	1.6672548
30.80488186903069	2.8493881	1.6880131
30.82306195335144	2.8688338	1.6937633
30.841242832797782	2.9996397	1.7319468
30.85942450793176	3.3560388	1.8319495
30.877606979315637	3.730783	1.9315234
30.895790247511883	4.083874	2.0208597
30.913974313083134	4.6047745	2.1458738
30.932159176592283	4.9322114	2.2208583
30.95034483860237	4.8463683	2.2014468
30.968531299676698	4.633768	2.152619
30.98671856037873	4.3077774	2.0755186
31.00490662127215	3.8970027	1.9740827
31.023095482920848	3.4734385	1.8637164
31.04128514588892	3.0820441	1.7555752
31.059475610740662	2.789007	1.670032
31.07766687804056	2.5486326	1.5964438
31.09585894835335	2.4445646	1.5635103
31.11405182224393	2.445921	1.563944
31.132245500277417	2.4959338	1.5798525
31.15043998301914	2.5253127	1.5891232
31.168635271034628	2.5315778	1.5910933
31.18683136488964	2.6171951	1.6177747
31.20502826515008	2.5692997	1.6029035
31.223225972382135	2.4363048	1.5608667
31.241424487152155	2.3903372	1.5460715
31.259623810026692	2.3970978	1.5482564
31.27782394157253	2.397553	1.5484034
31.296024882356644	2.3922148	1.5466787
31.314226632946237	2.3866854	1.54489
31.332429193908684	2.3896434	1.5458472
31.350632565811598	2.464509	1.5698755
31.368836749222787	2.4490087	1.5649309
31.387041744710295	2.3879013	1.5452836
31.40524755284232	2.4298935	1.5588115
31.423454174187317	2.5203238	1.5875528
31.441661609313922	2.5315192	1.5910748
31.459869858791002	2.5190594	1.5871545
31.478078923187628	2.3991103	1.5489062
31.496288803073064	2.2711546	1.507035
31.514499499016807	2.2869995	1.5122828
31.532711011588546	2.371438	1.5399474
31.550923341358178	2.4107885	1.5526714
31.56913648889584	2.3262243	1.5251964
31.587350454771844	2.2298567	1.4932705
31.605565239556732	2.2352402	1.495072
31.62378084382127	2.2600248	1.5033379
31.641997268136382	2.286163	1.5120063
31.660214513073274	2.2948115	1.5148635
31.67843257920331	2.2742321	1.5080558
31.6966514670981	2.2202756	1.4900589
31.71487117732944	2.3199985	1.5231541
31.733091710469346	2.433647	1.5600151
31.751313067090052	2.4379463	1.5613924
31.769535247764008	2.3539627	1.5342629
31.787758253063878	2.323834	1.5244126
31.805982083562526	2.3277557	1.5256984
31.824206739833024	2.280369	1.510089
31.84243222244869	2.1832407	1.4775794
31.860658531983013	2.165391	1.4715267
31.878885669009737	2.2345302	1.4948345
31.897113634102784	2.232119	1.4940279
31.91534242783632	2.1882362	1.4792688
31.933572050784694	2.19676	1.4821471
31.951802503522508	2.2024238	1.4840566
31.970033786624548	2.2200992	1.4899998
31.988265900665834	2.2322598	1.494075
32.006498846221575	2.2225578	1.4908246
32.02473262386724	2.1878846	1.4791499
32.04296723417845	2.1382222	1.4622661
32.0612026777311	2.1820066	1.4771616
32.07943895510129	2.1789308	1.4761201
32.097676066865304	2.1754878	1.4749535
32.115914013599685	2.0906332	1.4459022
32.13415279588115	2.0991414	1.4488413
32.152392414286666	2.14485	1.4645307
32.1706328693934	2.1865242	1.47869
32.18887416177875	2.1745074	1.474621
32.20711629202032	2.1686785	1.4726434
32.225359260695924	2.2070239	1.4856056
32.243603068383614	2.1480882	1.4656358
32.26184771566166	2.1310556	1.4598136
32.28009320310852	2.1951044	1.4815885
32.2983395313029	2.2080564	1.4859531
32.31658670082372	2.1576538	1.4688954
32.33483471225012	2.109407	1.4523797
32.35308356616143	2.0462694	1.4304787
32.371333263137245	2.0846412	1.4438287
32.38958380375734	2.1499698	1.4662775
32.407835188601744	2.1537952	1.4675814
32.42608741825067	2.1718142	1.4737077
32.444340493284585	2.253128	1.5010424
32.46259441428416	2.2391682	1.496385
32.48084918183028	2.1255932	1.4579414
32.49910479650405	2.0648675	1.4369646
32.51736125888683	2.0214217	1.4217671
32.53561856956014	1.9795756	1.406974
32.5538767291058	2.038033	1.4275969
32.572135738105764	2.0616155	1.4358326
32.59039559714228	2.0370874	1.4272658
32.608656306797776	2.0188067	1.4208472
32.62691786765491	1.983786	1.4084693
32.645180280296586	2.0307403	1.4250405
32.663443545305896	2.0135958	1.4190123
32.68170766326619	1.949043	1.3960813
32.69997263476099	1.939398	1.3926227
32.7182384603741	2.0385895	1.4277918
32.7365051406895	1.9961888	1.4128654
32.75477267629144	1.9707111	1.4038202
32.77304106776434	2.0357418	1.4267943
32.79131031569289	2.0889604	1.4453236
32.809580420661966	1.9944557	1.412252
32.827851383256714	1.8978229	1.377615
32.84612320406245	1.914853	1.3837821
32.86439588366476	1.9490193	1.3960729
32.88266942264945	1.9553496	1.3983382
32.9009438216025	1.9327664	1.3902397
32.9192190811102	1.9942605	1.4121829
32.937495201758985	1.9808598	1.4074302
32.95577218413556	1.947397	1.3954917
32.974050028826866	1.9856337	1.4091252
32.992328736420035	2.0561507	1.4339284
33.010608307502444	2.0307095	1.4250296
33.02888874266169	1.9393749	1.3926144
33.047170042485604	1.827471	1.3518399
33.06545220756225	1.8323601	1.353647
33.083735238479896	1.8206314	1.3493078
33.10201913582707	1.7893026	1.3376482
33.12030390019248	1.8801125	1.371172
33.138589532165135	1.9822288	1.4079164
33.15687603233419	2.0749989	1.4404856
33.17516340128909	2.0771515	1.4412327
33.19345163961947	1.9987185	1.4137604
33.211740747915215	1.8896542	1.3746469
33.23003072676643	1.8779749	1.3703922
33.248321576763466	1.9441547	1.3943295
33.266613298496885	2.004957	1.4159651
33.28490589255747	1.9900831	1.4107031
33.30319935953626	1.9546349	1.3980826
33.32149370002451	1.9336965	1.3905742
33.339788914613706	1.8569671	1.3627058
33.358085003895575	1.8540014	1.3616172
33.376381968462034	1.8604945	1.3639995
33.39467980890529	1.8806093	1.371353
33.41297852581774	1.8360788	1.3550198
33.43127811979204	1.9114397	1.3825482
33.44957859142105	1.9540215	1.3978631
33.467879941297866	1.9887692	1.4102373
33.486182170015844	2.0386186	1.427802
33.50448527816853	1.9918605	1.4113328
33.522789266349754	1.8886207	1.374271
33.541094135153514	1.8531874	1.3613182
33.55939988517411	1.8220567	1.3498358
33.57770651700602	1.8133668	1.346613
33.59601403124398	1.8418174	1.3571358
33.61432242848296	1.9211878	1.3860692
33.632631709318154	1.9522967	1.3972461
33.650941874344994	1.9705019	1.4037457
33.66925292415916	1.9810776	1.4075075
33.68756485935654	1.9002376	1.378491
33.70587768053328	1.838485	1.3559074
33.724191388285746	1.8167937	1.3478849
33.74250598321054	1.8613055	1.3642967
33.760821465904506	1.8676456	1.3666183
33.77913783696474	1.8941122	1.3762676
33.79745509698852	1.9375978	1.3919762
33.815773246573414	1.9770052	1.4060602
33.8340922863172	2.0037146	1.4155263
33.852412216817896	2.0665371	1.4375455
33.87073303867377	2.0716896	1.4393365
33.889054752483304	1.921369	1.3861345
33.907377358845245	1.8344085	1.3544034
33.92570085835853	1.8471421	1.359096
33.94402525162239	1.8168569	1.3479084
33.96235053923627	1.8480321	1.3594234
33.980676721799824	1.9452295	1.3947148
33.999003799912984	2.0156586	1.4197389
34.01733177417592	2.0707607	1.4390138
34.03566064518901	1.9819189	1.4078064
34.0539904135529	1.9088691	1.3816183
34.07232107986846	1.8766367	1.3699039
34.090652644736785	1.8379581	1.3557131
34.108985108759235	1.8868698	1.3736337
34.12731847253742	2.0253172	1.4231364
34.14565273667313	2.032207	1.425555
34.16398790176847	1.9544365	1.3980117
34.18232396842574	1.86989	1.3674392
34.20066093724749	1.8780558	1.3704218
34.21899880883651	1.900291	1.3785105
34.23733758379583	1.8290652	1.3524294
34.25567726272874	1.8882533	1.3741373
34.27401784623872	2.1054342	1.4510114
34.29235933492957	2.0603137	1.4353793
34.31070172940526	1.9652938	1.4018893
34.32904503027003	2.0712185	1.4391729
34.347389238128386	2.067746	1.4379659
34.36573435358502	2.0799375	1.4421989
34.38408037724492	2.189129	1.4795706
34.402427309713296	1.9535397	1.3976909
34.42077515159559	1.7278026	1.3144591
34.43912390349752	1.8556458	1.3622209
34.45747356602499	2.0423322	1.4291018
34.47582413978423	2.1289103	1.4590786
34.49417562538163	2.1298804	1.459411
34.51252802342388	1.9804897	1.4072987
34.53088133451789	1.9179454	1.384899
34.54923555927084	1.7935044	1.3392178
34.567590698290104	1.8036407	1.342997
34.58594675218336	1.9021357	1.3791794
34.6043037215585	1.9533042	1.3976066
34.62266160702365	1.9805225	1.4073104
34.641020409187234	2.0927365	1.4466294
34.65938012865785	1.8876957	1.3739344
34.677740766044394	1.746089	1.3213966
34.69610232195598	1.7460235	1.3213718
34.714464797002016	1.7897496	1.3378153
34.73282819179208	1.7949938	1.3397738
34.751192506936064	1.8004371	1.3418037
34.76955774304408	1.8601304	1.363866
34.7879239007265	2.0660815	1.437387
34.80629098059391	2.0623376	1.4360842
34.824658983257194	1.9841999	1.4086163
34.843027909327446	1.989879	1.4106307
34.86139775941603	2.0550587	1.4335476
34.879768534134534	1.968169	1.4029144
34.89814023409483	1.7719467	1.3311449
34.91651285990901	1.9139313	1.3834491
34.93488641218944	2.047074	1.4307599
34.95326089154871	1.9626206	1.4009356
34.97163629859967	1.911691	1.3826392
34.99001263395542	1.9691085	1.4032493
35.00838989822934	1.9969118	1.4131213
35.02676809203499	1.8494413	1.3599416
35.04514721598624	1.695147	1.3019781
35.063527270697215	1.8793538	1.3708953
35.081908256782256	1.9806595	1.407359
35.10029017485597	1.9254341	1.3876002
35.11867302553321	1.9024508	1.3792936
35.137056809429104	1.992336	1.4115013
35.155441527159006	1.7005596	1.3040551
35.173827179338524	1.582349	1.2579145
35.19221376658354	1.8947861	1.3765123
35.21060128951017	2.2968867	1.5155483
35.2289897487348	2.1700606	1.4731126
35.24737914487405	2.1081426	1.4519445
35.26576947854479	2.1671987	1.4721408
35.28416075036418	2.1508906	1.4665915
35.30255296094958	1.883285	1.3723283
35.32094611091867	1.840011	1.3564701
35.33934020088932	2.0226717	1.4222066
35.35773523147969	2.0188498	1.4208623
35.3761312033082	1.8275967	1.3518864
35.394528116993506	1.7924879	1.3388382
35.41292597315452	1.9603364	1.4001201
35.431324772410434	1.9477324	1.3956119
35.449724515380666	1.8699119	1.3674473
35.46812520268491	1.9999008	1.4141785
35.486526834943106	2.1190977	1.4557121
35.504929412775454	1.9209611	1.3859874
35.52333293680242	1.731806	1.315981
35.54173740764471	2.0103457	1.4178666
35.560142825923286	2.300149	1.5166242
35.5785491922594	2.0712278	1.4391761
35.59695650727454	1.7020259	1.3046172
35.61536477159042	1.4327071	1.1969575
