0.008763373481513119	0.9483193	0.9738169
0.026290120649546365	0.38522455	0.6206646
0.043816868432600686	0.22262515	0.4718317
0.06134361724069026	0.086610675	0.29429692
0.07887036748382949	0.09774228	0.31263763
0.0963971195720331	0.24759674	0.49759093
0.11392387391531617	0.26740825	0.5171153
0.1314506309236943	0.21988128	0.46891502
0.1489773910071836	0.13966726	0.37372082
0.16650415457580078	0.073677726	0.27143642
0.18403092203956356	0.097173505	0.31172666
0.20155769380849	0.09386205	0.30636913
0.2190844702925996	0.12505078	0.3536252
0.2366112519019124	0.13187474	0.36314562
0.2541380390464497	0.11839412	0.34408447
0.27166483213623416	0.14193472	0.37674224
0.28919163158128947	0.12637925	0.35549858
0.3067184377916406	0.12851271	0.35848668
0.324245251177314	0.1407091	0.37511212
0.34177207214833777	0.17461182	0.41786578
0.3592989011147415	0.18517077	0.43031472
0.37682573848655654	0.14712182	0.38356462
0.39435258467381573	0.11697636	0.34201807
0.41187944008655414	0.11929804	0.34539548
0.42940630513480854	0.15369429	0.39203864
0.446933180228618	0.15914679	0.39893207
0.4644600657780234	0.133035	0.36473963
0.48198696219306775	0.12449911	0.35284433
0.49951386988379676	0.114078835	0.3377556
0.5170407892602581	0.107966885	0.32858315
0.5345677207325025	0.13729878	0.3705385
0.5520946647105822	0.10573965	0.32517633
0.5696216216045534	0.10829184	0.32907724
0.5871485918244737	0.092993945	0.30494907
0.6046755757804043	0.1299518	0.3604883
0.6222025738824094	0.14784901	0.38451138
0.6397295865405557	0.14855583	0.3854294
0.6572566141649129	0.14351618	0.3788353
0.6747836571655547	0.14255609	0.377566
0.6923107159525568	0.15325911	0.39148322
0.7098377909359992	0.17080821	0.4132895
0.7273648825259653	0.16103426	0.40129074
0.7448919911325411	0.17712483	0.42086202
0.762419117165817	0.1833897	0.42824024
0.7799462610358868	0.20368627	0.45131615
0.7974734231528482	0.22021236	0.4692679
0.8150006039268024	0.24125728	0.49117947
0.8325278037678551	0.24602874	0.49601284
0.8500550230861152	0.24179614	0.4917277
0.8675822622916969	0.24372068	0.49368075
0.8851095217947171	0.23503095	0.4847999
0.9026368020052984	0.23700155	0.48682806
0.9201641033335665	0.21404329	0.46264812
0.9376914261896523	0.25515974	0.5051334
0.9552187709836915	0.2635642	0.51338506
0.9727461381258234	0.2862388	0.5350129
0.990273528026193	0.30229244	0.54981124
1.0078009410949496	0.2970015	0.54497844
1.0253283777422473	0.2995453	0.5473073
1.0428558383782454	0.28583083	0.5346315
1.0603833234131086	0.25142208	0.5014201
1.0779108332570058	0.33707935	0.58058536
1.0954383683201119	0.3494871	0.59117436
1.112965929012607	0.4051134	0.6364852
1.1304935157446763	0.501433	0.70811933
1.1480211289265108	0.50069207	0.707596
1.1655487689683062	1.3711271	1.1709514
1.1830764362802655	1.699675	1.3037158
1.200604131272596	2.1164143	1.4547901
1.2181318543555117	2.3392632	1.529465
1.235659605939232	2.3384514	1.5291996
1.253187386433982	3.986805	1.9966985
1.270715196249994	6.3185763	2.5136778
1.2882430357975057	11.860193	3.4438632
1.3057709054867608	16.494398	4.0613294
1.3232988057280106	22.574461	4.751259
1.3408267369315112	27.625822	5.256027
1.358354699507526	31.137966	5.58014
1.3758826938663256	34.994556	5.91562
1.3934107204181858	36.73805	6.061192
1.410938779573391	36.96373	6.0797806
1.4284668717422309	37.731236	6.1425757
1.4459949973350033	37.189823	6.0983458
1.4635231567620117	37.449398	6.119591
1.4810513504335687	36.398895	6.0331497
1.4985795787599925	35.64469	5.9703174
1.5161078421516088	35.424313	5.951833
1.5336361410187505	35.29333	5.9408193
1.5511644757717598	35.458576	5.9547105
1.5686928468209842	35.859867	5.988311
1.58622125457678	36.01583	6.001319
1.6037496994495108	36.664726	6.0551405
1.621278181849548	36.509003	6.042268
1.6388067021872719	37.226665	6.101366
1.6563352608730693	36.99206	6.08211
1.673863858317336	36.252884	6.0210366
1.6913924949304753	35.585857	5.9653883
1.7089211711228998	34.58736	5.881102
1.7264498873050296	33.450325	5.7836256
1.7439786438872935	32.427643	5.6945276
1.7615074412801288	31.394695	5.603097
1.779036279893981	31.019737	5.5695367
1.796565160139305	30.122131	5.4883633
1.814094082426564	29.906591	5.468692
1.8316230471662298	29.245667	5.407926
1.849152054768784	28.493055	5.3378887
1.8666811056447168	27.188204	5.214231
1.8842102002045273	26.015947	5.100583
1.901739338858724	25.575005	5.0571737
1.9192685220178245	25.295877	5.0295005
1.9367977500923557	25.054365	5.0054336
1.9543270234928547	24.570444	4.956858
1.971856342629867	24.031977	4.902242
1.9893857079139496	23.454338	4.842968
2.006915119755667	22.861584	4.7813787
2.0244445785655945	22.302307	4.722532
2.0419740847543175	22.121138	4.7033114
2.0595036387324317	21.766474	4.6654553
2.0770332409105414	21.350025	4.620609
2.094562891699263	20.76098	4.5564218
2.1120925915092217	20.129562	4.486598
2.129622340751053	19.762737	4.44553
2.1471521398354043	187.73602	13.701679
2.1646819891729323	444.22223	21.07658
2.182211889174303	440.54953	20.989271
2.1997418402501974	452.9557	21.282755
2.2172718428113023	432.97998	20.80817
2.234801897268317	320.922	17.914295
2.2523320040319548	17.26207	4.1547647
2.269862163512935	16.89575	4.110444
2.287392376121992	16.564848	4.0699935
2.304922642269869	16.305138	4.037962
2.322452962367322	16.091736	4.011451
2.3399833368251164	15.78483	3.9730127
2.357513766054032	15.472924	3.9335637
2.3750442504648586	15.180838	3.8962595
2.3925747904683963	14.862951	3.85525
2.410105386475459	14.674056	3.830673
2.4276360388968707	14.362327	3.789766
2.445166748143469	14.04551	3.747734
2.4626975146261025	13.677816	3.6983533
2.4802283387556323	13.474903	3.6708179
2.4977592209429305	13.28936	3.6454575
2.5152901615988825	13.215934	3.6353726
2.5328211611343865	13.000646	3.605641
2.5503522199603523	12.71039	3.5651634
2.5678833384877024	12.550415	3.5426564
2.5854145171273712	12.374045	3.517676
2.6029457562903064	12.214085	3.4948654
2.620477056387469	12.075705	3.4750113
2.6380084178298326	11.8358755	3.4403307
2.655539841028383	11.564441	3.400653
2.673071326394119	11.332018	3.3663063
2.6906028743380523	11.068381	3.3269176
2.708134485271211	10.731694	3.2759264
2.7256661596046325	10.486942	3.238355
2.743197897749369	10.509793	3.2418811
2.760729700116486	10.481907	3.2375772
2.778261567117063	10.3397665	3.2155507
2.795793499162193	10.122163	3.1815348
2.8133254966629817	9.992074	3.161024
2.830857560030551	9.848882	3.1382928
2.8483896896760337	9.74565	3.1218023
2.865921886010578	9.624711	3.102372
2.883454149445347	9.522708	3.0858886
2.9009864803915177	9.433092	3.071334
2.91851887926028	9.303418	3.0501506
2.9360513464628384	9.141987	3.023572
2.953583882410413	8.952946	2.9921474
2.9711164875142373	8.816663	2.9692867
2.9886491621855606	8.725217	2.953848
3.0061819068356455	8.564437	2.9265058
3.023714721875769	8.445877	2.9061792
3.041247607717225	8.394225	2.897279
3.0587805647713213	8.353127	2.8901775
3.0763135934493806	8.291822	2.8795524
3.0938466941627407	8.270564	2.8758588
3.1113798673227544	8.160578	2.8566725
3.1289131133407904	7.9781847	2.824568
3.1464464326282315	7.935703	2.817038
3.1639798255964786	7.7988605	2.792644
3.1815132926569443	7.6168756	2.7598689
3.1990468342210603	7.5113897	2.7406914
3.216580450700272	7.399801	2.7202575
3.2341141425060416	7.4298987	2.725784
3.251647910049847	7.407515	2.7216752
3.2691817537431813	7.256572	2.6938024
3.286715673997555	7.180149	2.67958
3.3042496712244938	7.1209855	2.6685176
3.32178374583554	7.1370516	2.6715262
3.339317898242251	6.915383	2.6297116
3.3568521288562034	6.8578553	2.6187508
3.3743864380889876	6.7916903	2.6060872
3.3919208263522127	6.794827	2.606689
3.4094552940575023	6.7284474	2.593925
3.4269898416164972	6.605334	2.5700843
3.444524469440858	6.474807	2.5445642
3.4620591779422587	6.4785028	2.5452902
3.479593967532391	6.4294457	2.5356352
3.4971288386229658	6.4097085	2.5317402
3.5146637916257086	6.3195243	2.5138664
3.5321988269523628	6.3874536	2.5273411
3.5497339450146903	6.393959	2.5286279
3.5672691462244708	6.422505	2.5342662
3.5848044309934988	6.2952876	2.509041
3.60233979973359	6.247948	2.4995897
3.619875252856575	6.1899095	2.487953
3.6374107907743034	6.229044	2.4958053
3.6549464138986427	6.3059587	2.5111668
3.6724821226414788	6.362246	2.5223494
3.690017917414714	6.308716	2.5117157
3.7075537986302702	6.3110275	2.5121758
3.7250897667000857	6.358222	2.5215516
3.7426258220361235	6.55412	2.5601015
3.7601619650503553	6.9064293	2.6280086
3.777698196154779	7.37916	2.716461
3.7952345157614067	8.464536	2.9093876
3.8127709242822716	9.196781	3.0326195
3.830307422129425	11.385743	3.3742766
3.847844009714936	30.198555	5.4953213
3.8653806874508954	97.71002	9.884838
3.882917455749409	96.95302	9.846473
3.900454315022606	96.889465	9.843245
3.917991265682631	41.40862	6.4349527
3.9355283081416506	11.1371565	3.3372378
3.9530654428118495	8.820711	2.9699683
3.970602670105433	7.5507717	2.7478669
3.9881399904346244	6.6512923	2.57901
4.005677404211669	6.593514	2.5677838
4.023214911848827	6.5460434	2.5585237
4.0407525137583855	6.572678	2.5637236
4.058290210352644	6.4991927	2.5493515
4.075828002043927	6.3718567	2.5242536
4.0933658892445814	6.333924	2.5167289
4.110903872366966	6.2963405	2.5092509
4.128441951823468	6.271483	2.504293
4.145980128026488	6.16212	2.4823618
4.163518401388452	6.1236777	2.4746065
4.181056772321807	6.1698284	2.483914
4.1985952412390155	6.203685	2.4907198
4.216133808552567	6.2540812	2.500816
4.233672474674966	6.3184443	2.5136516
4.251211240018741	6.4792304	2.5454333
4.268750104996445	6.703081	2.589031
4.286289070020643	7.467425	2.7326589
4.303828135503928	8.998975	2.999829
4.3213673018589125	29.268808	5.4100657
4.3389065694982305	90.417725	9.508823
4.356445938834537	165.78278	12.875666
4.3739854102805085	171.21007	13.084726
4.391524984248844	172.22997	13.123641
4.409064661152262	136.40755	11.679364
4.426604441403504	96.81078	9.839247
4.444144325415337	75.846664	8.708999
4.461684313600543	21.737835	4.662385
4.47922440637193	22.118664	4.703048
4.496764604142329	20.597754	4.538475
4.5143049073245916	18.718023	4.326433
4.531845316331589	16.590908	4.073194
4.5493858315762195	13.597328	3.6874554
4.566926453471405	11.178105	3.3433673
4.584467182430081	9.155543	3.0258129
4.602008018865218	8.119665	2.8495026
4.619548963189798	7.5288544	2.7438757
4.637090015816834	7.114822	2.6673625
4.654631177159353	6.803068	2.6082692
4.672172447630417	6.462482	2.5421412
4.689713827643102	6.1842484	2.486815
4.7072553176105085	5.9457912	2.4383993
4.724796917945764	5.8861084	2.4261303
4.742338629062015	5.8106184	2.4105225
4.759880451372434	5.7506137	2.3980436
4.777422385290215	5.663628	2.3798378
4.794964431228581	5.6387076	2.3745964
4.812506589600768	5.6392093	2.374702
4.830048860820047	5.5724506	2.3606038
4.847591245299709	5.5223236	2.3499625
4.8651337434530655	5.4779153	2.3404946
4.882676355693457	5.552784	2.3564346
4.900219082434242	5.606395	2.3677826
4.917761924088813	5.633644	2.37353
4.935304881070575	5.55017	2.3558798
4.952847953792969	5.4154058	2.3271024
4.970391142669449	5.3743453	2.3182635
4.9879344481135055	5.398081	2.3233771
5.005477870538642	5.466404	2.3380342
5.023021410358394	5.4584184	2.336326
5.040565067986324	5.387535	2.3211064
5.05810884383601	5.35623	2.314353
5.075652738321066	5.40073	2.3239472
5.09319675185512	5.5065494	2.3466039
5.110740884851836	5.540011	2.3537228
5.128285137724894	5.418604	2.3277895
5.145829510888007	5.3786974	2.319202
5.163374004754908	5.2735076	2.296412
5.1809186197393595	5.3072267	2.303742
5.198463356255145	5.3745418	2.3183057
5.216008214716077	5.3711386	2.3175716
5.233553195535998	5.352543	2.3135564
5.251098299128764	5.2646537	2.2944834
5.268643525908272	5.232493	2.2874644
5.286188876288432	5.270271	2.295707
5.3037343506831895	5.2715106	2.295977
5.32127994950651	5.226217	2.286092
5.3388256731723915	5.2207355	2.2848928
5.356371522094851	5.2531533	2.291976
5.373917496687938	5.314166	2.3052475
5.391463597365729	5.2303557	2.286997
5.40900982454232	5.1706405	2.2739043
5.426556178631843	5.1332116	2.265659
5.444102660048449	5.155793	2.2706373
5.4616492692063225	5.1264486	2.264166
5.479196006519669	5.138686	2.266867
5.496742872402727	5.160271	2.2716231
5.514289867269756	5.2740273	2.296525
5.531836991535049	5.2964425	2.3014002
5.549384245612924	5.3043375	2.3031147
5.566931629917724	5.2603817	2.2935522
5.584479144863822	5.259832	2.2934322
5.6020267908656205	5.175234	2.274914
5.619574568337545	5.1295376	2.2648482
5.637122477694054	5.098814	2.2580554
5.654670519349629	5.142673	2.2677462
5.672218693718784	5.1378455	2.2666817
5.689767001216059	5.1260405	2.264076
5.707315442256021	5.1239843	2.263622
5.724864017253266	5.1246295	2.2637644
5.7424127266224225	5.208776	2.2822742
5.75996157077814	5.1807966	2.2761364
5.777510550135105	5.1964593	2.2795744
5.795059665108022	5.182651	2.2765436
5.812608916111639	5.148894	2.2691174
5.830158303560715	5.311419	2.3046515
5.847707827870055	5.367964	2.3168867
5.86525748945448	5.43406	2.3311071
5.8828072887288485	5.58	2.3622024
5.900357226108044	5.681906	2.3836749
5.917907302006979	5.796232	2.4075365
5.9354575168406	6.407047	2.5312145
5.9530078710238765	7.0298476	2.651386
5.970558364971812	7.5783534	2.7528808
5.988108999099438	7.842901	2.800518
6.005659773821818	8.455208	2.907784
6.023210689554039	8.184188	2.860802
6.040761746711227	8.588607	2.9306326
6.058312945708531	7.9588184	2.821138
6.075864286961132	7.406139	2.7214222
6.093415770884244	6.6788325	2.5843437
6.1109673978931065	6.059383	2.4615815
6.128519168402993	5.423963	2.3289404
6.146071082829204	5.3733726	2.3180537
6.163623141587075	5.3234262	2.307255
6.181175345091969	5.291913	2.3004158
6.198727693759281	5.215693	2.2837892
6.216280188004435	5.2397556	2.2890513
6.233832828242885	5.280768	2.2979922
6.251385614890126	5.3629127	2.3157964
6.268938548361669	5.266875	2.2949672
6.286491629073067	5.1328144	2.2655716
6.304044857439898	5.091567	2.2564502
6.321598233877777	5.0773845	2.2533052
6.339151758802344	5.0660233	2.2507827
6.356705432629277	4.9906034	2.2339659
6.37425925577428	4.952658	2.225457
6.391813228653095	4.9826055	2.232175
6.409367351681486	5.0174427	2.239965
6.426921625275259	4.984712	2.232647
6.44447604985025	4.9845033	2.2326002
6.46203062582232	4.9411087	2.2228606
6.47958535360737	4.962183	2.2275958
6.497140233621328	4.935133	2.221516
6.514695266280161	4.945956	2.2239506
6.532250451999859	5.0059977	2.2374086
6.549805791196454	5.07051	2.2517793
6.567361284286002	5.0611367	2.249697
6.584916931684597	4.97351	2.2301366
6.602472733808367	4.8993044	2.2134373
6.6200286910734665	4.8365993	2.199227
6.637584803896092	4.8873687	2.2107394
6.655141072692462	4.8927693	2.2119606
6.672697497878842	4.9845543	2.2326117
6.690254079871514	5.0243707	2.2415109
6.707810819086808	5.0961175	2.2574582
6.725367715941078	4.957348	2.2265103
6.742924770850719	4.939209	2.222433
6.760481984232151	4.996938	2.2353833
6.778039356501836	5.043679	2.2458136
6.795596888076266	5.039714	2.2449307
6.813154579371963	4.9849834	2.2327077
6.830712430805492	4.8899055	2.211313
6.84827044279344	4.8737874	2.2076657
6.865828615752445	4.8740215	2.2077186
6.883386950099159	4.962527	2.227673
6.900945446250287	5.0058026	2.237365
6.918504104622553	5.0549603	2.248324
6.936062925632727	5.0272694	2.2421572
6.953621909697607	5.034116	2.2436836
6.971181057234028	5.015109	2.239444
6.988740368658859	4.973571	2.2301505
7.006299844389007	5.061767	2.2498372
7.023859484841407	5.1636224	2.2723606
7.041419290433036	5.343845	2.3116758
7.058979261580902	5.5048485	2.3462412
7.0765393987020495	5.7196965	2.3915887
7.094099702213559	6.0959573	2.4689991
7.111660172532549	6.445804	2.538859
7.129220810076164	6.8136964	2.6103058
7.146781615261595	7.34981	2.7110534
7.16434258850606	7.4557576	2.7305233
7.181903730226821	7.9273067	2.8155472
7.1994650408411704	8.120594	2.8496656
7.217026520766437	8.331553	2.8864431
7.234588170419983	8.560011	2.9257495
7.252149990219215	8.538424	2.922058
7.269711980581568	8.406348	2.8993704
7.2872741419245175	8.206279	2.8646603
7.304836474665574	7.8848977	2.808006
7.322398979222286	7.569215	2.7512207
7.339961656012233	7.22203	2.6873834
7.357524505453039	6.841666	2.6156578
7.375087527962357	6.603939	2.569813
7.392650723957886	6.3518	2.5202777
7.410214093857353	6.032384	2.4560912
7.427777638078528	5.7420053	2.396248
7.445341357039213	5.557183	2.3573678
7.4629052511572525	5.342511	2.3113873
7.480469320850524	5.2560916	2.2926168
7.498033566536948	5.215515	2.2837503
7.5155979886344735	5.2091584	2.2823582
7.5331625875610975	5.250225	2.291337
7.550727363734844	5.233056	2.2875874
7.568292317573788	5.2246814	2.285756
7.585857449496025	5.153037	2.2700303
7.603422759919705	5.1279845	2.2645054
7.620988249263007	5.103224	2.2590315
7.638553917944147	5.0856967	2.255149
7.656119766381391	5.068791	2.2513976
7.673685794993023	5.1186366	2.2624404
7.691252004197388	5.253363	2.2920215
7.70881839441285	5.325283	2.3076575
7.726384966057826	5.3168464	2.3058288
7.743951719550762	5.262736	2.2940652
7.761518655310149	5.255077	2.2923954
7.779085773754511	5.289459	2.2998824
7.796653075302419	5.270099	2.2956696
7.814220560372475	5.29358	2.3007782
7.831788229383323	5.244894	2.2901733
7.8493560827536495	5.294592	2.300998
7.866924120902174	5.355914	2.3142848
7.884492344247663	5.4135284	2.326699
7.9020607532089135	5.464838	2.3376994
7.919629348204771	5.4809384	2.3411405
7.937198129654115	5.45876	2.3363988
7.954767097975865	5.432249	2.3307185
7.972336253588986	5.437349	2.3318124
7.989905596912472	5.429735	2.3301792
8.007475128365371	5.4225564	2.3286383
8.025044848366756	5.4308724	2.330423
8.042614757335754	5.5621657	2.3584244
8.060184855691523	5.642116	2.375314
8.07775514385327	5.7592525	2.3998442
8.095325622240228	5.715301	2.3906696
8.112896291271687	5.716137	2.3908443
8.130467151366968	5.7640405	2.4008417
8.148038202945436	5.918354	2.4327667
8.165609446426497	5.9581623	2.4409347
8.183180882229594	5.96543	2.4424229
8.200752510774217	5.9573765	2.4407737
8.218324332479893	5.9396195	2.4371336
8.235896347766193	5.896886	2.4283504
8.253468557052724	5.879928	2.4248564
8.27104096075914	5.9411917	2.437456
8.288613559305137	6.0773573	2.4652297
8.306186353110448	6.114198	2.4726906
8.32375934259485	6.1648216	2.4829059
8.341332528178162	6.1768513	2.4853272
8.358905910280246	6.256231	2.5012457
8.376479489321003	6.3074465	2.511463
8.394053265720377	6.345865	2.5191
8.411627239898356	6.3008056	2.5101407
8.42920141227497	6.3151007	2.5129864
8.44677578327029	6.332882	2.5165217
8.464350353304427	6.28476	2.5069423
8.48192512279754	6.274393	2.5048738
8.499500092169827	6.266642	2.5033262
8.51707526184153	6.2756453	2.5051239
8.534650632232934	6.267799	2.5035572
8.552226203764365	6.2606683	2.5021327
8.569801976856192	6.27065	2.5041265
8.587377951928834	6.303424	2.510662
8.60495412940274	6.30589	2.5111532
8.622530509698416	6.33762	2.517463
8.6401070932364	6.442874	2.5382817
8.657683880437283	6.5137544	2.5522058
8.675260871721695	6.616563	2.572268
8.692838067510303	6.799846	2.6076515
8.710415468223834	6.895552	2.6259384
8.727993074283043	7.004025	2.6465118
8.745570886108737	6.9642687	2.6389902
8.763148904121765	7.018571	2.6492586
8.78072712874302	7.035435	2.6524396
8.798305560393441	7.3472986	2.7105901
8.815884199494006	7.502776	2.7391195
8.833463046465745	7.7185163	2.7782218
8.851042101729728	7.8789577	2.8069482
8.86862136570707	8.1283455	2.8510253
8.886200838818924	8.26123	2.8742356
8.903780521486505	8.233524	2.869412
8.921360414131055	8.37267	2.8935566
8.938940517173874	8.558949	2.9255683
8.956520831036297	8.734281	2.9553816
8.97410135613971	8.950901	2.9918056
8.99168209290554	9.057225	3.0095224
9.009263041755265	9.449642	3.074027
9.026844203110405	9.692646	3.1133015
9.044425577392525	9.926422	3.1506226
9.062007165023239	9.996046	3.1616523
9.079588966424197	10.275685	3.205571
9.097170982017108	10.334258	3.214694
9.11475321222372	11.390082	3.3749197
9.132335657465825	12.304675	3.507802
9.149918318165264	12.465383	3.5306349
9.167501194743924	13.140318	3.6249576
9.18508428762374	12.74253	3.569668
9.202667597226693	12.788143	3.5760512
9.220251123974803	12.509844	3.5369258
9.237834868290143	12.254367	3.5006237
9.255418830594836	11.912754	3.4514859
9.273003011311046	11.225909	3.3505087
9.290587410860985	10.91318	3.3035102
9.308172029666911	10.330455	3.2141025
9.32575686815113	10.172235	3.189394
9.343341926735997	8.923214	2.987175
9.360927205843916	8.698753	2.949365
9.378512705897327	8.405429	2.899212
9.396098427318728	8.14491	2.8539288
9.413684370530664	8.036239	2.834826
9.431270535955722	7.954514	2.8203747
9.448856924016539	7.8675904	2.8049226
9.466443535135806	7.7601366	2.7857022
9.484030369736251	7.7437286	2.7827556
9.501617428240658	7.793872	2.7917507
9.519204711071852	7.838394	2.7997131
9.536792218652714	7.8192244	2.7962875
9.55437995140617	7.8461347	2.8010952
9.571967909755191	7.8497624	2.8017428
9.589556094122802	7.951772	2.8198886
9.60714450493207	7.9517064	2.819877
9.624733142606116	7.872333	2.8057678
9.642322007568108	7.8479557	2.8014202
9.659911100241267	7.8811235	2.807334
9.677500421048851	7.9141154	2.8132038
9.695089970414175	7.9713655	2.8233607
9.712679748760609	7.979961	2.8248825
9.730269756511557	8.077046	2.8420146
9.747859994090492	8.12709	2.8508053
9.765450461920915	8.170374	2.8583865
9.78304116042639	8.191584	2.8620942
9.800632090030527	8.19539	2.862759
9.81822325115699	8.222971	2.8675723
9.835814644229481	8.242006	2.8708894
9.853406269671762	8.318924	2.8842545
9.870998127907646	8.380122	2.894844
9.888590219360985	8.400657	2.8983886
9.906182544455698	8.363987	2.8920557
9.923775103615734	8.306551	2.8821087
9.941367897265108	8.268635	2.8755233
9.958960925827878	8.315373	2.8836389
9.97655418972816	8.346269	2.8889909
9.994147689390106	8.404913	2.8991227
10.011741425237934	8.336702	2.8873348
10.029335397695904	8.287972	2.8788838
10.04692960718833	8.263398	2.8746128
10.06452405413958	8.281863	2.8778226
10.082118738974064	8.360019	2.8913696
10.099713662116246	8.3114	2.88295
10.117308823990651	8.309957	2.8826995
10.134904225021844	8.1724825	2.8587554
10.152499865634445	8.088257	2.843986
10.170095746253125	8.050141	2.8372772
10.18769186730261	8.090744	2.8444233
10.205288229207675	8.185633	2.8610544
10.222884832393145	8.225879	2.8680792
10.2404816772839	8.202039	2.8639202
10.258078764304868	8.149731	2.8547733
10.275676093881035	8.169775	2.8582819
10.293273666437438	8.176771	2.8595054
10.310871482399158	8.254677	2.8730953
10.32846954219134	8.241699	2.870836
10.346067846239173	8.277102	2.8769953
10.363666394967908	8.260435	2.8740973
10.38126518880283	8.245448	2.8714888
10.398864228169298	8.284635	2.878304
10.416463513492713	8.297977	2.880621
10.434063045198531	8.259219	2.8738856
10.451662823712262	8.214644	2.86612
10.469262849459467	8.268274	2.8754606
10.486863122865758	8.216755	2.8664882
10.504463644356806	8.174404	2.8590915
10.522064414358338	8.135192	2.8522258
10.539665433296118	8.026409	2.8330917
10.557266701595987	7.9424014	2.8182266
10.574868219683818	7.75496	2.7847729
10.592469987985552	7.721946	2.7788389
10.610072006927185	7.6748505	2.7703521
10.627674276934751	7.6287622	2.7620213
10.64527679843435	7.406421	2.7214742
10.662879571852143	7.194261	2.6822119
10.680482597614331	7.0360126	2.6525483
10.698085876147173	6.90884	2.6284673
10.715689407876988	6.811596	2.6099033
10.733293193230146	6.7483425	2.597757
10.750897232633072	6.788463	2.605468
10.76850152651225	6.820917	2.6116886
10.786106075294207	6.785103	2.604823
10.803710879405534	6.6474123	2.5782576
10.821315939272877	6.435817	2.5368912
10.83892125532294	6.3626647	2.5224323
10.856526827982472	6.293055	2.5085962
10.874132657678285	6.24414	2.4988277
10.891738744837243	6.2022448	2.4904306
10.909345089886271	6.1230083	2.4744713
10.926951693252343	6.098572	2.4695287
10.944558555362494	6.053359	2.4603574
10.96216567664381	5.9667892	2.442701
10.979773057523436	5.9545665	2.440198
10.997380698428573	5.880774	2.4250307
11.014988599786477	5.8666115	2.422109
11.032596762024461	5.7593484	2.3998642
11.050205185569892	5.681146	2.3835156
11.067813870850198	5.6125236	2.3690765
11.085422818292859	5.5357842	2.3528247
11.10303202832541	5.5200906	2.3494873
11.120641501375454	5.4973116	2.3446345
11.138251237870636	5.4375772	2.3318613
11.155861238238671	5.36697	2.316672
11.173471502907317	5.2671814	2.2950342
11.191082032304402	5.2122865	2.2830431
11.208692826857805	5.1263475	2.264144
11.226303886995465	5.0909905	2.2563224
11.243915213145371	5.060439	2.249542
11.261526805735578	5.004346	2.2370396
11.279138665194196	4.9262815	2.2195227
11.296750791949393	4.921694	2.2184892
11.314363186429393	4.85896	2.204305
11.331975849062479	4.7985754	2.190565
11.34958878027699	4.7745814	2.1850815
11.36720198050133	4.7771235	2.1856632
11.384815450163948	4.69967	2.1678722
11.402429189693366	4.551879	2.1335132
11.420043199518153	4.4609694	2.1121006
11.437657480066942	63.40971	7.9630213
11.455272031768422	85.129845	9.2265835
11.472886855051353	107.53928	10.370115
11.490501950344528	99.12378	9.956093
11.508117318076819	84.510445	9.192956
11.52573295867715	45.915337	6.776086
11.543348872574514	4.221118	2.0545359
11.560965060197946	4.1455927	2.036073
11.57858152197655	4.0869594	2.021623
11.59619825833949	4.0689263	2.017158
11.613815269715985	4.0079255	2.0019803
11.631432556535323	38.498554	6.2047205
11.649050119226837	83.01806	9.111424
11.666667958219929	93.39214	9.663961
11.68428607394406	107.662025	10.376031
11.701904466828756	82.470116	9.0813055
11.719523137303586	65.36682	8.084975
11.737142085798196	4.6115828	2.1474595
11.754761312742286	3.7101586	1.9261771
11.772380818565619	3.6520283	1.911028
11.790000603698015	3.6424968	1.9085326
11.80762066856935	3.6621149	1.9136653
11.825241013609572	3.6288073	1.9049429
11.842861639248683	3.5973666	1.8966725
11.860482545916748	3.5394287	1.8813369
11.878103734043883	3.49698	1.8700213
11.895725204060282	3.428079	1.8515072
11.91334695639619	3.4245307	1.8505487
11.930968991481919	3.4044938	1.845127
11.948591309747824	3.4216535	1.8497713
11.966213911624347	3.396997	1.8430943
11.98383679754198	3.3427706	1.8283246
12.001459967931268	3.2709951	1.8085892
12.019083423222835	3.2241957	1.7956046
12.036707163847352	3.2293606	1.7970421
12.05433119023556	3.218249	1.7939479
12.071955502818259	3.1746573	1.7817568
12.089580102026313	3.1450698	1.7734345
12.107204988290643	3.1050644	1.7621193
12.12483016204224	3.092306	1.7584953
12.142455623712152	3.1104198	1.7636383
12.16008137373149	3.1406329	1.7721831
12.177707412531431	3.121495	1.7667754
12.19533374054321	3.0935755	1.7588563
12.212960358198126	3.0337462	1.7417653
12.230587265927545	3.0709083	1.7524008
12.248214464162889	3.0407534	1.7437756
12.265841953335649	3.0381305	1.7430234
12.283469733877375	2.9877536	1.7285119
12.301097806219685	2.9653213	1.7220109
12.31872617079425	2.970875	1.7236227
12.336354828032825	2.934348	1.7129939
12.353983778367205	2.893204	1.700942
12.371613022229262	2.8841786	1.698287
12.389242560050928	2.8979902	1.7023485
12.406872392264201	2.9182456	1.7082874
12.424502519301143	2.9090624	1.7055974
12.442132941593874	2.865645	1.6928216
12.459763659574586	2.8348389	1.6836979
12.477394673675532	2.8148944	1.6777648
12.49502598432903	2.8314059	1.6826782
12.51265759196746	2.8407302	1.6854466
12.530289497023267	2.8694327	1.69394
12.547921699928967	2.858938	1.6908394
12.565554201117134	2.8276324	1.6815566
12.583187001020404	2.8020198	1.6739235
12.600820100071486	2.8250926	1.6808012
12.618453498703152	2.7874591	1.6695685
12.636087197348235	2.781921	1.6679091
12.65372119643964	2.7584417	1.6608557
12.671355496410326	2.7729309	1.6652119
12.68899009769333	2.8003805	1.6734338
12.706625000721749	2.8310535	1.6825734
12.724260205928752	2.903937	1.7040942
12.741895713747551	2.9175444	1.7080821
12.759531524611454	2.9598968	1.720435
12.777167638953818	3.0017686	1.7325612
12.794804057208072	3.0169418	1.7369345
12.812440779807702	3.0538733	1.7475334
12.830077807186271	3.2080388	1.7910999
12.847715139777405	3.266166	1.8072537
12.865352778014795	3.486863	1.8673143
12.882990722332197	3.6413367	1.9082286
12.90062897316344	3.749893	1.9364641
12.918267530942412	3.8312602	1.9573605
12.935906396103071	3.665243	1.9144824
12.953545569079449	3.831154	1.9573334
12.971185050305628	3.6582901	1.9126657
12.988824840215775	3.6690192	1.9154685
13.006464939244115	3.6511183	1.91079
13.024105347824943	3.4826403	1.8661834
13.041746066392617	3.5861485	1.8937129
13.05938709538157	3.3763149	1.8374752
13.077028435226296	3.3757923	1.837333
13.094670086361363	3.254412	1.8039988
13.112312049221401	3.1647944	1.7789869
13.129954324241112	3.0859287	1.7566812
13.147596911855258	2.9205208	1.7089531
13.165239812498685	2.8782847	1.6965508
13.182883026606293	2.8135428	1.6773618
13.200526554613058	2.747984	1.6577045
13.218170396954017	2.7094352	1.6460363
13.235814554064284	2.6877322	1.6394304
13.253459026379034	2.6773384	1.6362574
13.271103814333523	2.6542537	1.6291881
13.288748918363058	2.6620731	1.6315861
13.306394338903031	2.6795514	1.6369336
13.32404007638889	2.6910777	1.6404505
13.341686131256164	2.7076776	1.6455022
13.359332503940449	2.6788034	1.636705
13.376979194877402	2.6584547	1.6304768
13.394626204502751	2.6991694	1.6429149
13.412273533252307	2.7599247	1.6613021
13.429921181561937	2.7801664	1.6673831
13.447569149867581	2.7784877	1.6668797
13.465217438605247	2.7495656	1.6581814
13.482866048211022	2.7056386	1.6448826
13.500514979121052	2.6924872	1.64088
13.518164231771568	2.6652093	1.6325469
13.535813806598844	2.6298892	1.6216934
13.553463704039254	2.6419232	1.6253994
13.571113924529229	2.6649828	1.6324775
13.588764468505275	2.6921988	1.6407921
13.606415336403956	2.7274392	1.651496
13.624066528661917	2.7344494	1.653617
13.641718045715882	2.7700841	1.664357
13.659369888002635	2.8192825	1.6790719
13.67702205595903	2.8988929	1.7026136
13.694674550021993	2.9958255	1.7308453
13.712327370628532	3.109243	1.7633046
13.729980518215713	3.1552649	1.7763065
13.747633993220681	3.203811	1.7899193
13.765287796080647	3.2247322	1.795754
13.7829419272329	3.3051047	1.8179947
13.800596387114801	3.3178837	1.8215059
13.818251176163775	3.339653	1.8274717
13.835906294817324	3.3889933	1.8409219
13.853561743513023	3.411599	1.8470514
13.871217522688525	3.4528975	1.8581975
13.888873632781538	3.4737809	1.8638082
13.906530074229858	3.4942424	1.8692893
13.92418684747135	3.5168872	1.8753365
13.941843952943948	3.515006	1.8748349
13.959501391085665	3.4938772	1.8691915
13.977159162334578	3.4228103	1.8500838
13.994817267128846	3.3656178	1.8345621
14.012475705906693	3.300862	1.8168274
14.030134479106424	3.190579	1.7862191
14.047793587166414	3.1076522	1.7628534
14.065453030525108	3.0884955	1.7574116
14.083112809621026	3.0407248	1.7437674
14.100772924892766	2.9899833	1.7291569
14.118433376778997	2.9041002	1.7041421
14.136094165718458	2.8055472	1.6749768
14.153755292149969	2.7084866	1.645748
14.171416756512416	2.6473465	1.6270669
14.189078559244768	2.6586769	1.6305449
14.20674070078606	2.6184247	1.6181548
14.224403181575408	2.5337048	1.5917615
14.242066002051999	2.441548	1.5625454
14.259729162655093	2.3926659	1.5468245
14.277392663824022	2.4222193	1.5563481
14.295056505998208	2.3969955	1.5482234
14.312720689617128	2.394987	1.5475746
14.330385215120348	2.406153	1.551178
14.348050082947497	2.4294262	1.5586617
14.3657152935383	2.435911	1.5607405
14.383380847332528	2.4111445	1.552786
14.401046744770051	2.4011948	1.5495789
14.418712986290798	2.3864923	1.5448276
14.436379572334793	2.3546665	1.5344923
14.454046503342123	2.3525162	1.5337914
14.471713779752946	2.3651185	1.5378941
14.489381402007504	2.3629086	1.5371755
14.507049370546113	2.3526266	1.5338274
14.524717685809168	2.358749	1.5358219
14.542386348237134	2.3658051	1.5381174
14.560055358270553	2.400636	1.5493985
14.577724716350051	2.4055905	1.5509967
14.595394422916325	2.4050784	1.5508316
14.61306447841015	2.411338	1.5528483
14.63073488327237	2.4138618	1.5536608
14.648405637943917	2.4382064	1.5614758
14.6660767428658	2.428831	1.5584707
14.683748198479094	2.4618764	1.5690367
14.701420005224954	2.513998	1.5855592
14.719092163544628	2.6037183	1.6136041
14.73676467387942	2.6363935	1.6236975
14.754437536670727	2.6550634	1.6294365
14.772110752360014	2.6530151	1.6288079
14.78978432138882	2.6694794	1.6338542
14.807458244198777	2.6995826	1.6430407
14.82513252123159	2.6955593	1.6418159
14.842807152929028	2.706621	1.6451812
14.860482139732962	2.6587036	1.6305531
14.87815748208531	2.6826022	1.6378651
14.8958331804281	2.7007523	1.6433966
14.91350923520342	2.6615603	1.631429
14.931185646853438	2.7078776	1.645563
14.948862415820408	2.6854455	1.6387329
14.966539542546656	2.7028615	1.6440382
14.98421702747459	2.6622694	1.6316462
15.001894871046696	2.66987	1.6339736
15.019573073705542	2.6965637	1.6421217
15.037251635893766	2.652208	1.6285602
15.054930558054092	2.6697798	1.6339461
15.072609840629323	2.69004	1.6401342
15.090289484062351	2.8344548	1.6835839
15.107969488796124	3.127601	1.7685025
15.125649855273691	3.539425	1.881336
15.14333058393817	4.058045	2.014459
15.161011675232768	5.01272	2.2389104
15.17869312960076	6.323626	2.514682
15.196374947485506	8.142265	2.8534656
15.214057129330447	11.252299	3.3544447
15.231739675579114	15.967857	3.9959803
15.249422586675102	21.14207	4.5980506
15.267105863062092	24.315804	4.9311056
15.284789505183847	24.78233	4.978185
15.302473513484218	22.85217	4.7803946
15.320157888407127	19.315372	4.3949256
15.337842630396578	15.062562	3.8810518
15.355527739896656	11.712736	3.4223876
15.37321321735153	9.055519	3.009239
15.39089906320545	6.5712547	2.5634458
15.408585277902748	4.8921328	2.2118165
15.42627186188783	3.7611194	1.9393605
15.443958815605198	3.2399044	1.7999735
15.461646139499424	2.9571555	1.7196382
15.479333834015168	2.8036103	1.6743985
15.497021899597165	2.724245	1.6505287
15.514710336690234	2.7110143	1.6465158
15.53239914573928	2.692568	1.6409047
15.550088327189297	2.6549354	1.6293973
15.567777881485336	2.5611608	1.6003627
15.58546780907256	2.4660857	1.5703776
15.6031581103962	2.4288392	1.5584733
15.620848785901568	2.4196384	1.5555187
15.638539836034063	2.4210958	1.5559871
15.656231261239173	2.420993	1.5559541
15.673923061962451	2.452108	1.5659208
15.691615238649552	2.46888	1.571267
15.709307791746202	2.4521816	1.5659443
15.727000721698221	2.4719086	1.5722305
15.744694028951498	2.438863	1.5616859
15.76238771395202	2.4191985	1.5553772
15.780081777145844	2.3342936	1.5278395
15.797776218979125	2.3098044	1.5198041
15.815471039898094	2.3276553	1.5256655
15.833166240349064	2.3789926	1.5423983
15.850861820778437	2.3959212	1.5478764
15.868557781632699	2.3495321	1.5328183
15.886254123358412	2.3422496	1.530441
15.903950846402232	2.3535244	1.5341201
15.921647951210897	2.374739	1.5410188
15.939345438231225	2.3832073	1.543764
15.957043307910133	2.3840778	1.5440459
15.974741560694602	2.404362	1.5506005
15.992440197031714	2.3853707	1.5444646
16.01013921736862	2.356624	1.5351299
16.02783862215259	2.3591363	1.535948
16.045538411830933	2.4006078	1.5493895
16.06323858685107	2.4346817	1.5603466
16.080939147660512	2.4362497	1.5608491
16.09864009470684	2.403533	1.5503331
16.11634142843774	2.4080777	1.5517982
16.134043149300954	2.4401417	1.5620953
16.15174525774433	2.4432864	1.5631015
16.169447754215817	2.4325233	1.5596548
16.18715063916342	2.4281	1.5582362
16.204853913035244	2.4481568	1.5646586
16.222557576279478	2.4531403	1.5662503
16.240261629344403	22.426336	4.7356453
16.257966072678386	42.96569	6.554822
16.275670906729868	38.10298	6.1727614
16.293376131947387	2.5368426	1.5927469
16.31108174877957	2.542981	1.5946727
16.328787757675133	2.5362766	1.5925692
16.34649415908287	2.5287294	1.5901979
16.364200953451657	2.5588615	1.5996442
16.38190814123048	2.5840309	1.6074921
16.39961572286839	2.6630518	1.631886
16.41732369881455	2.6845229	1.6384513
16.43503206951817	2.7134821	1.6472651
16.45274083542859	2.7001657	1.6432182
16.47044999699522	2.7095494	1.646071
16.488159554667558	2.7577908	1.6606598
16.505869508895184	2.8011746	1.673671
16.523579860127786	2.8572578	1.6903425
16.541290608815117	2.9058046	1.704642
16.559001755407035	2.9902933	1.7292465
16.57671330035348	3.0390809	1.743296
16.59442524410448	3.1167686	1.7654372
16.61213758711015	3.1789935	1.7829732
16.629850329820705	3.2560546	1.8044541
16.647563472686436	3.3226721	1.8228198
16.665277016157724	3.3833735	1.8393949
16.682990960685053	3.4535053	1.8583609
16.70070530671898	3.4834607	1.8664031
16.718420054710155	3.4721916	1.8633817
16.736135205109335	3.500581	1.870984
16.753850758367335	3.5387206	1.8811487
16.771566714935087	3.6214283	1.903005
16.789283075263597	3.6735992	1.9166635
16.80699983980398	3.7804434	1.9443363
16.82471700900741	3.8651512	1.9659988
16.84243458332518	3.9457626	1.9863944
16.860152563208665	4.015813	2.0039494
16.87787094910932	4.0875754	2.0217752
16.89558974147871	4.1287336	2.0319285
16.913308940768466	4.1786146	2.044166
16.931028547430333	4.2463527	2.060668
16.94874856191613	4.2694106	2.0662553
16.966468984677785	4.300717	2.073817
16.98418981616729	4.3425593	2.083881
17.00191105683676	4.4441733	2.108121
17.019632707138374	4.535068	2.12957
17.03735476752442	4.5795126	2.1399796
17.05507723844728	4.561089	2.1356707
17.072800120359403	4.5287266	2.1280806
17.090523413713353	4.523959	2.12696
17.108247118961785	4.557194	2.1347585
17.125971236557437	4.5966415	2.1439779
17.143695766953133	4.6592164	2.158522
17.161420710601806	4.67584	2.162369
17.179146067956477	4.704082	2.1688895
17.19687183947025	4.729561	2.1747553
17.21459802559634	4.7240944	2.1734982
17.232324626788028	4.7288275	2.1745868
17.25005164349871	4.6413198	2.1543722
17.267779076181863	4.5977197	2.1442294
17.285506925291074	4.5665164	2.136941
17.30323519127999	4.5936217	2.1432736
17.320963874602384	4.5700655	2.1377711
17.33869297571211	4.5743184	2.1387656
17.356422495063114	4.539914	2.1307075
17.37415243310944	4.5221257	2.126529
17.391882790305218	4.5270615	2.1276891
17.40961356710468	4.54288	2.1314032
17.42734476396215	4.5416217	2.131108
17.445076381332044	4.5313115	2.1286879
17.462808419668868	4.5681663	2.137327
17.48054087942723	4.7186627	2.1722484
17.498273761061835	5.025117	2.2416773
17.51600706502747	5.496827	2.3445313
17.533740791779024	6.209534	2.4918938
17.551474941771485	7.6113586	2.7588692
17.56920951545993	8.6651745	2.943667
17.586944513299528	10.749249	3.2786047
17.60467993574556	12.485267	3.5334496
17.622415783253373	14.390894	3.793533
17.64015205627843	15.959921	3.994987
17.657888755276293	17.138985	4.1399255
17.675625880702604	17.639475	4.1999373
17.69336343301311	17.504726	4.183865
17.71110141266366	16.699532	4.086506
17.728839820110178	15.668814	3.9583852
17.746578655808705	14.54702	3.8140557
17.764317920215372	12.794869	3.5769916
17.7820576137864	11.235332	3.3519146
17.79979773697811	9.264627	3.043785
17.81753829024692	7.4983125	2.7383046
17.835279274049356	5.820478	2.4125667
17.85302068884201	4.783664	2.1871588
17.870762535081607	4.1546855	2.0383046
17.888504813224934	3.8840253	1.9707931
17.90624752372891	3.7234418	1.9296222
17.923990667050536	3.6470034	1.9097129
17.941734243646895	3.557556	1.8861485
17.959478253975185	3.506456	1.8725533
17.9772226984927	3.4962876	1.8698362
17.994967577656833	3.4752166	1.8641933
18.01271289192506	3.4492776	1.8572232
18.030458641754965	3.421855	1.8498256
18.04820482760425	3.3656778	1.8345784
18.06595144993067	3.2982638	1.8161123
18.083698509192125	3.2598283	1.8054994
18.101446005846576	3.2468019	1.8018885
18.119193940352105	3.2453675	1.8014903
18.136942313166887	3.231921	1.7977544
18.1546911247492	3.2170942	1.793626
18.1724403755574	3.2009654	1.7891243
18.19019006604997	3.1777487	1.7826241
18.207940196685467	3.1608388	1.7778748
18.225690767922575	3.1544764	1.7760845
18.243441780220046	3.1086333	1.7631316
18.261193234036764	3.0966356	1.759726
18.278945129831676	3.103471	1.7616671
18.29669746806386	3.1043215	1.7619085
18.314450249192483	3.0577314	1.748637
18.3322034736768	3.0370188	1.7427044
18.349957141976184	3.0378928	1.7429552
18.3677112545501	3.0187926	1.7374673
18.385465811858108	3.000908	1.7323129
18.403220814359884	3.0063515	1.7338834
18.420976262515172	3.0248194	1.7392008
18.43873215678387	3.0877643	1.7572036
18.456488497625923	3.1545408	1.7761027
18.474245285501407	3.2425601	1.800711
18.492002520870486	3.310713	1.8195364
18.50976020419343	3.3787196	1.8381294
18.527518335930615	3.6845875	1.9195279
18.545276916542516	4.2685256	2.066041
18.563035946489688	4.4649196	2.1130357
18.580795426232832	4.8488746	2.202016
18.598555356232698	4.671515	2.1613688
18.616315736950185	4.973333	2.230097
18.63407656884626	4.6928573	2.1663003
18.65183785238201	4.8970275	2.2129228
18.669599588018617	4.647757	2.1558657
18.68736177621737	4.6384506	2.1537063
18.705124417439652	4.6631265	2.1594274
18.72288751214696	4.5014477	2.1216614
18.740651060800886	4.612572	2.14769
18.758415063863115	4.3293457	2.080708
18.77617952179546	4.4754853	2.1155343
18.793944435059814	4.2099066	2.0518057
18.811709804118184	4.165567	2.040972
18.829475629432675	4.152074	2.037664
18.8472419114655	3.9942276	1.9985564
18.86500865067897	4.111049	2.0275722
18.88277584753551	3.7852092	1.9455614
18.90054350249763	3.752698	1.9371881
18.918311616027957	3.4239266	1.8503855
18.936080188589226	3.2890346	1.8135695
18.953849220644265	3.0061245	1.7338179
18.971618712656007	2.845412	1.6868349
18.9893886650875	2.7942822	1.6716107
19.007159078401887	7.9593205	2.8212268
19.024929953062408	32.854046	5.731845
19.042701289532435	32.84106	5.730712
19.060473088275405	25.387877	5.0386386
19.07824534975489	2.6620538	1.6315801
19.096018074434568	2.6251347	1.6202267
19.113791262778197	2.5918531	1.6099234
19.13156491524966	2.5537162	1.5980351
19.149339032312945	2.5775166	1.6054646
19.167113614432136	2.6038508	1.6136452
19.184888662071433	2.5967982	1.6114584
19.202664175695123	2.5725975	1.6039319
19.220440155767623	2.5341878	1.5919132
19.238216602753447	2.51628	1.5862787
19.2559935171172	2.5107648	1.5845393
19.27377089932361	2.5194054	1.5872635
19.291548749837514	2.507762	1.5835915
19.309327069123835	2.5267158	1.5895647
19.32710585764763	2.543732	1.5949081
19.344885115874032	2.5412295	1.5941234
19.362664844268313	2.517542	1.5866764
19.380445043295822	2.511495	1.5847697
19.39822571342203	2.5120194	1.5849352
19.41600685511252	2.4840956	1.5761014
19.43378846883297	2.488923	1.5776321
19.451570555049173	2.4988627	1.5807792
19.469353114227037	2.531904	1.5911958
19.48713614683254	2.5253568	1.5891371
19.50491965333182	2.5114865	1.584767
19.52270363419109	2.4625764	1.5692598
19.540488089876686	2.4223487	1.5563897
19.55827302085503	2.4355607	1.5606283
19.576058427592674	2.4700465	1.5716381
19.593844310556282	2.483439	1.575893
19.611630670212598	2.4681802	1.5710443
19.629417507028506	2.470392	1.571748
19.64720482147098	2.5074704	1.5834994
19.6649926140071	2.529745	1.5905173
19.682780885104084	2.568266	1.602581
19.70056963522921	2.5553532	1.5985472
19.718358864849908	2.5486732	1.5964564
19.7361485744337	2.5169835	1.5865004
19.753938764448215	2.5198357	1.587399
19.771729435361202	2.5014055	1.5815833
19.789520587640506	2.4611275	1.5687981
19.807312221754092	2.4626002	1.5692674
19.825104338170043	2.4993007	1.5809177
19.842896937356517	2.5205863	1.5876354
19.860690019781824	2.4782836	1.5742565
19.87848358591436	2.4544342	1.5666634
19.896277636222635	2.4458575	1.5639237
19.914072171175278	2.4914994	1.5784484
19.931867191241015	2.5149467	1.5858583
19.94966269688869	2.51762	1.586701
19.967458688587264	2.4899318	1.5779518
19.985255166805807	2.478049	1.574182
20.00305213201348	2.448668	1.5648221
20.020849584679578	2.4164944	1.5545077
20.038647525273507	2.3978982	1.5485148
20.05644595426477	2.4281495	1.5582521
20.07424487212299	2.4776862	1.5740668
20.092044279317903	2.5048904	1.5826845
20.109844176319353	2.4677148	1.5708961
20.127644563597304	2.435806	1.5607069
20.145445441621817	2.42751	1.5580468
20.16324681086307	2.4296563	1.5587355
20.181048671791373	2.4005964	1.5493858
20.198851024877122	2.3962681	1.5479884
20.216653870590836	2.3952484	1.547659
20.234457209403146	2.3752468	1.5411836
20.252261041784802	2.3527827	1.5338783
20.270065368206662	2.3606558	1.5364425
20.287870189139685	2.3470843	1.5320196
20.305675505054968	2.364322	1.5376352
20.323481316423702	2.39222	1.5466803
20.341287623717207	2.3671875	1.5385667
20.359094427406884	2.3347259	1.5279809
20.376901727964288	2.3232002	1.5242047
20.39470952586107	2.3652813	1.5379472
20.41251782156899	2.375523	1.5412732
20.430326615559935	2.3998678	1.5491507
20.448135908305886	2.4167156	1.5545789
20.465945700278965	2.4115114	1.5529042
20.483755991951384	2.3816893	1.5432723
20.50156678379548	2.3430316	1.5306965
20.519378076283708	2.3365498	1.5285777
20.537189869888635	2.3587227	1.5358133
20.55500216508294	2.3726408	1.5403379
20.572814962339415	2.3539371	1.5342546
20.59062826213098	2.3499115	1.532942
20.60844206493066	2.319929	1.5231313
20.626256371211593	2.3091524	1.5195895
20.644071181447032	2.3117702	1.5204507
20.66188649611036	2.3114629	1.5203496
20.67970231567506	2.3465502	1.5318453
20.697518640614742	2.3835843	1.5438861
20.715335471403122	2.3801723	1.5427806
20.73315280851404	2.3291607	1.5261588
20.750970652421447	2.3022985	1.5173327
20.768789003599412	2.3263524	1.5252385
20.786607862522136	2.3039079	1.5178629
20.8044272296639	2.2693353	1.5064313
20.82224710549913	2.2425141	1.4975027
20.84006749050237	2.2353487	1.4951082
20.857888385148268	3.8089225	1.9516461
20.8757097899116	45.94165	6.778027
20.893531705267254	64.829506	8.051677
20.911354131690224	83.86283	9.157665
20.92917706965566	69.09346	8.312247
20.94700051963877	50.126297	7.079993
20.96482448211493	29.39386	5.4216104
20.982648957559622	4.109415	2.0271692
21.00047394644843	2.1946216	1.4814255
21.01829944925707	2.1803944	1.4766159
21.036125466461375	2.2049928	1.4849218
21.053951998537297	2.2241442	1.4913565
21.071779045960906	2.2048342	1.4848684
21.089606609208378	2.1744697	1.4746083
21.10743468875603	2.2056336	1.4851376
21.12526328508028	2.2017648	1.4838345
21.143092398657675	2.2060323	1.4852718
21.16092202996488	2.202004	1.4839151
21.17875217947867	2.2080262	1.4859428
21.19658284767596	2.1959844	1.4818854
21.21441403503377	2.1839862	1.4778316
21.232245742029225	2.1947007	1.4814522
21.2500779691396	2.184996	1.4781731
21.26791071684227	2.1554914	1.4681592
21.28574398561475	2.1259527	1.4580647
21.30357777593465	2.1382422	1.462273
21.321412088279704	2.1310456	1.4598101
21.339246923127792	2.1341767	1.4608822
21.357082280956888	2.1397035	1.4627725
21.3749181622451	2.1508641	1.4665824
21.392754567470647	2.1338503	1.4607705
21.41059149711187	2.125002	1.4577386
21.42842895164726	2.1092315	1.4523194
21.446266931555378	2.1271343	1.4584699
21.464105437314945	2.1487067	1.4658468
21.481944469404798	2.1242087	1.4574665
21.49978402830388	2.1099832	1.4525781
21.51762411449127	2.0896015	1.4455454
21.53546472844617	2.100483	1.4493043
21.553305870647876	2.0980337	1.448459
21.571147541575865	2.0653362	1.4371278
21.58898974170967	2.0486882	1.4313239
21.60683247152899	2.0923662	1.4465014
21.62467573151363	2.089093	1.4453695
21.642519522143523	2.0858476	1.4442464
21.660363843898722	2.0740879	1.4401693
21.6782086972594	2.0885456	1.44518
21.696054082705864	2.0590603	1.4349426
21.713900000718535	2.0499446	1.4317628
21.73174645177795	2.05094	1.4321103
21.749593436364794	2.0492945	1.4315357
21.767440954959845	2.0474215	1.4308814
21.785289008044032	2.049863	1.4317343
21.803137596098388	2.060217	1.4353455
21.820986719604086	2.067117	1.4377472
21.838836379042412	2.0688412	1.4383467
21.85668657489478	2.049179	1.4314954
21.87453730764273	2.04715	1.4307865
21.892388577767914	2.0387878	1.4278613
21.91024038575213	2.0201654	1.4213252
21.928092732077285	1.9908308	1.4109681
21.945945617225426	1.9730941	1.4046687
21.963799041678694	1.970918	1.403894
21.981653005919398	31.285187	5.593316
21.999507510429943	78.111626	8.8380785
22.01736255569286	73.088066	8.549156
22.035218142190818	4.209419	2.0516868
22.05307427040661	2.042463	1.4291477
22.07093094082315	2.0117462	1.4183604
22.088788153923474	1.99864	1.4137326
22.106645910190746	1.9607897	1.400282
22.12450421010827	1.9467163	1.3952478
22.142363054159464	1.9420455	1.3935729
22.16022244282787	1.9304346	1.3894008
22.178082376597164	1.9577274	1.3991882
22.195942855951145	1.9845847	1.4087529
22.213803881373742	1.9835649	1.4083909
22.231665453349002	1.9639683	1.4014165
22.24952757236111	1.9708096	1.4038552
22.26739023889438	1.9812143	1.4075562
22.28525345343323	1.9697683	1.4034843
22.30311721646225	1.9722011	1.4043508
22.320981528466113	1.9858158	1.4091897
22.33884638992964	1.9806036	1.4073392
22.356711801337788	1.9529834	1.3974918
22.37457776317561	1.9365963	1.3916165
22.392444275928337	1.9339248	1.3906562
22.410311340081282	1.9672383	1.4025828
22.428178956119904	1.9820362	1.4078481
22.446047124529805	1.993937	1.4120684
22.46391584579669	1.9985949	1.4137167
22.481785120406414	1.9790329	1.4067811
22.49965494884496	1.9741048	1.4050283
22.51752533159841	1.9260262	1.3878134
22.53539626915302	1.9418988	1.3935204
22.553267761995137	1.9351166	1.3910847
22.571139810611264	1.9390242	1.3924885
22.589012415488025	1.9239928	1.3870807
22.60688557711216	1.9192339	1.3853642
22.624759295970566	1.9359893	1.3913983
22.642633572550263	1.9890168	1.410325
22.660508407338362	2.0239537	1.4226573
22.67838380082217	2.0179913	1.4205602
22.696259753489077	2.0056534	1.4162109
22.714136265826614	2.0022533	1.41501
22.73201333832246	2.0068047	1.4166174
22.74989097146439	2.000192	1.4142814
22.76776916574035	2.0111613	1.4181542
22.785647921638393	1.9881539	1.4100192
22.803527239646712	1.9535973	1.3977114
22.82140712025363	1.9278253	1.3884615
22.839287563947593	1.9637887	1.4013525
22.85716857121719	1.9745481	1.4051862
22.875050142551135	1.9331439	1.3903755
22.892932278438277	1.9182919	1.3850242
22.910814979367604	1.9481317	1.3957549
22.928698245828222	1.9711177	1.403965
22.946582078309387	1.9450709	1.394658
22.96446647730047	1.8834704	1.3723959
22.98235144329098	1.8366063	1.3552145
23.000236976770562	1.869908	1.3674458
23.018123078229	1.9143238	1.3835909
23.03600974815619	1.9391574	1.3925363
23.053896987042194	1.9420199	1.3935637
23.071784795377173	1.9598924	1.3999616
23.08967317365145	1.9748638	1.4052985
23.10756212235546	1.9429404	1.393894
23.125451641979787	1.9083142	1.3814175
23.143341733015134	1.8978724	1.3776329
23.161232395952357	1.9305751	1.3894514
23.179123631282426	1.9669862	1.4024929
23.197015439496468	1.9539075	1.3978224
23.214907821085717	1.9485694	1.3959117
23.23280077654157	1.9589708	1.3996323
23.250694306355538	1.9463286	1.3951088
23.268588411019277	1.9246185	1.3873062
23.28648309102458	1.9331965	1.3903943
23.304378346863356	1.9582403	1.3993714
23.322274179027676	1.9813465	1.4076031
23.340170588009723	1.9673641	1.4026276
23.358067574301852	1.9301943	1.3893143
23.37596513839651	1.9075357	1.3811357
23.39386328078629	1.9131398	1.383163
23.411762001963947	1.8978015	1.3776072
23.429661302422353	1.9013281	1.3788866
23.4475611826545	1.8892106	1.3744856
23.46546164315356	1.8913832	1.3752756
23.48336268441279	1.8885651	1.3742508
23.501264306925638	1.8855692	1.3731602
23.51916651118564	1.9026818	1.3793774
23.537069297686497	1.8951007	1.3766266
23.554972666922037	1.921943	1.3863416
23.57287661938623	1.9238887	1.3870431
23.59078115557318	1.9316108	1.389824
23.608686275977128	1.9100382	1.3820413
23.62659198109246	1.9492358	1.3961504
23.6444982714137	1.9754617	1.4055111
23.66240514743549	1.9337373	1.3905889
23.68031260965263	1.8998904	1.3783652
23.698220658560068	1.8773602	1.370168
23.716129294652845	1.9031796	1.3795577
23.7340385184262	1.9264416	1.387963
23.75194833037546	1.8987672	1.3779576
23.769858730996123	1.8627495	1.3648258
23.78776972078382	1.8768598	1.3699853
23.80568130023431	1.9321584	1.390021
23.823593469843495	1.9430097	1.3939189
23.841506230107424	1.9159478	1.3841777
23.859419581522275	1.9493289	1.3961837
23.87733352458438	1.9676794	1.40274
23.89524805979019	1.955586	1.3984227
23.913163187636318	1.9475409	1.3955432
23.931078908619508	1.9686142	1.4030732
23.948995223236633	1.9848232	1.4088376
23.966912131984735	1.9705244	1.4037536
23.98482963536096	1.9633775	1.4012058
24.002747733862616	1.9704252	1.4037184
24.020666427987155	1.9915159	1.4112108
24.038585718232156	2.0303457	1.424902
24.056505605095353	2.0627077	1.436213
24.074426089074617	2.104826	1.4508018
24.092347170667946	2.091047	1.4460453
24.110268850373515	2.086127	1.4443431
24.128191128689586	2.1071143	1.4515903
24.146114006114626	2.0775437	1.4413687
24.164037483147187	2.0734715	1.4399554
24.181961560286005	2.0062053	1.4164058
24.199886238029926	1.996135	1.4128464
24.21781151687797	2.0102992	1.4178503
24.235737397329274	2.0159285	1.419834
24.253663879883135	2.013819	1.4190909
24.271590965038975	2.026948	1.4237093
24.289518653296376	2.0378463	1.4275316
24.30744694515505	2.0472453	1.4308197
24.32537584111486	2.0014648	1.4147314
24.34330534167581	1.9542333	1.397939
24.361235447338046	1.9723095	1.4043894
24.379166158601876	2.0026858	1.4151628
24.39709747596772	2.035537	1.4267225
24.41502939993615	2.0453203	1.4301469
24.432961931007917	2.001802	1.4148505
24.450895069683856	1.9560411	1.3985854
24.468828816465	1.9436632	1.3941532
24.4867631718525	1.949744	1.3963324
24.504698136347656	1.9937458	1.4120007
24.52263371045192	1.990305	1.4107816
24.540569894666874	1.9674008	1.4026407
24.558506689494266	1.9321588	1.3900212
24.57644409543597	1.9168848	1.3845161
24.594382112994012	1.9246658	1.3873233
24.61232074267057	1.949734	1.3963288
24.630259984967953	2.0098126	1.4176786
24.64819984038863	2.0182726	1.4206592
24.66614030943522	2.0005755	1.414417
24.684081392610462	1.9947914	1.4123708
24.702023090417274	1.9682769	1.4029529
24.7199654033587	2.0026379	1.4151459
24.737908331937927	2.0380433	1.4276005
24.755851876658305	2.0825953	1.44312
24.773796038023324	2.0433993	1.4294752
24.79174081653661	2.0428174	1.4292716
24.809686212701962	2.0308502	1.425079
24.827632227023294	2.0729392	1.4397706
24.8455788600047	2.0728705	1.4397466
24.8635261121504	2.0868142	1.4445809
24.88147398396475	2.0912013	1.4460987
24.899422475952303	2.0806823	1.4424571
24.917371588617698	2.076675	1.4410673
24.935321322465768	2.101247	1.4495679
24.953271678001478	2.2578158	1.502603
24.97122265572994	2.492817	1.5788658
24.989174256156414	2.828871	1.6819248
25.00712647978632	3.272494	1.8090036
25.02507932712521	3.82513	1.955794
25.043032798678798	4.367486	2.089853
25.060986894952933	5.0502257	2.2472708
25.078941616453637	5.873679	2.4235675
25.096896963687055	6.842939	2.6159012
25.114852937159508	7.989046	2.8264902
25.132809537377444	8.470507	2.9104135
25.150766764847468	8.4871025	2.9132633
25.168724620076347	7.851782	2.802103
25.186683103570985	6.8477917	2.6168284
25.204642215838426	5.651465	2.377281
25.222601957385894	4.3074827	2.0754476
25.24056232872074	3.245618	1.8015599
25.25852333035048	2.6668062	1.6330359
25.276484962782778	2.2950354	1.5149374
25.294447226525435	2.0949094	1.4473802
25.312410122086423	2.0081227	1.4170824
25.330373649973843	1.9607785	1.400278
25.348337810695988	1.9712688	1.4040188
25.366302604761245	1.957061	1.39895
25.384268032678207	1.9329212	1.3902954
25.40223409495558	1.915401	1.3839802
25.420200792102257	1.9489439	1.3960458
25.438168124627246	1.9205742	1.3858478
25.45613609303974	1.910132	1.3820753
25.474104697849057	1.8651652	1.3657105
25.492073939564698	1.9237446	1.3869911
25.510043818696285	1.9287949	1.3888106
25.528014335753614	1.9148117	1.3837672
25.54598549124664	1.8693238	1.3672322
25.56395728568544	1.8574922	1.3628985
25.58192971958028	1.879062	1.3707888
25.59990279344156	1.8647722	1.3655666
25.617876507779833	1.8877785	1.3739645
25.635850863105826	1.8725166	1.3683993
25.653825859930386	1.8792537	1.3708588
25.671801498764548	1.9146326	1.3837025
25.68977778011949	1.9223558	1.3864905
25.707754704506524	1.8971087	1.3773557
25.725732272437153	1.828957	1.3523893
25.743710484423012	1.8354646	1.3547932
25.761689340975888	1.8218879	1.3497733
25.77966884260774	1.8323513	1.3536438
25.797648989830662	1.8640032	1.365285
25.815629783156922	1.8763598	1.3698028
25.83361122309895	1.8749241	1.3692787
25.85159331016929	1.862862	1.364867
25.869576044880695	1.8465929	1.358894
25.887559427746034	1.82978	1.3526936
25.90554345927836	1.8555957	1.3622025
25.92352813999086	1.8526304	1.3611137
25.94151347039689	1.8455703	1.3585176
25.959499451009965	1.8463471	1.3588035
25.97748608234374	1.8680401	1.3667626
25.995473364912062	1.8693621	1.3672462
26.013461299228904	1.8128972	1.3464388
26.03144988580839	1.809559	1.3451985
26.04943912516483	1.8376245	1.3555901
26.067429017812675	1.9004575	1.3785708
26.085419564266537	1.8759531	1.3696544
26.103410765041186	1.8573378	1.3628418
26.12140262065155	1.8241643	1.3506162
26.139395131612723	1.8297193	1.3526711
26.157388298439948	1.8595355	1.3636478
26.17538212164861	1.8451797	1.3583739
26.193376601754295	1.8698442	1.3674225
26.211371739272714	1.8525994	1.3611022
26.229367534719746	1.8413997	1.3569819
26.247363988611433	1.8333863	1.354026
26.26536110146397	1.8313262	1.353265
26.283358873793727	1.8483349	1.3595349
26.301357306117204	1.926414	1.3879532
26.319356398951104	1.9203838	1.3857791
26.33735615281224	1.8737775	1.3688599
26.35535656821762	1.8338163	1.3541847
26.373357645684404	1.8282084	1.3521125
26.39135938572991	1.8421733	1.3572669
26.409361788871614	1.8167751	1.347878
26.427364855627165	1.8166558	1.3478338
26.445368586514352	1.8267193	1.3515618
26.46337298205115	1.8612167	1.3642641
26.48137804275568	1.8689307	1.3670884
26.499383769146217	1.897953	1.3776622
26.517390161741215	1.8914542	1.3753015
26.53539722105928	1.8986844	1.3779275
26.553404947619182	1.9154727	1.384006
26.571413341939856	1.8704431	1.3676414
26.589422404540397	1.8119608	1.3460909
26.60743213594006	1.808637	1.3448558
26.62544253665827	1.8130109	1.346481
26.64345360721459	1.8055601	1.3437114
26.66146534812879	1.8031887	1.3428286
26.679477759920758	1.8420813	1.3572329
26.69749084311057	1.8627255	1.364817
26.71550459821847	1.8558643	1.3623011
26.733519025764842	1.8136463	1.3467169
26.751534126270258	1.7863073	1.3365281
26.769549900255434	1.7280791	1.3145642
26.787566348241267	1.6990297	1.3034683
26.80558347074881	1.7420361	1.3198621
26.823601268299267	1.7926471	1.3388977
26.841619741414036	1.8267438	1.3515708
26.85963889061465	1.8301811	1.3528419
26.877658716422832	1.8281529	1.352092
26.89567921936045	1.8103071	1.3454765
26.913700399949544	1.8181328	1.3483815
26.93172225871233	1.8013613	1.3421481
26.949744796171174	1.7771921	1.3331137
26.967768012848605	1.7638013	1.3280818
26.98579190926733	1.8095995	1.3452135
27.003816485950225	1.7787058	1.3336813
27.021841743420318	1.7741886	1.3319868
27.039867682200814	1.7916415	1.3385221
27.057894302815072	1.8024261	1.3425447
27.07592160578664	1.8246285	1.3507881
27.0939495916392	1.8488287	1.3597164
27.111978260896635	1.7944423	1.3395679
27.13000761408296	1.760814	1.3269566
27.148037651722397	1.7515291	1.3234534
27.166068374339304	1.7068851	1.3064781
27.184099782458215	1.7206761	1.3117454
27.20213187660384	1.7762073	1.3327442
27.22016465730105	1.8380854	1.3557601
27.23819812507487	1.8447788	1.3582263
27.256232280450533	1.7607858	1.326946
27.274267123953383	1.7872841	1.3368934
27.292302656108987	1.7891904	1.3376062
27.31033887744306	1.7923436	1.3387843
27.32837578848146	1.754069	1.3244127
27.34641338975026	1.7888659	1.337485
27.364451681775673	1.8248891	1.3508846
27.382490665084074	1.8077956	1.3445429
27.400530340202046	1.8125957	1.3463267
27.41857070765629	1.862386	1.3646927
27.436611767973726	1.8467773	1.3589618
27.454653521681404	1.800405	1.3417917
27.472695969306564	1.8067987	1.3441721
27.490739111376627	1.7923611	1.3387909
27.508782948419153	1.7793605	1.3339267
27.526827480961902	1.748894	1.3224576
27.54487270953279	1.8051399	1.343555
27.562918634659898	1.8677005	1.3666384
27.580965256871508	1.8546734	1.361864
27.599012576696026	1.8080337	1.3446314
27.617060594662068	1.7869534	1.3367698
27.63510931129842	1.7957306	1.3400487
27.65315872713401	1.8167534	1.34787
27.67120884269797	1.8280728	1.3520625
27.68925965851958	1.8321415	1.3535662
27.707311175128307	1.8135666	1.3466872
27.725363393053787	1.8018274	1.3423216
27.74341631282583	1.84706	1.3590659
27.7614699349744	1.8712527	1.3679373
27.77952426002968	2.0560536	1.4338945
27.797579288521973	2.1344342	1.4609703
27.815635020981784	2.5234838	1.5885477
27.83369145793979	2.583645	1.6073722
27.85174859992682	2.4015522	1.5496942
27.869806447473923	2.227107	1.4923495
27.887865001112267	1.9594785	1.3998138
27.905924261373233	1.9096727	1.3819091
27.92398422878836	1.9297918	1.3891695
27.94204490388936	1.9048744	1.3801719
27.96010628720813	1.8691145	1.3671557
27.978168379276728	1.846693	1.3589308
27.9962311806274	1.8801885	1.3711996
28.014294691792568	1.903724	1.379755
28.0323589133048	1.9018948	1.379092
28.050423845696887	1.8986505	1.3779153
28.068489489501758	1.8312135	1.3532233
28.086555845252523	1.8283602	1.3521687
28.104622913482487	1.8427832	1.3574915
28.122690694725115	1.8913358	1.3752584
28.14075918951405	1.9109051	1.382355
28.15882839838312	1.950857	1.3967309
28.176898321866304	1.9049261	1.3801906
28.1949689604978	1.8654723	1.3658229
28.213040314811945	1.87048	1.3676549
28.23111238534327	1.8862361	1.3734031
28.249185172626493	1.85597	1.3623399
28.267258677196473	1.8531711	1.3613123
28.285332899588294	1.8418337	1.3571417
28.303407840337172	1.870858	1.3677931
28.321483499978545	1.8949883	1.3765857
28.33955987904799	1.9381897	1.3921888
28.357636978081285	1.9586208	1.3995073
28.37571479761439	1.992651	1.4116129
28.393793338183425	2.0273433	1.423848
28.41187260032469	1.9937198	1.4119915
28.429952584574686	1.9531673	1.3975576
28.448033291470065	1.9668415	1.4024413
28.46611472154769	1.9918978	1.4113461
28.484196875344566	1.9669654	1.4024855
28.502279753397914	1.9892946	1.4104235
28.52036335624511	2.0054271	1.416131
28.538447684423716	2.0509272	1.4321059
28.556532738471482	2.083464	1.4434209
28.574618518926325	2.0599267	1.4352444
28.59270502632635	1.993004	1.4117379
28.61079226120985	1.982135	1.4078832
28.628880224115274	1.9681191	1.4028966
28.646968915581287	1.9478129	1.3956407
28.66505833614671	2.0149536	1.4194906
28.68314848635055	2.040739	1.4285444
28.701239366732004	2.0423079	1.4290934
28.71933097783044	2.0511672	1.4321897
28.737423320185403	2.0818462	1.4428605
28.75551639433665	2.1045983	1.4507234
28.773610200824074	2.0805278	1.4424034
28.791704740187793	2.0860496	1.4443163
28.80980001296809	2.1040392	1.4505306
28.827896019705413	2.1264422	1.4582325
28.845992760940433	2.1444128	1.4643813
28.86409023721397	2.1873927	1.4789836
28.88218844906704	2.254685	1.5015608
28.900287397040845	2.2859583	1.5119386
28.918387081676755	2.298328	1.5160238
28.936487503516343	2.3298738	1.5263925
28.954588663101365	2.3042095	1.5179622
28.97269056097374	2.2324555	1.4941404
28.990793197675597	2.2697518	1.5065695
29.00889657374923	2.3311012	1.5267944
29.027000689737125	2.4047139	1.550714
29.04510554618196	2.4271052	1.5579169
29.06321114362659	2.377165	1.5418057
29.08131748261405	2.3801072	1.5427595
29.099424563687567	2.3964937	1.5480613
29.11753238739057	2.4562557	1.5672446
29.13564095426663	2.557082	1.5990878
29.15375026485954	2.550514	1.5970329
29.171860319713275	2.5060859	1.5830622
29.18997111937199	2.634057	1.6229779
29.20808266438002	2.7482216	1.6577761
29.226194955281898	2.8081896	1.6757654
29.244307992622335	2.787539	1.6695925
29.26242177694624	2.8131745	1.677252
29.2805363087987	2.881233	1.6974195
29.29865158872498	2.9443486	1.7159104
29.316767617270557	2.9560473	1.7193159
29.334884394981064	2.9242237	1.7100362
29.353001922402367	2.953369	1.7185369
29.37112020008047	2.9800963	1.7262956
29.389239228561596	3.1369882	1.7711545
29.407359008392152	3.4211566	1.8496369
29.42547954011872	3.7201326	1.9287646
29.44360082428809	4.236624	2.058306
29.46172286144722	5.2241926	2.2856493
29.479845652143283	6.8444204	2.6161842
29.497969196923606	9.057481	3.0095649
29.516093496335728	11.801316	3.4353044
29.5342185509274	14.674184	3.8306897
29.55234436124651	17.245699	4.152794
29.570470927841175	18.62322	4.315463
29.588598251259686	18.383438	4.287591
29.60672633205055	17.179535	4.14482
29.624855170762405	15.041899	3.8783886
29.642984767944146	12.094199	3.4776716
29.66111512414481	9.19263	3.031935
29.67924623991366	6.745503	2.5972106
29.697378115800138	5.077937	2.2534277
29.71551075235387	4.0998216	2.0248015
29.733644150124675	3.6228142	1.9033692
29.751778309662576	3.3987968	1.8435826
29.769913231517766	3.3725495	1.8364502
29.78804891624066	3.3935893	1.8421698
29.806185364381818	3.3987885	1.8435804
29.82432257649206	3.4217093	1.8497863
29.842460553122333	3.421366	1.8496935
29.86059929482382	3.3594835	1.8328894
29.878738802147872	3.3369834	1.8267412
29.896879075646048	3.2518992	1.8033023
29.915020115870114	3.1869717	1.7852092
29.933161923371976	3.1517892	1.7753279
29.951304498703777	3.1478705	1.7742239
29.969447842417857	3.1762264	1.7821971
29.987591955066733	3.2613604	1.8059237
30.005736837203123	3.2761698	1.8100193
30.023882489379943	3.2374117	1.7992809
30.04202891215028	3.1961372	1.7877743
30.060176106067455	3.2092357	1.7914339
30.078324071684946	3.1811085	1.7835662
30.09647280955646	3.2027555	1.7896243
30.114622320235863	3.2125072	1.7923468
30.132772604277257	3.1306922	1.7693763
30.1509236622349	3.102266	1.7613251
30.16907549466328	3.1422932	1.7726514
30.18722810211705	3.176479	1.7822679
30.205381485151097	3.0969787	1.7598234
30.22353564432045	3.0472565	1.7456393
30.241690580180403	3.045188	1.7450467
30.25984629328638	2.978083	1.7257123
30.278002784194037	2.9175828	1.7080933
30.296160053459246	2.9244752	1.7101097
30.314318101638033	2.9132955	1.7068379
30.332476929286646	2.9208465	1.7090484
30.35063653696153	2.9356778	1.713382
30.368796925219307	2.9691474	1.7231214
30.386958094616844	2.937321	1.7138615
30.40512004571115	2.908241	1.7053566
30.423282779059463	2.9197795	1.7087362
30.441446295219233	2.8756466	1.6957731
30.459610594748067	2.7266304	1.6512512
30.47777567820382	2.7013116	1.6435667
30.495941546144504	2.733885	1.6534464
30.51410819912835	2.769613	1.6642154
30.532275637713795	2.82805	1.6816807
30.55044386245946	2.883326	1.698036
30.56861287392416	2.8821287	1.6976833
30.586782672666956	2.8657558	1.6928543
30.604953259247047	2.8626807	1.6919458
30.623124634223885	2.8843882	1.6983486
30.641296798157075	2.8648977	1.6926008
30.659469751606462	2.8184714	1.6788304
30.677643495132074	2.7629235	1.6622044
30.695818029294152	2.7274518	1.6514999
30.713993354653116	2.7606819	1.66153
30.73216947176962	2.7912693	1.6707093
30.75034638120448	2.785503	1.6689826
30.768524083518756	2.664342	1.6322812
30.786702579273673	2.6335099	1.6228093
30.80488186903069	2.6795554	1.6369348
30.82306195335144	2.913576	1.70692
30.841242832797782	3.164016	1.7787681
30.85942450793176	3.4569867	1.8592974
30.877606979315637	3.7528305	1.9372224
30.895790247511883	4.15903	2.03937
30.913974313083134	4.543619	2.1315768
30.932159176592283	4.8166986	2.1946979
30.95034483860237	4.8032336	2.191628
30.968531299676698	4.571408	2.1380851
30.98671856037873	4.331928	2.0813284
31.00490662127215	4.0294566	2.0073507
31.023095482920848	3.6002598	1.8974351
31.04128514588892	3.1613843	1.7780282
31.059475610740662	2.8150055	1.6777978
31.07766687804056	2.583615	1.6073627
31.09585894835335	2.5207396	1.5876837
31.11405182224393	2.5124002	1.5850552
31.132245500277417	2.48182	1.5753794
31.15043998301914	2.4694304	1.5714421
31.168635271034628	2.4505992	1.565439
31.18683136488964	2.4440446	1.563344
31.20502826515008	2.448218	1.5646783
31.223225972382135	2.4174025	1.5547998
31.241424487152155	2.421938	1.5562577
31.259623810026692	2.4285417	1.5583779
31.27782394157253	2.382393	1.5435002
31.296024882356644	2.3283544	1.5258946
31.314226632946237	2.3323858	1.527215
31.332429193908684	2.3747754	1.5410306
31.350632565811598	2.3762674	1.5415146
31.368836749222787	2.3778524	1.5420287
31.387041744710295	2.4615996	1.5689485
31.40524755284232	2.613658	1.6166811
31.423454174187317	2.651922	1.6284723
31.441661609313922	2.6166015	1.6175913
31.459869858791002	2.4790595	1.574503
31.478078923187628	2.3903685	1.5460817
31.496288803073064	2.3710284	1.5398144
31.514499499016807	2.380783	1.5429786
31.532711011588546	2.366143	1.5382272
31.550923341358178	2.3679183	1.5388042
31.56913648889584	2.373533	1.5406275
31.587350454771844	2.3350961	1.5281022
31.605565239556732	2.3323212	1.5271939
31.62378084382127	2.4127338	1.5532978
31.641997268136382	2.3942013	1.5473207
31.660214513073274	2.3242033	1.5245337
31.67843257920331	2.301206	1.5169727
31.6966514670981	2.2912989	1.5137037
31.71487117732944	2.3008823	1.516866
31.733091710469346	2.2987905	1.5161762
31.751313067090052	2.31314	1.520901
31.769535247764008	2.3487322	1.5325574
31.787758253063878	2.3113985	1.5203284
31.805982083562526	2.2872193	1.5123556
31.824206739833024	2.3344562	1.5278927
31.84243222244869	2.3326979	1.5273172
31.860658531983013	2.2105284	1.4867846
31.878885669009737	2.2308967	1.4936186
31.897113634102784	2.2452338	1.4984105
31.91534242783632	2.2517595	1.5005864
31.933572050784694	2.2140656	1.4879737
31.951802503522508	2.2256246	1.4918528
31.970033786624548	2.2280657	1.4926707
31.988265900665834	2.2198808	1.4899265
32.006498846221575	2.1699061	1.4730601
32.02473262386724	2.1656983	1.4716312
32.04296723417845	2.180313	1.4765884
32.0612026777311	2.240242	1.4967438
32.07943895510129	2.2977753	1.5158415
32.097676066865304	2.2235565	1.4911594
32.115914013599685	2.160576	1.4698899
32.13415279588115	2.1531296	1.4673547
32.152392414286666	2.0745304	1.440323
32.1706328693934	2.0763218	1.4409448
32.18887416177875	2.0885866	1.4451942
32.20711629202032	2.084337	1.4437233
32.225359260695924	2.0872931	1.4447467
32.243603068383614	2.12524	1.4578203
32.26184771566166	2.1468666	1.4652189
32.28009320310852	2.0571241	1.4342678
32.2983395313029	2.0548253	1.4334662
32.31658670082372	2.0975673	1.4482981
32.33483471225012	2.177366	1.4755901
32.35308356616143	2.1892033	1.4795957
32.371333263137245	2.189732	1.4797744
32.38958380375734	2.1644201	1.4711969
32.407835188601744	2.1469665	1.465253
32.42608741825067	2.1366675	1.4617344
32.444340493284585	2.0783784	1.4416583
32.46259441428416	2.0921695	1.4464334
32.48084918183028	2.207355	1.485717
32.49910479650405	2.226107	1.4920144
32.51736125888683	2.1408215	1.4631547
32.53561856956014	2.0516658	1.4323637
32.5538767291058	2.0207121	1.4215175
32.572135738105764	2.069755	1.4386643
32.59039559714228	2.1149735	1.4542949
32.608656306797776	2.0435023	1.4295112
32.62691786765491	1.9360579	1.391423
32.645180280296586	1.9073751	1.3810775
32.663443545305896	1.9418366	1.393498
32.68170766326619	1.9559736	1.3985612
32.69997263476099	2.0410252	1.4286445
32.7182384603741	2.0788307	1.441815
32.7365051406895	2.027592	1.4239354
32.75477267629144	1.9374254	1.3919142
32.77304106776434	1.919232	1.3853635
32.79131031569289	1.9143116	1.3835865
32.809580420661966	2.0271595	1.4237835
32.827851383256714	2.1092489	1.4523253
32.84612320406245	2.089005	1.4453391
32.86439588366476	2.0192459	1.4210017
32.88266942264945	2.0217261	1.4218742
32.9009438216025	2.0313315	1.4252479
32.9192190811102	2.0301955	1.4248493
32.937495201758985	2.0005617	1.4144121
32.95577218413556	1.9404764	1.3930098
32.974050028826866	1.8209599	1.3494295
32.992328736420035	1.8831245	1.3722699
33.010608307502444	1.9684579	1.4030174
33.02888874266169	2.012096	1.4184836
33.047170042485604	1.9956005	1.4126573
33.06545220756225	2.01525	1.419595
33.083735238479896	2.0264895	1.4235482
33.10201913582707	1.9745321	1.4051805
33.12030390019248	1.9847212	1.4088013
33.138589532165135	2.0422578	1.4290758
33.15687603233419	1.9942181	1.4121679
33.17516340128909	1.9526852	1.3973851
33.19345163961947	1.9687333	1.4031156
33.211740747915215	1.8932227	1.3759443
33.23003072676643	1.8239952	1.3505536
33.248321576763466	1.9278581	1.3884733
33.266613298496885	2.0230658	1.4223452
33.28490589255747	1.9379727	1.3921108
33.30319935953626	1.9140389	1.3834879
33.32149370002451	1.9965769	1.4130028
33.339788914613706	1.9866637	1.4094906
33.358085003895575	1.9967241	1.413055
33.376381968462034	2.0009723	1.4145572
33.39467980890529	2.0351317	1.4265804
33.41297852581774	1.9987313	1.413765
33.43127811979204	1.8989831	1.378036
33.44957859142105	1.9397346	1.3927436
33.467879941297866	1.9147832	1.3837569
33.486182170015844	1.9141405	1.3835247
33.50448527816853	1.9310027	1.3896053
33.522789266349754	1.8861891	1.373386
33.541094135153514	1.8634212	1.3650719
33.55939988517411	1.9077655	1.3812188
33.57770651700602	2.0020723	1.4149461
33.59601403124398	2.0029314	1.4152496
33.61432242848296	1.8691442	1.3671665
33.632631709318154	1.760283	1.3267566
33.650941874344994	1.8345177	1.3544437
33.66925292415916	1.9170493	1.3845755
33.68756485935654	1.9772534	1.4061484
33.70587768053328	1.9755352	1.4055374
33.724191388285746	1.9550567	1.3982334
33.74250598321054	1.9431481	1.3939685
33.760821465904506	1.9243991	1.3872272
33.77913783696474	1.9818231	1.4077724
33.79745509698852	2.0838416	1.4435517
33.815773246573414	2.1103973	1.4527206
33.8340922863172	2.0053074	1.4160888
33.852412216817896	2.0609736	1.4356091
33.87073303867377	2.0925884	1.4465781
33.889054752483304	1.9810729	1.4075059
33.907377358845245	1.927197	1.3882352
33.92570085835853	1.9311662	1.389664
33.94402525162239	1.9225662	1.3865663
33.96235053923627	1.9535224	1.3976847
33.980676721799824	1.9937195	1.4119914
33.999003799912984	2.1133342	1.4537312
34.01733177417592	2.0338676	1.4261373
34.03566064518901	1.8445231	1.3581322
34.0539904135529	1.7436911	1.3204889
34.07232107986846	1.7344437	1.3169827
34.090652644736785	1.8166744	1.3478407
34.108985108759235	1.9572966	1.3990341
34.12731847253742	1.878478	1.3705758
34.14565273667313	1.8070327	1.3442591
34.16398790176847	1.855427	1.3621407
34.18232396842574	1.8587596	1.3633634
34.20066093724749	1.8640827	1.3653141
34.21899880883651	1.9376335	1.391989
34.23733758379583	1.9168745	1.3845124
34.25567726272874	1.8931696	1.3759251
34.27401784623872	1.8279443	1.3520149
34.29235933492957	1.8589365	1.3634282
34.31070172940526	1.8697779	1.3673983
34.32904503027003	1.9891279	1.4103644
34.347389238128386	2.0521486	1.4325322
34.36573435358502	1.9814016	1.4076227
34.38408037724492	1.9935908	1.4119458
34.402427309713296	2.0854292	1.4441016
34.42077515159559	2.1421835	1.4636201
34.43912390349752	2.0599167	1.435241
34.45747356602499	2.0982373	1.4485294
34.47582413978423	2.0114105	1.418242
34.49417562538163	1.9531306	1.3975445
34.51252802342388	1.9390497	1.3924977
34.53088133451789	1.8609666	1.3641725
34.54923555927084	1.7954385	1.3399397
34.567590698290104	1.878306	1.3705131
34.58594675218336	2.0127532	1.4187154
34.6043037215585	2.0160675	1.4198829
34.62266160702365	1.9808464	1.4074254
34.641020409187234	1.9436592	1.3941518
34.65938012865785	1.862683	1.3648015
34.677740766044394	1.9741786	1.4050547
34.69610232195598	2.1404078	1.4630133
34.714464797002016	2.102035	1.4498397
34.73282819179208	2.0326998	1.4257278
34.751192506936064	2.1848927	1.4781382
34.76955774304408	2.1299872	1.4594476
34.7879239007265	1.9940435	1.412106
34.80629098059391	1.9582195	1.399364
34.824658983257194	1.8992748	1.3781418
34.843027909327446	1.904336	1.3799767
34.86139775941603	2.0156102	1.4197218
34.879768534134534	2.0472765	1.4308307
34.89814023409483	2.0288603	1.4243807
34.91651285990901	2.015235	1.4195898
34.93488641218944	1.9586419	1.3995149
34.95326089154871	1.925058	1.3874646
34.97163629859967	1.8631448	1.3649706
34.99001263395542	1.8742555	1.3690345
35.00838989822934	1.822369	1.3499515
35.02676809203499	1.8696992	1.3673694
35.04514721598624	2.0753322	1.4406013
35.063527270697215	2.0684268	1.4382026
35.081908256782256	1.9743989	1.405133
35.10029017485597	1.9353547	1.3911703
35.11867302553321	1.8165052	1.3477778
35.137056809429104	1.7991306	1.3413167
35.155441527159006	1.77717	1.3331053
35.173827179338524	1.7260449	1.3137903
35.19221376658354	1.9042656	1.3799514
35.21060128951017	2.1345494	1.4610097
35.2289897487348	1.9978901	1.4134674
35.24737914487405	1.8344313	1.3544118
35.26576947854479	1.8687228	1.3670124
35.28416075036418	2.0344498	1.4263414
35.30255296094958	2.2912202	1.5136777
35.32094611091867	2.3896582	1.545852
35.33934020088932	1.9757127	1.4056004
35.35773523147969	1.5630509	1.2502203
35.3761312033082	1.7735134	1.3317332
35.394528116993506	1.8293633	1.3525395
35.41292597315452	1.5167714	1.2315727
35.431324772410434	1.4516237	1.2048335
35.449724515380666	1.6980984	1.3031111
35.46812520268491	2.2357433	1.4952402
35.486526834943106	2.3450239	1.531347
35.504929412775454	2.1899815	1.4798586
35.52333293680242	2.089008	1.4453402
35.54173740764471	1.9240787	1.3871117
35.560142825923286	1.6454867	1.2827653
35.5785491922594	1.1071925	1.0522321
35.59695650727454	0.6769928	0.8227957
35.61536477159042	0.6149216	0.7841694
