0.008763373481513119	0.61777776	0.7859884
0.026290120649546365	0.5194514	0.72072977
0.043816868432600686	0.4718481	0.686912
0.06134361724069026	0.2712566	0.520823
0.07887036748382949	0.16611418	0.40757108
0.0963971195720331	0.11230114	0.3351136
0.11392387391531617	0.1951832	0.44179544
0.1314506309236943	0.22607508	0.47547352
0.1489773910071836	0.21487029	0.46354103
0.16650415457580078	0.13988164	0.37400755
0.18403092203956356	0.124630444	0.35303038
0.20155769380849	0.10432789	0.3229983
0.2190844702925996	0.105044976	0.32410643
0.2366112519019124	0.092090406	0.303464
0.2541380390464497	0.08853126	0.29754204
0.27166483213623416	0.12063872	0.34733084
0.28919163158128947	0.14635885	0.38256875
0.3067184377916406	0.1762616	0.4198352
0.324245251177314	0.15875296	0.39843816
0.34177207214833777	0.098510765	0.31386423
0.3592989011147415	0.1000819	0.31635723
0.37682573848655654	0.08744537	0.29571164
0.39435258467381573	0.102714255	0.32049066
0.41187944008655414	0.15157034	0.38932034
0.42940630513480854	0.16411482	0.40511087
0.446933180228618	0.1489365	0.3859229
0.4644600657780234	0.137391	0.37066293
0.48198696219306775	0.138442	0.37207794
0.49951386988379676	0.13900776	0.37283745
0.5170407892602581	0.13272646	0.36431643
0.5345677207325025	0.13436761	0.3665619
0.5520946647105822	0.15222582	0.39016128
0.5696216216045534	0.16509905	0.40632382
0.5871485918244737	0.17947848	0.423649
0.6046755757804043	0.17860633	0.42261842
0.6222025738824094	0.19001985	0.43591267
0.6397295865405557	0.1879584	0.4335417
0.6572566141649129	0.18965034	0.4354886
0.6747836571655547	0.16747619	0.40923855
0.6923107159525568	0.19320652	0.43955263
0.7098377909359992	0.19130065	0.4373793
0.7273648825259653	0.20503184	0.45280442
0.7448919911325411	0.18747127	0.43297952
0.762419117165817	0.18897235	0.43470952
0.7799462610358868	0.16497134	0.40616664
0.7974734231528482	0.15313523	0.39132497
0.8150006039268024	0.16889726	0.4109711
0.8325278037678551	0.16308343	0.4038359
0.8500550230861152	0.19166654	0.43779737
0.8675822622916969	0.18270625	0.4274415
0.8851095217947171	0.18347551	0.4283404
0.9026368020052984	0.16789451	0.40974933
0.9201641033335665	0.17330225	0.41629586
0.9376914261896523	0.2252125	0.4745656
0.9552187709836915	0.26466367	0.5144547
0.9727461381258234	0.31813306	0.56403285
0.990273528026193	0.30951378	0.5563396
1.0078009410949496	0.27617005	0.52551883
1.0253283777422473	0.2360866	0.48588744
1.0428558383782454	0.2619053	0.51176685
1.0603833234131086	0.25302106	0.503012
1.0779108332570058	0.30111107	0.54873586
1.0954383683201119	0.34123594	0.584154
1.112965929012607	0.3866327	0.621798
1.1304935157446763	0.4335194	0.6584219
1.1480211289265108	0.46647298	0.6829883
1.1655487689683062	1.1446003	1.06986
1.1830764362802655	1.4008343	1.1835685
1.200604131272596	1.8353349	1.3547453
1.2181318543555117	2.2685978	1.5061865
1.235659605939232	2.4215145	1.5561216
1.253187386433982	4.044103	2.0109956
1.270715196249994	6.4301863	2.5357811
1.2882430357975057	11.52225	3.394444
1.3057709054867608	16.124964	4.01559
1.3232988057280106	21.845472	4.673914
1.3408267369315112	26.845785	5.181292
1.358354699507526	30.422781	5.515685
1.3758826938663256	34.282944	5.855164
1.3934107204181858	36.298462	6.0248203
1.410938779573391	36.897327	6.074317
1.4284668717422309	37.600235	6.131903
1.4459949973350033	37.354576	6.111839
1.4635231567620117	37.134758	6.0938296
1.4810513504335687	36.591072	6.0490556
1.4985795787599925	35.70353	5.975243
1.5161078421516088	35.436184	5.95283
1.5336361410187505	34.672245	5.8883142
1.5511644757717598	34.59555	5.8817983
1.5686928468209842	35.2241	5.9349895
1.58622125457678	35.656933	5.9713426
1.6037496994495108	36.831547	6.0689
1.621278181849548	36.755634	6.0626426
1.6388067021872719	37.601467	6.1320033
1.6563352608730693	36.817574	6.0677485
1.673863858317336	35.9198	5.993313
1.6913924949304753	35.371567	5.9474
1.7089211711228998	34.332027	5.859354
1.7264498873050296	33.492878	5.787303
1.7439786438872935	32.820484	5.7289166
1.7615074412801288	31.853949	5.6439304
1.779036279893981	31.023703	5.5698924
1.796565160139305	29.707644	5.450472
1.814094082426564	29.122204	5.396499
1.8316230471662298	28.490366	5.337637
1.849152054768784	27.792835	5.271891
1.8666811056447168	27.377861	5.2323856
1.8842102002045273	26.52955	5.1506844
1.901739338858724	25.66562	5.066125
1.9192685220178245	24.757317	4.9756722
1.9367977500923557	24.08585	4.9077334
1.9543270234928547	23.954796	4.894364
1.971856342629867	23.501654	4.8478503
1.9893857079139496	23.37263	4.8345246
2.006915119755667	22.96837	4.792533
2.0244445785655945	22.25666	4.7176967
2.0419740847543175	21.430819	4.629343
2.0595036387324317	20.808277	4.5616093
2.0770332409105414	20.49374	4.5270014
2.094562891699263	20.434685	4.520474
2.1120925915092217	19.968544	4.468618
2.129622340751053	19.426306	4.4075284
2.1471521398354043	187.49046	13.692716
2.1646819891729323	443.80743	21.066738
2.182211889174303	440.06805	20.977798
2.1997418402501974	452.469	21.271318
2.2172718428113023	432.43063	20.794966
2.234801897268317	320.4716	17.90172
2.2523320040319548	17.02397	4.1260114
2.269862163512935	16.754665	4.0932465
2.287392376121992	16.415794	4.051641
2.304922642269869	15.947066	3.993378
2.322452962367322	15.599582	3.9496305
2.3399833368251164	15.37811	3.9214933
2.357513766054032	15.259845	3.9063852
2.3750442504648586	15.028832	3.8767037
2.3925747904683963	14.765282	3.842562
2.410105386475459	14.4387245	3.799832
2.4276360388968707	14.1014185	3.7551856
2.445166748143469	13.90819	3.7293684
2.4626975146261025	13.558027	3.6821227
2.4802283387556323	13.281305	3.6443524
2.4977592209429305	13.086066	3.617467
2.5152901615988825	12.935823	3.5966406
2.5328211611343865	12.81313	3.5795434
2.5503522199603523	12.6402645	3.555315
2.5678833384877024	12.446532	3.5279644
2.5854145171273712	12.288282	3.5054646
2.6029457562903064	12.029831	3.4684048
2.620477056387469	11.773527	3.4312575
2.6380084178298326	11.545055	3.3978016
2.655539841028383	11.350873	3.3691056
2.673071326394119	11.149252	3.3390496
2.6906028743380523	10.894292	3.3006501
2.708134485271211	10.872947	3.2974153
2.7256661596046325	10.806677	3.2873511
2.743197897749369	10.687959	3.2692444
2.760729700116486	10.390242	3.2233899
2.778261567117063	9.947232	3.1539233
2.795793499162193	9.685978	3.1122303
2.8133254966629817	9.591698	3.0970466
2.830857560030551	9.662092	3.1083906
2.8483896896760337	9.718963	3.117525
2.865921886010578	9.673329	3.1101975
2.883454149445347	9.399442	3.065851
2.9009864803915177	9.311889	3.0515387
2.91851887926028	9.227011	3.0375996
2.9360513464628384	9.200747	3.0332732
2.953583882410413	8.886492	2.981022
2.9711164875142373	8.661589	2.9430578
2.9886491621855606	8.592283	2.9312596
3.0061819068356455	8.554829	2.9248638
3.023714721875769	8.372413	2.8935122
3.041247607717225	8.175769	2.8593302
3.0587805647713213	8.040374	2.8355553
3.0763135934493806	8.099765	2.8460085
3.0938466941627407	8.004869	2.8292878
3.1113798673227544	7.928216	2.8157089
3.1289131133407904	7.783205	2.7898395
3.1464464326282315	7.6206245	2.7605479
3.1639798255964786	7.6168528	2.7598646
3.1815132926569443	7.594929	2.75589
3.1990468342210603	7.5963902	2.756155
3.216580450700272	7.372827	2.715295
3.2341141425060416	7.219066	2.686832
3.251647910049847	7.1508355	2.6741047
3.2691817537431813	7.150375	2.6740184
3.286715673997555	7.0276604	2.6509736
3.3042496712244938	6.8707576	2.621213
3.32178374583554	6.757977	2.599611
3.339317898242251	6.78248	2.6043193
3.3568521288562034	6.7778206	2.6034248
3.3743864380889876	6.8494315	2.617142
3.3919208263522127	6.856326	2.6184587
3.4094552940575023	6.6691017	2.5824604
3.4269898416164972	6.4979367	2.5491052
3.444524469440858	6.2952943	2.5090425
3.4620591779422587	6.222219	2.4944377
3.479593967532391	6.211146	2.492217
3.4971288386229658	6.168615	2.4836695
3.5146637916257086	6.3032846	2.5106344
3.5321988269523628	6.350494	2.5200186
3.5497339450146903	6.3991413	2.5296524
3.5672691462244708	6.39965	2.529753
3.5848044309934988	6.300423	2.5100644
3.60233979973359	6.2415957	2.4983187
3.619875252856575	6.1954775	2.4890716
3.6374107907743034	6.2327113	2.4965398
3.6549464138986427	6.2021775	2.4904172
3.6724821226414788	6.1888967	2.4877493
3.690017917414714	6.271117	2.5042198
3.7075537986302702	6.300197	2.5100193
3.7250897667000857	6.3049183	2.5109596
3.7426258220361235	6.445539	2.5388067
3.7601619650503553	6.7346196	2.5951145
3.777698196154779	7.2520995	2.6929722
3.7952345157614067	8.181519	2.8603354
3.8127709242822716	8.899522	2.9832067
3.830307422129425	10.845946	3.2933185
3.847844009714936	12.274017	3.5034294
3.8653806874508954	15.580861	3.94726
3.882917455749409	15.1928625	3.8978024
3.900454315022606	15.2305975	3.9026399
3.917991265682631	12.377951	3.5182312
3.9355283081416506	10.679722	3.2679844
3.9530654428118495	8.735987	2.9556704
3.970602670105433	7.4982014	2.7382843
3.9881399904346244	6.476293	2.5448563
4.005677404211669	6.3363547	2.5172117
4.023214911848827	6.3246713	2.51489
4.0407525137583855	6.389329	2.527712
4.058290210352644	6.447972	2.5392857
4.075828002043927	6.4125595	2.532303
4.0933658892445814	6.369338	2.5237548
4.110903872366966	6.286399	2.5072691
4.128441951823468	6.2118387	2.492356
4.145980128026488	6.166297	2.483203
4.163518401388452	6.101304	2.4700818
4.181056772321807	6.101748	2.4701717
4.1985952412390155	6.036812	2.4569924
4.216133808552567	6.013363	2.452216
4.233672474674966	6.0764832	2.4650524
4.251211240018741	6.3220954	2.5143778
4.268750104996445	6.623262	2.5735698
4.286289070020643	7.5719624	2.75172
4.303828135503928	9.175281	3.0290725
4.3213673018589125	29.267437	5.409939
4.3389065694982305	90.44906	9.510471
4.356445938834537	165.66727	12.87118
4.3739854102805085	171.62744	13.100666
4.391524984248844	172.61589	13.138337
4.409064661152262	136.68208	11.691112
4.426604441403504	96.96991	9.84733
4.444144325415337	75.48368	8.688134
4.461684313600543	21.447865	4.631184
4.47922440637193	21.723022	4.660796
4.496764604142329	19.88126	4.458841
4.5143049073245916	18.145752	4.2597833
4.531845316331589	15.954366	3.9942915
4.5493858315762195	13.329927	3.6510174
4.566926453471405	11.039107	3.3225152
4.584467182430081	9.334366	3.0552194
4.602008018865218	8.1831	2.8606117
4.619548963189798	7.4118295	2.7224674
4.637090015816834	6.951861	2.6366382
4.654631177159353	6.6009383	2.5692291
4.672172447630417	6.4474745	2.5391877
4.689713827643102	6.2276745	2.4955308
4.7072553176105085	5.9813905	2.4456882
4.724796917945764	5.749806	2.3978753
4.742338629062015	5.627572	2.3722503
4.759880451372434	5.6365204	2.3741357
4.777422385290215	5.6435432	2.3756144
4.794964431228581	5.622975	2.3712814
4.812506589600768	5.5717325	2.3604517
4.830048860820047	5.510584	2.3474634
4.847591245299709	5.4727035	2.339381
4.8651337434530655	5.4648314	2.337698
4.882676355693457	5.460457	2.336762
4.900219082434242	5.496082	2.3443723
4.917761924088813	5.511754	2.3477125
4.935304881070575	5.556358	2.3571928
4.952847953792969	5.4743967	2.339743
4.970391142669449	5.452729	2.335108
4.9879344481135055	5.4572225	2.3360698
5.005477870538642	5.3708973	2.3175197
5.023021410358394	5.413306	2.3266513
5.040565067986324	5.3825912	2.3200412
5.05810884383601	5.330575	2.3088038
5.075652738321066	5.315894	2.3056223
5.09319675185512	5.2227497	2.2853336
5.110740884851836	5.2196884	2.2846637
5.128285137724894	5.1544228	2.2703354
5.145829510888007	5.1061735	2.2596843
5.163374004754908	5.1544466	2.2703407
5.1809186197393595	5.245101	2.2902186
5.198463356255145	5.245222	2.290245
5.216008214716077	5.211308	2.282829
5.233553195535998	5.172989	2.2744205
5.251098299128764	5.237773	2.288618
5.268643525908272	5.3063197	2.303545
5.286188876288432	5.270723	2.2958055
5.3037343506831895	5.2282557	2.286538
5.32127994950651	5.249416	2.2911603
5.3388256731723915	5.315524	2.305542
5.356371522094851	5.292676	2.3005817
5.373917496687938	5.173302	2.2744894
5.391463597365729	5.114538	2.2615345
5.40900982454232	5.0420737	2.2454562
5.426556178631843	5.124122	2.2636523
5.444102660048449	5.1048856	2.2593994
5.4616492692063225	5.1409473	2.2673657
5.479196006519669	5.179413	2.2758324
5.496742872402727	5.196265	2.2795317
5.514289867269756	5.1269875	2.264285
5.531836991535049	5.0803256	2.2539577
5.549384245612924	5.041207	2.245263
5.566931629917724	5.0833645	2.2546318
5.584479144863822	5.078999	2.2536635
5.6020267908656205	5.1003194	2.2583888
5.619574568337545	5.1051173	2.2594507
5.637122477694054	5.1021495	2.2587938
5.654670519349629	5.066286	2.2508411
5.672218693718784	4.999879	2.2360408
5.689767001216059	5.0374727	2.2444315
5.707315442256021	5.0678406	2.2511864
5.724864017253266	5.147295	2.268765
5.7424127266224225	5.199132	2.2801604
5.75996157077814	5.1895266	2.2780533
5.777510550135105	5.17498	2.2748582
5.795059665108022	5.145162	2.268295
5.812608916111639	5.173496	2.274532
5.830158303560715	5.269157	2.2954645
5.847707827870055	5.306494	2.303583
5.86525748945448	5.3826227	2.320048
5.8828072887288485	5.4446816	2.3333843
5.900357226108044	5.539104	2.3535302
5.917907302006979	5.627759	2.37229
5.9354575168406	6.1280136	2.4754825
5.9530078710238765	6.5786886	2.5648954
5.970558364971812	7.0746465	2.6598208
5.988108999099438	7.395633	2.7194912
6.005659773821818	7.962436	2.821779
6.023210689554039	7.7311573	2.780496
6.040761746711227	8.11794	2.8491998
6.058312945708531	7.494437	2.737597
6.075864286961132	7.046205	2.6544688
6.093415770884244	6.4252386	2.5348055
6.1109673978931065	5.955091	2.4403055
6.128519168402993	5.402928	2.32442
6.146071082829204	5.2625017	2.2940142
6.163623141587075	5.1728024	2.2743795
6.181175345091969	5.187347	2.2775748
6.198727693759281	5.198255	2.2799683
6.216280188004435	5.231342	2.2872126
6.233832828242885	5.2345243	2.2879083
6.251385614890126	5.1860924	2.2772994
6.268938548361669	5.193138	2.2788458
6.286491629073067	5.088388	2.2557456
6.304044857439898	5.056663	2.2487025
6.321598233877777	4.892096	2.2118082
6.339151758802344	4.834116	2.1986623
6.356705432629277	4.7789807	2.186088
6.37425925577428	4.810852	2.1933656
6.391813228653095	4.805617	2.1921718
6.409367351681486	4.801386	2.1912065
6.426921625275259	4.8712044	2.2070806
6.44447604985025	4.9410768	2.2228532
6.46203062582232	4.9713745	2.229658
6.47958535360737	5.0158544	2.2396102
6.497140233621328	4.9678855	2.2288754
6.514695266280161	4.981802	2.231995
6.532250451999859	4.928984	2.2201316
6.549805791196454	4.8778887	2.2085943
6.567361284286002	4.893641	2.2121575
6.584916931684597	4.910589	2.2159848
6.602472733808367	4.907375	2.2152596
6.6200286910734665	4.857671	2.2040124
6.637584803896092	4.799761	2.1908357
6.655141072692462	4.8197746	2.1953986
6.672697497878842	4.901899	2.214023
6.690254079871514	4.9458737	2.223932
6.707810819086808	4.95385	2.2257245
6.725367715941078	4.891913	2.211767
6.742924770850719	4.866483	2.2060108
6.760481984232151	4.8487463	2.2019868
6.778039356501836	4.855823	2.2035933
6.795596888076266	4.9441786	2.2235508
6.813154579371963	4.873866	2.2076833
6.830712430805492	4.8328514	2.1983747
6.84827044279344	4.7990127	2.190665
6.865828615752445	4.8323355	2.1982574
6.883386950099159	4.95221	2.225356
6.900945446250287	5.01334	2.239049
6.918504104622553	5.035425	2.2439754
6.936062925632727	5.0234966	2.2413158
6.953621909697607	4.9979343	2.235606
6.971181057234028	4.9755177	2.2305868
6.988740368658859	5.0067964	2.2375872
7.006299844389007	5.0978665	2.2578456
7.023859484841407	5.217404	2.2841637
7.041419290433036	5.336541	2.3100955
7.058979261580902	5.439053	2.3321776
7.0765393987020495	5.5983295	2.3660789
7.094099702213559	5.8908477	2.4271069
7.111660172532549	6.272142	2.5044246
7.129220810076164	6.7555947	2.5991528
7.146781615261595	7.4977145	2.7381954
7.16434258850606	7.7137866	2.7773705
7.181903730226821	8.231441	2.8690488
7.1994650408411704	8.3113365	2.8829389
7.217026520766437	8.403165	2.8988214
7.234588170419983	8.603194	2.9331203
7.252149990219215	8.562906	2.9262445
7.269711980581568	8.444331	2.905913
7.2872741419245175	8.201618	2.8638468
7.304836474665574	7.697778	2.774487
7.322398979222286	7.359713	2.7128792
7.339961656012233	7.005881	2.6468625
7.357524505453039	6.666845	2.5820234
7.375087527962357	6.4362507	2.5369766
7.392650723957886	6.181153	2.4861925
7.410214093857353	5.9312553	2.435417
7.427777638078528	5.7540793	2.3987663
7.445341357039213	5.583261	2.3628926
7.4629052511572525	5.3844814	2.3204486
7.480469320850524	5.2124114	2.2830706
7.498033566536948	5.1987805	2.2800834
7.5155979886344735	5.1337433	2.2657766
7.5331625875610975	5.080212	2.2539325
7.550727363734844	4.9886703	2.2335331
7.568292317573788	4.976906	2.230898
7.585857449496025	5.047032	2.24656
7.603422759919705	5.089858	2.2560713
7.620988249263007	5.132232	2.265443
7.638553917944147	5.162274	2.2720637
7.656119766381391	5.158033	2.2711303
7.673685794993023	5.194243	2.2790883
7.691252004197388	5.179676	2.27589
7.70881839441285	5.1456804	2.2684093
7.726384966057826	5.099563	2.2582211
7.743951719550762	5.1195955	2.2626524
7.761518655310149	5.145876	2.2684524
7.779085773754511	5.186797	2.2774541
7.796653075302419	5.149149	2.2691736
7.814220560372475	5.131147	2.2652035
7.831788229383323	5.132151	2.2654252
7.8493560827536495	5.108763	2.2602572
7.866924120902174	5.158072	2.271139
7.884492344247663	5.160719	2.2717216
7.9020607532089135	5.1977696	2.2798617
7.919629348204771	5.299002	2.3019562
7.937198129654115	5.341697	2.311211
7.954767097975865	5.3347273	2.3097029
7.972336253588986	5.26891	2.2954106
7.989905596912472	5.235725	2.2881706
8.007475128365371	5.2803035	2.2978911
8.025044848366756	5.3785806	2.3191767
8.042614757335754	5.5322714	2.3520782
8.060184855691523	5.6044607	2.3673742
8.07775514385327	5.6711397	2.3814154
8.095325622240228	5.7014346	2.3877678
8.112896291271687	5.8077445	2.4099262
8.130467151366968	5.9314036	2.4354472
8.148038202945436	5.9872565	2.446887
8.165609446426497	5.9829917	2.4460154
8.183180882229594	5.997646	2.4490092
8.200752510774217	5.9952846	2.448527
8.218324332479893	5.977605	2.444914
8.235896347766193	5.9318147	2.4355316
8.253468557052724	5.927555	2.434657
8.27104096075914	6.004073	2.450321
8.288613559305137	6.052382	2.4601588
8.306186353110448	6.0897026	2.4677322
8.32375934259485	6.1491156	2.479741
8.341332528178162	6.159912	2.481917
8.358905910280246	6.2133765	2.4926646
8.376479489321003	6.205347	2.4910533
8.394053265720377	6.179766	2.4859135
8.411627239898356	6.1586795	2.4816687
8.42920141227497	6.1307282	2.4760308
8.44677578327029	6.110732	2.4719894
8.464350353304427	6.102269	2.470277
8.48192512279754	6.110094	2.4718604
8.499500092169827	6.0461955	2.4589012
8.51707526184153	5.9705176	2.4434643
8.534650632232934	5.945242	2.4382868
8.552226203764365	6.0232534	2.4542317
8.569801976856192	6.1201825	2.4739003
8.587377951928834	6.1488476	2.479687
8.60495412940274	6.1824994	2.4864633
8.622530509698416	6.2823224	2.5064561
8.6401070932364	6.4386945	2.5374582
8.657683880437283	6.5337152	2.5561132
8.675260871721695	6.6340284	2.5756607
8.692838067510303	6.735579	2.5952995
8.710415468223834	6.9388075	2.6341617
8.727993074283043	7.0181594	2.649181
8.745570886108737	6.9946656	2.644743
8.763148904121765	7.055647	2.6562467
8.78072712874302	7.11563	2.6675138
8.798305560393441	7.4292564	2.7256663
8.815884199494006	7.606164	2.7579274
8.833463046465745	7.8088856	2.7944384
8.851042101729728	7.9638233	2.8220246
8.86862136570707	8.335749	2.8871696
8.886200838818924	8.46621	2.9096754
8.903780521486505	8.461001	2.90878
8.921360414131055	8.461288	2.9088295
8.938940517173874	8.519239	2.9187737
8.956520831036297	8.629642	2.9376252
8.97410135613971	8.964513	2.9940796
8.99168209290554	9.125967	3.0209215
9.009263041755265	9.477057	3.0784829
9.026844203110405	9.73202	3.1196187
9.044425577392525	9.833833	3.1358943
9.062007165023239	9.805905	3.1314383
9.079588966424197	10.000459	3.1623502
9.097170982017108	10.155494	3.1867685
9.11475321222372	10.983242	3.3140974
9.132335657465825	11.815133	3.4373147
9.149918318165264	11.893635	3.448715
9.167501194743924	12.413935	3.5233414
9.18508428762374	12.17104	3.4887018
9.202667597226693	12.17867	3.4897952
9.220251123974803	11.8503275	3.4424305
9.237834868290143	11.54045	3.3971238
9.255418830594836	11.280763	3.3586848
9.273003011311046	10.796325	3.2857761
9.290587410860985	10.616041	3.2582266
9.308172029666911	10.04375	3.1691875
9.32575686815113	9.810476	3.132168
9.343341926735997	8.718604	2.9527283
9.360927205843916	8.497312	2.9150147
9.378512705897327	8.261245	2.874238
9.396098427318728	8.0474	2.8367941
9.413684370530664	7.9768085	2.8243244
9.431270535955722	7.856645	2.8029706
9.448856924016539	7.755602	2.784888
9.466443535135806	7.570312	2.75142
9.484030369736251	7.568387	2.7510703
9.501617428240658	7.5728927	2.751889
9.519204711071852	7.6176677	2.7600121
9.536792218652714	7.5856466	2.7542052
9.55437995140617	7.675558	2.7704797
9.571967909755191	7.769318	2.7873497
9.589556094122802	7.825745	2.7974534
9.60714450493207	7.8192854	2.7962985
9.624733142606116	7.7684894	2.787201
9.642322007568108	7.7715316	2.7877467
9.659911100241267	7.798267	2.7925377
9.677500421048851	7.8284225	2.797932
9.695089970414175	7.839549	2.7999194
9.712679748760609	7.8898396	2.8088858
9.730269756511557	7.927609	2.815601
9.747859994090492	7.992598	2.8271184
9.765450461920915	8.029099	2.8335667
9.78304116042639	8.110466	2.847888
9.800632090030527	8.1098995	2.8477886
9.81822325115699	8.091475	2.8445518
9.835814644229481	8.124678	2.850382
9.853406269671762	8.140647	2.8531818
9.870998127907646	8.282121	2.8778675
9.888590219360985	8.290011	2.879238
9.906182544455698	8.30353	2.8815846
9.923775103615734	8.253316	2.8728585
9.941367897265108	8.2390785	2.8703794
9.958960925827878	8.249665	2.8722231
9.97655418972816	8.256351	2.8733869
9.994147689390106	8.187242	2.8613355
10.011741425237934	8.171708	2.85862
10.029335397695904	8.144727	2.8538969
10.04692960718833	8.162225	2.8569608
10.06452405413958	8.150163	2.8548489
10.082118738974064	8.170202	2.8583565
10.099713662116246	8.173711	2.8589702
10.117308823990651	8.134826	2.8521616
10.134904225021844	8.123155	2.8501148
10.152499865634445	8.110885	2.8479614
10.170095746253125	8.147429	2.8543704
10.18769186730261	8.150918	2.8549812
10.205288229207675	8.063646	2.839656
10.222884832393145	7.951649	2.819867
10.2404816772839	7.948279	2.8192692
10.258078764304868	7.9594517	2.82125
10.275676093881035	7.964173	2.8220866
10.293273666437438	7.93858	2.8175485
10.310871482399158	7.946536	2.8189602
10.32846954219134	7.9679804	2.822761
10.346067846239173	8.014026	2.8309054
10.363666394967908	8.055638	2.8382456
10.38126518880283	8.0944195	2.8450694
10.398864228169298	8.076802	2.8419716
10.416463513492713	8.057665	2.8386025
10.434063045198531	8.081655	2.8428252
10.451662823712262	8.109025	2.847635
10.469262849459467	8.059951	2.8390052
10.486863122865758	7.9629426	2.8218687
10.504463644356806	7.9451194	2.818709
10.522064414358338	7.972795	2.823614
10.539665433296118	7.9556603	2.820578
10.557266701595987	7.9108067	2.8126156
10.574868219683818	7.695235	2.7740285
10.592469987985552	7.532039	2.744456
10.610072006927185	7.399986	2.7202914
10.627674276934751	7.3822203	2.717024
10.64527679843435	7.2988973	2.701647
10.662879571852143	7.1988335	2.6830642
10.680482597614331	7.0555077	2.6562207
10.698085876147173	6.9060464	2.6279356
10.715689407876988	6.7680993	2.601557
10.733293193230146	6.7066507	2.5897202
10.750897232633072	6.702481	2.5889149
10.76850152651225	6.5692315	2.5630512
10.786106075294207	6.4696627	2.543553
10.803710879405534	6.3874288	2.5273364
10.821315939272877	6.3814006	2.5261433
10.83892125532294	6.311641	2.512298
10.856526827982472	6.1791425	2.485788
10.874132657678285	6.1424856	2.4784038
10.891738744837243	6.183297	2.4866238
10.909345089886271	6.1851635	2.4869988
10.926951693252343	6.111041	2.472052
10.944558555362494	6.0291286	2.4554284
10.96216567664381	5.9409046	2.437397
10.979773057523436	5.8671227	2.4222145
10.997380698428573	5.776757	2.4034884
11.014988599786477	5.7176194	2.3911545
11.032596762024461	5.6875043	2.3848488
11.050205185569892	5.6195016	2.3705487
11.067813870850198	5.5222006	2.3499362
11.085422818292859	5.427189	2.3296328
11.10303202832541	5.3817863	2.3198678
11.120641501375454	5.302549	2.3027265
11.138251237870636	5.3096967	2.304278
11.155861238238671	5.2572694	2.2928736
11.173471502907317	5.1897397	2.2781
11.191082032304402	5.0437584	2.2458313
11.208692826857805	4.978837	2.2313309
11.226303886995465	4.9056873	2.2148786
11.243915213145371	4.901852	2.2140126
11.261526805735578	4.8586187	2.2042274
11.279138665194196	4.84423	2.200961
11.296750791949393	4.8097696	2.1931188
11.314363186429393	4.757815	2.1812415
11.331975849062479	4.670472	2.1611276
11.34958878027699	4.5732713	2.1385207
11.36720198050133	4.5598836	2.1353884
11.384815450163948	4.54441	2.1317623
11.402429189693366	4.5027914	2.1219783
11.420043199518153	4.423538	2.103221
11.437657480066942	63.377243	7.9609823
11.455272031768422	85.088776	9.224358
11.472886855051353	107.53018	10.369676
11.490501950344528	99.14594	9.957206
11.508117318076819	84.46304	9.190378
11.52573295867715	45.766846	6.7651196
11.543348872574514	4.0195785	2.0048885
11.560965060197946	3.9627814	1.9906737
11.57858152197655	3.9750142	1.9937438
11.59619825833949	4.0215907	2.0053904
11.613815269715985	3.9979506	1.9994875
11.631432556535323	38.538307	6.207923
11.649050119226837	83.10328	9.1161
11.666667958219929	93.46718	9.667843
11.68428607394406	107.67876	10.376838
11.701904466828756	82.41754	9.078411
11.719523137303586	65.25508	8.078062
11.737142085798196	4.5170264	2.1253297
11.754761312742286	3.677652	1.9177204
11.772380818565619	3.6467276	1.9096407
11.790000603698015	3.618318	1.9021877
11.80762066856935	3.5946248	1.8959496
11.825241013609572	3.5845606	1.8932936
11.842861639248683	3.5826976	1.8928015
11.860482545916748	3.4886878	1.867803
11.878103734043883	3.4304366	1.8521438
11.895725204060282	3.3760424	1.837401
11.91334695639619	3.3559167	1.8319161
11.930968991481919	3.318705	1.8217313
11.948591309747824	3.3072798	1.8185928
11.966213911624347	3.3298397	1.8247849
11.98383679754198	3.319503	1.8219503
12.001459967931268	3.288828	1.8135126
12.019083423222835	3.2385666	1.7996018
12.036707163847352	3.210857	1.7918864
12.05433119023556	3.202225	1.7894762
12.071955502818259	3.163798	1.7787069
12.089580102026313	3.1233203	1.7672918
12.107204988290643	3.1101847	1.7635716
12.12483016204224	3.1174474	1.7656294
12.142455623712152	3.1328216	1.7699778
12.16008137373149	3.1328282	1.7699797
12.177707412531431	3.0922096	1.7584679
12.19533374054321	3.034364	1.7419426
12.212960358198126	2.9675536	1.7226589
12.230587265927545	2.9636102	1.7215139
12.248214464162889	2.9555392	1.7191682
12.265841953335649	2.9781425	1.7257296
12.283469733877375	2.9734337	1.7243648
12.301097806219685	2.9565141	1.7194517
12.31872617079425	2.9272013	1.7109065
12.336354828032825	2.9203322	1.708898
12.353983778367205	2.90861	1.7054647
12.371613022229262	2.9357197	1.7133942
12.389242560050928	2.8880363	1.6994224
12.406872392264201	2.878281	1.6965498
12.424502519301143	2.8355196	1.6839001
12.442132941593874	2.838937	1.6849146
12.459763659574586	2.8162756	1.6781763
12.477394673675532	2.8116188	1.6767882
12.49502598432903	2.8214846	1.6797276
12.51265759196746	2.817782	1.678625
12.530289497023267	2.7845297	1.668691
12.547921699928967	2.7609534	1.6616117
12.565554201117134	2.7461524	1.6571519
12.583187001020404	2.7549167	1.6597942
12.600820100071486	2.7482736	1.6577917
12.618453498703152	2.767896	1.6636995
12.636087197348235	2.771204	1.6646934
12.65372119643964	2.7561193	1.6601564
12.671355496410326	2.7421465	1.6559428
12.68899009769333	2.7394187	1.655119
12.706625000721749	2.7639651	1.6625177
12.724260205928752	2.8521922	1.6888435
12.741895713747551	2.888913	1.6996802
12.759531524611454	2.9410334	1.7149441
12.777167638953818	2.9232874	1.7097623
12.794804057208072	2.915906	1.7076024
12.812440779807702	2.9833226	1.7272297
12.830077807186271	3.12949	1.7690364
12.847715139777405	3.184812	1.7846042
12.865352778014795	3.3732789	1.8366488
12.882990722332197	3.461752	1.8605784
12.90062897316344	3.5417075	1.8819425
12.918267530942412	3.5905204	1.8948668
12.935906396103071	3.489921	1.8681331
12.953545569079449	3.6597722	1.9130532
12.971185050305628	3.4954722	1.8696182
12.988824840215775	3.5385003	1.8810902
13.006464939244115	3.5554214	1.8855824
13.024105347824943	3.398024	1.8433731
13.041746066392617	3.4976838	1.8702096
13.05938709538157	3.303316	1.8175027
13.077028435226296	3.3279295	1.8242613
13.094670086361363	3.2201211	1.7944696
13.112312049221401	3.1226826	1.7671114
13.129954324241112	3.0422952	1.7442176
13.147596911855258	2.8819668	1.6976357
13.165239812498685	2.824871	1.6807352
13.182883026606293	2.7765257	1.666291
13.200526554613058	2.7450433	1.6568172
13.218170396954017	2.700096	1.6431968
13.235814554064284	2.657484	1.6301792
13.253459026379034	2.66075	1.6311805
13.271103814333523	2.665568	1.6326568
13.288748918363058	2.6794925	1.6369156
13.306394338903031	2.6877768	1.6394441
13.32404007638889	2.6542876	1.6291984
13.341686131256164	2.6857934	1.638839
13.359332503940449	2.6211023	1.6189818
13.376979194877402	2.606054	1.6143278
13.394626204502751	2.6397421	1.6247283
13.412273533252307	2.7039902	1.6443814
13.429921181561937	2.7312045	1.6526356
13.447569149867581	2.7313094	1.6526674
13.465217438605247	2.7009463	1.6434556
13.482866048211022	2.6777754	1.6363909
13.500514979121052	2.6678855	1.6333663
13.518164231771568	2.6262417	1.6205683
13.535813806598844	2.6291876	1.621477
13.553463704039254	2.6274579	1.6209435
13.571113924529229	2.661083	1.6312826
13.588764468505275	2.696222	1.6420177
13.606415336403956	2.706804	1.6452367
13.624066528661917	2.6869593	1.6391947
13.641718045715882	2.6859868	1.638898
13.659369888002635	2.7126017	1.6469978
13.67702205595903	2.8033254	1.6743134
13.694674550021993	2.8945308	1.7013321
13.712327370628532	2.9747677	1.7247515
13.729980518215713	3.03342	1.7416717
13.747633993220681	3.101862	1.7612103
13.765287796080647	3.1559947	1.7765119
13.7829419272329	3.2135124	1.7926272
13.800596387114801	3.2286932	1.7968565
13.818251176163775	3.2181835	1.7939296
13.835906294817324	3.2196336	1.7943337
13.853561743513023	3.259379	1.805375
13.871217522688525	3.311554	1.8197676
13.888873632781538	3.382411	1.8391333
13.906530074229858	3.42409	1.8504297
13.92418684747135	3.4089363	1.8463305
13.941843952943948	3.4061832	1.8455848
13.959501391085665	3.3620605	1.8335923
13.977159162334578	3.3144171	1.820554
13.994817267128846	3.2895372	1.8137082
14.012475705906693	3.2228878	1.7952403
14.030134479106424	3.1767135	1.7823337
14.047793587166414	3.0812	1.7553347
14.065453030525108	3.0376127	1.7428749
14.083112809621026	2.9889545	1.7288593
14.100772924892766	2.9206502	1.708991
14.118433376778997	2.853546	1.6892442
14.136094165718458	2.7881489	1.6697751
14.153755292149969	2.7377443	1.654613
14.171416756512416	2.672743	1.6348526
14.189078559244768	2.5812986	1.606642
14.20674070078606	2.4960835	1.5798998
14.224403181575408	2.4520614	1.5659059
14.242066002051999	2.4563568	1.5672768
14.259729162655093	2.4667504	1.5705892
14.277392663824022	2.4600005	1.5684389
14.295056505998208	2.4245825	1.5571071
14.312720689617128	2.3974874	1.5483822
14.330385215120348	2.3978236	1.5484908
14.348050082947497	2.4235578	1.556778
14.3657152935383	2.4294622	1.5586733
14.383380847332528	2.409729	1.5523301
14.401046744770051	2.3875432	1.5451677
14.418712986290798	2.3723762	1.540252
14.436379572334793	2.348034	1.5323296
14.454046503342123	2.309254	1.5196229
14.471713779752946	2.2814894	1.51046
14.489381402007504	2.2865465	1.5121331
14.507049370546113	2.3374655	1.5288773
14.524717685809168	2.3338795	1.527704
14.542386348237134	2.375795	1.5413613
14.560055358270553	2.3689866	1.5391513
14.577724716350051	2.3921292	1.546651
14.595394422916325	2.4054072	1.5509375
14.61306447841015	2.4318361	1.5594345
14.63073488327237	2.439821	1.5619926
14.648405637943917	2.4704547	1.571768
14.6660767428658	2.4332287	1.559881
14.683748198479094	2.440482	1.5622041
14.701420005224954	2.4867754	1.5769513
14.719092163544628	2.590919	1.6096332
14.73676467387942	2.6633806	1.6319867
14.754437536670727	2.6614246	1.6313874
14.772110752360014	2.639451	1.6246388
14.78978432138882	2.6193175	1.6184306
14.807458244198777	2.6424513	1.6255618
14.82513252123159	2.6209972	1.6189494
14.842807152929028	2.6298509	1.6216815
14.860482139732962	2.626398	1.6206166
14.87815748208531	2.6310203	1.6220421
14.8958331804281	2.6697187	1.6339273
14.91350923520342	2.6226983	1.6194746
14.931185646853438	2.6062622	1.6143922
14.948862415820408	2.584853	1.6077478
14.966539542546656	2.6284945	1.6212633
14.98421702747459	2.6267934	1.6207385
15.001894871046696	2.642009	1.6254258
15.019573073705542	2.6507998	1.6281277
15.037251635893766	2.6513078	1.6282837
15.054930558054092	2.682903	1.637957
15.072609840629323	2.7583845	1.6608385
15.090289484062351	2.943475	1.7156558
15.107969488796124	3.267036	1.8074944
15.125649855273691	3.6668594	1.9149046
15.14333058393817	4.1365523	2.0338516
15.161011675232768	5.05938	2.2493067
15.17869312960076	6.397477	2.5293233
15.196374947485506	8.251201	2.8724904
15.214057129330447	11.28648	3.3595357
15.231739675579114	15.749801	3.968602
15.249422586675102	20.359987	4.512204
15.267105863062092	22.973003	4.793016
15.284789505183847	23.028715	4.7988243
15.302473513484218	20.85325	4.566536
15.320157888407127	17.48017	4.180929
15.337842630396578	13.678244	3.698411
15.355527739896656	10.729771	3.2756329
15.37321321735153	8.458193	2.9082973
15.39089906320545	6.2816677	2.5063255
15.408585277902748	4.7876134	2.1880615
15.42627186188783	3.738694	1.9335703
15.443958815605198	3.2388797	1.7996888
15.461646139499424	2.9436822	1.7157162
15.479333834015168	2.8065727	1.6752828
15.497021899597165	2.736351	1.654192
15.514710336690234	2.7167902	1.6482688
15.53239914573928	2.6698947	1.6339812
15.550088327189297	2.6428201	1.6256753
15.567777881485336	2.541452	1.5941932
15.58546780907256	2.4876103	1.577216
15.6031581103962	2.4698503	1.5715758
15.620848785901568	2.4881005	1.5773714
15.638539836034063	2.4841902	1.5761315
15.656231261239173	2.475092	1.5732425
15.673923061962451	2.4339738	1.5601197
15.691615238649552	2.4207273	1.5558686
15.709307791746202	2.4285917	1.558394
15.727000721698221	2.4273229	1.5579869
15.744694028951498	2.3863502	1.5447816
15.76238771395202	2.3388338	1.5293247
15.780081777145844	2.3194137	1.5229621
15.797776218979125	2.31068	1.5200921
15.815471039898094	2.3318617	1.5270435
15.833166240349064	2.3263936	1.525252
15.850861820778437	2.34715	1.5320412
15.868557781632699	2.300782	1.5168328
15.886254123358412	2.2743788	1.5081043
15.903950846402232	2.2944648	1.514749
15.921647951210897	2.3170466	1.5221848
15.939345438231225	2.3336263	1.5276212
15.957043307910133	2.3153448	1.5216258
15.974741560694602	2.3297043	1.5263369
15.992440197031714	2.3604705	1.5363823
16.01013921736862	2.3637068	1.5374352
16.02783862215259	2.320563	1.5233394
16.045538411830933	2.2990515	1.5162624
16.06323858685107	2.3102129	1.5199385
16.080939147660512	2.3429215	1.5306605
16.09864009470684	2.3782759	1.542166
16.11634142843774	2.3892076	1.5457062
16.134043149300954	2.4072082	1.5515181
16.15174525774433	2.401616	1.5497148
16.169447754215817	2.4072976	1.5515468
16.18715063916342	2.3972716	1.5483125
16.204853913035244	2.3871822	1.5450509
16.222557576279478	2.3906522	1.5461735
16.240261629344403	22.379658	4.7307143
16.257966072678386	42.90452	6.550154
16.275670906729868	38.018288	6.1658974
16.293376131947387	2.44845	1.5647525
16.31108174877957	2.4711556	1.571991
16.328787757675133	2.4690714	1.5713279
16.34649415908287	2.4814744	1.5752696
16.364200953451657	2.5384629	1.5932554
16.38190814123048	2.5600655	1.6000205
16.39961572286839	2.5920708	1.609991
16.41732369881455	2.6047688	1.6139296
16.43503206951817	2.6351392	1.6233112
16.45274083542859	2.6340146	1.6229647
16.47044999699522	2.6732805	1.6350169
16.488159554667558	2.7244778	1.6505992
16.505869508895184	2.8323405	1.6829559
16.523579860127786	2.87098	1.6943966
16.541290608815117	2.9148383	1.7072898
16.559001755407035	2.9138412	1.7069978
16.57671330035348	2.9701676	1.7234174
16.59442524410448	3.0320272	1.7412717
16.61213758711015	3.1631985	1.7785383
16.629850329820705	3.204972	1.7902436
16.647563472686436	3.2291222	1.7969759
16.665277016157724	3.2209804	1.794709
16.682990960685053	3.284385	1.8122872
16.70070530671898	3.3761914	1.8374416
16.718420054710155	3.4312165	1.8523543
16.736135205109335	3.484469	1.8666732
16.753850758367335	3.5077667	1.8729032
16.771566714935087	3.5647047	1.8880426
16.789283075263597	3.6529818	1.9112775
16.80699983980398	3.7166533	1.9278624
16.82471700900741	3.776136	1.9432282
16.84243458332518	3.8130898	1.9527135
16.860152563208665	3.8766515	1.9689214
16.87787094910932	3.9804382	1.9951036
16.89558974147871	4.042257	2.0105364
16.913308940768466	4.139499	2.034576
16.931028547430333	4.185297	2.0457997
16.94874856191613	4.260559	2.0641122
16.966468984677785	4.2538075	2.0624762
16.98418981616729	4.2854543	2.070134
17.00191105683676	4.3263364	2.0799847
17.019632707138374	4.3976393	2.097055
17.03735476752442	4.4386916	2.1068203
17.05507723844728	4.449319	2.109341
17.072800120359403	4.4413505	2.1074512
17.090523413713353	4.5323076	2.1289217
17.108247118961785	4.5711174	2.1380172
17.125971236557437	4.5975323	2.1441858
17.143695766953133	4.532051	2.1288614
17.161420710601806	4.506448	2.1228395
17.179146067956477	4.494256	2.119966
17.19687183947025	4.585845	2.1414585
17.21459802559634	4.5994544	2.1446338
17.232324626788028	4.6284423	2.1513815
17.25005164349871	4.618924	2.1491683
17.267779076181863	4.627958	2.151269
17.285506925291074	4.5696635	2.1376772
17.30323519127999	4.5281916	2.1279547
17.320963874602384	4.5339856	2.1293159
17.33869297571211	4.559314	2.1352549
17.356422495063114	4.5221844	2.1265428
17.37415243310944	4.4654145	2.1131527
17.391882790305218	4.42913	2.10455
17.40961356710468	4.4484477	2.1091344
17.42734476396215	4.4649677	2.1130471
17.445076381332044	4.431659	2.1051507
17.462808419668868	4.4468775	2.108762
17.48054087942723	4.58562	2.141406
17.498273761061835	4.914105	2.216778
17.51600706502747	5.4620247	2.3370974
17.533740791779024	6.162761	2.482491
17.551474941771485	7.655474	2.7668529
17.56920951545993	8.654729	2.9418921
17.586944513299528	10.60407	3.2563891
17.60467993574556	11.965722	3.4591506
17.622415783253373	13.386173	3.658712
17.64015205627843	14.525519	3.811236
17.657888755276293	15.552844	3.9437094
17.675625880702604	15.993177	3.9991472
17.69336343301311	15.858637	3.9822905
17.71110141266366	15.212612	3.9003348
17.728839820110178	14.368253	3.7905478
17.746578655808705	13.67191	3.6975546
17.764317920215372	12.465469	3.5306473
17.7820576137864	11.220611	3.349718
17.79979773697811	9.317316	3.052428
17.81753829024692	7.592001	2.7553587
17.835279274049356	5.9338474	2.435949
17.85302068884201	4.933819	2.22122
17.870762535081607	4.2344785	2.0577848
17.888504813224934	3.9123414	1.9779639
17.90624752372891	3.686376	1.9199938
17.923990667050536	3.5229115	1.876942
17.941734243646895	3.385847	1.8400671
17.959478253975185	3.393037	1.8420198
17.9772226984927	3.3862126	1.8401664
17.994967577656833	3.3903127	1.8412802
18.01271289192506	3.3149745	1.8207072
18.030458641754965	3.2947576	1.8151467
18.04820482760425	3.296835	1.8157189
18.06595144993067	3.3089964	1.8190647
18.083698509192125	3.245389	1.8014963
18.101446005846576	3.160115	1.7776712
18.119193940352105	3.1541011	1.7759789
18.136942313166887	3.1695354	1.7803189
18.1546911247492	3.1832647	1.7841706
18.1724403755574	3.1676946	1.7798018
18.19019006604997	3.1257818	1.7679881
18.207940196685467	3.046563	1.7454406
18.225690767922575	3.0154207	1.7364967
18.243441780220046	3.0178275	1.7371895
18.261193234036764	3.035238	1.7421935
18.278945129831676	3.0526009	1.7471694
18.29669746806386	3.0274582	1.7399592
18.314450249192483	3.0130405	1.7358112
18.3322034736768	3.0223882	1.7385017
18.349957141976184	3.0140224	1.736094
18.3677112545501	2.9896502	1.7290605
18.385465811858108	2.9817412	1.726772
18.403220814359884	3.0394733	1.7434086
18.420976262515172	3.109742	1.7634461
18.43873215678387	3.181504	1.7836771
18.456488497625923	3.172699	1.7812072
18.474245285501407	3.1838603	1.7843375
18.492002520870486	3.2317617	1.7977102
18.50976020419343	3.3289263	1.8245345
18.527518335930615	3.68696	1.9201459
18.545276916542516	4.2932086	2.072006
18.563035946489688	4.484601	2.1176877
18.580795426232832	4.920895	2.2183092
18.598555356232698	4.81898	2.1952176
18.616315736950185	5.0752344	2.2528281
18.63407656884626	4.703743	2.1688113
18.65183785238201	4.8872943	2.2107227
18.669599588018617	4.6408367	2.1542602
18.68736177621737	4.6345587	2.1528025
18.705124417439652	4.6208806	2.1496234
18.72288751214696	4.4608636	2.1120756
18.740651060800886	4.617814	2.14891
18.758415063863115	4.2906284	2.0713832
18.77617952179546	4.4476357	2.1089418
18.793944435059814	4.1582794	2.039186
18.811709804118184	4.198049	2.0489142
18.829475629432675	4.109438	2.027175
18.8472419114655	3.9456403	1.9863636
18.86500865067897	4.0735006	2.0182915
18.88277584753551	3.7423713	1.934521
18.90054350249763	3.7101798	1.9261827
18.918311616027957	3.354298	1.8314743
18.936080188589226	3.2333379	1.7981485
18.953849220644265	2.8962135	1.7018266
18.971618712656007	2.7540667	1.6595381
18.9893886650875	2.722512	1.6500037
19.007159078401887	7.931453	2.8162837
19.024929953062408	32.805984	5.7276506
19.042701289532435	32.74335	5.722181
19.060473088275405	25.32196	5.032093
19.07824534975489	2.616437	1.6175404
19.096018074434568	2.6042352	1.6137643
19.113791262778197	2.5916176	1.6098502
19.13156491524966	2.5751534	1.6047285
19.149339032312945	2.5375094	1.5929562
19.167113614432136	2.5294518	1.590425
19.184888662071433	2.5321467	1.591272
19.202664175695123	2.5143008	1.5856547
19.220440155767623	2.503206	1.5821524
19.238216602753447	2.4799836	1.5747963
19.2559935171172	2.5149088	1.5858464
19.27377089932361	2.5115833	1.5847976
19.291548749837514	2.4816756	1.5753335
19.309327069123835	2.4479325	1.564587
19.32710585764763	2.4491537	1.5649772
19.344885115874032	2.4503243	1.5653511
19.362664844268313	2.4868062	1.576961
19.380445043295822	2.4563406	1.5672717
19.39822571342203	2.4328506	1.5597597
19.41600685511252	2.4815116	1.5752814
19.43378846883297	2.525582	1.589208
19.451570555049173	2.530505	1.590756
19.469353114227037	2.508974	1.5839741
19.48713614683254	2.5176501	1.5867105
19.50491965333182	2.4831285	1.5757946
19.52270363419109	2.4569888	1.5674785
19.540488089876686	2.4628515	1.5693475
19.55827302085503	2.478943	1.574466
19.576058427592674	2.467295	1.5707625
19.593844310556282	2.4817045	1.5753427
19.611630670212598	2.4649687	1.5700219
19.629417507028506	2.4389195	1.561704
19.64720482147098	2.3794072	1.5425327
19.6649926140071	2.3947954	1.5475127
19.682780885104084	2.4394183	1.5618638
19.70056963522921	2.4516857	1.565786
19.718358864849908	2.475548	1.5733874
19.7361485744337	2.4772038	1.5739136
19.753938764448215	2.4819279	1.5754136
19.771729435361202	2.479734	1.574717
19.789520587640506	2.4666216	1.5705482
19.807312221754092	2.4661329	1.5703926
19.825104338170043	2.4199564	1.5556209
19.842896937356517	2.4302158	1.5589149
19.860690019781824	2.4710543	1.5719588
19.87848358591436	2.4760451	1.5735455
19.896277636222635	2.4465532	1.5641462
19.914072171175278	2.382059	1.5433921
19.931867191241015	2.3910725	1.5463094
19.94966269688869	2.385329	1.544451
19.967458688587264	2.4281132	1.5582404
19.985255166805807	2.415259	1.5541103
20.00305213201348	2.4208682	1.5559139
20.020849584679578	2.398713	1.5487779
20.038647525273507	2.382734	1.5436107
20.05644595426477	2.3797405	1.5426408
20.07424487212299	2.4066374	1.551334
20.092044279317903	2.4361165	1.5608064
20.109844176319353	2.4407437	1.5622879
20.127644563597304	2.408896	1.5520618
20.145445441621817	2.4048924	1.5507716
20.16324681086307	2.4328232	1.559751
20.181048671791373	2.432935	1.5597868
20.198851024877122	2.384655	1.5442328
20.216653870590836	2.3360538	1.5284154
20.234457209403146	2.3324857	1.5272478
20.252261041784802	2.3644955	1.5376916
20.270065368206662	2.3554418	1.5347449
20.287870189139685	2.3349855	1.5280659
20.305675505054968	2.3085458	1.51939
20.323481316423702	2.3002298	1.5166508
20.341287623717207	2.295269	1.5150145
20.359094427406884	2.3066864	1.518778
20.376901727964288	2.3481302	1.532361
20.39470952586107	2.3605876	1.5364203
20.41251782156899	2.3070014	1.5188816
20.430326615559935	2.253343	1.501114
20.448135908305886	2.2745478	1.5081604
20.465945700278965	2.3077805	1.5191381
20.483755991951384	2.32479	1.5247262
20.50156678379548	2.2881875	1.5126756
20.519378076283708	2.3113027	1.5202969
20.537189869888635	2.3157346	1.5217538
20.55500216508294	2.2920923	1.5139657
20.572814962339415	2.2541978	1.5013987
20.59062826213098	2.2421749	1.4973893
20.60844206493066	2.2463577	1.4987854
20.626256371211593	2.2484903	1.4994967
20.644071181447032	2.2889225	1.5129186
20.66188649611036	2.3411703	1.5300883
20.67970231567506	2.3395972	1.5295742
20.697518640614742	2.3390417	1.5293926
20.715335471403122	2.3320792	1.5271146
20.73315280851404	2.3241992	1.5245324
20.750970652421447	2.2802422	1.5100471
20.768789003599412	2.2484267	1.4994755
20.786607862522136	2.2370882	1.4956899
20.8044272296639	2.259384	1.5031247
20.82224710549913	2.2567472	1.5022475
20.84006749050237	2.2371855	1.4957224
20.857888385148268	3.8038137	1.9503368
20.8757097899116	45.87958	6.7734466
20.893531705267254	64.707634	8.044106
20.911354131690224	83.73395	9.150625
20.92917706965566	69.0268	8.308237
20.94700051963877	50.085373	7.077102
20.96482448211493	29.343964	5.417007
20.982648957559622	4.1066256	2.0264812
21.00047394644843	2.2163482	1.4887404
21.01829944925707	2.220012	1.4899704
21.036125466461375	2.200047	1.4832555
21.053951998537297	2.2239802	1.4913015
21.071779045960906	2.2303677	1.4934416
21.089606609208378	2.2253385	1.4917568
21.10743468875603	2.1938908	1.4811789
21.12526328508028	2.2078195	1.4858733
21.143092398657675	2.196913	1.4821987
21.16092202996488	2.1568894	1.4686352
21.17875217947867	2.1158714	1.4546036
21.19658284767596	2.0941439	1.4471157
21.21441403503377	2.093078	1.4467473
21.232245742029225	2.119249	1.455764
21.2500779691396	2.1329594	1.4604654
21.26791071684227	2.141187	1.4632795
21.28574398561475	2.1345408	1.4610068
21.30357777593465	2.1474843	1.4654298
21.321412088279704	2.1548653	1.4679459
21.339246923127792	2.1571345	1.4687186
21.357082280956888	2.1512003	1.4666971
21.3749181622451	2.1184552	1.4554914
21.392754567470647	2.1214135	1.4565073
21.41059149711187	2.1226904	1.4569455
21.42842895164726	2.108144	1.451945
21.446266931555378	2.1081617	1.451951
21.464105437314945	2.0990744	1.4488182
21.481944469404798	2.07751	1.441357
21.49978402830388	2.0782416	1.4416108
21.51762411449127	2.0758479	1.4407803
21.53546472844617	2.0286026	1.4242902
21.553305870647876	2.0493684	1.4315615
21.571147541575865	2.0344822	1.4263527
21.58898974170967	2.0394058	1.4280777
21.60683247152899	2.023472	1.422488
21.62467573151363	2.0603607	1.4353956
21.642519522143523	2.0422306	1.4290663
21.660363843898722	2.0506878	1.4320222
21.6782086972594	2.0577135	1.4344733
21.696054082705864	2.032532	1.425669
21.713900000718535	2.0090911	1.4174241
21.73174645177795	2.001604	1.4147806
21.749593436364794	1.982863	1.4081416
21.767440954959845	1.9696859	1.403455
21.785289008044032	1.990488	1.4108466
21.803137596098388	1.9713845	1.40406
21.820986719604086	1.9316492	1.3898379
21.838836379042412	1.9303125	1.3893569
21.85668657489478	1.9869577	1.4095949
21.87453730764273	2.0234442	1.4224782
21.892388577767914	2.014618	1.4193723
21.91024038575213	1.9858655	1.4092073
21.928092732077285	1.9557657	1.398487
21.945945617225426	1.9679222	1.4028265
21.963799041678694	1.9855646	1.4091007
21.981653005919398	31.290081	5.593754
21.999507510429943	78.07991	8.836284
22.01736255569286	73.039246	8.5463
22.035218142190818	4.1393466	2.0345385
22.05307427040661	1.9504976	1.3966022
22.07093094082315	1.9535538	1.3976959
22.088788153923474	1.958587	1.3994952
22.106645910190746	1.9738421	1.4049349
22.12450421010827	1.9863051	1.4093634
22.142363054159464	1.9729983	1.4046346
22.16022244282787	1.9515158	1.3969667
22.178082376597164	1.9380887	1.3921525
22.195942855951145	1.9338667	1.3906354
22.213803881373742	1.9609019	1.4003221
22.231665453349002	1.9469117	1.3953178
22.24952757236111	1.9077815	1.3812246
22.26739023889438	1.8745294	1.3691345
22.28525345343323	1.8917238	1.3753995
22.30311721646225	1.9195142	1.3854654
22.320981528466113	1.9435035	1.3940959
22.33884638992964	1.9164847	1.3843716
22.356711801337788	1.8887895	1.3743324
22.37457776317561	1.9050323	1.3802291
22.392444275928337	1.92758	1.3883731
22.410311340081282	1.9419624	1.3935431
22.428178956119904	1.970489	1.4037411
22.446047124529805	1.9303765	1.3893799
22.46391584579669	1.9243662	1.3872153
22.481785120406414	1.9060686	1.3806044
22.49965494884496	1.9358478	1.3913474
22.51752533159841	1.950962	1.3967685
22.53539626915302	1.8892921	1.3745152
22.553267761995137	1.8427591	1.3574827
22.571139810611264	1.8818045	1.3717887
22.589012415488025	1.9209695	1.3859904
22.60688557711216	1.9520975	1.3971748
22.624759295970566	1.9483992	1.3958507
22.642633572550263	1.9654925	1.4019603
22.660508407338362	1.9331149	1.390365
22.67838380082217	1.9139116	1.3834419
22.696259753489077	1.9063209	1.3806958
22.714136265826614	1.8956385	1.3768219
22.73201333832246	1.870611	1.3677028
22.74989097146439	1.8981212	1.3777232
22.76776916574035	1.8942918	1.3763328
22.785647921638393	1.8954124	1.3767397
22.803527239646712	1.8815831	1.371708
22.82140712025363	1.9053508	1.3803445
22.839287563947593	1.8889585	1.3743938
22.85716857121719	1.8898515	1.3747187
22.875050142551135	1.8643689	1.3654189
22.892932278438277	1.8833013	1.3723342
22.910814979367604	1.8775856	1.3702502
22.928698245828222	1.8421594	1.3572618
22.946582078309387	1.7990434	1.3412843
22.96446647730047	1.7842749	1.3357675
22.98235144329098	1.8282969	1.3521453
23.000236976770562	1.8577344	1.3629873
23.018123078229	1.8813756	1.3716325
23.03600974815619	1.8484412	1.359574
23.053896987042194	1.8313404	1.3532703
23.071784795377173	1.8333341	1.3540066
23.08967317365145	1.8756498	1.3695437
23.10756212235546	1.871654	1.3680841
23.125451641979787	1.8611186	1.3642282
23.143341733015134	1.8401785	1.3565317
23.161232395952357	1.845159	1.3583664
23.179123631282426	1.8607551	1.364095
23.197015439496468	1.8799012	1.3710948
23.214907821085717	1.9000244	1.3784137
23.23280077654157	1.878037	1.3704149
23.250694306355538	1.8952057	1.3766648
23.268588411019277	1.9051795	1.3802824
23.28648309102458	1.8961308	1.3770007
23.304378346863356	1.8930002	1.3758634
23.322274179027676	1.843577	1.3577839
23.340170588009723	1.830798	1.3530699
23.358067574301852	1.8402338	1.3565521
23.37596513839651	1.8665355	1.3662121
23.39386328078629	1.8770154	1.3700421
23.411762001963947	1.8725132	1.3683981
23.429661302422353	1.8572687	1.3628165
23.4475611826545	1.8641529	1.3653399
23.46546164315356	1.8829871	1.3722198
23.48336268441279	1.9183599	1.3850487
23.501264306925638	1.9221226	1.3864063
23.51916651118564	1.9018711	1.3790834
23.537069297686497	1.9120084	1.382754
23.554972666922037	1.8966764	1.3771988
23.57287661938623	1.8794483	1.3709297
23.59078115557318	1.8974082	1.3774644
23.608686275977128	1.8846139	1.3728124
23.62659198109246	1.8783662	1.370535
23.6444982714137	1.8712027	1.3679191
23.66240514743549	1.896372	1.3770882
23.68031260965263	1.8737142	1.3688368
23.698220658560068	1.8488245	1.3597149
23.716129294652845	1.8229431	1.350164
23.7340385184262	1.8400476	1.3564836
23.75194833037546	1.8345414	1.3544525
23.769858730996123	1.8289579	1.3523897
23.78776972078382	1.8325388	1.353713
23.80568130023431	1.8481219	1.3594564
23.823593469843495	1.8676418	1.366617
23.841506230107424	1.8279815	1.3520286
23.859419581522275	1.7932432	1.3391203
23.87733352458438	1.7897408	1.337812
23.89524805979019	1.8160286	1.347601
23.913163187636318	1.8273908	1.3518102
23.931078908619508	1.8306428	1.3530124
23.948995223236633	1.9073097	1.3810538
23.966912131984735	1.9609805	1.4003501
23.98482963536096	1.9768966	1.4060216
24.002747733862616	1.9369158	1.3917313
24.020666427987155	1.9639579	1.4014128
24.038585718232156	1.9850987	1.4089353
24.056505605095353	1.9884702	1.4101312
24.074426089074617	2.0382192	1.4276621
24.092347170667946	2.0260155	1.4233817
24.110268850373515	2.030108	1.4248186
24.128191128689586	2.0344436	1.4263393
24.146114006114626	2.010555	1.4179404
24.164037483147187	2.021717	1.421871
24.181961560286005	2.0404358	1.4284382
24.199886238029926	1.9920652	1.4114054
24.21781151687797	1.9206287	1.3858675
24.235737397329274	1.8952208	1.3766701
24.253663879883135	1.9526325	1.3973663
24.271590965038975	2.0116212	1.4183164
24.289518653296376	2.049926	1.4317563
24.30744694515505	2.0342956	1.4262873
24.32537584111486	1.9568409	1.3988713
24.34330534167581	1.9352446	1.3911307
24.361235447338046	1.9770194	1.4060652
24.379166158601876	1.975388	1.405485
24.39709747596772	1.9479831	1.3957016
24.41502939993615	1.9358205	1.3913376
24.432961931007917	1.9471614	1.3954073
24.450895069683856	1.9648622	1.4017354
24.468828816465	1.9847063	1.4087961
24.4867631718525	1.9421045	1.393594
24.504698136347656	1.8771544	1.3700929
24.52263371045192	1.832042	1.3535295
24.540569894666874	1.830876	1.3530986
24.558506689494266	1.84067	1.3567129
24.57644409543597	1.8313166	1.3532615
24.594382112994012	1.8131981	1.3465505
24.61232074267057	1.8295228	1.3525985
24.630259984967953	1.870399	1.3676254
24.64819984038863	1.8951788	1.376655
24.66614030943522	1.9312731	1.3897026
24.684081392610462	1.9214476	1.3861629
24.702023090417274	1.9310287	1.3896146
24.7199654033587	1.9463669	1.3951225
24.737908331937927	1.9557536	1.3984826
24.755851876658305	1.993913	1.4120599
24.773796038023324	2.0064645	1.4164972
24.79174081653661	2.0265806	1.4235802
24.809686212701962	2.0486531	1.4313117
24.827632227023294	2.0327532	1.4257466
24.8455788600047	2.0326207	1.4257001
24.8635261121504	2.009288	1.4174936
24.88147398396475	2.001072	1.4145925
24.899422475952303	2.0129685	1.4187912
24.917371588617698	2.0664196	1.4375046
24.935321322465768	2.1578152	1.4689504
24.953271678001478	2.2593365	1.503109
24.97122265572994	2.434885	1.5604118
24.989174256156414	2.6764987	1.6360008
25.00712647978632	3.1224706	1.7670513
25.02507932712521	3.6240041	1.9036818
25.043032798678798	4.120119	2.0298076
25.060986894952933	4.702809	2.168596
25.078941616453637	5.3377943	2.3103666
25.096896963687055	6.132788	2.4764466
25.114852937159508	7.10062	2.6646988
25.132809537377444	7.5949545	2.7558944
25.150766764847468	7.704658	2.7757266
25.168724620076347	7.313999	2.7044406
25.186683103570985	6.4513655	2.539954
25.204642215838426	5.4469333	2.3338666
25.222601957385894	4.211138	2.0521057
25.24056232872074	3.237932	1.7994255
25.25852333035048	2.6280005	1.6211109
25.276484962782778	2.2443495	1.4981153
25.294447226525435	2.0569937	1.4342223
25.312410122086423	1.9602702	1.4000965
25.330373649973843	1.843074	1.3575985
25.348337810695988	1.8002951	1.3417507
25.366302604761245	1.8014158	1.3421683
25.384268032678207	1.7962685	1.3402494
25.40223409495558	1.8015293	1.3422107
25.420200792102257	1.8284031	1.3521845
25.438168124627246	1.848995	1.3597776
25.45613609303974	1.8536189	1.3614768
25.474104697849057	1.8354814	1.3547994
25.492073939564698	1.8731601	1.3686343
25.510043818696285	1.8792709	1.370865
25.528014335753614	1.8752034	1.3693806
25.54598549124664	1.8590524	1.3634707
25.56395728568544	1.8522537	1.3609753
25.58192971958028	1.8852061	1.373028
25.59990279344156	1.9352492	1.3911324
25.617876507779833	1.9247044	1.3873372
25.635850863105826	1.860072	1.3638445
25.653825859930386	1.7969744	1.3405128
25.671801498764548	1.7964872	1.340331
25.68977778011949	1.844272	1.3580397
25.707754704506524	1.7896266	1.3377693
25.725732272437153	1.8054175	1.3436582
25.743710484423012	1.8298773	1.3527296
25.761689340975888	1.8739824	1.3689348
25.77966884260774	1.8227223	1.3500823
25.797648989830662	1.8028505	1.3427026
25.815629783156922	1.8048276	1.3434387
25.83361122309895	1.845459	1.3584768
25.85159331016929	1.797941	1.3408732
25.869576044880695	1.7988863	1.3412256
25.887559427746034	1.8421406	1.3572547
25.90554345927836	1.8839643	1.3725758
25.92352813999086	1.8403382	1.3565906
25.94151347039689	1.8174131	1.3481146
25.959499451009965	1.8463423	1.3588018
25.97748608234374	1.8632658	1.3650149
25.995473364912062	1.8287723	1.352321
26.013461299228904	1.8258047	1.3512235
26.03144988580839	1.8263214	1.3514146
26.04943912516483	1.8206728	1.349323
26.067429017812675	1.8323871	1.3536569
26.085419564266537	1.8154463	1.3473849
26.103410765041186	1.7889047	1.3374994
26.12140262065155	1.7856736	1.336291
26.139395131612723	1.7933773	1.3391703
26.157388298439948	1.7985185	1.3410885
26.17538212164861	1.8022788	1.3424897
26.193376601754295	1.8219658	1.3498021
26.211371739272714	1.8421202	1.3572472
26.229367534719746	1.8036581	1.3430034
26.247363988611433	1.7675759	1.3295021
26.26536110146397	1.7304965	1.3154833
26.283358873793727	1.7953447	1.3399048
26.301357306117204	1.8571776	1.3627831
26.319356398951104	1.843003	1.3575724
26.33735615281224	1.8227513	1.350093
26.35535656821762	1.8176249	1.3481932
26.373357645684404	1.7940798	1.3394326
26.39135938572991	1.7467973	1.3216646
26.409361788871614	1.7817012	1.3348038
26.427364855627165	1.7776096	1.3332703
26.445368586514352	1.7470456	1.3217585
26.46337298205115	1.7132792	1.3089229
26.48137804275568	1.7066247	1.3063785
26.499383769146217	1.7166115	1.3101952
26.517390161741215	1.7514579	1.3234266
26.53539722105928	1.7489091	1.3224633
26.553404947619182	1.7045927	1.3056005
26.571413341939856	1.7025288	1.3048099
26.589422404540397	1.7107155	1.3079432
26.60743213594006	1.7370838	1.3179847
26.62544253665827	1.7383287	1.3184569
26.64345360721459	1.7341053	1.3168544
26.66146534812879	1.7740476	1.3319337
26.679477759920758	1.7465583	1.3215742
26.69749084311057	1.7142024	1.3092755
26.71550459821847	1.7085638	1.3071204
26.733519025764842	1.7175949	1.3105705
26.751534126270258	1.7290492	1.3149332
26.769549900255434	1.7526166	1.3238643
26.787566348241267	1.7450559	1.3210057
26.80558347074881	1.7286521	1.3147821
26.823601268299267	1.6963758	1.30245
26.841619741414036	1.7036053	1.3052223
26.85963889061465	1.7037859	1.3052915
26.877658716422832	1.7385828	1.3185533
26.89567921936045	1.8041117	1.3431723
26.913700399949544	1.7868176	1.3367189
26.93172225871233	1.7561253	1.3251888
26.949744796171174	1.7436243	1.3204637
26.967768012848605	1.7311096	1.3157164
26.98579190926733	1.7409856	1.3194641
27.003816485950225	1.7468036	1.321667
27.021841743420318	1.7755599	1.3325014
27.039867682200814	1.7824947	1.335101
27.057894302815072	1.7697344	1.3303137
27.07592160578664	1.7273964	1.3143045
27.0939495916392	1.7145069	1.3093917
27.111978260896635	1.7208164	1.3117989
27.13000761408296	1.7388371	1.3186498
27.148037651722397	1.8028392	1.3426985
27.166068374339304	1.82435	1.350685
27.184099782458215	1.7960763	1.3401777
27.20213187660384	1.8405483	1.3566681
27.22016465730105	1.849872	1.3601
27.23819812507487	1.822141	1.3498671
27.256232280450533	1.8381617	1.3557882
27.274267123953383	1.8206829	1.3493268
27.292302656108987	1.7999555	1.3416241
27.31033887744306	1.7602	1.3267252
27.32837578848146	1.7679687	1.3296498
27.34641338975026	1.7857834	1.3363321
27.364451681775673	1.7438473	1.320548
27.382490665084074	1.7166986	1.3102285
27.400530340202046	1.7364074	1.3177282
27.41857070765629	1.7022289	1.3046949
27.436611767973726	1.7337177	1.3167071
27.454653521681404	1.7901133	1.3379512
27.472695969306564	1.8254421	1.3510892
27.490739111376627	1.8107344	1.3456353
27.508782948419153	1.7851086	1.3360796
27.526827480961902	1.784355	1.3357975
27.54487270953279	1.7775522	1.3332487
27.562918634659898	1.7429923	1.3202243
27.580965256871508	1.7652458	1.3286256
27.599012576696026	1.7850157	1.3360448
27.617060594662068	1.7633401	1.3279082
27.63510931129842	1.7662914	1.329019
27.65315872713401	1.7636406	1.3280213
27.67120884269797	1.7648548	1.3284783
27.68925965851958	1.800781	1.3419318
27.707311175128307	1.8261383	1.3513469
27.725363393053787	1.7917122	1.3385485
27.74341631282583	1.8185936	1.3485525
27.7614699349744	1.826351	1.3514255
27.77952426002968	2.0354984	1.4267089
27.797579288521973	2.1524017	1.4671066
27.815635020981784	2.6330614	1.6226711
27.83369145793979	2.665792	1.6327254
27.85174859992682	2.4908888	1.5782549
27.869806447473923	2.365637	1.5380628
27.887865001112267	2.0063956	1.4164729
27.905924261373233	1.8585165	1.3632742
27.92398422878836	1.8168627	1.3479105
27.94204490388936	1.8057442	1.3437798
27.96010628720813	1.8222637	1.3499125
27.978168379276728	1.8868499	1.3736266
27.9962311806274	1.886558	1.3735204
28.014294691792568	1.8373325	1.3554823
28.0323589133048	1.8716353	1.3680773
28.050423845696887	1.8706431	1.3677145
28.068489489501758	1.8123775	1.3462456
28.086555845252523	1.8057693	1.3437892
28.104622913482487	1.8730638	1.3685992
28.122690694725115	1.8928447	1.3758069
28.14075918951405	1.8277493	1.3519428
28.15882839838312	1.78952	1.3377295
28.176898321866304	1.8422313	1.3572882
28.1949689604978	1.8687325	1.3670158
28.213040314811945	1.8323131	1.3536296
28.23111238534327	1.77691	1.3330078
28.249185172626493	1.789528	1.3377324
28.267258677196473	1.7709967	1.330788
28.285332899588294	1.7223483	1.3123827
28.303407840337172	1.7305542	1.3155053
28.321483499978545	1.8242207	1.3506371
28.33955987904799	1.8548224	1.3619187
28.357636978081285	1.8468167	1.3589764
28.37571479761439	1.8631232	1.3649627
28.393793338183425	1.8663324	1.3661377
28.41187260032469	1.8437904	1.3578625
28.429952584574686	1.8686076	1.3669703
28.448033291470065	1.9588318	1.3995827
28.46611472154769	2.0101347	1.4177922
28.484196875344566	1.9708053	1.4038538
28.502279753397914	1.9659413	1.4021202
28.52036335624511	1.9761719	1.4057637
28.538447684423716	1.9228953	1.386685
28.556532738471482	1.8872336	1.3737662
28.574618518926325	1.890362	1.3749044
28.59270502632635	1.9086134	1.3815258
28.61079226120985	1.9292634	1.3889792
28.628880224115274	1.974286	1.4050928
28.646968915581287	1.9256331	1.3876718
28.66505833614671	1.9101169	1.3820698
28.68314848635055	2.0240135	1.4226782
28.701239366732004	2.0881898	1.445057
28.71933097783044	2.0640454	1.4366786
28.737423320185403	2.006631	1.416556
28.75551639433665	2.0073552	1.4168116
28.773610200824074	2.0389752	1.4279269
28.791704740187793	2.054552	1.4333708
28.80980001296809	2.0305955	1.4249897
28.827896019705413	2.0289779	1.4244219
28.845992760940433	2.106038	1.4512196
28.86409023721397	2.1372674	1.4619396
28.88218844906704	2.1373386	1.461964
28.900287397040845	2.1906106	1.4800712
28.918387081676755	2.2136116	1.4878211
28.936487503516343	2.2474778	1.499159
28.954588663101365	2.3001916	1.5166383
28.97269056097374	2.2846491	1.5115056
28.990793197675597	2.2548666	1.5016214
29.00889657374923	2.2848296	1.5115653
29.027000689737125	2.3010287	1.5169142
29.04510554618196	2.3359723	1.5283887
29.06321114362659	2.356818	1.5351931
29.08131748261405	2.4084713	1.5519251
29.099424563687567	2.438237	1.5614855
29.11753238739057	2.4769785	1.5738419
29.13564095426663	2.4653776	1.570152
29.15375026485954	2.4405746	1.5622338
29.171860319713275	2.4955525	1.5797318
29.18997111937199	2.5530932	1.5978402
29.20808266438002	2.637542	1.6240511
29.226194955281898	2.7534163	1.6593422
29.244307992622335	2.7576952	1.660631
29.26242177694624	2.7646458	1.6627225
29.2805363087987	2.813699	1.6774085
29.29865158872498	2.9018097	1.7034699
29.316767617270557	2.9756439	1.7250055
29.334884394981064	2.9546123	1.7188985
29.353001922402367	2.9263813	1.7106669
29.37112020008047	2.9488974	1.7172353
29.389239228561596	3.0524771	1.747134
29.407359008392152	3.230852	1.7974571
29.42547954011872	3.620265	1.9026994
29.44360082428809	4.3167043	2.077668
29.46172286144722	5.3095407	2.304244
29.479845652143283	6.709914	2.5903502
29.497969196923606	8.5160265	2.9182231
29.516093496335728	10.749259	3.2786062
29.5342185509274	13.197714	3.632866
29.55234436124651	15.150497	3.892364
29.570470927841175	16.170584	4.0212665
29.588598251259686	15.74606	3.9681306
29.60672633205055	14.630357	3.824965
29.624855170762405	12.780325	3.574958
29.642984767944146	10.5290165	3.2448447
29.66111512414481	8.291892	2.8795645
29.67924623991366	6.3796434	2.5257957
29.697378115800138	4.9609876	2.2273273
29.71551075235387	4.2052426	2.0506687
29.733644150124675	3.7518172	1.9369608
29.751778309662576	3.4593015	1.8599198
29.769913231517766	3.3386168	1.8271883
29.78804891624066	3.2591202	1.8053033
29.806185364381818	3.2450666	1.8014069
29.82432257649206	3.2748532	1.8096555
29.842460553122333	3.2975826	1.8159248
29.86059929482382	3.2455626	1.8015445
29.878738802147872	3.1589882	1.7773542
29.896879075646048	3.1836188	1.7842698
29.915020115870114	3.2362564	1.7989599
29.933161923371976	3.25256	1.8034855
29.951304498703777	3.1809864	1.783532
29.969447842417857	3.1380415	1.7714518
29.987591955066733	3.1378515	1.7713982
30.005736837203123	3.1658332	1.7792789
30.023882489379943	3.166159	1.7793704
30.04202891215028	3.1146452	1.7648357
30.060176106067455	3.1085827	1.7631173
30.078324071684946	3.0641997	1.7504855
30.09647280955646	3.0303314	1.7407846
30.114622320235863	3.0383692	1.7430918
30.132772604277257	3.0686278	1.75175
30.1509236622349	3.0618448	1.7498128
30.16907549466328	3.0456522	1.7451797
30.18722810211705	3.0060046	1.7337834
30.205381485151097	3.0076497	1.7342577
30.22353564432045	2.9612324	1.7208232
30.241690580180403	2.9844563	1.7275579
30.25984629328638	2.9917827	1.7296771
30.278002784194037	3.0075638	1.7342329
30.296160053459246	3.016414	1.7367827
30.314318101638033	2.9651923	1.7219734
30.332476929286646	2.9261603	1.7106023
30.35063653696153	2.9053185	1.7044995
30.368796925219307	2.8840015	1.6982348
30.386958094616844	2.816759	1.6783203
30.40512004571115	2.7418077	1.6558405
30.423282779059463	2.7359726	1.6540775
30.441446295219233	2.7585256	1.6608809
30.459610594748067	2.7882226	1.6697972
30.47777567820382	2.7261026	1.6510913
30.495941546144504	2.6701324	1.634054
30.51410819912835	2.7567987	1.660361
30.532275637713795	2.7944036	1.671647
30.55044386245946	2.7373242	1.6544861
30.56861287392416	2.7116513	1.6467092
30.586782672666956	2.6960278	1.6419585
30.604953259247047	2.6867425	1.6391286
30.623124634223885	2.7648332	1.6627787
30.641296798157075	2.7834022	1.6683532
30.659469751606462	2.727872	1.6516271
30.677643495132074	2.6414952	1.6252677
30.695818029294152	2.5927281	1.610195
30.713993354653116	2.5816755	1.6067593
30.73216947176962	2.6369915	1.6238816
30.75034638120448	2.650344	1.6279876
30.768524083518756	2.7042692	1.6444663
30.786702579273673	2.8313274	1.6826549
30.80488186903069	2.8640664	1.6923553
30.82306195335144	2.9011877	1.7032874
30.841242832797782	3.0512784	1.7467909
30.85942450793176	3.3263333	1.8238238
30.877606979315637	3.6089327	1.8997191
30.895790247511883	3.9490283	1.9872162
30.913974313083134	4.294106	2.0722225
30.932159176592283	4.5505934	2.133212
30.95034483860237	4.6343284	2.152749
30.968531299676698	4.513759	2.1245608
30.98671856037873	4.146612	2.0363233
31.00490662127215	3.6799154	1.9183105
31.023095482920848	3.3031037	1.8174443
31.04128514588892	3.018218	1.737302
31.059475610740662	2.6922805	1.640817
31.07766687804056	2.490756	1.578213
31.09585894835335	2.4830854	1.5757809
31.11405182224393	2.4662406	1.570427
31.132245500277417	2.4295018	1.5586859
31.15043998301914	2.391824	1.5465523
31.168635271034628	2.3535867	1.5341403
31.18683136488964	2.2885773	1.5128045
31.20502826515008	2.2862213	1.5120256
31.223225972382135	2.3674707	1.5386587
31.241424487152155	2.4426544	1.5628994
31.259623810026692	2.4282157	1.5582733
31.27782394157253	2.3824863	1.5435305
31.296024882356644	2.3301094	1.5264696
31.314226632946237	2.3194907	1.5229874
31.332429193908684	2.3090253	1.5195477
31.350632565811598	2.356241	1.5350052
31.368836749222787	2.4171245	1.5547104
31.387041744710295	2.3960226	1.5479091
31.40524755284232	2.3634849	1.5373629
31.423454174187317	2.3858705	1.5446264
31.441661609313922	2.353156	1.534
31.459869858791002	2.2541463	1.5013815
31.478078923187628	2.2407794	1.4969233
31.496288803073064	2.2044604	1.4847425
31.514499499016807	2.2490196	1.4996731
31.532711011588546	2.2719524	1.5072997
31.550923341358178	2.278717	1.509542
31.56913648889584	2.2240798	1.4913349
31.587350454771844	2.142273	1.4636506
31.605565239556732	2.150492	1.4664556
31.62378084382127	2.2329981	1.494322
31.641997268136382	2.255823	1.5019397
31.660214513073274	2.2747006	1.508211
31.67843257920331	2.2541625	1.5013869
31.6966514670981	2.1756718	1.4750159
31.71487117732944	2.170554	1.47328
31.733091710469346	2.2429698	1.4976548
31.751313067090052	2.2713172	1.507089
31.769535247764008	2.2468097	1.4989362
31.787758253063878	2.1856294	1.4783875
31.805982083562526	2.1706622	1.4733167
31.824206739833024	2.1807177	1.4767253
31.84243222244869	2.1872258	1.4789273
31.860658531983013	2.1985922	1.4827651
31.878885669009737	2.1915584	1.4803913
31.897113634102784	2.234965	1.49498
31.91534242783632	2.2191465	1.48968
31.933572050784694	2.1506588	1.4665124
31.951802503522508	2.1830378	1.4775107
31.970033786624548	2.2233987	1.4911065
31.988265900665834	2.2322388	1.4940679
32.006498846221575	2.1989489	1.4828854
32.02473262386724	2.1614072	1.4701725
32.04296723417845	2.1201017	1.456057
32.0612026777311	2.123273	1.4571455
32.07943895510129	2.12869	1.4590031
32.097676066865304	2.118578	1.4555336
32.115914013599685	2.0438354	1.4296277
32.13415279588115	1.9936271	1.4119586
32.152392414286666	2.0134652	1.4189662
32.1706328693934	2.099891	1.4491
32.18887416177875	2.1385612	1.4623821
32.20711629202032	2.1669087	1.4720423
32.225359260695924	2.1594388	1.4695029
32.243603068383614	2.1193092	1.4557847
32.26184771566166	2.036495	1.4270581
32.28009320310852	2.0252235	1.4231035
32.2983395313029	2.0614605	1.4357787
32.31658670082372	2.059491	1.4350927
32.33483471225012	2.1066105	1.4514167
32.35308356616143	2.1324606	1.4602947
32.371333263137245	2.1501231	1.4663298
32.38958380375734	2.1714907	1.4735979
32.407835188601744	2.1489582	1.4659325
32.42608741825067	2.151312	1.4667352
32.444340493284585	2.0993183	1.4489025
32.46259441428416	2.0950937	1.4474438
32.48084918183028	2.0186994	1.4208094
32.49910479650405	2.0127473	1.4187132
32.51736125888683	1.9909542	1.4110117
32.53561856956014	1.9295799	1.3890932
32.5538767291058	1.897737	1.3775837
32.572135738105764	1.9694914	1.4033856
32.59039559714228	2.0326161	1.4256985
32.608656306797776	2.029699	1.4246751
32.62691786765491	2.003217	1.4153504
32.645180280296586	1.9388244	1.3924167
32.663443545305896	1.8557917	1.3622744
32.68170766326619	1.8723317	1.3683318
32.69997263476099	1.907049	1.3809594
32.7182384603741	1.9300718	1.3892703
32.7365051406895	1.9660709	1.4021665
32.75477267629144	1.9525793	1.3973472
32.77304106776434	2.0049813	1.4159737
32.79131031569289	2.02176	1.4218861
32.809580420661966	2.043032	1.4293467
32.827851383256714	1.9861064	1.4092928
32.84612320406245	1.9194603	1.3854458
32.86439588366476	1.8842299	1.3726726
32.88266942264945	1.9378768	1.3920765
32.9009438216025	1.9053577	1.380347
32.9192190811102	1.9448965	1.3945955
32.937495201758985	1.9180264	1.3849283
32.95577218413556	1.9006779	1.3786508
32.974050028826866	1.8448523	1.3582534
32.992328736420035	1.8981733	1.3777422
33.010608307502444	1.8830917	1.3722578
33.02888874266169	1.891116	1.3751786
33.047170042485604	1.8911839	1.3752033
33.06545220756225	1.9028515	1.3794389
33.083735238479896	1.8970577	1.3773372
33.10201913582707	1.8619257	1.364524
33.12030390019248	1.8218257	1.3497503
33.138589532165135	1.8778554	1.3703487
33.15687603233419	1.9945874	1.4122987
33.17516340128909	2.0090072	1.4173945
33.19345163961947	1.9314523	1.3897669
33.211740747915215	1.8748732	1.3692601
33.23003072676643	1.8845931	1.3728049
33.248321576763466	1.9310933	1.3896378
33.266613298496885	1.9424112	1.3937042
33.28490589255747	1.8468081	1.3589731
33.30319935953626	1.8572317	1.3628029
33.32149370002451	1.8734785	1.3687507
33.339788914613706	1.9380033	1.3921219
33.358085003895575	1.8859069	1.3732833
33.376381968462034	1.8450181	1.3583144
33.39467980890529	1.8275932	1.3518851
33.41297852581774	1.8413754	1.3569728
33.43127811979204	1.7906604	1.3381556
33.44957859142105	1.7283378	1.3146626
33.467879941297866	1.7836533	1.3355348
33.486182170015844	1.8810505	1.371514
33.50448527816853	1.9337344	1.3905878
33.522789266349754	1.975004	1.4053483
33.541094135153514	1.9541397	1.3979055
33.55939988517411	1.9420909	1.3935893
33.57770651700602	1.948017	1.3957138
33.59601403124398	1.8511237	1.36056
33.61432242848296	1.7425917	1.3200727
33.632631709318154	1.7285357	1.3147379
33.650941874344994	1.7768573	1.3329881
33.66925292415916	1.8634713	1.3650903
33.68756485935654	1.9245014	1.387264
33.70587768053328	1.8742429	1.3690299
33.724191388285746	1.8650678	1.3656749
33.74250598321054	1.8541162	1.3616594
33.760821465904506	1.8550633	1.3620071
33.77913783696474	1.7958009	1.340075
33.79745509698852	1.7181718	1.3107905
33.815773246573414	1.8269713	1.351655
33.8340922863172	1.9726758	1.4045198
33.852412216817896	2.0205634	1.4214652
33.87073303867377	1.9527231	1.3973987
33.889054752483304	1.7757624	1.3325773
33.907377358845245	1.72331	1.312749
33.92570085835853	1.7684392	1.3298267
33.94402525162239	1.9034588	1.3796589
33.96235053923627	1.9286616	1.3887626
33.980676721799824	1.8528802	1.3612055
33.999003799912984	1.7797891	1.3340874
34.01733177417592	1.9171578	1.3846147
34.03566064518901	2.0376768	1.4274722
34.0539904135529	1.9967545	1.4130657
34.07232107986846	1.9223232	1.3864787
34.090652644736785	1.9448576	1.3945816
34.108985108759235	1.9894332	1.4104726
34.12731847253742	2.0075138	1.4168676
34.14565273667313	2.0020907	1.4149525
34.16398790176847	1.990527	1.4108604
34.18232396842574	1.8361939	1.3550624
34.20066093724749	1.8620751	1.3645787
34.21899880883651	1.9739518	1.404974
34.23733758379583	2.0307221	1.425034
34.25567726272874	2.0458045	1.4303162
34.27401784623872	1.9808648	1.407432
34.29235933492957	1.8484942	1.3595934
34.31070172940526	1.8785644	1.3706073
34.32904503027003	1.9646109	1.4016458
34.347389238128386	2.0776393	1.4414018
34.36573435358502	2.051565	1.4323285
34.38408037724492	1.988689	1.4102088
34.402427309713296	1.9473261	1.3954662
34.42077515159559	1.9628149	1.401005
34.43912390349752	1.9257389	1.38771
34.45747356602499	1.972771	1.4045537
34.47582413978423	2.0085075	1.4172182
34.49417562538163	1.8598254	1.3637542
34.51252802342388	1.7499372	1.3228519
34.53088133451789	1.8733747	1.3687128
34.54923555927084	1.9009186	1.378738
34.567590698290104	1.9313972	1.3897471
34.58594675218336	1.9759547	1.4056865
34.6043037215585	1.9627314	1.4009751
34.62266160702365	1.9655888	1.4019946
34.641020409187234	2.0071943	1.4167548
34.65938012865785	1.9872571	1.4097011
34.677740766044394	2.0018227	1.4148579
34.69610232195598	1.9793645	1.4068989
34.714464797002016	1.7618887	1.3273616
34.73282819179208	1.5190051	1.2324792
34.751192506936064	1.6547906	1.2863866
34.76955774304408	1.8072118	1.3443258
34.7879239007265	1.8823926	1.3720032
34.80629098059391	2.0002213	1.4142917
34.824658983257194	2.0116246	1.4183176
34.843027909327446	2.116325	1.4547594
34.86139775941603	2.149421	1.4660903
34.879768534134534	2.1551714	1.4680502
34.89814023409483	2.0625262	1.4361498
34.91651285990901	1.945438	1.3947896
34.93488641218944	1.8620096	1.3645548
34.95326089154871	1.7023273	1.3047327
34.97163629859967	1.6553398	1.2866001
34.99001263395542	1.6190187	1.2724067
35.00838989822934	1.6580601	1.2876568
35.02676809203499	1.8295059	1.3525923
35.04514721598624	1.9442933	1.3943791
35.063527270697215	1.8353285	1.354743
35.081908256782256	1.7986928	1.3411535
35.10029017485597	1.9082365	1.3813894
35.11867302553321	2.0538185	1.433115
35.137056809429104	1.9626584	1.4009491
35.155441527159006	1.9249111	1.3874117
35.173827179338524	2.0386724	1.4278209
35.19221376658354	1.9927045	1.4116318
35.21060128951017	2.082096	1.442947
35.2289897487348	2.2807202	1.5102054
35.24737914487405	2.4138317	1.5536511
35.26576947854479	2.2483876	1.4994625
35.28416075036418	2.1230147	1.4570569
35.30255296094958	1.9426296	1.3937825
35.32094611091867	1.7612709	1.3271288
35.33934020088932	1.726819	1.3140849
35.35773523147969	1.7470621	1.3217647
35.3761312033082	1.6781319	1.2954273
35.394528116993506	1.805772	1.3437902
35.41292597315452	2.0581913	1.4346398
35.431324772410434	2.3131073	1.5208902
35.449724515380666	2.0905292	1.4458662
35.46812520268491	1.7253251	1.3135163
35.486526834943106	1.9446553	1.394509
35.504929412775454	1.923753	1.3869942
35.52333293680242	1.7416831	1.3197284
35.54173740764471	1.8197948	1.3489977
35.560142825923286	1.2305884	1.1093189
35.5785491922594	0.8193138	0.90515953
35.59695650727454	0.9672503	0.98348886
35.61536477159042	1.3578206	1.1652557
