0.008763373481513119	0.3822274	0.6182454
0.026290120649546365	0.3426002	0.5853206
0.043816868432600686	0.25735375	0.50730044
0.06134361724069026	0.11921657	0.34527752
0.07887036748382949	0.115496926	0.3398484
0.0963971195720331	0.08964781	0.29941243
0.11392387391531617	0.1687895	0.41084
0.1314506309236943	0.1308301	0.36170444
0.1489773910071836	0.16176939	0.40220565
0.16650415457580078	0.11953216	0.34573424
0.18403092203956356	0.1264876	0.35565096
0.20155769380849	0.15102556	0.38862008
0.2190844702925996	0.12616788	0.35520118
0.2366112519019124	0.102889806	0.32076442
0.2541380390464497	0.08339211	0.28877693
0.27166483213623416	0.12582977	0.3547249
0.28919163158128947	0.15519638	0.39394972
0.3067184377916406	0.16242737	0.4030228
0.324245251177314	0.14040646	0.3747085
0.34177207214833777	0.122157045	0.34950972
0.3592989011147415	0.1448316	0.38056746
0.37682573848655654	0.1515721	0.3893226
0.39435258467381573	0.10159294	0.3187365
0.41187944008655414	0.10712739	0.3273032
0.42940630513480854	0.076214805	0.2760703
0.446933180228618	0.07301877	0.27021986
0.4644600657780234	0.07861018	0.28037506
0.48198696219306775	0.09052978	0.30088165
0.49951386988379676	0.14325154	0.37848586
0.5170407892602581	0.16705205	0.40872002
0.5345677207325025	0.1956097	0.44227785
0.5520946647105822	0.25255245	0.50254595
0.5696216216045534	0.23122899	0.48086277
0.5871485918244737	0.18677871	0.43217903
0.6046755757804043	0.12460684	0.35299695
0.6222025738824094	0.1340964	0.36619174
0.6397295865405557	0.16265558	0.4033058
0.6572566141649129	0.14911519	0.38615435
0.6747836571655547	0.13061424	0.3614059
0.6923107159525568	0.13342391	0.36527237
0.7098377909359992	0.13598879	0.36876658
0.7273648825259653	0.136816	0.36988646
0.7448919911325411	0.14606766	0.382188
0.762419117165817	0.1380504	0.37155136
0.7799462610358868	0.14630657	0.3825004
0.7974734231528482	0.16267934	0.40333527
0.8150006039268024	0.17643595	0.42004278
0.8325278037678551	0.1933431	0.43970796
0.8500550230861152	0.22594595	0.4753377
0.8675822622916969	0.20868315	0.45681852
0.8851095217947171	0.19304518	0.43936908
0.9026368020052984	0.16869178	0.41072106
0.9201641033335665	0.19766673	0.44459727
0.9376914261896523	0.1974355	0.44433716
0.9552187709836915	0.19673704	0.4435505
0.9727461381258234	0.20901826	0.45718515
0.990273528026193	0.25323468	0.5032243
1.0078009410949496	0.25533	0.5053019
1.0253283777422473	0.2495932	0.49959302
1.0428558383782454	0.24624386	0.49622965
1.0603833234131086	0.26695505	0.5166769
1.0779108332570058	0.27859598	0.5278219
1.0954383683201119	0.28025874	0.5293947
1.112965929012607	0.3207072	0.56631017
1.1304935157446763	0.45403698	0.67382264
1.1480211289265108	0.5111066	0.7149172
1.1655487689683062	1.3104712	1.1447581
1.1830764362802655	1.54023	1.24106
1.200604131272596	1.912238	1.3828369
1.2181318543555117	2.3108454	1.5201465
1.235659605939232	2.4215572	1.5561353
1.253187386433982	4.1900163	2.046953
1.270715196249994	6.5924716	2.567581
1.2882430357975057	11.833907	3.4400446
1.3057709054867608	16.339354	4.0421968
1.3232988057280106	21.819437	4.671128
1.3408267369315112	26.330744	5.131349
1.358354699507526	29.904284	5.468481
1.3758826938663256	34.164783	5.845065
1.3934107204181858	36.732376	6.0607243
1.410938779573391	37.21554	6.1004543
1.4284668717422309	37.553802	6.1281157
1.4459949973350033	36.69617	6.0577364
1.4635231567620117	36.573456	6.0475993
1.4810513504335687	35.54191	5.9617033
1.4985795787599925	34.720646	5.8924227
1.5161078421516088	34.39663	5.864864
1.5336361410187505	33.51522	5.789233
1.5511644757717598	33.409966	5.7801356
1.5686928468209842	33.936226	5.825481
1.58622125457678	34.51853	5.8752475
1.6037496994495108	36.134342	6.0111847
1.621278181849548	36.074142	6.0061755
1.6388067021872719	36.733036	6.0607786
1.6563352608730693	35.723797	5.9769387
1.673863858317336	34.820667	5.9009037
1.6913924949304753	34.16587	5.845158
1.7089211711228998	33.39517	5.7788553
1.7264498873050296	32.49223	5.700196
1.7439786438872935	31.52423	5.614644
1.7615074412801288	30.692894	5.540117
1.779036279893981	29.908112	5.468831
1.796565160139305	28.946608	5.380205
1.814094082426564	28.528402	5.3411984
1.8316230471662298	28.13995	5.3047104
1.849152054768784	27.433235	5.2376747
1.8666811056447168	26.911175	5.187598
1.8842102002045273	26.063679	5.10526
1.901739338858724	25.13216	5.0131984
1.9192685220178245	24.713617	4.971279
1.9367977500923557	24.237486	4.923158
1.9543270234928547	24.086954	4.907846
1.971856342629867	23.511005	4.848815
1.9893857079139496	22.792719	4.774172
2.006915119755667	22.212503	4.713014
2.0244445785655945	21.541418	4.6412735
2.0419740847543175	20.991846	4.581686
2.0595036387324317	20.317879	4.507536
2.0770332409105414	19.801834	4.449925
2.094562891699263	19.451094	4.4103394
2.1120925915092217	19.376123	4.4018316
2.129622340751053	19.362888	4.400328
2.1471521398354043	187.60912	13.697047
2.1646819891729323	443.9332	21.069723
2.182211889174303	439.87683	20.97324
2.1997418402501974	452.15967	21.264046
2.2172718428113023	431.9119	20.78249
2.234801897268317	320.07474	17.890633
2.2523320040319548	16.548632	4.068001
2.269862163512935	16.33166	4.041245
2.287392376121992	15.846024	3.9807065
2.304922642269869	15.625435	3.952902
2.322452962367322	15.366351	3.9199939
2.3399833368251164	15.107287	3.8868093
2.357513766054032	14.745762	3.8400211
2.3750442504648586	14.375967	3.7915652
2.3925747904683963	14.162405	3.763297
2.410105386475459	13.987272	3.7399561
2.4276360388968707	13.758636	3.7092636
2.445166748143469	13.603235	3.6882565
2.4626975146261025	13.385645	3.6586397
2.4802283387556323	13.261903	3.6416895
2.4977592209429305	13.027971	3.6094282
2.5152901615988825	12.832866	3.582299
2.5328211611343865	12.647371	3.5563142
2.5503522199603523	12.487901	3.5338223
2.5678833384877024	12.340571	3.512915
2.5854145171273712	12.06653	3.4736912
2.6029457562903064	11.873892	3.4458513
2.620477056387469	11.732197	3.4252295
2.6380084178298326	11.492919	3.3901207
2.655539841028383	11.160378	3.3407152
2.673071326394119	10.871184	3.297148
2.6906028743380523	10.595651	3.2550962
2.708134485271211	10.701235	3.271274
2.7256661596046325	10.577695	3.2523367
2.743197897749369	10.603249	3.256263
2.760729700116486	10.506239	3.241333
2.778261567117063	10.390401	3.2234144
2.795793499162193	10.21066	3.1954124
2.8133254966629817	10.026728	3.1665008
2.830857560030551	9.77195	3.1260118
2.8483896896760337	9.611623	3.1002617
2.865921886010578	9.292086	3.0482922
2.883454149445347	9.03321	3.0055299
2.9009864803915177	8.820241	2.9698892
2.91851887926028	8.694561	2.9486542
2.9360513464628384	8.634937	2.9385264
2.953583882410413	8.585735	2.9301426
2.9711164875142373	8.626733	2.93713
2.9886491621855606	8.644988	2.940236
3.0061819068356455	8.409927	2.8999875
3.023714721875769	8.116851	2.8490088
3.041247607717225	7.977173	2.824389
3.0587805647713213	8.014004	2.8309016
3.0763135934493806	7.961966	2.8216956
3.0938466941627407	7.897617	2.8102698
3.1113798673227544	7.6479096	2.7654855
3.1289131133407904	7.5794477	2.7530797
3.1464464326282315	7.550589	2.7478335
3.1639798255964786	7.6157503	2.7596648
3.1815132926569443	7.443669	2.7283087
3.1990468342210603	7.285609	2.6991868
3.216580450700272	7.059276	2.6569297
3.2341141425060416	6.9216757	2.6309078
3.251647910049847	6.881994	2.6233554
3.2691817537431813	6.8604364	2.6192434
3.286715673997555	6.9078097	2.6282713
3.3042496712244938	7.0227103	2.6500397
3.32178374583554	6.972981	2.6406403
3.339317898242251	6.8572073	2.618627
3.3568521288562034	6.753052	2.5986636
3.3743864380889876	6.6980696	2.588063
3.3919208263522127	6.652385	2.5792217
3.4094552940575023	6.578775	2.5649123
3.4269898416164972	6.5432963	2.5579867
3.444524469440858	6.444349	2.5385723
3.4620591779422587	6.2900057	2.5079885
3.479593967532391	6.1941357	2.488802
3.4971288386229658	6.11464	2.4727798
3.5146637916257086	6.142132	2.4783325
3.5321988269523628	6.184739	2.4869137
3.5497339450146903	6.182858	2.4865353
3.5672691462244708	6.142095	2.4783251
3.5848044309934988	6.045969	2.4588552
3.60233979973359	5.994823	2.4484327
3.619875252856575	5.986768	2.446787
3.6374107907743034	5.989767	2.4474
3.6549464138986427	6.096783	2.4691665
3.6724821226414788	6.0261517	2.454822
3.690017917414714	6.019606	2.4534886
3.7075537986302702	5.9808755	2.4455829
3.7250897667000857	6.1018405	2.4701903
3.7426258220361235	6.3063235	2.5112395
3.7601619650503553	6.5715938	2.563512
3.777698196154779	7.0355616	2.6524632
3.7952345157614067	7.943681	2.8184536
3.8127709242822716	8.664559	2.9435623
3.830307422129425	10.603719	3.2563353
3.847844009714936	11.911237	3.451266
3.8653806874508954	15.165602	3.8943038
3.882917455749409	14.9099655	3.8613424
3.900454315022606	15.03811	3.8779001
3.917991265682631	12.265273	3.5021813
3.9355283081416506	10.38323	3.222302
3.9530654428118495	8.336624	2.8873212
3.970602670105433	7.1555047	2.6749775
3.9881399904346244	6.343053	2.5185418
4.005677404211669	6.377151	2.5253022
4.023214911848827	6.249734	2.4999468
4.0407525137583855	6.2108827	2.4921641
4.058290210352644	6.1725254	2.4844568
4.075828002043927	6.148034	2.479523
4.0933658892445814	6.147003	2.479315
4.110903872366966	6.0844707	2.466672
4.128441951823468	6.010062	2.4515429
4.145980128026488	5.947794	2.4388099
4.163518401388452	5.8699713	2.4228024
4.181056772321807	5.8577733	2.4202838
4.1985952412390155	5.929705	2.4350986
4.216133808552567	6.0131745	2.4521775
4.233672474674966	6.0811777	2.4660044
4.251211240018741	6.270044	2.5040057
4.268750104996445	6.4262366	2.5350022
4.286289070020643	7.394363	2.7192578
4.303828135503928	9.156263	3.0259318
4.3213673018589125	29.398434	5.4220324
4.3389065694982305	90.488144	9.512526
4.356445938834537	165.53728	12.866129
4.3739854102805085	171.30006	13.088165
4.391524984248844	172.27385	13.125314
4.409064661152262	136.38925	11.678581
4.426604441403504	96.58405	9.827719
4.444144325415337	75.26721	8.675668
4.461684313600543	21.242113	4.6089168
4.47922440637193	21.547638	4.6419435
4.496764604142329	19.842815	4.4545274
4.5143049073245916	18.0883	4.253034
4.531845316331589	15.9261675	3.9907603
4.5493858315762195	13.141525	3.6251242
4.566926453471405	10.952091	3.3093944
4.584467182430081	9.13417	3.0222788
4.602008018865218	8.108607	2.8475616
4.619548963189798	7.3812447	2.7168446
4.637090015816834	6.850294	2.6173067
4.654631177159353	6.465908	2.542815
4.672172447630417	6.221455	2.4942844
4.689713827643102	6.0794744	2.4656591
4.7072553176105085	5.992481	2.4479544
4.724796917945764	5.8168774	2.4118204
4.742338629062015	5.724336	2.3925586
4.759880451372434	5.562509	2.3584971
4.777422385290215	5.4379015	2.3319309
4.794964431228581	5.455041	2.335603
4.812506589600768	5.492306	2.343567
4.830048860820047	5.524475	2.3504202
4.847591245299709	5.499204	2.3450382
4.8651337434530655	5.423749	2.3288944
4.882676355693457	5.362147	2.315631
4.900219082434242	5.346044	2.3121514
4.917761924088813	5.3725266	2.317871
4.935304881070575	5.4229517	2.3287232
4.952847953792969	5.4674335	2.3382545
4.970391142669449	5.4754004	2.3399575
4.9879344481135055	5.434137	2.3311236
5.005477870538642	5.341729	2.311218
5.023021410358394	5.302063	2.302621
5.040565067986324	5.2633886	2.2942076
5.05810884383601	5.2142143	2.2834654
5.075652738321066	5.221052	2.2849622
5.09319675185512	5.225258	2.2858822
5.110740884851836	5.203836	2.2811918
5.128285137724894	5.1517076	2.2697372
5.145829510888007	5.140352	2.2672343
5.163374004754908	5.167698	2.273257
5.1809186197393595	5.191908	2.278576
5.198463356255145	5.1841273	2.2768679
5.216008214716077	5.1010084	2.258541
5.233553195535998	4.999267	2.235904
5.251098299128764	5.017606	2.2400012
5.268643525908272	5.0320764	2.243229
5.286188876288432	5.078135	2.2534719
5.3037343506831895	5.029442	2.2426417
5.32127994950651	5.022976	2.2411997
5.3388256731723915	5.017169	2.2399037
5.356371522094851	5.045095	2.2461288
5.373917496687938	5.0152783	2.2394817
5.391463597365729	5.037414	2.2444184
5.40900982454232	5.0357738	2.244053
5.426556178631843	5.0463834	2.2464156
5.444102660048449	5.044214	2.2459328
5.4616492692063225	5.046058	2.2463434
5.479196006519669	5.006339	2.237485
5.496742872402727	5.0496335	2.247139
5.514289867269756	5.0316095	2.243125
5.531836991535049	5.0822253	2.254379
5.549384245612924	5.049381	2.2470827
5.566931629917724	5.0160823	2.2396612
5.584479144863822	4.920208	2.2181542
5.6020267908656205	4.9133043	2.2165976
5.619574568337545	4.9350805	2.2215042
5.637122477694054	4.943851	2.2234771
5.654670519349629	4.9017634	2.2139926
5.672218693718784	4.851657	2.2026477
5.689767001216059	4.8911824	2.2116017
5.707315442256021	4.9237595	2.2189546
5.724864017253266	4.9913473	2.2341323
5.7424127266224225	4.9713697	2.229657
5.75996157077814	4.9625235	2.227672
5.777510550135105	5.000997	2.236291
5.795059665108022	4.9116926	2.216234
5.812608916111639	4.949029	2.2246413
5.830158303560715	5.003633	2.2368803
5.847707827870055	5.059277	2.2492838
5.86525748945448	5.117097	2.2621002
5.8828072887288485	5.1899886	2.2781546
5.900357226108044	5.260898	2.2936647
5.917907302006979	5.351861	2.3134089
5.9354575168406	5.9395876	2.4371269
5.9530078710238765	6.458265	2.5413117
5.970558364971812	6.952624	2.636783
5.988108999099438	7.203002	2.683841
6.005659773821818	7.733114	2.7808478
6.023210689554039	7.551125	2.747931
6.040761746711227	8.005035	2.829317
6.058312945708531	7.3430867	2.709813
6.075864286961132	6.8929214	2.6254375
6.093415770884244	6.321839	2.5143268
6.1109673978931065	5.821833	2.4128475
6.128519168402993	5.3124633	2.3048782
6.146071082829204	5.1746664	2.2747893
6.163623141587075	5.030485	2.2428744
6.181175345091969	4.99356	2.2346275
6.198727693759281	4.9745345	2.2303665
6.216280188004435	4.994452	2.234827
6.233832828242885	5.017935	2.2400746
6.251385614890126	5.0152397	2.239473
6.268938548361669	4.9415913	2.222969
6.286491629073067	4.8391027	2.199796
6.304044857439898	4.846586	2.2014964
6.321598233877777	4.880829	2.2092597
6.339151758802344	4.9318724	2.220782
6.356705432629277	4.938016	2.2221646
6.37425925577428	4.839375	2.199858
6.391813228653095	4.792647	2.1892114
6.409367351681486	4.755953	2.1808147
6.426921625275259	4.7838373	2.1871984
6.44447604985025	4.7874947	2.1880345
6.46203062582232	4.786346	2.187772
6.47958535360737	4.8154964	2.194424
6.497140233621328	4.881405	2.2093902
6.514695266280161	4.893106	2.2120366
6.532250451999859	4.9438157	2.2234693
6.549805791196454	4.898616	2.2132816
6.567361284286002	4.9191675	2.2179196
6.584916931684597	4.9461837	2.2240016
6.602472733808367	4.8993382	2.213445
6.6200286910734665	4.9108763	2.2160497
6.637584803896092	4.8919563	2.2117767
6.655141072692462	4.9295435	2.2202575
6.672697497878842	4.957421	2.2265267
6.690254079871514	4.880513	2.2091885
6.707810819086808	4.8668504	2.206094
6.725367715941078	4.811783	2.1935775
6.742924770850719	4.8066144	2.1923993
6.760481984232151	4.797115	2.1902318
6.778039356501836	4.8101473	2.1932049
6.795596888076266	4.801527	2.1912386
6.813154579371963	4.8408175	2.2001858
6.830712430805492	4.882431	2.2096224
6.84827044279344	4.9459343	2.2239456
6.865828615752445	4.9550076	2.2259846
6.883386950099159	4.96485	2.2281942
6.900945446250287	4.920262	2.2181664
6.918504104622553	4.8621917	2.2050378
6.936062925632727	4.8930182	2.2120168
6.953621909697607	4.942051	2.2230723
6.971181057234028	5.016247	2.239698
6.988740368658859	5.0087247	2.238018
7.006299844389007	5.096231	2.2574832
7.023859484841407	5.12163	2.2631018
7.041419290433036	5.218344	2.2843695
7.058979261580902	5.2734795	2.2964058
7.0765393987020495	5.46216	2.3371265
7.094099702213559	5.810747	2.4105492
7.111660172532549	6.232518	2.4965012
7.129220810076164	6.704266	2.5892599
7.146781615261595	7.3489714	2.7108986
7.16434258850606	7.53457	2.7449172
7.181903730226821	7.901795	2.8110132
7.1994650408411704	7.9095993	2.812401
7.217026520766437	8.075104	2.8416727
7.234588170419983	8.394555	2.8973358
7.252149990219215	8.312077	2.8830671
7.269711980581568	8.194284	2.862566
7.2872741419245175	7.8715873	2.805635
7.304836474665574	7.3862767	2.7177706
7.322398979222286	7.1315913	2.6705039
7.339961656012233	6.9131393	2.6292849
7.357524505453039	6.664188	2.5815089
7.375087527962357	6.367798	2.5234497
7.392650723957886	6.0673194	2.463193
7.410214093857353	5.7751985	2.4031641
7.427777638078528	5.5792294	2.3620393
7.445341357039213	5.3674483	2.3167753
7.4629052511572525	5.215578	2.2837641
7.480469320850524	5.1164985	2.261968
7.498033566536948	5.130842	2.2651362
7.5155979886344735	5.0746	2.2526872
7.5331625875610975	5.0359287	2.2440875
7.550727363734844	5.0291724	2.2425816
7.568292317573788	5.078223	2.2534914
7.585857449496025	5.0003858	2.2361543
7.603422759919705	4.953753	2.2257028
7.620988249263007	4.88935	2.2111874
7.638553917944147	4.947257	2.224243
7.656119766381391	5.03803	2.2445557
7.673685794993023	5.117127	2.2621067
7.691252004197388	5.093138	2.2567983
7.70881839441285	5.062558	2.2500129
7.726384966057826	5.0357695	2.244052
7.743951719550762	5.057749	2.248944
7.761518655310149	5.086288	2.25528
7.779085773754511	5.086756	2.2553837
7.796653075302419	5.0933003	2.256834
7.814220560372475	5.1214304	2.2630577
7.831788229383323	5.1469007	2.2686782
7.8493560827536495	5.209603	2.2824554
7.866924120902174	5.233468	2.2876775
7.884492344247663	5.191572	2.2785022
7.9020607532089135	5.232078	2.2873735
7.919629348204771	5.2165856	2.2839847
7.937198129654115	5.2605486	2.2935886
7.954767097975865	5.207512	2.2819974
7.972336253588986	5.201585	2.2806983
7.989905596912472	5.2040024	2.2812283
8.007475128365371	5.257709	2.2929695
8.025044848366756	5.310553	2.3044636
8.042614757335754	5.386121	2.3208017
8.060184855691523	5.459269	2.3365078
8.07775514385327	5.6192737	2.3705008
8.095325622240228	5.7056446	2.3886492
8.112896291271687	5.767152	2.4014895
8.130467151366968	5.816737	2.4117913
8.148038202945436	5.789117	2.4060583
8.165609446426497	5.818595	2.4121764
8.183180882229594	5.7744384	2.403006
8.200752510774217	5.846002	2.4178507
8.218324332479893	5.840896	2.4167945
8.235896347766193	5.798033	2.4079106
8.253468557052724	5.786094	2.40543
8.27104096075914	5.744732	2.396817
8.288613559305137	5.796105	2.40751
8.306186353110448	5.8650055	2.4217772
8.32375934259485	5.930529	2.4352677
8.341332528178162	5.9367433	2.4365432
8.358905910280246	6.002321	2.4499633
8.376479489321003	6.0540066	2.460489
8.394053265720377	6.1171145	2.4732802
8.411627239898356	6.09645	2.469099
8.42920141227497	6.058963	2.461496
8.44677578327029	6.012888	2.452119
8.464350353304427	5.930931	2.4353504
8.48192512279754	5.8897448	2.4268796
8.499500092169827	5.8463316	2.417919
8.51707526184153	5.875503	2.4239438
8.534650632232934	5.924159	2.4339595
8.552226203764365	5.9729342	2.4439588
8.569801976856192	5.990141	2.4474764
8.587377951928834	5.9833117	2.446081
8.60495412940274	6.0004406	2.4495797
8.622530509698416	6.079894	2.465744
8.6401070932364	6.225882	2.4951718
8.657683880437283	6.3570914	2.5213273
8.675260871721695	6.4785047	2.5452907
8.692838067510303	6.659745	2.5806482
8.710415468223834	6.829152	2.6132646
8.727993074283043	6.986872	2.6432693
8.745570886108737	6.970598	2.640189
8.763148904121765	6.9917407	2.64419
8.78072712874302	6.9396296	2.6343176
8.798305560393441	7.2197976	2.686968
8.815884199494006	7.3875556	2.718006
8.833463046465745	7.6101646	2.7586527
8.851042101729728	7.7346	2.7811148
8.86862136570707	8.038402	2.8352075
8.886200838818924	8.113605	2.848439
8.903780521486505	8.110989	2.8479798
8.921360414131055	8.278211	2.877188
8.938940517173874	8.503305	2.9160428
8.956520831036297	8.70202	2.9499185
8.97410135613971	8.89321	2.9821486
8.99168209290554	8.94461	2.9907541
9.009263041755265	9.100003	3.016621
9.026844203110405	9.304852	3.0503855
9.044425577392525	9.410726	3.0676906
9.062007165023239	9.563965	3.092566
9.079588966424197	9.877924	3.1429164
9.097170982017108	10.003737	3.1628685
9.11475321222372	10.827241	3.2904773
9.132335657465825	11.608496	3.4071243
9.149918318165264	11.664423	3.4153218
9.167501194743924	12.212105	3.4945822
9.18508428762374	11.954672	3.457553
9.202667597226693	11.876216	3.4461887
9.220251123974803	11.502227	3.3914933
9.237834868290143	11.244157	3.3532307
9.255418830594836	11.094791	3.3308845
9.273003011311046	10.646591	3.2629116
9.290587410860985	10.43504	3.2303314
9.308172029666911	9.85577	3.13939
9.32575686815113	9.705574	3.115377
9.343341926735997	8.630311	2.9377391
9.360927205843916	8.444342	2.905915
9.378512705897327	8.196982	2.8630373
9.396098427318728	7.9700537	2.8231285
9.413684370530664	7.8286843	2.7979786
9.431270535955722	7.6849017	2.7721655
9.448856924016539	7.6069818	2.7580757
9.466443535135806	7.4925547	2.7372532
9.484030369736251	7.5015	2.7388866
9.501617428240658	7.505648	2.7396438
9.519204711071852	7.506387	2.7397788
9.536792218652714	7.495489	2.7377892
9.55437995140617	7.439156	2.7274816
9.571967909755191	7.4950604	2.7377107
9.589556094122802	7.5367875	2.745321
9.60714450493207	7.6439657	2.7647722
9.624733142606116	7.7315426	2.7805653
9.642322007568108	7.7854056	2.790234
9.659911100241267	7.791125	2.7912586
9.677500421048851	7.710171	2.7767196
9.695089970414175	7.721526	2.7787635
9.712679748760609	7.651846	2.766197
9.730269756511557	7.6590347	2.767496
9.747859994090492	7.66361	2.7683227
9.765450461920915	7.787718	2.7906482
9.78304116042639	7.867129	2.8048403
9.800632090030527	7.9345417	2.8168318
9.81822325115699	7.9174595	2.813798
9.835814644229481	7.9472756	2.8190913
9.853406269671762	7.935752	2.8170466
9.870998127907646	7.8983583	2.810402
9.888590219360985	7.9309006	2.8161855
9.906182544455698	7.9921527	2.8270395
9.923775103615734	8.004868	2.8292875
9.941367897265108	7.96205	2.8217103
9.958960925827878	7.9917593	2.82697
9.97655418972816	7.9349065	2.8168967
9.994147689390106	7.9606867	2.8214688
10.011741425237934	7.9432936	2.818385
10.029335397695904	8.003805	2.8290997
10.04692960718833	8.000172	2.8284574
10.06452405413958	8.021281	2.8321867
10.082118738974064	7.9466243	2.8189757
10.099713662116246	7.8998923	2.8106747
10.117308823990651	7.8728113	2.8058531
10.134904225021844	7.9361534	2.817118
10.152499865634445	7.927938	2.8156595
10.170095746253125	7.847115	2.8012702
10.18769186730261	7.7863703	2.790407
10.205288229207675	7.810073	2.7946508
10.222884832393145	7.8751607	2.8062716
10.2404816772839	7.8337913	2.798891
10.258078764304868	7.792639	2.79153
10.275676093881035	7.760234	2.7857196
10.293273666437438	7.8190713	2.79626
10.310871482399158	7.8921585	2.8092985
10.32846954219134	7.880731	2.807264
10.346067846239173	7.9124336	2.8129048
10.363666394967908	7.9067645	2.811897
10.38126518880283	7.910684	2.812594
10.398864228169298	7.938031	2.8174512
10.416463513492713	7.9089046	2.8122776
10.434063045198531	7.8335724	2.798852
10.451662823712262	7.8080015	2.79428
10.469262849459467	7.892767	2.8094068
10.486863122865758	7.9034677	2.8113108
10.504463644356806	7.8995996	2.8106227
10.522064414358338	7.771989	2.7878287
10.539665433296118	7.679943	2.771271
10.557266701595987	7.690184	2.773118
10.574868219683818	7.6123447	2.7590477
10.592469987985552	7.575103	2.7522905
10.610072006927185	7.418458	2.7236845
10.627674276934751	7.309699	2.7036455
10.64527679843435	7.1719174	2.6780436
10.662879571852143	7.0482006	2.6548448
10.680482597614331	6.969933	2.640063
10.698085876147173	6.8099823	2.6095943
10.715689407876988	6.6965556	2.5877705
10.733293193230146	6.6127872	2.571534
10.750897232633072	6.5377913	2.5569105
10.76850152651225	6.481127	2.5458057
10.786106075294207	6.420161	2.5338037
10.803710879405534	6.314683	2.5129032
10.821315939272877	6.237196	2.497438
10.83892125532294	6.1334467	2.4765797
10.856526827982472	6.0559297	2.4608798
10.874132657678285	6.018704	2.4533048
10.891738744837243	5.9644604	2.4422245
10.909345089886271	5.9989176	2.4492688
10.926951693252343	5.981042	2.445617
10.944558555362494	5.908543	2.4307494
10.96216567664381	5.8242664	2.4133518
10.979773057523436	5.7716746	2.402431
10.997380698428573	5.7440596	2.3966768
11.014988599786477	5.7044787	2.388405
11.032596762024461	5.614663	2.369528
11.050205185569892	5.5174985	2.3489356
11.067813870850198	5.4379396	2.331939
11.085422818292859	5.403639	2.3245728
11.10303202832541	5.322593	2.3070745
11.120641501375454	5.222936	2.2853744
11.138251237870636	5.153356	2.2701004
11.155861238238671	5.1230316	2.2634115
11.173471502907317	5.044837	2.2460716
11.191082032304402	4.9920745	2.2342951
11.208692826857805	4.941783	2.2230122
11.226303886995465	4.847357	2.2016714
11.243915213145371	4.7982774	2.1904972
11.261526805735578	4.7778316	2.185825
11.279138665194196	4.796192	2.190021
11.296750791949393	4.715825	2.171595
11.314363186429393	4.6582747	2.1583037
11.331975849062479	4.6389546	2.1538234
11.34958878027699	4.5854354	2.141363
11.36720198050133	4.5976644	2.1442165
11.384815450163948	4.515696	2.1250167
11.402429189693366	4.452125	2.1100059
11.420043199518153	4.3577833	2.0875304
11.437657480066942	63.290947	7.9555607
11.455272031768422	85.03946	9.221684
11.472886855051353	107.44384	10.365512
11.490501950344528	99.04815	9.952293
11.508117318076819	84.391136	9.186465
11.52573295867715	45.752693	6.764074
11.543348872574514	4.044208	2.0110216
11.560965060197946	4.0246596	2.0061555
11.57858152197655	4.0381308	2.00951
11.59619825833949	3.9935086	1.9983765
11.613815269715985	3.932917	1.9831583
11.631432556535323	38.38322	6.1954193
11.649050119226837	82.92442	9.106285
11.666667958219929	93.34667	9.661608
11.68428607394406	107.62162	10.374084
11.701904466828756	82.40303	9.077612
11.719523137303586	65.24232	8.077271
11.737142085798196	4.502045	2.1218023
11.754761312742286	3.6525524	1.9111652
11.772380818565619	3.5894587	1.8945867
11.790000603698015	3.5619535	1.8873138
11.80762066856935	3.508739	1.8731629
11.825241013609572	3.512079	1.8740542
11.842861639248683	3.4904506	1.8682748
11.860482545916748	3.4328167	1.8527862
11.878103734043883	3.3779333	1.8379154
11.895725204060282	3.337449	1.8268687
11.91334695639619	3.328858	1.8245158
11.930968991481919	3.3327708	1.8255877
11.948591309747824	3.3194711	1.8219416
11.966213911624347	3.320936	1.8223436
11.98383679754198	3.259289	1.8053501
12.001459967931268	3.1907089	1.7862556
12.019083423222835	3.075733	1.7537768
12.036707163847352	3.0242314	1.7390318
12.05433119023556	3.0426722	1.7443258
12.071955502818259	3.0953376	1.7593572
12.089580102026313	3.1169553	1.76549
12.107204988290643	3.083087	1.7558721
12.12483016204224	3.0138202	1.7360357
12.142455623712152	3.0066164	1.7339597
12.16008137373149	2.9901726	1.7292116
12.177707412531431	3.0008523	1.7322968
12.19533374054321	2.970154	1.7234135
12.212960358198126	2.960737	1.7206792
12.230587265927545	2.9414346	1.7150611
12.248214464162889	2.9448042	1.7160432
12.265841953335649	2.9336777	1.7127982
12.283469733877375	2.9347932	1.7131238
12.301097806219685	2.9120364	1.7064689
12.31872617079425	2.8680544	1.6935331
12.336354828032825	2.8240352	1.6804866
12.353983778367205	2.8201728	1.679337
12.371613022229262	2.7923298	1.6710266
12.389242560050928	2.80043	1.6734486
12.406872392264201	2.7665899	1.663307
12.424502519301143	2.7754035	1.6659542
12.442132941593874	2.777497	1.6665825
12.459763659574586	2.7671337	1.6634704
12.477394673675532	2.749075	1.6580335
12.49502598432903	2.7210443	1.6495588
12.51265759196746	2.6876652	1.63941
12.530289497023267	2.712102	1.646846
12.547921699928967	2.71402	1.6474283
12.565554201117134	2.745645	1.6569988
12.583187001020404	2.7423959	1.6560181
12.600820100071486	2.701141	1.6435149
12.618453498703152	2.6920583	1.6407493
12.636087197348235	2.665056	1.6324999
12.65372119643964	2.6990578	1.6428809
12.671355496410326	2.7065346	1.645155
12.68899009769333	2.720682	1.649449
12.706625000721749	2.758347	1.6608272
12.724260205928752	2.8545635	1.6895454
12.741895713747551	2.8909214	1.700271
12.759531524611454	2.9015026	1.7033798
12.777167638953818	2.8751268	1.69562
12.794804057208072	2.8628194	1.6919868
12.812440779807702	2.885695	1.6987333
12.830077807186271	2.9878802	1.7285486
12.847715139777405	3.057424	1.7485491
12.865352778014795	3.2559664	1.8044297
12.882990722332197	3.4157531	1.8481756
12.90062897316344	3.5000765	1.8708491
12.918267530942412	3.6057165	1.8988724
12.935906396103071	3.5342708	1.8799657
12.953545569079449	3.7289839	1.9310577
12.971185050305628	3.5698462	1.8894037
12.988824840215775	3.5200338	1.8761753
13.006464939244115	3.4442413	1.8558667
13.024105347824943	3.2738676	1.8093832
13.041746066392617	3.3658934	1.8346372
13.05938709538157	3.2107966	1.7918696
13.077028435226296	3.209611	1.7915387
13.094670086361363	3.0717342	1.7526363
13.112312049221401	2.9804885	1.7264092
13.129954324241112	2.921401	1.7092106
13.147596911855258	2.818599	1.6788684
13.165239812498685	2.8062117	1.6751751
13.182883026606293	2.744154	1.6565489
13.200526554613058	2.701024	1.6434792
13.218170396954017	2.6651886	1.6325405
13.235814554064284	2.6718967	1.6345937
13.253459026379034	2.6635113	1.6320268
13.271103814333523	2.6335096	1.6228092
13.288748918363058	2.6167564	1.6176392
13.306394338903031	2.6078382	1.6148802
13.32404007638889	2.6183567	1.6181337
13.341686131256164	2.6470282	1.626969
13.359332503940449	2.5971048	1.6115535
13.376979194877402	2.5612106	1.6003783
13.394626204502751	2.5777013	1.6055222
13.412273533252307	2.5970988	1.6115516
13.429921181561937	2.612238	1.6162419
13.447569149867581	2.6301203	1.6217645
13.465217438605247	2.6345534	1.6231308
13.482866048211022	2.6313825	1.6221536
13.500514979121052	2.6338685	1.6229197
13.518164231771568	2.6188853	1.618297
13.535813806598844	2.60716	1.6146703
13.553463704039254	2.6048934	1.6139683
13.571113924529229	2.604876	1.6139629
13.588764468505275	2.6519601	1.628484
13.606415336403956	2.6768565	1.6361102
13.624066528661917	2.6844442	1.6384274
13.641718045715882	2.7148762	1.6476882
13.659369888002635	2.768843	1.6639841
13.67702205595903	2.832149	1.682899
13.694674550021993	2.8996966	1.7028495
13.712327370628532	2.9669883	1.7224948
13.729980518215713	3.0393043	1.74336
13.747633993220681	3.076896	1.7541083
13.765287796080647	3.1011758	1.7610155
13.7829419272329	3.1325862	1.7699114
13.800596387114801	3.1998067	1.7888004
13.818251176163775	3.2363925	1.7989976
13.835906294817324	3.2811532	1.8113954
13.853561743513023	3.3280864	1.8243043
13.871217522688525	3.3449607	1.8289233
13.888873632781538	3.3618402	1.8335322
13.906530074229858	3.3747175	1.8370404
13.92418684747135	3.3950424	1.8425641
13.941843952943948	3.4532418	1.8582901
13.959501391085665	3.445679	1.856254
13.977159162334578	3.368037	1.8352213
13.994817267128846	3.2669508	1.8074708
14.012475705906693	3.1554883	1.7763695
14.030134479106424	3.1232636	1.7672758
14.047793587166414	3.0373151	1.7427895
14.065453030525108	2.9621463	1.7210886
14.083112809621026	2.860226	1.6912203
14.100772924892766	2.7907157	1.6705436
14.118433376778997	2.7959456	1.6721082
14.136094165718458	2.7640727	1.6625501
14.153755292149969	2.7480252	1.6577169
14.171416756512416	2.6604426	1.6310863
14.189078559244768	2.5865374	1.6082716
14.20674070078606	2.5307915	1.5908462
14.224403181575408	2.4665654	1.5705303
14.242066002051999	2.4334261	1.5599443
14.259729162655093	2.3793175	1.5425036
14.277392663824022	2.4079223	1.5517482
14.295056505998208	2.3879302	1.5452929
14.312720689617128	2.3656788	1.5380763
14.330385215120348	2.3496282	1.5328497
14.348050082947497	2.3478642	1.5322741
14.3657152935383	2.3197641	1.5230772
14.383380847332528	2.2935808	1.5144572
14.401046744770051	2.249586	1.4998621
14.418712986290798	2.2753596	1.5084295
14.436379572334793	2.2814088	1.5104333
14.454046503342123	2.291362	1.5137246
14.471713779752946	2.3096836	1.5197643
14.489381402007504	2.3246424	1.5246778
14.507049370546113	2.3288517	1.5260576
14.524717685809168	2.3170748	1.522194
14.542386348237134	2.3236437	1.5243503
14.560055358270553	2.3279128	1.5257499
14.577724716350051	2.3688211	1.5390975
14.595394422916325	2.3672545	1.5385885
14.61306447841015	2.4279716	1.558195
14.63073488327237	2.46184	1.5690252
14.648405637943917	2.4826841	1.5756536
14.6660767428658	2.46703	1.5706782
14.683748198479094	2.483107	1.5757878
14.701420005224954	2.490371	1.5780909
14.719092163544628	2.5446718	1.5952027
14.73676467387942	2.5800624	1.6062573
14.754437536670727	2.579325	1.6060277
14.772110752360014	2.5922296	1.6100403
14.78978432138882	2.5889034	1.609007
14.807458244198777	2.610147	1.615595
14.82513252123159	2.5978887	1.6117967
14.842807152929028	2.5758486	1.6049451
14.860482139732962	2.5643883	1.6013707
14.87815748208531	2.574799	1.6046181
14.8958331804281	2.6046479	1.6138922
14.91350923520342	2.6025512	1.6132425
14.931185646853438	2.6187108	1.6182431
14.948862415820408	2.5785742	1.605794
14.966539542546656	2.5850503	1.6078092
14.98421702747459	2.5840979	1.607513
15.001894871046696	2.591384	1.6097776
15.019573073705542	2.5695052	1.6029676
15.037251635893766	2.5628462	1.6008892
15.054930558054092	2.5839484	1.6074665
15.072609840629323	2.6090024	1.6152407
15.090289484062351	2.7219522	1.649834
15.107969488796124	2.9189107	1.708482
15.125649855273691	3.1346846	1.770504
15.14333058393817	3.5339003	1.8798671
15.161011675232768	4.0642724	2.016004
15.17869312960076	4.746846	2.1787257
15.196374947485506	5.4484353	2.3341885
15.214057129330447	6.782595	2.6043415
15.231739675579114	8.843537	2.9738085
15.249422586675102	13.133032	3.6239526
15.267105863062092	17.24667	4.152911
15.284789505183847	23.7375	4.8721147
15.302473513484218	27.767672	5.269504
15.320157888407127	31.416971	5.6050844
15.337842630396578	30.449001	5.518061
15.355527739896656	28.049368	5.2961655
15.37321321735153	22.058733	4.6966724
15.39089906320545	15.24705	3.9047472
15.408585277902748	9.939585	3.1527107
15.42627186188783	6.218149	2.4936216
15.443958815605198	4.568815	2.1374786
15.461646139499424	3.8503296	1.9622257
15.479333834015168	3.39602	1.8428293
15.497021899597165	3.0571737	1.7484776
15.514710336690234	2.8015745	1.6737905
15.53239914573928	2.6526935	1.6287092
15.550088327189297	2.5447786	1.5952362
15.567777881485336	2.4749732	1.5732048
15.58546780907256	2.4525266	1.5660545
15.6031581103962	2.4488618	1.564884
15.620848785901568	2.4614697	1.5689071
15.638539836034063	2.4579809	1.5677949
15.656231261239173	2.4205985	1.5558273
15.673923061962451	2.3813975	1.5431777
15.691615238649552	2.3596418	1.5361125
15.709307791746202	2.4042153	1.5505532
15.727000721698221	2.425657	1.5574521
15.744694028951498	2.4382663	1.5614948
15.76238771395202	2.384255	1.5441033
15.780081777145844	2.3574257	1.5353911
15.797776218979125	2.338318	1.529156
15.815471039898094	2.359033	1.5359144
15.833166240349064	2.3822143	1.5434424
15.850861820778437	2.3838031	1.543957
15.868557781632699	2.372486	1.5402876
15.886254123358412	2.3786097	1.5422742
15.903950846402232	2.4264786	1.5577159
15.921647951210897	2.4064958	1.5512885
15.939345438231225	2.4140356	1.5537167
15.957043307910133	2.3994675	1.5490215
15.974741560694602	2.4065487	1.5513055
15.992440197031714	2.3801382	1.5427697
16.01013921736862	2.3795176	1.5425684
16.02783862215259	2.4035861	1.5503503
16.045538411830933	2.3869407	1.5449728
16.06323858685107	2.3946435	1.5474635
16.080939147660512	2.4241457	1.5569668
16.09864009470684	2.404393	1.5506105
16.11634142843774	2.37826	1.5421607
16.134043149300954	2.3517156	1.5335305
16.15174525774433	2.3478682	1.5322756
16.169447754215817	2.3655615	1.5380381
16.18715063916342	2.3587086	1.5358088
16.204853913035244	2.3956003	1.5477726
16.222557576279478	2.3981378	1.5485922
16.240261629344403	22.413778	4.734319
16.257966072678386	42.976376	6.555637
16.275670906729868	38.06664	6.169817
16.293376131947387	2.4856992	1.57661
16.31108174877957	2.469738	1.57154
16.328787757675133	2.4604213	1.568573
16.34649415908287	2.4693682	1.5714223
16.364200953451657	2.5180247	1.5868285
16.38190814123048	2.5503237	1.5969733
16.39961572286839	2.5462732	1.5957047
16.41732369881455	2.60663	1.6145061
16.43503206951817	2.6704893	1.6341631
16.45274083542859	2.737435	1.6545196
16.47044999699522	2.7512226	1.658681
16.488159554667558	2.795399	1.6719446
16.505869508895184	2.7802186	1.6673988
16.523579860127786	2.8263571	1.6811773
16.541290608815117	2.9123006	1.7065464
16.559001755407035	2.9733272	1.7243339
16.57671330035348	3.0320492	1.741278
16.59442524410448	3.1173897	1.7656131
16.61213758711015	3.2388196	1.7996721
16.629850329820705	3.3194766	1.821943
16.647563472686436	3.350392	1.8304076
16.665277016157724	3.3662744	1.834741
16.682990960685053	3.4004283	1.844025
16.70070530671898	3.424626	1.8505745
16.718420054710155	3.4609897	1.8603735
16.736135205109335	3.4649675	1.8614423
16.753850758367335	3.4659362	1.8617024
16.771566714935087	3.4995432	1.8707066
16.789283075263597	3.5450606	1.8828331
16.80699983980398	3.5818403	1.892575
16.82471700900741	3.6892538	1.920743
16.84243458332518	3.7450192	1.9352052
16.860152563208665	3.8394794	1.959459
16.87787094910932	3.8980317	1.9743434
16.89558974147871	3.9522848	1.9880354
16.913308940768466	4.0183764	2.0045888
16.931028547430333	4.1187124	2.0294611
16.94874856191613	4.2246013	2.0553834
16.966468984677785	4.305401	2.074946
16.98418981616729	4.299344	2.0734859
17.00191105683676	4.274918	2.0675876
17.019632707138374	4.291077	2.0714915
17.03735476752442	4.346675	2.0848682
17.05507723844728	4.3799047	2.0928223
17.072800120359403	4.4456306	2.1084664
17.090523413713353	4.493	2.1196697
17.108247118961785	4.5156484	2.1250055
17.125971236557437	4.486503	2.1181366
17.143695766953133	4.4710307	2.1144812
17.161420710601806	4.495195	2.1201875
17.179146067956477	4.5539002	2.133987
17.19687183947025	4.567354	2.137137
17.21459802559634	4.559108	2.1352067
17.232324626788028	4.5370164	2.1300273
17.25005164349871	4.478815	2.116321
17.267779076181863	4.4545703	2.1105852
17.285506925291074	4.4476857	2.1089537
17.30323519127999	4.502248	2.12185
17.320963874602384	4.5125136	2.1242678
17.33869297571211	4.47535	2.1155024
17.356422495063114	4.38267	2.0934827
17.37415243310944	4.291348	2.0715568
17.391882790305218	4.284155	2.06982
17.40961356710468	4.341924	2.0837286
17.42734476396215	4.432709	2.1054
17.445076381332044	4.450541	2.1096306
17.462808419668868	4.4669256	2.1135104
17.48054087942723	4.5476694	2.1325266
17.498273761061835	4.6829333	2.1640086
17.51600706502747	5.048669	2.2469244
17.533740791779024	5.7291985	2.3935745
17.551474941771485	6.674971	2.5835965
17.56920951545993	8.5586815	2.9255223
17.586944513299528	9.6843	3.111961
17.60467993574556	12.355133	3.514987
17.622415783253373	14.713419	3.8358076
17.64015205627843	17.142921	4.140401
17.657888755276293	18.952353	4.35343
17.675625880702604	20.14385	4.48819
17.69336343301311	18.734898	4.328383
17.71110141266366	16.835682	4.103131
17.728839820110178	14.452711	3.8016722
17.746578655808705	11.57873	3.4027534
17.764317920215372	9.576103	3.094528
17.7820576137864	7.969149	2.8229682
17.79979773697811	6.6966414	2.587787
17.81753829024692	5.6402044	2.3749115
17.835279274049356	4.9521055	2.2253327
17.85302068884201	4.3837204	2.0937335
17.870762535081607	4.0428867	2.010693
17.888504813224934	3.811625	1.9523383
17.90624752372891	3.6411488	1.9081794
17.923990667050536	3.5113463	1.8738587
17.941734243646895	3.4193892	1.8491591
17.959478253975185	3.3513367	1.8306657
17.9772226984927	3.310089	1.819365
17.994967577656833	3.2713118	1.8086768
18.01271289192506	3.2982986	1.8161218
18.030458641754965	3.292175	1.8144352
18.04820482760425	3.2798219	1.8110279
18.06595144993067	3.2231379	1.79531
18.083698509192125	3.1732728	1.7813683
18.101446005846576	3.140763	1.7722198
18.119193940352105	3.1122699	1.7641627
18.136942313166887	3.1240532	1.7674991
18.1546911247492	3.1197982	1.7662951
18.1724403755574	3.0778534	1.7543812
18.19019006604997	3.041927	1.7441121
18.207940196685467	3.04186	1.744093
18.225690767922575	3.0233574	1.7387804
18.243441780220046	3.0267334	1.739751
18.261193234036764	3.0201464	1.7378569
18.278945129831676	3.008804	1.7345904
18.29669746806386	2.963276	1.7214168
18.314450249192483	2.925134	1.7103024
18.3322034736768	2.9152987	1.7074246
18.349957141976184	2.9211235	1.7091295
18.3677112545501	2.9287443	1.7113575
18.385465811858108	2.9683545	1.7228913
18.403220814359884	2.9650106	1.7219206
18.420976262515172	2.9700546	1.7233846
18.43873215678387	2.9853182	1.7278073
18.456488497625923	3.002167	1.7326763
18.474245285501407	3.094559	1.7591358
18.492002520870486	3.1659453	1.7793103
18.50976020419343	3.246723	1.8018665
18.527518335930615	3.5219784	1.8766935
18.545276916542516	4.0637784	2.0158815
18.563035946489688	4.2640877	2.0649667
18.580795426232832	4.800725	2.1910558
18.598555356232698	4.7767687	2.185582
18.616315736950185	5.0871043	2.255461
18.63407656884626	4.6874733	2.1650574
18.65183785238201	4.84874	2.2019856
18.669599588018617	4.621102	2.149675
18.68736177621737	4.5686674	2.137444
18.705124417439652	4.492992	2.1196678
18.72288751214696	4.317426	2.0778418
18.740651060800886	4.517675	2.1254823
18.758415063863115	4.2610188	2.0642235
18.77617952179546	4.4225745	2.1029918
18.793944435059814	4.1021013	2.0253644
18.811709804118184	4.112677	2.0279737
18.829475629432675	4.049252	2.0122752
18.8472419114655	3.8595607	1.9645765
18.86500865067897	4.0104375	2.0026076
18.88277584753551	3.7392948	1.9337256
18.90054350249763	3.757616	1.9384571
18.918311616027957	3.3744543	1.8369688
18.936080188589226	3.2652807	1.8070087
18.953849220644265	2.9583519	1.719986
18.971618712656007	2.7620983	1.6619562
18.9893886650875	2.686979	1.6392007
19.007159078401887	7.8850827	2.808039
19.024929953062408	32.788845	5.7261543
19.042701289532435	32.73815	5.7217264
19.060473088275405	25.302898	5.0301986
19.07824534975489	2.5648978	1.6015298
19.096018074434568	2.5528069	1.5977505
19.113791262778197	2.5631459	1.6009828
19.13156491524966	2.582021	1.6068668
19.149339032312945	2.5469928	1.5959301
19.167113614432136	2.516256	1.5862712
19.184888662071433	2.4838357	1.5760189
19.202664175695123	2.4805055	1.574962
19.220440155767623	2.5062232	1.5831056
19.238216602753447	2.5127676	1.5851711
19.2559935171172	2.5141597	1.5856102
19.27377089932361	2.4997275	1.5810527
19.291548749837514	2.4918077	1.578546
19.309327069123835	2.4548154	1.5667851
19.32710585764763	2.4105544	1.552596
19.344885115874032	2.4306715	1.559061
19.362664844268313	2.4695075	1.5714667
19.380445043295822	2.4654582	1.5701778
19.39822571342203	2.4351344	1.5604917
19.41600685511252	2.4087243	1.5520065
19.43378846883297	2.42938	1.5586468
19.451570555049173	2.4273887	1.558008
19.469353114227037	2.438104	1.5614429
19.48713614683254	2.413614	1.553581
19.50491965333182	2.3848882	1.5443083
19.52270363419109	2.3563561	1.5350428
19.540488089876686	2.4084437	1.5519161
19.55827302085503	2.4234936	1.5567575
19.576058427592674	2.4370177	1.561095
19.593844310556282	2.4441206	1.5633683
19.611630670212598	2.4608352	1.568705
19.629417507028506	2.4562368	1.5672386
19.64720482147098	2.4463518	1.5640818
19.6649926140071	2.436378	1.5608901
19.682780885104084	2.3897424	1.5458791
19.70056963522921	2.3662314	1.5382559
19.718358864849908	2.3765407	1.5416033
19.7361485744337	2.4101584	1.5524685
19.753938764448215	2.4461432	1.564015
19.771729435361202	2.4477134	1.564517
19.789520587640506	2.4340086	1.560131
19.807312221754092	2.4329522	1.5597924
19.825104338170043	2.3898294	1.5459073
19.842896937356517	2.3910456	1.5463006
19.860690019781824	2.4032829	1.5502526
19.87848358591436	2.4368129	1.5610294
19.896277636222635	2.443967	1.5633192
19.914072171175278	2.4273763	1.5580039
19.931867191241015	2.4602025	1.5685033
19.94966269688869	2.4810665	1.5751401
19.967458688587264	2.513758	1.5854836
19.985255166805807	2.4767842	1.5737802
20.00305213201348	2.422923	1.5565741
20.020849584679578	2.3712626	1.5398904
20.038647525273507	2.3601165	1.536267
20.05644595426477	2.3465667	1.5318507
20.07424487212299	2.324851	1.5247462
20.092044279317903	2.3136647	1.5210736
20.109844176319353	2.3249116	1.5247661
20.127644563597304	2.3614993	1.536717
20.145445441621817	2.3459978	1.5316651
20.16324681086307	2.3352032	1.5281372
20.181048671791373	2.3142383	1.521262
20.198851024877122	2.2949483	1.5149087
20.216653870590836	2.2631245	1.5043684
20.234457209403146	2.2858322	1.5118968
20.252261041784802	2.3205557	1.523337
20.270065368206662	2.3158937	1.521806
20.287870189139685	2.3075888	1.519075
20.305675505054968	2.3026083	1.5174347
20.323481316423702	2.2765172	1.5088131
20.341287623717207	2.2704482	1.5068007
20.359094427406884	2.2787828	1.5095638
20.376901727964288	2.317168	1.5222247
20.39470952586107	2.2997708	1.5164995
20.41251782156899	2.2997086	1.516479
20.430326615559935	2.2829099	1.5109302
20.448135908305886	2.2687159	1.5062257
20.465945700278965	2.2371228	1.4957014
20.483755991951384	2.2730103	1.5076506
20.50156678379548	2.2620673	1.5040171
20.519378076283708	2.2614107	1.5037987
20.537189869888635	2.2622924	1.5040919
20.55500216508294	2.3172762	1.5222602
20.572814962339415	2.326893	1.5254157
20.59062826213098	2.3248587	1.5247487
20.60844206493066	2.2836924	1.5111891
20.626256371211593	2.24683	1.498943
20.644071181447032	2.235676	1.4952177
20.66188649611036	2.2305336	1.4934971
20.67970231567506	2.2452486	1.4984154
20.697518640614742	2.2122648	1.4873685
20.715335471403122	2.2055142	1.4850974
20.73315280851404	2.2186415	1.4895105
20.750970652421447	2.2631018	1.5043609
20.768789003599412	2.2631898	1.5043901
20.786607862522136	2.264982	1.5049857
20.8044272296639	2.270421	1.5067916
20.82224710549913	2.2127118	1.4875187
20.84006749050237	2.1578367	1.4689577
20.857888385148268	3.6921394	1.921494
20.8757097899116	45.865932	6.772439
20.893531705267254	64.78572	8.048958
20.911354131690224	83.81947	9.155297
20.92917706965566	69.009346	8.307186
20.94700051963877	50.077763	7.0765643
20.96482448211493	29.346436	5.417235
20.982648957559622	4.087015	2.0216367
21.00047394644843	2.1582608	1.469102
21.01829944925707	2.1760688	1.4751505
21.036125466461375	2.222277	1.4907303
21.053951998537297	2.2227423	1.4908864
21.071779045960906	2.2053335	1.4850365
21.089606609208378	2.1899195	1.4798377
21.10743468875603	2.1769574	1.4754516
21.12526328508028	2.1821058	1.4771953
21.143092398657675	2.1739209	1.4744222
21.16092202996488	2.1686652	1.4726388
21.17875217947867	2.1409636	1.4632032
21.19658284767596	2.1252382	1.4578197
21.21441403503377	2.134445	1.460974
21.232245742029225	2.09997	1.4491273
21.2500779691396	2.0974545	1.4482591
21.26791071684227	2.1173992	1.4551286
21.28574398561475	2.127799	1.4586977
21.30357777593465	2.0960448	1.4477724
21.321412088279704	2.0744233	1.4402858
21.339246923127792	2.074814	1.4404215
21.357082280956888	2.0595374	1.4351089
21.3749181622451	2.0803082	1.4423274
21.392754567470647	2.069035	1.4384141
21.41059149711187	2.0669465	1.4376879
21.42842895164726	2.0672686	1.4377999
21.446266931555378	2.0666168	1.4375732
21.464105437314945	2.0551012	1.4335624
21.481944469404798	2.0392728	1.4280311
21.49978402830388	2.0190763	1.4209421
21.51762411449127	2.0185735	1.4207652
21.53546472844617	2.026108	1.4234142
21.553305870647876	2.0204744	1.4214339
21.571147541575865	1.9951016	1.4124806
21.58898974170967	1.9629548	1.4010549
21.60683247152899	1.9639457	1.4014084
21.62467573151363	1.9645146	1.4016114
21.642519522143523	1.9776808	1.4063004
21.660363843898722	1.9914991	1.4112048
21.6782086972594	1.9696949	1.4034581
21.696054082705864	1.9650023	1.4017854
21.713900000718535	1.9538811	1.397813
21.73174645177795	1.9620113	1.4007181
21.749593436364794	1.9701653	1.4036257
21.767440954959845	2.015816	1.4197943
21.785289008044032	1.9934884	1.4119095
21.803137596098388	1.9607009	1.4002503
21.820986719604086	1.9548709	1.398167
21.838836379042412	1.9477805	1.395629
21.85668657489478	1.9598184	1.3999351
21.87453730764273	1.9703141	1.4036788
21.892388577767914	1.9768932	1.4060203
21.91024038575213	1.969239	1.4032958
21.928092732077285	1.965115	1.4018255
21.945945617225426	1.9741637	1.4050493
21.963799041678694	1.979682	1.4070117
21.981653005919398	31.30075	5.5947075
21.999507510429943	78.07691	8.836114
22.01736255569286	73.01142	8.544672
22.035218142190818	4.0954223	2.023715
22.05307427040661	1.8938732	1.3761806
22.07093094082315	1.8937609	1.3761399
22.088788153923474	1.9312707	1.3897017
22.106645910190746	1.9231465	1.3867756
22.12450421010827	1.9438945	1.3942362
22.142363054159464	1.9246962	1.3873342
22.16022244282787	1.9185785	1.3851277
22.178082376597164	1.9288375	1.388826
22.195942855951145	1.9433719	1.3940487
22.213803881373742	1.9441668	1.3943338
22.231665453349002	1.909162	1.3817244
22.24952757236111	1.8746532	1.3691797
22.26739023889438	1.8652331	1.3657354
22.28525345343323	1.8984843	1.377855
22.30311721646225	1.9501448	1.3964758
22.320981528466113	1.9761101	1.4057418
22.33884638992964	1.9456762	1.3948749
22.356711801337788	1.884115	1.3726307
22.37457776317561	1.8656455	1.3658863
22.392444275928337	1.866156	1.3660733
22.410311340081282	1.8742309	1.3690255
22.428178956119904	1.9021784	1.3791949
22.446047124529805	1.9128743	1.383067
22.46391584579669	1.9080311	1.381315
22.481785120406414	1.8901886	1.3748413
22.49965494884496	1.8713531	1.3679742
22.51752533159841	1.8727082	1.3684692
22.53539626915302	1.8932482	1.3759536
22.553267761995137	1.893379	1.3760011
22.571139810611264	1.8898307	1.3747112
22.589012415488025	1.8948703	1.3765429
22.60688557711216	1.8984823	1.3778542
22.624759295970566	1.9038908	1.3798155
22.642633572550263	1.9198662	1.3855923
22.660508407338362	1.9237086	1.3869783
22.67838380082217	1.9051896	1.3802861
22.696259753489077	1.881548	1.3716953
22.714136265826614	1.8769913	1.3700333
22.73201333832246	1.851996	1.3608806
22.74989097146439	1.869777	1.3673979
22.76776916574035	1.8460076	1.3586786
22.785647921638393	1.875108	1.3693458
22.803527239646712	1.866854	1.3663286
22.82140712025363	1.9002166	1.3784834
22.839287563947593	1.8795843	1.3709793
22.85716857121719	1.8741106	1.3689816
22.875050142551135	1.8553073	1.3620967
22.892932278438277	1.8451083	1.3583477
22.910814979367604	1.8521963	1.3609542
22.928698245828222	1.8652756	1.3657509
22.946582078309387	1.875135	1.3693557
22.96446647730047	1.8841037	1.3726265
22.98235144329098	1.8928345	1.3758032
23.000236976770562	1.8710907	1.3678782
23.018123078229	1.852348	1.36101
23.03600974815619	1.8321213	1.3535588
23.053896987042194	1.8588783	1.3634069
23.071784795377173	1.8643587	1.3654152
23.08967317365145	1.8572047	1.362793
23.10756212235546	1.824123	1.350601
23.125451641979787	1.8179078	1.3482981
23.143341733015134	1.8337089	1.354145
23.161232395952357	1.8387932	1.356021
23.179123631282426	1.838743	1.3560026
23.197015439496468	1.8663954	1.3661608
23.214907821085717	1.8888834	1.3743665
23.23280077654157	1.914164	1.3835331
23.250694306355538	1.9179902	1.3849152
23.268588411019277	1.8904511	1.3749367
23.28648309102458	1.8892568	1.3745024
23.304378346863356	1.8861768	1.3733815
23.322274179027676	1.8916273	1.3753644
23.340170588009723	1.8941572	1.3762839
23.358067574301852	1.8716989	1.3681004
23.37596513839651	1.9038432	1.3797982
23.39386328078629	1.8974606	1.3774834
23.411762001963947	1.9152355	1.3839203
23.429661302422353	1.8885069	1.3742296
23.4475611826545	1.8638239	1.3652194
23.46546164315356	1.8477694	1.3593268
23.48336268441279	1.880129	1.3711779
23.501264306925638	1.898449	1.3778422
23.51916651118564	1.8915014	1.3753186
23.537069297686497	1.8592875	1.363557
23.554972666922037	1.8527349	1.361152
23.57287661938623	1.8392375	1.3561848
23.59078115557318	1.8046842	1.3433853
23.608686275977128	1.7754518	1.3324608
23.62659198109246	1.7999023	1.3416044
23.6444982714137	1.8574009	1.362865
23.66240514743549	1.8608348	1.3641242
23.68031260965263	1.8523678	1.3610172
23.698220658560068	1.8724016	1.3683573
23.716129294652845	1.9352155	1.3911202
23.7340385184262	1.9129161	1.383082
23.75194833037546	1.8753004	1.3694161
23.769858730996123	1.8335586	1.3540896
23.78776972078382	1.8441801	1.3580059
23.80568130023431	1.8555301	1.3621784
23.823593469843495	1.871502	1.3680285
23.841506230107424	1.8672786	1.366484
23.859419581522275	1.8515863	1.36073
23.87733352458438	1.8369663	1.3553473
23.89524805979019	1.8346276	1.3544843
23.913163187636318	1.8487928	1.3597032
23.931078908619508	1.8957837	1.3768746
23.948995223236633	1.9396646	1.3927184
23.966912131984735	2.0314312	1.4252828
23.98482963536096	2.0366373	1.427108
24.002747733862616	1.9920119	1.4113865
24.020666427987155	1.9445834	1.3944832
24.038585718232156	1.9761395	1.4057523
24.056505605095353	1.9903178	1.4107863
24.074426089074617	2.012612	1.4186656
24.092347170667946	2.0158713	1.4198139
24.110268850373515	2.0482013	1.4311539
24.128191128689586	2.0358667	1.426838
24.146114006114626	2.0450337	1.4300468
24.164037483147187	2.0336833	1.4260727
24.181961560286005	2.023828	1.4226131
24.199886238029926	2.0211742	1.4216801
24.21781151687797	2.0131764	1.4188645
24.235737397329274	2.041619	1.4288523
24.253663879883135	2.0345933	1.4263917
24.271590965038975	2.0094368	1.417546
24.289518653296376	1.9463766	1.395126
24.30744694515505	1.959452	1.3998042
24.32537584111486	2.0140662	1.419178
24.34330534167581	2.04455	1.4298776
24.361235447338046	2.0011518	1.4146208
24.379166158601876	1.9421515	1.393611
24.39709747596772	1.9515436	1.3969766
24.41502939993615	1.9402536	1.3929299
24.432961931007917	1.9487914	1.3959912
24.450895069683856	1.9542015	1.3979275
24.468828816465	1.9492245	1.3961463
24.4867631718525	1.9375418	1.3919561
24.504698136347656	1.9023563	1.3792593
24.52263371045192	1.8939681	1.3762151
24.540569894666874	1.9152877	1.3839393
24.558506689494266	1.9442652	1.3943691
24.57644409543597	1.9362884	1.3915058
24.594382112994012	1.9393247	1.3925964
24.61232074267057	1.9552265	1.3982942
24.630259984967953	1.9869678	1.4095985
24.64819984038863	1.9522877	1.3972429
24.66614030943522	1.9157988	1.3841238
24.684081392610462	1.9212949	1.3861078
24.702023090417274	1.9400152	1.3928443
24.7199654033587	1.9423572	1.3936847
24.737908331937927	1.9536508	1.3977306
24.755851876658305	1.9747503	1.405258
24.773796038023324	1.9970062	1.4131547
24.79174081653661	1.9993445	1.4139818
24.809686212701962	2.029165	1.4244876
24.827632227023294	2.061676	1.4358537
24.8455788600047	2.0496786	1.4316698
24.8635261121504	2.0092247	1.4174712
24.88147398396475	2.000309	1.4143229
24.899422475952303	2.017943	1.4205432
24.917371588617698	2.060591	1.4354758
24.935321322465768	2.145257	1.4646696
24.953271678001478	2.2432785	1.4977578
24.97122265572994	2.4165514	1.5545261
24.989174256156414	2.824966	1.6807635
25.00712647978632	3.4270418	1.851227
25.02507932712521	4.3162146	2.0775502
25.043032798678798	5.715712	2.3907557
25.060986894952933	7.2865963	2.6993697
25.078941616453637	8.735023	2.955507
25.096896963687055	9.5562105	3.0913122
25.114852937159508	10.2342615	3.199103
25.132809537377444	9.988685	3.1604881
25.150766764847468	9.414211	3.0682588
25.168724620076347	8.184778	2.8609052
25.186683103570985	7.0812907	2.6610694
25.204642215838426	5.7717133	2.402439
25.222601957385894	4.6457644	2.1554036
25.24056232872074	3.5902076	1.8947843
25.25852333035048	2.9286754	1.7113373
25.276484962782778	2.5293517	1.5903935
25.294447226525435	2.2874503	1.512432
25.312410122086423	2.0624611	1.4361272
25.330373649973843	1.9615142	1.4005407
25.348337810695988	1.9313451	1.3897284
25.366302604761245	1.9424852	1.3937306
25.384268032678207	1.9092557	1.3817582
25.40223409495558	1.8716172	1.3680706
25.420200792102257	1.8725065	1.3683956
25.438168124627246	1.8447396	1.3582119
25.45613609303974	1.8290005	1.3524054
25.474104697849057	1.8385642	1.3559366
25.492073939564698	1.8657155	1.365912
25.510043818696285	1.8773825	1.3701761
25.528014335753614	1.8739974	1.3689402
25.54598549124664	1.8213798	1.349585
25.56395728568544	1.7573149	1.3256376
25.58192971958028	1.7742372	1.3320049
25.59990279344156	1.8211467	1.3494987
25.617876507779833	1.8439088	1.357906
25.635850863105826	1.879656	1.3710054
25.653825859930386	1.8912615	1.3752314
25.671801498764548	1.8525251	1.361075
25.68977778011949	1.7810228	1.3345497
25.707754704506524	1.763089	1.3278136
25.725732272437153	1.759658	1.326521
25.743710484423012	1.7786541	1.3336619
25.761689340975888	1.8028883	1.3427167
25.77966884260774	1.8323927	1.353659
25.797648989830662	1.79709	1.3405559
25.815629783156922	1.7397519	1.3189965
25.83361122309895	1.7723246	1.3312868
25.85159331016929	1.7943891	1.3395481
25.869576044880695	1.8172135	1.3480406
25.887559427746034	1.804721	1.343399
25.90554345927836	1.8088518	1.3449357
25.92352813999086	1.8310395	1.3531591
25.94151347039689	1.8054769	1.3436804
25.959499451009965	1.7687023	1.3299257
25.97748608234374	1.7965231	1.3403444
25.995473364912062	1.8124814	1.3462843
26.013461299228904	1.7932001	1.3391042
26.03144988580839	1.7746036	1.3321425
26.04943912516483	1.7626783	1.3276589
26.067429017812675	1.7879833	1.337155
26.085419564266537	1.8184202	1.3484881
26.103410765041186	1.8128674	1.3464277
26.12140262065155	1.8020071	1.3423886
26.139395131612723	1.8518262	1.3608181
26.157388298439948	1.8238305	1.3504927
26.17538212164861	1.7849737	1.336029
26.193376601754295	1.7821609	1.334976
26.211371739272714	1.8026198	1.3426168
26.229367534719746	1.7887601	1.3374454
26.247363988611433	1.7733395	1.3316679
26.26536110146397	1.7622344	1.3274918
26.283358873793727	1.7474484	1.3219109
26.301357306117204	1.8010577	1.3420349
26.319356398951104	1.8309666	1.3531321
26.33735615281224	1.7797161	1.3340601
26.35535656821762	1.716179	1.3100301
26.373357645684404	1.7194026	1.3112599
26.39135938572991	1.7650113	1.3285372
26.409361788871614	1.7402455	1.3191836
26.427364855627165	1.7255455	1.3136002
26.445368586514352	1.7364815	1.3177563
26.46337298205115	1.7515787	1.3234723
26.48137804275568	1.767441	1.3294514
26.499383769146217	1.7716821	1.3310455
26.517390161741215	1.7885317	1.3373599
26.53539722105928	1.8020464	1.3424032
26.553404947619182	1.78897	1.3375238
26.571413341939856	1.7727251	1.3314372
26.589422404540397	1.7126598	1.3086863
26.60743213594006	1.7010636	1.3042483
26.62544253665827	1.7242595	1.3131106
26.64345360721459	1.7386649	1.3185844
26.66146534812879	1.7518706	1.3235825
26.679477759920758	1.7471644	1.3218035
26.69749084311057	1.7175765	1.3105634
26.71550459821847	1.7001741	1.3039073
26.733519025764842	1.714632	1.3094395
26.751534126270258	1.7281575	1.314594
26.769549900255434	1.7222769	1.3123555
26.787566348241267	1.7523417	1.3237605
26.80558347074881	1.7705519	1.3306209
26.823601268299267	1.7510904	1.3232877
26.841619741414036	1.7524613	1.3238056
26.85963889061465	1.7475768	1.3219595
26.877658716422832	1.7846279	1.3358997
26.89567921936045	1.7482259	1.322205
26.913700399949544	1.7078834	1.3068601
26.93172225871233	1.668428	1.2916764
26.949744796171174	1.7121739	1.3085006
26.967768012848605	1.7642189	1.3282391
26.98579190926733	1.7956307	1.3400115
27.003816485950225	1.7762493	1.33276
27.021841743420318	1.7641928	1.3282292
27.039867682200814	1.7752007	1.3323666
27.057894302815072	1.7649609	1.3285183
27.07592160578664	1.7711717	1.3308537
27.0939495916392	1.7842478	1.3357574
27.111978260896635	1.8305731	1.3529867
27.13000761408296	1.792082	1.3386867
27.148037651722397	1.7978672	1.3408457
27.166068374339304	1.7803524	1.3342985
27.184099782458215	1.7608522	1.326971
27.20213187660384	1.7761718	1.332731
27.22016465730105	1.8140332	1.3468605
27.23819812507487	1.794156	1.3394611
27.256232280450533	1.7432764	1.3203319
27.274267123953383	1.7385839	1.3185537
27.292302656108987	1.7466329	1.3216025
27.31033887744306	1.7456807	1.3212421
27.32837578848146	1.7550112	1.3247683
27.34641338975026	1.7472955	1.321853
27.364451681775673	1.7622766	1.3275077
27.382490665084074	1.7897855	1.3378286
27.400530340202046	1.7773262	1.333164
27.41857070765629	1.7227833	1.3125484
27.436611767973726	1.7175108	1.3105384
27.454653521681404	1.7829175	1.3352593
27.472695969306564	1.840782	1.3567542
27.490739111376627	1.841936	1.3571794
27.508782948419153	1.8065878	1.3440937
27.526827480961902	1.7449685	1.3209726
27.54487270953279	1.7342069	1.3168929
27.562918634659898	1.7445995	1.3208328
27.580965256871508	1.7399219	1.319061
27.599012576696026	1.7466959	1.3216262
27.617060594662068	1.7618111	1.3273324
27.63510931129842	1.7734244	1.3316998
27.65315872713401	1.7802063	1.3342438
27.67120884269797	1.8114717	1.3459092
27.68925965851958	1.8429643	1.3575583
27.707311175128307	1.8141425	1.346901
27.725363393053787	1.7790039	1.333793
27.74341631282583	1.8037279	1.3430294
27.7614699349744	1.8068526	1.3441921
27.77952426002968	2.045337	1.4301528
27.797579288521973	2.1806207	1.4766924
27.815635020981784	2.7450635	1.6568233
27.83369145793979	2.7838197	1.6684783
27.85174859992682	2.528318	1.5900686
27.869806447473923	2.3280299	1.5257883
27.887865001112267	2.0382328	1.4276669
27.905924261373233	1.9185928	1.3851328
27.92398422878836	1.8237222	1.3504527
27.94204490388936	1.7819107	1.3348823
27.96010628720813	1.8083605	1.3447529
27.978168379276728	1.8412766	1.3569365
27.9962311806274	1.7914019	1.3384327
28.014294691792568	1.8053379	1.3436286
28.0323589133048	1.8176426	1.3481997
28.050423845696887	1.78566	1.336286
28.068489489501758	1.772642	1.331406
28.086555845252523	1.7777618	1.3333273
28.104622913482487	1.7975407	1.340724
28.122690694725115	1.7893963	1.3376832
28.14075918951405	1.7903329	1.3380332
28.15882839838312	1.8121892	1.3461758
28.176898321866304	1.8509561	1.3604984
28.1949689604978	1.8952421	1.3766779
28.213040314811945	1.9349451	1.391023
28.23111238534327	1.8569391	1.3626956
28.249185172626493	1.8218946	1.3497758
28.267258677196473	1.8383251	1.3558486
28.285332899588294	1.8803958	1.3712752
28.303407840337172	1.9086508	1.3815392
28.321483499978545	1.8832084	1.3723004
28.33955987904799	1.862408	1.3647007
28.357636978081285	1.8744594	1.369109
28.37571479761439	1.9348146	1.3909761
28.393793338183425	1.9791336	1.4068168
28.41187260032469	1.9764979	1.4058797
28.429952584574686	1.9636945	1.4013188
28.448033291470065	1.9608934	1.400319
28.46611472154769	1.9443713	1.3944072
28.484196875344566	1.9386328	1.3923479
28.502279753397914	1.9819684	1.407824
28.52036335624511	2.042207	1.4290581
28.538447684423716	2.060553	1.4354627
28.556532738471482	2.007169	1.4167459
28.574618518926325	1.9638224	1.4013644
28.59270502632635	1.9547296	1.3981165
28.61079226120985	1.9658138	1.4020748
28.628880224115274	1.9186683	1.38516
28.646968915581287	1.8882604	1.3741399
28.66505833614671	1.9357086	1.3912975
28.68314848635055	1.9790345	1.4067817
28.701239366732004	2.019333	1.4210323
28.71933097783044	1.9949305	1.41242
28.737423320185403	1.9711933	1.4039919
28.75551639433665	2.0195622	1.421113
28.773610200824074	2.080065	1.4422431
28.791704740187793	2.0824876	1.4430827
28.80980001296809	2.0137327	1.4190605
28.827896019705413	2.0330312	1.4258441
28.845992760940433	2.1141367	1.4540071
28.86409023721397	2.1983173	1.4826723
28.88218844906704	2.1715434	1.4736158
28.900287397040845	2.183326	1.4776082
28.918387081676755	2.2207441	1.4902161
28.936487503516343	2.2524962	1.5008318
28.954588663101365	2.2357428	1.4952401
28.97269056097374	2.220223	1.4900413
28.990793197675597	2.22738	1.4924409
29.00889657374923	2.2686346	1.5061988
29.027000689737125	2.308236	1.519288
29.04510554618196	2.3519468	1.5336058
29.06321114362659	2.3482497	1.5324
29.08131748261405	2.3310914	1.5267912
29.099424563687567	2.3744383	1.5409212
29.11753238739057	2.477185	1.5739076
29.13564095426663	2.5609274	1.6002898
29.15375026485954	2.5574694	1.599209
29.171860319713275	2.509087	1.5840098
29.18997111937199	2.5516713	1.5973952
29.20808266438002	2.6267548	1.6207266
29.226194955281898	2.6694136	1.633834
29.244307992622335	2.727472	1.651506
29.26242177694624	2.755639	1.6600118
29.2805363087987	2.8197548	1.6792126
29.29865158872498	2.878543	1.6966269
29.316767617270557	2.91334	1.7068509
29.334884394981064	2.9561002	1.7193314
29.353001922402367	2.959406	1.7202923
29.37112020008047	2.9517329	1.7180607
29.389239228561596	3.0267494	1.7397555
29.407359008392152	3.2154021	1.7931542
29.42547954011872	3.5027416	1.8715613
29.44360082428809	3.9985018	1.9996254
29.46172286144722	4.890255	2.2113922
29.479845652143283	6.4972005	2.5489607
29.497969196923606	9.151035	3.0250678
29.516093496335728	12.832602	3.582262
29.5342185509274	16.419754	4.0521297
29.55234436124651	19.535732	4.4199243
29.570470927841175	20.770504	4.557467
29.588598251259686	20.343126	4.5103354
29.60672633205055	18.371576	4.2862077
29.624855170762405	15.456396	3.9314623
29.642984767944146	12.179099	3.4898565
29.66111512414481	9.069564	3.0115716
29.67924623991366	6.789944	2.6057522
29.697378115800138	5.207861	2.2820737
29.71551075235387	4.3680425	2.0899863
29.733644150124675	3.8067284	1.9510839
29.751778309662576	3.5138495	1.8745265
29.769913231517766	3.3139281	1.8204198
29.78804891624066	3.1902387	1.786124
29.806185364381818	3.1428618	1.7728119
29.82432257649206	3.2145493	1.7929164
29.842460553122333	3.3025153	1.8172824
29.86059929482382	3.2989647	1.8163053
29.878738802147872	3.289174	1.813608
29.896879075646048	3.3353572	1.826296
29.915020115870114	3.274975	1.8096892
29.933161923371976	3.2009335	1.7891153
29.951304498703777	3.1820114	1.7838193
29.969447842417857	3.1529734	1.7756613
29.987591955066733	3.226808	1.7963319
30.005736837203123	3.178622	1.782869
30.023882489379943	3.077908	1.7543968
30.04202891215028	3.0486202	1.7460299
30.060176106067455	3.0351849	1.7421782
30.078324071684946	2.9802318	1.7263348
30.09647280955646	2.962902	1.7213082
30.114622320235863	3.033842	1.7417928
30.132772604277257	3.1019428	1.7612333
30.1509236622349	3.1131532	1.764413
30.16907549466328	3.1089516	1.763222
30.18722810211705	3.0420792	1.7441558
30.205381485151097	2.976236	1.7251772
30.22353564432045	2.9872642	1.7283704
30.241690580180403	2.970471	1.7235054
30.25984629328638	2.9166892	1.7078317
30.278002784194037	2.9121141	1.7064917
30.296160053459246	2.9410803	1.7149578
30.314318101638033	2.8951037	1.7015004
30.332476929286646	2.911348	1.7062674
30.35063653696153	2.9100912	1.7058989
30.368796925219307	2.9022875	1.7036102
30.386958094616844	2.8384075	1.6847574
30.40512004571115	2.7817843	1.6678681
30.423282779059463	2.7623208	1.6620231
30.441446295219233	2.7267015	1.6512727
30.459610594748067	2.7056894	1.644898
30.47777567820382	2.7421422	1.6559415
30.495941546144504	2.7427607	1.6561282
30.51410819912835	2.749226	1.658079
30.532275637713795	2.7476063	1.6575905
30.55044386245946	2.8001246	1.6733572
30.56861287392416	2.7768414	1.6663858
30.586782672666956	2.743868	1.6564626
30.604953259247047	2.6959252	1.6419272
30.623124634223885	2.6618407	1.6315148
30.641296798157075	2.6984344	1.6426911
30.659469751606462	2.7694597	1.6641694
30.677643495132074	2.8033772	1.6743289
30.695818029294152	2.774249	1.6656077
30.713993354653116	2.725385	1.650874
30.73216947176962	2.6951337	1.6416862
30.75034638120448	2.6642914	1.6322657
30.768524083518756	2.6479003	1.6272371
30.786702579273673	2.6880245	1.6395196
30.80488186903069	2.8229918	1.6801761
30.82306195335144	2.9995987	1.731935
30.841242832797782	3.2660458	1.8072205
30.85942450793176	3.5945244	1.8959231
30.877606979315637	3.922633	1.9805638
30.895790247511883	4.31349	2.0768943
30.913974313083134	4.7254033	2.1737993
30.932159176592283	5.1021957	2.258804
30.95034483860237	5.399939	2.323777
30.968531299676698	5.4406996	2.3325307
30.98671856037873	5.104432	2.259299
31.00490662127215	4.743859	2.17804
31.023095482920848	4.3390684	2.083043
31.04128514588892	3.8467588	1.9613156
31.059475610740662	3.275063	1.8097135
31.07766687804056	2.8600075	1.6911557
31.09585894835335	2.5720387	1.6037576
31.11405182224393	2.445469	1.5637995
31.132245500277417	2.3595161	1.5360717
31.15043998301914	2.3995597	1.5490513
31.168635271034628	2.393227	1.5470059
31.18683136488964	2.4013247	1.5496209
31.20502826515008	2.4062743	1.5512171
31.223225972382135	2.4278002	1.5581399
31.241424487152155	2.4360473	1.5607842
31.259623810026692	2.4549015	1.5668125
31.27782394157253	2.4633105	1.5694937
31.296024882356644	2.410642	1.5526242
31.314226632946237	2.3390975	1.5294108
31.332429193908684	2.42154	1.5561298
31.350632565811598	2.503502	1.5822458
31.368836749222787	2.4495156	1.5650928
31.387041744710295	2.3513696	1.5334176
31.40524755284232	2.3673205	1.53861
31.423454174187317	2.4177463	1.5549104
31.441661609313922	2.528395	1.5900928
31.459869858791002	2.4821582	1.5754867
31.478078923187628	2.334246	1.5278239
31.496288803073064	2.2440596	1.4980185
31.514499499016807	2.2796574	1.5098535
31.532711011588546	2.3014612	1.5170567
31.550923341358178	2.3336642	1.5276335
31.56913648889584	2.2981095	1.5159516
31.587350454771844	2.2334023	1.4944571
31.605565239556732	2.1993916	1.4830346
31.62378084382127	2.2318327	1.493932
31.641997268136382	2.2840323	1.5113015
31.660214513073274	2.2886648	1.5128334
31.67843257920331	2.3334277	1.5275561
31.6966514670981	2.3292575	1.5261905
31.71487117732944	2.2584462	1.5028127
31.733091710469346	2.216306	1.4887263
31.751313067090052	2.2279468	1.4926308
31.769535247764008	2.2134607	1.4877703
31.787758253063878	2.209056	1.4862893
31.805982083562526	2.2139337	1.4879293
31.824206739833024	2.1808507	1.4767704
31.84243222244869	2.1473525	1.4653847
31.860658531983013	2.1816924	1.4770553
31.878885669009737	2.2555194	1.5018387
31.897113634102784	2.2578466	1.5026133
31.91534242783632	2.2140684	1.4879746
31.933572050784694	2.153329	1.4674225
31.951802503522508	2.1649592	1.47138
31.970033786624548	2.1362293	1.4615846
31.988265900665834	2.1269164	1.4583951
32.006498846221575	2.1130753	1.453642
32.02473262386724	2.1074045	1.4516902
32.04296723417845	2.1025357	1.4500123
32.0612026777311	2.0767548	1.441095
32.07943895510129	2.1286895	1.459003
32.097676066865304	2.1748142	1.4747251
32.115914013599685	2.1548104	1.4679272
32.13415279588115	2.0938587	1.4470172
32.152392414286666	2.0666087	1.4375705
32.1706328693934	2.0961075	1.447794
32.18887416177875	2.1628847	1.4706749
32.20711629202032	2.2049258	1.4848993
32.225359260695924	2.1439974	1.4642396
32.243603068383614	2.1433022	1.4640021
32.26184771566166	2.1120243	1.4532806
32.28009320310852	2.1105082	1.4527588
32.2983395313029	2.1619744	1.4703654
32.31658670082372	2.2112906	1.4870409
32.33483471225012	2.1259277	1.4580561
32.35308356616143	2.0299127	1.4247501
32.371333263137245	2.0121834	1.4185145
32.38958380375734	2.041933	1.4289622
32.407835188601744	2.0811367	1.4426146
32.42608741825067	2.0709035	1.4390634
32.444340493284585	2.0786674	1.4417584
32.46259441428416	2.0674968	1.4378792
32.48084918183028	2.0520751	1.4325066
32.49910479650405	2.077775	1.4414489
32.51736125888683	2.036064	1.4269071
32.53561856956014	1.9416662	1.3934368
32.5538767291058	1.979162	1.406827
32.572135738105764	1.9380778	1.3921486
32.59039559714228	1.9286497	1.3887583
32.608656306797776	1.9138722	1.3834277
32.62691786765491	1.9569829	1.3989221
32.645180280296586	2.0101378	1.4177933
32.663443545305896	2.0364444	1.4270405
32.68170766326619	1.954356	1.3979828
32.69997263476099	1.9758857	1.4056621
32.7182384603741	1.9618701	1.4006677
32.7365051406895	1.948329	1.3958255
32.75477267629144	1.9858865	1.4092149
32.77304106776434	1.9410049	1.3931996
32.79131031569289	1.9434023	1.3940597
32.809580420661966	1.9361889	1.3914701
32.827851383256714	1.9497204	1.3963239
32.84612320406245	1.984292	1.408649
32.86439588366476	1.97372	1.4048915
32.88266942264945	1.9202822	1.3857425
32.9009438216025	1.8962792	1.3770546
32.9192190811102	1.9288628	1.3888351
32.937495201758985	1.8776343	1.370268
32.95577218413556	1.8800467	1.371148
32.974050028826866	1.9234834	1.3868971
32.992328736420035	1.9888452	1.4102643
33.010608307502444	2.0234518	1.4224808
33.02888874266169	1.9381402	1.392171
33.047170042485604	1.8745311	1.3691351
33.06545220756225	1.8300303	1.3527862
33.083735238479896	1.828593	1.3522547
33.10201913582707	1.9265574	1.3880048
33.12030390019248	1.9569919	1.3989253
33.138589532165135	1.9281982	1.3885958
33.15687603233419	1.8524101	1.3610327
33.17516340128909	1.9562178	1.3986485
33.19345163961947	1.9380732	1.392147
33.211740747915215	1.8702924	1.3675864
33.23003072676643	1.9080606	1.3813256
33.248321576763466	1.9244995	1.3872633
33.266613298496885	1.8100363	1.3453759
33.28490589255747	1.7715495	1.3309957
33.30319935953626	1.786147	1.3364681
33.32149370002451	1.836831	1.3552973
33.339788914613706	1.9371108	1.3918012
33.358085003895575	2.0262802	1.4234747
33.376381968462034	1.9683551	1.4029808
33.39467980890529	2.0186224	1.4207823
33.41297852581774	2.040172	1.4283459
33.43127811979204	1.947981	1.3957009
33.44957859142105	1.9111533	1.3824447
33.467879941297866	2.008889	1.4173528
33.486182170015844	1.9146785	1.3837191
33.50448527816853	1.7648352	1.3284711
33.522789266349754	1.7607275	1.3269241
33.541094135153514	1.8173573	1.348094
33.55939988517411	1.9540358	1.3978683
33.57770651700602	1.9664054	1.4022858
33.59601403124398	1.8690016	1.3671143
33.61432242848296	1.8572654	1.3628153
33.632631709318154	1.8458045	1.3586038
33.650941874344994	1.7862487	1.3365061
33.66925292415916	1.7950898	1.3398097
33.68756485935654	1.8258259	1.3512312
33.70587768053328	1.8076671	1.3444952
33.724191388285746	1.9302847	1.3893468
33.74250598321054	1.9211402	1.386052
33.760821465904506	1.8450962	1.3583432
33.77913783696474	1.981113	1.4075202
33.79745509698852	2.0795639	1.4420693
33.815773246573414	2.0833967	1.4433976
33.8340922863172	1.9575735	1.3991331
33.852412216817896	1.852866	1.3612002
33.87073303867377	1.8241413	1.3506078
33.889054752483304	1.8720032	1.3682116
33.907377358845245	1.8996143	1.378265
33.92570085835853	1.8784834	1.3705778
33.94402525162239	1.8246224	1.3507859
33.96235053923627	1.8524987	1.3610653
33.980676721799824	1.9579244	1.3992585
33.999003799912984	1.9263581	1.387933
34.01733177417592	1.8695154	1.3673023
34.03566064518901	1.8305638	1.3529832
34.0539904135529	1.8150603	1.3472418
34.07232107986846	1.9005436	1.378602
34.090652644736785	1.9398164	1.3927729
34.108985108759235	1.9374076	1.3919079
34.12731847253742	1.8690003	1.3671138
34.14565273667313	1.9193151	1.3853935
34.16398790176847	1.8893954	1.3745527
34.18232396842574	1.8822424	1.3719484
34.20066093724749	1.9949615	1.412431
34.21899880883651	2.0735424	1.43998
34.23733758379583	1.9065857	1.3807917
34.25567726272874	1.8109096	1.3457004
34.27401784623872	1.8730474	1.3685932
34.29235933492957	2.0157979	1.419788
34.31070172940526	2.0041013	1.4156629
34.32904503027003	1.8751304	1.369354
34.347389238128386	1.8333906	1.3540275
34.36573435358502	1.8476415	1.3592798
34.38408037724492	1.703769	1.305285
34.402427309713296	1.6143321	1.2705637
34.42077515159559	1.7265071	1.3139662
34.43912390349752	1.9680989	1.4028895
34.45747356602499	2.0022388	1.4150048
34.47582413978423	1.9324617	1.3901302
34.49417562538163	1.8898503	1.3747182
34.51252802342388	1.8300685	1.3528003
34.53088133451789	1.8181014	1.34837
34.54923555927084	1.8488489	1.3597238
34.567590698290104	1.8752244	1.3693883
34.58594675218336	1.9289466	1.3888652
34.6043037215585	2.0357957	1.4268131
34.62266160702365	2.1873178	1.4789584
34.641020409187234	2.0495923	1.4316397
34.65938012865785	1.8606229	1.3640465
34.677740766044394	1.8247354	1.3508277
34.69610232195598	1.8617561	1.3644618
34.714464797002016	1.8576397	1.3629526
34.73282819179208	1.9254639	1.3876109
34.751192506936064	1.9092615	1.3817602
34.76955774304408	1.8927273	1.3757643
34.7879239007265	1.8329077	1.3538492
34.80629098059391	1.8102137	1.3454418
34.824658983257194	1.8124216	1.3462621
34.843027909327446	1.9236296	1.3869498
34.86139775941603	1.9272441	1.3882521
34.879768534134534	1.982326	1.407951
34.89814023409483	1.8533732	1.3613865
34.91651285990901	1.7777966	1.3333404
34.93488641218944	1.8354193	1.3547765
34.95326089154871	1.9023545	1.3792586
34.97163629859967	1.8120692	1.3461312
34.99001263395542	1.6325014	1.2776937
35.00838989822934	1.8245753	1.3507684
35.02676809203499	2.1127408	1.453527
35.04514721598624	2.1124701	1.4534339
35.063527270697215	1.9992253	1.4139396
35.081908256782256	1.8260021	1.3512964
35.10029017485597	1.8275074	1.3518534
35.11867302553321	2.1359441	1.4614869
35.137056809429104	2.2743733	1.5081025
35.155441527159006	1.9890083	1.4103221
35.173827179338524	1.8294089	1.3525565
35.19221376658354	2.077242	1.441264
35.21060128951017	2.3871865	1.5450523
35.2289897487348	2.5273774	1.5897727
35.24737914487405	2.15767	1.4689009
35.26576947854479	2.0079756	1.4170306
35.28416075036418	2.1557124	1.4682344
35.30255296094958	2.5511549	1.5972335
35.32094611091867	2.3383532	1.5291674
35.33934020088932	2.1531498	1.4673616
35.35773523147969	2.18183	1.4771019
35.3761312033082	1.9356595	1.3912798
35.394528116993506	1.6132298	1.2701298
35.41292597315452	1.3949593	1.1810839
35.431324772410434	1.5008436	1.2250892
35.449724515380666	1.6199714	1.272781
35.46812520268491	1.6814969	1.2967254
35.486526834943106	1.7039713	1.3053625
35.504929412775454	1.6025677	1.2659256
35.52333293680242	1.4472848	1.2030315
35.54173740764471	1.5924711	1.2619315
35.560142825923286	1.8937944	1.376152
35.5785491922594	1.9034958	1.3796723
35.59695650727454	1.9966216	1.4130186
35.61536477159042	2.396952	1.5482093
