0.008763373481513119	0.0	0.0
0.026290120649546365	0.0	0.0
0.043816868432600686	0.0	0.0
0.06134361724069026	0.01719954	0.13114701
0.07887036748382949	0.07350938	0.27112612
0.0963971195720331	0.08964781	0.29941243
0.11392387391531617	0.106907666	0.3269674
0.1314506309236943	0.15649624	0.39559606
0.1489773910071836	0.18431294	0.42931682
0.16650415457580078	0.14268577	0.3777377
0.18403092203956356	0.2053867	0.45319608
0.20155769380849	0.16858649	0.41059285
0.2190844702925996	0.2219664	0.4711331
0.2366112519019124	0.16762903	0.40942526
0.2541380390464497	0.10046251	0.31695822
0.27166483213623416	0.11735192	0.34256667
0.28919163158128947	0.15041324	0.38783148
0.3067184377916406	0.23405436	0.48379165
0.324245251177314	0.23688115	0.48670438
0.34177207214833777	0.21805651	0.46696523
0.3592989011147415	0.2073332	0.45533857
0.37682573848655654	0.18466535	0.42972708
0.39435258467381573	0.16373721	0.40464455
0.41187944008655414	0.1733328	0.41633254
0.42940630513480854	0.14865197	0.3855541
0.446933180228618	0.11427311	0.33804306
0.4644600657780234	0.06727514	0.2593745
0.48198696219306775	0.06250191	0.2500038
0.49951386988379676	0.068185635	0.2611238
0.5170407892602581	0.08256755	0.2873457
0.5345677207325025	0.15742743	0.39677125
0.5520946647105822	0.17056341	0.41299325
0.5696216216045534	0.16151832	0.4018934
0.5871485918244737	0.12746572	0.35702342
0.6046755757804043	0.11175201	0.3342933
0.6222025738824094	0.13288902	0.36453947
0.6397295865405557	0.17010899	0.4124427
0.6572566141649129	0.21501073	0.4636925
0.6747836571655547	0.2706618	0.5202517
0.6923107159525568	0.251368	0.50136614
0.7098377909359992	0.22788532	0.47737336
0.7273648825259653	0.18870175	0.43439814
0.7448919911325411	0.25674808	0.50670314
0.762419117165817	0.23650517	0.48631796
0.7799462610358868	0.23051068	0.4801153
0.7974734231528482	0.16635728	0.4078692
0.8150006039268024	0.14378841	0.37919444
0.8325278037678551	0.13820162	0.3717548
0.8500550230861152	0.13621716	0.3690761
0.8675822622916969	0.15200123	0.38987336
0.8851095217947171	0.18146959	0.4259925
0.9026368020052984	0.21866392	0.46761513
0.9201641033335665	0.24954487	0.49954468
0.9376914261896523	0.2482697	0.4982667
0.9552187709836915	0.26179248	0.5116566
0.9727461381258234	0.25153008	0.5015277
0.990273528026193	0.22768828	0.47716692
1.0078009410949496	0.20693763	0.45490396
1.0253283777422473	0.21256746	0.4610504
1.0428558383782454	0.2514412	0.50143915
1.0603833234131086	0.25905836	0.5089778
1.0779108332570058	0.34499395	0.5873619
1.0954383683201119	0.34782332	0.5897655
1.112965929012607	0.39077502	0.62512
1.1304935157446763	0.49588466	0.7041908
1.1480211289265108	0.5071648	0.71215504
1.1655487689683062	1.2762588	1.1297163
1.1830764362802655	1.5353264	1.2390828
1.200604131272596	1.953961	1.3978416
1.2181318543555117	2.4228134	1.5565389
1.235659605939232	2.474013	1.5728996
1.253187386433982	4.0661287	2.0164645
1.270715196249994	6.4336987	2.5364738
1.2882430357975057	11.81579	3.4374104
1.3057709054867608	16.641626	4.079415
1.3232988057280106	22.350681	4.7276506
1.3408267369315112	27.368042	5.231447
1.358354699507526	30.97015	5.565083
1.3758826938663256	35.01057	5.916973
1.3934107204181858	37.259342	6.104043
1.410938779573391	37.781097	6.146633
1.4284668717422309	38.469128	6.2023487
1.4459949973350033	38.06988	6.1700797
1.4635231567620117	38.229393	6.1829925
1.4810513504335687	37.554386	6.1281633
1.4985795787599925	37.076546	6.0890512
1.5161078421516088	36.715206	6.0593076
1.5336361410187505	35.80365	5.983615
1.5511644757717598	35.850758	5.9875503
1.5686928468209842	36.405373	6.0336866
1.58622125457678	36.960014	6.079475
1.6037496994495108	38.276554	6.186805
1.621278181849548	38.43427	6.1995378
1.6388067021872719	39.327965	6.271201
1.6563352608730693	38.50889	6.205553
1.673863858317336	37.496933	6.123474
1.6913924949304753	36.51057	6.042398
1.7089211711228998	35.08515	5.923272
1.7264498873050296	33.91885	5.8239894
1.7439786438872935	32.881092	5.734204
1.7615074412801288	31.864628	5.6448765
1.779036279893981	31.486599	5.611292
1.796565160139305	30.71552	5.5421586
1.814094082426564	30.477116	5.5206084
1.8316230471662298	29.757269	5.4550223
1.849152054768784	28.865358	5.372649
1.8666811056447168	28.187693	5.3092084
1.8842102002045273	27.259483	5.2210617
1.901739338858724	26.590382	5.156586
1.9192685220178245	25.948963	5.0940123
1.9367977500923557	24.973824	4.9973817
1.9543270234928547	24.710258	4.9709415
1.971856342629867	24.265202	4.925972
1.9893857079139496	23.927668	4.8915915
2.006915119755667	23.46265	4.843826
2.0244445785655945	22.71397	4.765918
2.0419740847543175	22.137123	4.7050104
2.0595036387324317	21.693302	4.657607
2.0770332409105414	21.121767	4.5958424
2.094562891699263	20.950552	4.5771775
2.1120925915092217	20.277042	4.5030036
2.129622340751053	19.908945	4.461944
2.1471521398354043	188.14587	13.716628
2.1646819891729323	444.48187	21.082739
2.182211889174303	440.72354	20.993416
2.1997418402501974	453.008	21.283985
2.2172718428113023	432.9175	20.80667
2.234801897268317	320.85483	17.91242
2.2523320040319548	17.4397	4.1760864
2.269862163512935	17.173086	4.144042
2.287392376121992	16.927143	4.114261
2.304922642269869	16.520947	4.0645967
2.322452962367322	16.327047	4.040674
2.3399833368251164	16.183039	4.0228148
2.357513766054032	15.999011	3.9998763
2.3750442504648586	15.460303	3.9319592
2.3925747904683963	14.903545	3.860511
2.410105386475459	14.530374	3.8118727
2.4276360388968707	14.132159	3.7592764
2.445166748143469	14.219393	3.770861
2.4626975146261025	14.264292	3.7768097
2.4802283387556323	14.1342325	3.7595522
2.4977592209429305	13.900177	3.7282941
2.5152901615988825	13.434566	3.6653192
2.5328211611343865	13.048406	3.6122577
2.5503522199603523	12.731401	3.568109
2.5678833384877024	12.545216	3.5419226
2.5854145171273712	12.489056	3.5339859
2.6029457562903064	12.421908	3.5244727
2.620477056387469	12.156929	3.4866788
2.6380084178298326	11.946958	3.456437
2.655539841028383	11.718088	3.4231694
2.673071326394119	11.605102	3.4066262
2.6906028743380523	11.512396	3.3929923
2.708134485271211	11.259016	3.3554456
2.7256661596046325	11.071455	3.3273797
2.743197897749369	10.799443	3.2862506
2.760729700116486	10.594804	3.254966
2.778261567117063	10.371079	3.220416
2.795793499162193	10.216513	3.196328
2.8133254966629817	10.049673	3.170122
2.830857560030551	10.002507	3.162674
2.8483896896760337	9.935053	3.1519918
2.865921886010578	9.788185	3.1286075
2.883454149445347	9.735623	3.120196
2.9009864803915177	9.629096	3.1030784
2.91851887926028	9.347924	3.0574374
2.9360513464628384	9.22176	3.036735
2.953583882410413	8.994883	2.999147
2.9711164875142373	8.941216	2.9901867
2.9886491621855606	8.861095	2.9767592
3.0061819068356455	8.848471	2.974638
3.023714721875769	8.7858515	2.9640937
3.041247607717225	8.747535	2.9576232
3.0587805647713213	8.603166	2.9331152
3.0763135934493806	8.520143	2.9189284
3.0938466941627407	8.381457	2.8950746
3.1113798673227544	8.115508	2.848773
3.1289131133407904	7.932096	2.8163977
3.1464464326282315	7.797614	2.7924209
3.1639798255964786	7.8722253	2.8057487
3.1815132926569443	7.879898	2.8071156
3.1990468342210603	7.8543053	2.8025534
3.216580450700272	7.725383	2.7794573
3.2341141425060416	7.594629	2.7558353
3.251647910049847	7.411809	2.7224638
3.2691817537431813	7.2660007	2.695552
3.286715673997555	7.328325	2.707088
3.3042496712244938	7.26222	2.6948507
3.32178374583554	7.1456428	2.6731336
3.339317898242251	6.9573636	2.6376815
3.3568521288562034	6.9053836	2.6278098
3.3743864380889876	6.837394	2.6148412
3.3919208263522127	6.8018255	2.608031
3.4094552940575023	6.7651067	2.600982
3.4269898416164972	6.780856	2.6040077
3.444524469440858	6.744602	2.5970373
3.4620591779422587	6.724926	2.5932462
3.479593967532391	6.5927987	2.5676446
3.4971288386229658	6.54295	2.557919
3.5146637916257086	6.388566	2.5275612
3.5321988269523628	6.3858924	2.5270324
3.5497339450146903	6.2949343	2.5089707
3.5672691462244708	6.4436407	2.5384328
3.5848044309934988	6.5477457	2.5588562
3.60233979973359	6.47531	2.544663
3.619875252856575	6.2873163	2.5074522
3.6374107907743034	6.11736	2.4733298
3.6549464138986427	6.12274	2.474417
3.6724821226414788	6.2455735	2.4991145
3.690017917414714	6.364078	2.5227125
3.7075537986302702	6.364386	2.5227735
3.7250897667000857	6.3992357	2.529671
3.7426258220361235	6.6545243	2.5796366
3.7601619650503553	6.9747734	2.6409795
3.777698196154779	7.520696	2.7423887
3.7952345157614067	8.40254	2.8987136
3.8127709242822716	9.150051	3.0249052
3.830307422129425	11.413799	3.3784316
3.847844009714936	30.350315	5.509112
3.8653806874508954	97.85334	9.892085
3.882917455749409	97.11683	9.854787
3.900454315022606	96.95801	9.846725
3.917991265682631	41.574142	6.4478016
3.9355283081416506	11.21058	3.3482203
3.9530654428118495	8.960383	2.9933898
3.970602670105433	7.6529865	2.7664032
3.9881399904346244	6.620249	2.5729845
4.005677404211669	6.4670396	2.5430374
4.023214911848827	6.427309	2.5352137
4.0407525137583855	6.46359	2.542359
4.058290210352644	6.4987574	2.549266
4.075828002043927	6.4468985	2.5390744
4.0933658892445814	6.3463316	2.5191927
4.110903872366966	6.3268485	2.5153227
4.128441951823468	6.271065	2.5042095
4.145980128026488	6.2135	2.4926894
4.163518401388452	6.200204	2.4900208
4.181056772321807	6.1502333	2.4799664
4.1985952412390155	6.200428	2.4900658
4.216133808552567	6.1761985	2.4851959
4.233672474674966	6.2716303	2.5043223
4.251211240018741	6.532396	2.5558553
4.268750104996445	6.848552	2.6169739
4.286289070020643	7.81419	2.7953873
4.303828135503928	9.2963	3.0489833
4.3213673018589125	29.50909	5.432227
4.3389065694982305	90.760574	9.5268345
4.356445938834537	166.09012	12.887595
4.3739854102805085	171.78275	13.106591
4.391524984248844	172.78369	13.144721
4.409064661152262	136.8205	11.697029
4.426604441403504	97.035446	9.850657
4.444144325415337	75.76681	8.704413
4.461684313600543	21.754827	4.664207
4.47922440637193	22.110018	4.702129
4.496764604142329	20.593699	4.5380282
4.5143049073245916	18.96714	4.355128
4.531845316331589	16.87087	4.1074166
4.5493858315762195	13.970623	3.7377295
4.566926453471405	11.561	3.400147
4.584467182430081	9.479433	3.0788689
4.602008018865218	8.296044	2.8802855
4.619548963189798	7.6372623	2.7635598
4.637090015816834	7.0590777	2.6568925
4.654631177159353	6.7926345	2.6062684
4.672172447630417	6.4572744	2.5411167
4.689713827643102	6.380961	2.5260563
4.7072553176105085	6.1898804	2.487947
4.724796917945764	6.071697	2.4640815
4.742338629062015	5.9445257	2.43814
4.759880451372434	5.902671	2.4295413
4.777422385290215	5.803178	2.4089787
4.794964431228581	5.7131376	2.390217
4.812506589600768	5.565355	2.3591003
4.830048860820047	5.5592585	2.3578079
4.847591245299709	5.501234	2.345471
4.8651337434530655	5.6275835	2.372253
4.882676355693457	5.6826057	2.3838217
4.900219082434242	5.6876464	2.3848786
4.917761924088813	5.6075425	2.368025
4.935304881070575	5.5170336	2.3488367
4.952847953792969	5.4919705	2.3434954
4.970391142669449	5.5888247	2.3640695
4.9879344481135055	5.559178	2.357791
5.005477870538642	5.566207	2.359281
5.023021410358394	5.552207	2.3563123
5.040565067986324	5.567972	2.3596551
5.05810884383601	5.5619664	2.3583822
5.075652738321066	5.482993	2.3415792
5.09319675185512	5.4285226	2.329919
5.110740884851836	5.476988	2.3402965
5.128285137724894	5.5218315	2.3498578
5.145829510888007	5.526296	2.3508077
5.163374004754908	5.496394	2.344439
5.1809186197393595	5.413517	2.3266966
5.198463356255145	5.3091583	2.304161
5.216008214716077	5.31786	2.3060486
5.233553195535998	5.2509627	2.291498
5.251098299128764	5.242167	2.289578
5.268643525908272	5.2169642	2.2840674
5.286188876288432	5.273964	2.2965112
5.3037343506831895	5.320052	2.3065238
5.32127994950651	5.3172817	2.3059232
5.3388256731723915	5.27372	2.296458
5.356371522094851	5.294868	2.301058
5.373917496687938	5.3185644	2.3062012
5.391463597365729	5.3169184	2.3058443
5.40900982454232	5.220784	2.2849035
5.426556178631843	5.18872	2.2778761
5.444102660048449	5.1354227	2.2661471
5.4616492692063225	5.1517086	2.2697375
5.479196006519669	5.1671147	2.2731287
5.496742872402727	5.1846004	2.2769718
5.514289867269756	5.2109623	2.2827532
5.531836991535049	5.251293	2.29157
5.549384245612924	5.2507844	2.291459
5.566931629917724	5.245347	2.2902722
5.584479144863822	5.2249503	2.285815
5.6020267908656205	5.2573133	2.2928832
5.619574568337545	5.3315225	2.309009
5.637122477694054	5.35856	2.3148563
5.654670519349629	5.367672	2.3168237
5.672218693718784	5.2992435	2.3020086
5.689767001216059	5.2369504	2.2884383
5.707315442256021	5.2274413	2.2863598
5.724864017253266	5.1652203	2.272712
5.7424127266224225	5.1689386	2.27353
5.75996157077814	5.116875	2.262051
5.777510550135105	5.2075596	2.2820077
5.795059665108022	5.2164764	2.2839606
5.812608916111639	5.340159	2.3108783
5.830158303560715	5.37776	2.3189998
5.847707827870055	5.3260684	2.3078277
5.86525748945448	5.3523736	2.3135197
5.8828072887288485	5.51496	2.348395
5.900357226108044	5.6556816	2.3781676
5.917907302006979	5.7239122	2.39247
5.9354575168406	6.2505426	2.5001085
5.9530078710238765	6.821189	2.6117406
5.970558364971812	7.329269	2.7072623
5.988108999099438	7.699494	2.7747962
6.005659773821818	8.217635	2.8666418
6.023210689554039	8.048036	2.836906
6.040761746711227	8.503015	2.915993
6.058312945708531	7.937092	2.8172846
6.075864286961132	7.4295363	2.7257175
6.093415770884244	6.7168155	2.591682
6.1109673978931065	6.163222	2.4825838
6.128519168402993	5.5540442	2.356702
6.146071082829204	5.4796553	2.3408663
6.163623141587075	5.414356	2.3268769
6.181175345091969	5.2994895	2.302062
6.198727693759281	5.2353745	2.288094
6.216280188004435	5.236723	2.2883887
6.233832828242885	5.220068	2.284747
6.251385614890126	5.2828984	2.2984557
6.268938548361669	5.1868024	2.2774553
6.286491629073067	5.110711	2.2606883
6.304044857439898	5.090014	2.256106
6.321598233877777	4.988114	2.2334087
6.339151758802344	4.9886456	2.2335277
6.356705432629277	4.908774	2.2155752
6.37425925577428	4.9715166	2.2296898
6.391813228653095	5.0675583	2.2511237
6.409367351681486	5.087612	2.2555735
6.426921625275259	5.0935245	2.2568839
6.44447604985025	5.059142	2.2492537
6.46203062582232	5.0825367	2.2544482
6.47958535360737	5.040832	2.2451797
6.497140233621328	5.0186906	2.2402434
6.514695266280161	5.066331	2.2508512
6.532250451999859	5.1209884	2.2629602
6.549805791196454	5.1458826	2.2684538
6.567361284286002	5.174913	2.2748435
6.584916931684597	5.1635704	2.272349
6.602472733808367	5.0731897	2.2523742
6.6200286910734665	5.0620646	2.2499032
6.637584803896092	5.0100174	2.2383068
6.655141072692462	5.0412207	2.2452662
6.672697497878842	5.039516	2.2448866
6.690254079871514	5.0266867	2.2420273
6.707810819086808	4.9959755	2.235168
6.725367715941078	5.0401525	2.2450285
6.742924770850719	5.0725293	2.2522275
6.760481984232151	5.113382	2.2612789
6.778039356501836	5.099575	2.2582238
6.795596888076266	5.033924	2.243641
6.813154579371963	5.027033	2.2421045
6.830712430805492	4.9764423	2.2307942
6.84827044279344	4.9481297	2.2244391
6.865828615752445	4.9793487	2.2314453
6.883386950099159	5.051868	2.247636
6.900945446250287	5.053146	2.2479203
6.918504104622553	5.040878	2.24519
6.936062925632727	5.0146475	2.2393408
6.953621909697607	4.998524	2.235738
6.971181057234028	5.0556154	2.2484696
6.988740368658859	5.1453905	2.2683454
7.006299844389007	5.2304077	2.2870085
7.023859484841407	5.3567133	2.3144574
7.041419290433036	5.482507	2.3414755
7.058979261580902	5.6180563	2.370244
7.0765393987020495	5.8756394	2.423972
7.094099702213559	6.2053585	2.4910557
7.111660172532549	6.450146	2.5397139
7.129220810076164	6.761447	2.6002781
7.146781615261595	7.380086	2.7166314
7.16434258850606	7.6718535	2.7698112
7.181903730226821	8.1441765	2.8538003
7.1994650408411704	8.23602	2.8698466
7.217026520766437	8.377032	2.8943102
7.234588170419983	8.624255	2.9367082
7.252149990219215	8.600212	2.9326117
7.269711980581568	8.540033	2.9223335
7.2872741419245175	8.368725	2.892875
7.304836474665574	8.033149	2.834281
7.322398979222286	7.6835523	2.771922
7.339961656012233	7.3517	2.7114017
7.357524505453039	6.9443097	2.6352057
7.375087527962357	6.6725054	2.5831194
7.392650723957886	6.344002	2.5187302
7.410214093857353	6.04622	2.4589062
7.427777638078528	5.7826724	2.4047189
7.445341357039213	5.624812	2.3716686
7.4629052511572525	5.4627266	2.3372476
7.480469320850524	5.3809657	2.319691
7.498033566536948	5.324578	2.3075047
7.5155979886344735	5.1934013	2.2789035
7.5331625875610975	5.18243	2.276495
7.550727363734844	5.1815357	2.2762988
7.568292317573788	5.123226	2.2634544
7.585857449496025	5.116079	2.2618752
7.603422759919705	5.12622	2.2641158
7.620988249263007	5.185584	2.2771878
7.638553917944147	5.207889	2.28208
7.656119766381391	5.186467	2.2773817
7.673685794993023	5.177602	2.2754345
7.691252004197388	5.2196894	2.284664
7.70881839441285	5.224001	2.2856073
7.726384966057826	5.283671	2.2986238
7.743951719550762	5.3503256	2.313077
7.761518655310149	5.4106627	2.3260832
7.779085773754511	5.458434	2.3363292
7.796653075302419	5.465237	2.3377848
7.814220560372475	5.4904165	2.3431637
7.831788229383323	5.490466	2.3431745
7.8493560827536495	5.4972444	2.3446202
7.866924120902174	5.4247675	2.329113
7.884492344247663	5.4048147	2.3248258
7.9020607532089135	5.371694	2.3176916
7.919629348204771	5.3782663	2.319109
7.937198129654115	5.3909097	2.3218334
7.954767097975865	5.370721	2.3174815
7.972336253588986	5.326294	2.3078766
7.989905596912472	5.3775682	2.3189585
8.007475128365371	5.3792386	2.3193185
8.025044848366756	5.4693356	2.338661
8.042614757335754	5.645606	2.3760483
8.060184855691523	5.7561536	2.3991985
8.07775514385327	5.9066753	2.4303653
8.095325622240228	5.8596334	2.420668
8.112896291271687	5.8419595	2.4170146
8.130467151366968	5.861927	2.4211416
8.148038202945436	5.947964	2.438845
8.165609446426497	5.993774	2.4482186
8.183180882229594	6.045533	2.4587667
8.200752510774217	6.0965185	2.4691129
8.218324332479893	6.0576587	2.4612312
8.235896347766193	5.995835	2.4486394
8.253468557052724	5.944358	2.4381053
8.27104096075914	5.9824066	2.445896
8.288613559305137	6.141608	2.478227
8.306186353110448	6.251306	2.5002613
8.32375934259485	6.2803392	2.5060606
8.341332528178162	6.301174	2.5102139
8.358905910280246	6.30789	2.5115514
8.376479489321003	6.3876586	2.5273817
8.394053265720377	6.4637866	2.5423977
8.411627239898356	6.4857297	2.5467095
8.42920141227497	6.454364	2.540544
8.44677578327029	6.3811083	2.5260856
8.464350353304427	6.2945404	2.5088923
8.48192512279754	6.1961036	2.4891975
8.499500092169827	6.178316	2.485622
8.51707526184153	6.1813846	2.486239
8.534650632232934	6.2760487	2.5052042
8.552226203764365	6.235944	2.4971871
8.569801976856192	6.2292023	2.495837
8.587377951928834	6.265943	2.5031865
8.60495412940274	6.3617125	2.5222435
8.622530509698416	6.438579	2.5374355
8.6401070932364	6.5511813	2.5595276
8.657683880437283	6.6356015	2.5759661
8.675260871721695	6.7535205	2.5987537
8.692838067510303	6.8109694	2.6097834
8.710415468223834	6.9719167	2.6404388
8.727993074283043	7.1581025	2.675463
8.745570886108737	7.2400465	2.6907334
8.763148904121765	7.3514633	2.7113583
8.78072712874302	7.4053535	2.721278
8.798305560393441	7.617375	2.7599592
8.815884199494006	7.723321	2.7790864
8.833463046465745	7.870955	2.8055222
8.851042101729728	7.987349	2.8261898
8.86862136570707	8.214071	2.8660202
8.886200838818924	8.420057	2.9017334
8.903780521486505	8.539333	2.9222138
8.921360414131055	8.619695	2.9359317
8.938940517173874	8.653414	2.9416685
8.956520831036297	8.743218	2.9568934
8.97410135613971	9.079499	3.0132208
8.99168209290554	9.353004	3.0582683
9.009263041755265	9.605053	3.099202
9.026844203110405	9.866593	3.1411133
9.044425577392525	10.033853	3.1676257
9.062007165023239	10.230093	3.1984518
9.079588966424197	10.5421	3.24686
9.097170982017108	10.57918	3.2525651
9.11475321222372	11.441902	3.3825881
9.132335657465825	12.265741	3.502248
9.149918318165264	12.322357	3.5103216
9.167501194743924	12.975669	3.6021755
9.18508428762374	12.702015	3.5639887
9.202667597226693	12.667217	3.5591035
9.220251123974803	12.307305	3.508177
9.237834868290143	11.954678	3.4575536
9.255418830594836	11.753115	3.4282815
9.273003011311046	11.253169	3.3545744
9.290587410860985	11.065467	3.3264797
9.308172029666911	10.443093	3.2315776
9.32575686815113	10.197822	3.1934028
9.343341926735997	8.96607	2.9943397
9.360927205843916	8.687546	2.9474642
9.378512705897327	8.439496	2.905081
9.396098427318728	8.191745	2.8621225
9.413684370530664	8.081661	2.8428264
9.431270535955722	8.002581	2.8288832
9.448856924016539	8.004462	2.8292158
9.466443535135806	7.90085	2.8108451
9.484030369736251	7.9056973	2.8117073
9.501617428240658	7.8489966	2.8016062
9.519204711071852	7.8680396	2.8050027
9.536792218652714	7.8568335	2.8030043
9.55437995140617	7.8644576	2.804364
9.571967909755191	7.859695	2.8035147
9.589556094122802	7.854892	2.802658
9.60714450493207	7.94906	2.8194077
9.624733142606116	7.997905	2.8280568
9.642322007568108	8.125825	2.8505833
9.659911100241267	8.170964	2.8584898
9.677500421048851	8.168862	2.858122
9.695089970414175	8.133558	2.8519394
9.712679748760609	8.163511	2.8571858
9.730269756511557	8.198071	2.8632274
9.747859994090492	8.244241	2.8712785
9.765450461920915	8.280625	2.8776076
9.78304116042639	8.324643	2.8852458
9.800632090030527	8.311383	2.882947
9.81822325115699	8.397208	2.8977938
9.835814644229481	8.415581	2.900962
9.853406269671762	8.386017	2.895862
9.870998127907646	8.316338	2.883806
9.888590219360985	8.269655	2.8757007
9.906182544455698	8.289098	2.8790793
9.923775103615734	8.297353	2.8805125
9.941367897265108	8.35759	2.8909497
9.958960925827878	8.391618	2.896829
9.97655418972816	8.39495	2.897404
9.994147689390106	8.402513	2.8987088
10.011741425237934	8.336684	2.8873317
10.029335397695904	8.328196	2.8858614
10.04692960718833	8.30164	2.8812566
10.06452405413958	8.25671	2.873449
10.082118738974064	8.254723	2.8731034
10.099713662116246	8.265454	2.8749702
10.117308823990651	8.304712	2.8817897
10.134904225021844	8.327854	2.8858023
10.152499865634445	8.346782	2.8890798
10.170095746253125	8.37652	2.8942218
10.18769186730261	8.414542	2.900783
10.205288229207675	8.41945	2.9016287
10.222884832393145	8.403425	2.8988662
10.2404816772839	8.255135	2.873175
10.258078764304868	8.21348	2.865917
10.275676093881035	8.159924	2.856558
10.293273666437438	8.228565	2.8685477
10.310871482399158	8.283619	2.8781276
10.32846954219134	8.251182	2.872487
10.346067846239173	8.180416	2.8601427
10.363666394967908	8.17532	2.8592515
10.38126518880283	8.164968	2.8574407
10.398864228169298	8.245342	2.8714705
10.416463513492713	8.249384	2.872174
10.434063045198531	8.224003	2.8677523
10.451662823712262	8.251674	2.8725727
10.469262849459467	8.313213	2.8832643
10.486863122865758	8.267492	2.8753247
10.504463644356806	8.153121	2.855367
10.522064414358338	8.060265	2.8390605
10.539665433296118	8.026317	2.8330755
10.557266701595987	8.007882	2.8298202
10.574868219683818	7.9629674	2.821873
10.592469987985552	7.7870474	2.790528
10.610072006927185	7.6565037	2.7670388
10.627674276934751	7.5609627	2.7497206
10.64527679843435	7.441638	2.7279365
10.662879571852143	7.334661	2.708258
10.680482597614331	7.237785	2.690313
10.698085876147173	7.176848	2.678964
10.715689407876988	7.137747	2.6716561
10.733293193230146	6.944828	2.6353042
10.750897232633072	6.8494983	2.6171546
10.76850152651225	6.7516804	2.5983996
10.786106075294207	6.6885414	2.5862215
10.803710879405534	6.59806	2.5686688
10.821315939272877	6.4724755	2.544106
10.83892125532294	6.402904	2.530396
10.856526827982472	6.3224926	2.5144567
10.874132657678285	6.3307953	2.516107
10.891738744837243	6.318001	2.5135634
10.909345089886271	6.2840757	2.506806
10.926951693252343	6.2543955	2.500879
10.944558555362494	6.165618	2.4830663
10.96216567664381	6.147703	2.4794562
10.979773057523436	6.050007	2.4596763
10.997380698428573	5.9585824	2.4410207
11.014988599786477	5.9140024	2.4318721
11.032596762024461	5.8538537	2.419474
11.050205185569892	5.7702446	2.4021332
11.067813870850198	5.6945105	2.3863173
11.085422818292859	5.635392	2.373898
11.10303202832541	5.5852456	2.3633125
11.120641501375454	5.545318	2.3548498
11.138251237870636	5.502065	2.345648
11.155861238238671	5.4202895	2.3281515
11.173471502907317	5.3427005	2.3114283
11.191082032304402	5.225476	2.28593
11.208692826857805	5.1760006	2.2750826
11.226303886995465	5.191154	2.2784104
11.243915213145371	5.1899953	2.278156
11.261526805735578	5.128078	2.264526
11.279138665194196	5.021536	2.2408783
11.296750791949393	4.9138074	2.216711
11.314363186429393	4.876408	2.208259
11.331975849062479	4.817922	2.1949766
11.34958878027699	4.7795177	2.1862109
11.36720198050133	4.754932	2.1805806
11.384815450163948	4.6227493	2.150058
11.402429189693366	4.5347924	2.1295052
11.420043199518153	4.4729695	2.1149397
11.437657480066942	63.46041	7.966204
11.455272031768422	85.2298	9.231998
11.472886855051353	107.693924	10.377568
11.490501950344528	99.28088	9.96398
11.508117318076819	84.60074	9.197866
11.52573295867715	45.911835	6.7758274
11.543348872574514	4.1926656	2.0476
11.560965060197946	4.108721	2.026998
11.57858152197655	4.1003165	2.0249238
11.59619825833949	4.0528836	2.0131774
11.613815269715985	4.0705695	2.0175653
11.631432556535323	38.538574	6.2079444
11.649050119226837	83.09896	9.115863
11.666667958219929	93.46835	9.667903
11.68428607394406	107.70273	10.377993
11.701904466828756	82.53187	9.084705
11.719523137303586	65.373535	8.08539
11.737142085798196	4.632556	2.1523373
11.754761312742286	3.7664547	1.9407356
11.772380818565619	3.714189	1.9272231
11.790000603698015	3.7158527	1.9276547
11.80762066856935	3.6430814	1.9086858
11.825241013609572	3.592769	1.8954601
11.842861639248683	3.5483174	1.8836979
11.860482545916748	3.5292547	1.8786311
11.878103734043883	3.528239	1.8783607
11.895725204060282	3.5415237	1.8818936
11.91334695639619	3.530732	1.8790241
11.930968991481919	3.5033567	1.8717256
11.948591309747824	3.4629724	1.8609064
11.966213911624347	3.4733436	1.8636909
11.98383679754198	3.4460025	1.8563411
12.001459967931268	3.3767998	1.8376071
12.019083423222835	3.3225727	1.8227925
12.036707163847352	3.252291	1.8034109
12.05433119023556	3.2539318	1.8038658
12.071955502818259	3.1986132	1.7884667
12.089580102026313	3.189621	1.785951
12.107204988290643	3.1909232	1.7863156
12.12483016204224	3.1773024	1.782499
12.142455623712152	3.151945	1.7753718
12.16008137373149	3.1340196	1.7703162
12.177707412531431	3.1565685	1.7766734
12.19533374054321	3.1827366	1.7840226
12.212960358198126	3.204228	1.7900357
12.230587265927545	3.15502	1.7762376
12.248214464162889	3.1085007	1.7630941
12.265841953335649	3.0392601	1.7433474
12.283469733877375	3.029332	1.7404976
12.301097806219685	3.0001132	1.7320834
12.31872617079425	2.985803	1.7279476
12.336354828032825	3.0079086	1.7343323
12.353983778367205	3.0073357	1.7341671
12.371613022229262	3.0126193	1.7356899
12.389242560050928	2.960379	1.7205752
12.406872392264201	2.9307644	1.7119476
12.424502519301143	2.9223115	1.709477
12.442132941593874	2.939301	1.714439
12.459763659574586	2.9524765	1.7182772
12.477394673675532	2.9469302	1.7166625
12.49502598432903	2.9207535	1.7090212
12.51265759196746	2.9086766	1.7054843
12.530289497023267	2.8756416	1.6957717
12.547921699928967	2.88052	1.6972095
12.565554201117134	2.8485215	1.6877563
12.583187001020404	2.8633614	1.692147
12.600820100071486	2.8270378	1.6813797
12.618453498703152	2.8461418	1.6870512
12.636087197348235	2.8106816	1.6765088
12.65372119643964	2.799012	1.6730248
12.671355496410326	2.7792714	1.6671147
12.68899009769333	2.8018293	1.6738666
12.706625000721749	2.8678799	1.6934816
12.724260205928752	2.956691	1.7195032
12.741895713747551	2.9980488	1.7314874
12.759531524611454	3.0575607	1.7485882
12.777167638953818	3.0319636	1.7412535
12.794804057208072	3.032634	1.7414459
12.812440779807702	3.0602322	1.749352
12.830077807186271	3.22512	1.795862
12.847715139777405	3.326975	1.8239998
12.865352778014795	3.5277202	1.8782226
12.882990722332197	3.5872853	1.894013
12.90062897316344	3.6369205	1.9070711
12.918267530942412	3.6633086	1.9139771
12.935906396103071	3.5831969	1.8929334
12.953545569079449	3.739348	1.9337394
12.971185050305628	3.5901852	1.8947784
12.988824840215775	3.6251009	1.9039698
13.006464939244115	3.6030233	1.8981631
13.024105347824943	3.4757824	1.8643451
13.041746066392617	3.5762837	1.8911065
13.05938709538157	3.4025636	1.8446039
13.077028435226296	3.4619277	1.8606256
13.094670086361363	3.3799553	1.8384655
13.112312049221401	3.2714493	1.8087149
13.129954324241112	3.1043513	1.7619169
13.147596911855258	2.892754	1.7008098
13.165239812498685	2.8660417	1.6929388
13.182883026606293	2.8535445	1.6892438
13.200526554613058	2.8180475	1.6787041
13.218170396954017	2.764815	1.6627734
13.235814554064284	2.7410924	1.6556245
13.253459026379034	2.7373812	1.6545033
13.271103814333523	2.7546759	1.6597216
13.288748918363058	2.7791522	1.667079
13.306394338903031	2.7694182	1.6641569
13.32404007638889	2.70971	1.6461196
13.341686131256164	2.699283	1.6429495
13.359332503940449	2.6873424	1.6393116
13.376979194877402	2.7250621	1.6507763
13.394626204502751	2.7780235	1.6667404
13.412273533252307	2.773136	1.6652735
13.429921181561937	2.7378533	1.6546459
13.447569149867581	2.707677	1.645502
13.465217438605247	2.6976836	1.6424626
13.482866048211022	2.687417	1.6393343
13.500514979121052	2.7147899	1.6476619
13.518164231771568	2.7238452	1.6504076
13.535813806598844	2.7810516	1.6676486
13.553463704039254	2.779481	1.6671776
13.571113924529229	2.788943	1.6700128
13.588764468505275	2.752091	1.6589427
13.606415336403956	2.7313418	1.6526772
13.624066528661917	2.7341807	1.6535358
13.641718045715882	2.8058245	1.6750596
13.659369888002635	2.8447213	1.6866301
13.67702205595903	2.9249861	1.7102591
13.694674550021993	3.0206978	1.7380155
13.712327370628532	3.1018398	1.7612041
13.729980518215713	3.174854	1.781812
13.747633993220681	3.2074962	1.7909484
13.765287796080647	3.2509532	1.80304
13.7829419272329	3.276579	1.8101323
13.800596387114801	3.3011937	1.8169187
13.818251176163775	3.3440385	1.8286712
13.835906294817324	3.4009955	1.8441788
13.853561743513023	3.4490838	1.8571709
13.871217522688525	3.5230103	1.8769684
13.888873632781538	3.5802765	1.8921618
13.906530074229858	3.5683274	1.8890017
13.92418684747135	3.5140688	1.874585
13.941843952943948	3.4769456	1.8646569
13.959501391085665	3.4617786	1.8605856
13.977159162334578	3.4268847	1.8511846
13.994817267128846	3.3994522	1.8437604
14.012475705906693	3.3116963	1.8198067
14.030134479106424	3.2741125	1.8094509
14.047793587166414	3.2032897	1.7897737
14.065453030525108	3.129398	1.7690105
14.083112809621026	3.0510163	1.7467159
14.100772924892766	2.9952345	1.7306746
14.118433376778997	2.9431698	1.7155669
14.136094165718458	2.87962	1.6969444
14.153755292149969	2.8405325	1.685388
14.171416756512416	2.7975476	1.672587
14.189078559244768	2.7494807	1.6581558
14.20674070078606	2.6861222	1.6389394
14.224403181575408	2.5860791	1.608129
14.242066002051999	2.4986467	1.5807109
14.259729162655093	2.4597259	1.5683513
14.277392663824022	2.461395	1.5688834
14.295056505998208	2.461866	1.5690334
14.312720689617128	2.472145	1.5723057
14.330385215120348	2.448323	1.5647118
14.348050082947497	2.4417295	1.5626035
14.3657152935383	2.4072123	1.5515194
14.383380847332528	2.4227328	1.5565131
14.401046744770051	2.4684944	1.5711443
14.418712986290798	2.4678571	1.5709414
14.436379572334793	2.456711	1.5673898
14.454046503342123	2.4036376	1.550367
14.471713779752946	2.4003174	1.5492958
14.489381402007504	2.413848	1.5536563
14.507049370546113	2.435819	1.560711
14.524717685809168	2.4300957	1.5588764
14.542386348237134	2.419771	1.5555613
14.560055358270553	2.4403052	1.5621476
14.577724716350051	2.4564419	1.567304
14.595394422916325	2.4473453	1.5643994
14.61306447841015	2.4859285	1.5766828
14.63073488327237	2.4965217	1.5800385
14.648405637943917	2.53075	1.5908331
14.6660767428658	2.511268	1.5846981
14.683748198479094	2.530564	1.5907747
14.701420005224954	2.5744739	1.6045167
14.719092163544628	2.662054	1.6315802
14.73676467387942	2.7209423	1.6495279
14.754437536670727	2.7210717	1.6495671
14.772110752360014	2.6870134	1.6392112
14.78978432138882	2.6827416	1.6379077
14.807458244198777	2.709579	1.6460799
14.82513252123159	2.6950078	1.6416479
14.842807152929028	2.70883	1.6458524
14.860482139732962	2.7311974	1.6526334
14.87815748208531	2.7341876	1.6535379
14.8958331804281	2.7317617	1.6528041
14.91350923520342	2.6978402	1.6425103
14.931185646853438	2.7096996	1.6461165
14.948862415820408	2.6646318	1.63237
14.966539542546656	2.6981661	1.6426096
14.98421702747459	2.6724987	1.6347779
15.001894871046696	2.6497774	1.6278137
15.019573073705542	2.6263337	1.6205968
15.037251635893766	2.633874	1.6229215
15.054930558054092	2.6861749	1.6389555
15.072609840629323	2.7211182	1.6495812
15.090289484062351	2.8311527	1.682603
15.107969488796124	3.1379428	1.7714239
15.125649855273691	3.5957756	1.896253
15.14333058393817	4.124856	2.0309741
15.161011675232768	5.081856	2.2542973
15.17869312960076	6.4116306	2.5321198
15.196374947485506	8.28701	2.8787167
15.214057129330447	11.439698	3.3822622
15.231739675579114	16.210545	4.0262322
15.249422586675102	21.303913	4.6156163
15.267105863062092	24.39232	4.938858
15.284789505183847	24.702618	4.970173
15.302473513484218	22.592585	4.7531657
15.320157888407127	19.048267	4.364432
15.337842630396578	14.864487	3.855449
15.355527739896656	11.650977	3.4133527
15.37321321735153	9.028787	3.004794
15.39089906320545	6.5203786	2.5535033
15.408585277902748	4.835977	2.1990855
15.42627186188783	3.6973283	1.9228438
15.443958815605198	3.1839738	1.7843693
15.461646139499424	2.9361818	1.713529
15.479333834015168	2.8233428	1.6802806
15.497021899597165	2.7420356	1.6559093
15.514710336690234	2.67645	1.635986
15.53239914573928	2.614895	1.6170638
15.550088327189297	2.538662	1.5933179
15.567777881485336	2.5118651	1.5848864
15.58546780907256	2.5216765	1.5879787
15.6031581103962	2.5243905	1.5888331
15.620848785901568	2.557201	1.599125
15.638539836034063	2.4997132	1.5810481
15.656231261239173	2.4536033	1.5663981
15.673923061962451	2.3812513	1.5431304
15.691615238649552	2.3847075	1.5442498
15.709307791746202	2.3510187	1.5333031
15.727000721698221	2.3540406	1.5342883
15.744694028951498	2.3755355	1.5412772
15.76238771395202	2.403347	1.5502732
15.780081777145844	2.4061723	1.5511842
15.797776218979125	2.3682692	1.5389181
15.815471039898094	2.3548949	1.5345666
15.833166240349064	2.38612	1.5447071
15.850861820778437	2.3828726	1.5436556
15.868557781632699	2.3775048	1.541916
15.886254123358412	2.3970864	1.5482527
15.903950846402232	2.4093866	1.5522199
15.921647951210897	2.4082608	1.5518572
15.939345438231225	2.4048967	1.5507729
15.957043307910133	2.4208047	1.5558935
15.974741560694602	2.4452648	1.5637343
15.992440197031714	2.4431357	1.5630534
16.01013921736862	2.4075747	1.5516361
16.02783862215259	2.4026296	1.5500418
16.045538411830933	2.404265	1.5505692
16.06323858685107	2.4165356	1.5545211
16.080939147660512	2.4229908	1.5565959
16.09864009470684	2.4152968	1.5541226
16.11634142843774	2.4406667	1.5622634
16.134043149300954	2.4654098	1.5701623
16.15174525774433	2.4902256	1.5780449
16.169447754215817	2.4807072	1.575026
16.18715063916342	2.4636793	1.5696112
16.204853913035244	2.436347	1.5608802
16.222557576279478	2.4289505	1.5585091
16.240261629344403	22.418697	4.7348385
16.257966072678386	42.98077	6.555972
16.275670906729868	38.114697	6.1737103
16.293376131947387	2.5824661	1.6070054
16.31108174877957	2.6205482	1.6188108
16.328787757675133	2.6620753	1.6315868
16.34649415908287	2.620863	1.6189079
16.364200953451657	2.6368673	1.6238433
16.38190814123048	2.6272216	1.6208706
16.39961572286839	2.697582	1.6424317
16.41732369881455	2.7457316	1.657025
16.43503206951817	2.802825	1.6741639
16.45274083542859	2.8131902	1.6772567
16.47044999699522	2.8517306	1.6887068
16.488159554667558	2.8903315	1.7000974
16.505869508895184	2.934443	1.7130216
16.523579860127786	2.9572706	1.7196716
16.541290608815117	3.006489	1.7339231
16.559001755407035	3.0554588	1.747987
16.57671330035348	3.1178257	1.7657366
16.59442524410448	3.1513917	1.775216
16.61213758711015	3.239442	1.799845
16.629850329820705	3.3260376	1.8237427
16.647563472686436	3.4264202	1.8510592
16.665277016157724	3.471063	1.8630788
16.682990960685053	3.485943	1.867068
16.70070530671898	3.5130148	1.8743038
16.718420054710155	3.5105038	1.8736339
16.736135205109335	3.5584693	1.8863906
16.753850758367335	3.6301982	1.9053079
16.771566714935087	3.7623944	1.9396893
16.789283075263597	3.8281243	1.9565593
16.80699983980398	3.8634837	1.9655746
16.82471700900741	3.887906	1.9717774
16.84243458332518	3.9855008	1.9963719
16.860152563208665	4.0508924	2.012683
16.87787094910932	4.062865	2.015655
16.89558974147871	4.153572	2.0380313
16.913308940768466	4.2833934	2.069636
16.931028547430333	4.4023323	2.0981736
16.94874856191613	4.4292045	2.1045675
16.966468984677785	4.4213457	2.1026995
16.98418981616729	4.421037	2.1026263
17.00191105683676	4.434025	2.1057124
17.019632707138374	4.4402003	2.1071782
17.03735476752442	4.5061126	2.1227605
17.05507723844728	4.5992227	2.14458
17.072800120359403	4.694378	2.1666512
17.090523413713353	4.739283	2.1769896
17.108247118961785	4.7205925	2.1726925
17.125971236557437	4.749176	2.1792605
17.143695766953133	4.764671	2.1828127
17.161420710601806	4.771171	2.1843011
17.179146067956477	4.7549953	2.1805952
17.19687183947025	4.78294	2.1869934
17.21459802559634	4.8011856	2.1911607
17.232324626788028	4.7434177	2.177939
17.25005164349871	4.663531	2.1595209
17.267779076181863	4.6386695	2.153757
17.285506925291074	4.639763	2.1540108
17.30323519127999	4.638024	2.1536071
17.320963874602384	4.6319776	2.1522028
17.33869297571211	4.6436543	2.154914
17.356422495063114	4.5838423	2.140991
17.37415243310944	4.4916162	2.1193433
17.391882790305218	4.46104	2.1121175
17.40961356710468	4.5252237	2.1272573
17.42734476396215	4.6042805	2.1457586
17.445076381332044	4.639634	2.153981
17.462808419668868	4.621444	2.1497545
17.48054087942723	4.70598	2.169327
17.498273761061835	5.021624	2.2408981
17.51600706502747	5.6037264	2.3672192
17.533740791779024	6.3599825	2.5219007
17.551474941771485	7.7854924	2.7902496
17.56920951545993	8.87741	2.9794984
17.586944513299528	11.106294	3.3326106
17.60467993574556	12.752444	3.5710564
17.622415783253373	14.382699	3.7924528
17.64015205627843	15.748861	3.9684834
17.657888755276293	16.85104	4.105002
17.675625880702604	17.338272	4.163925
17.69336343301311	17.092947	4.1343617
17.71110141266366	16.281782	4.035069
17.728839820110178	15.318662	3.913906
17.746578655808705	14.451358	3.8014941
17.764317920215372	13.077047	3.61622
17.7820576137864	11.618659	3.4086154
17.79979773697811	9.599025	3.0982294
17.81753829024692	7.704585	2.7757134
17.835279274049356	6.036926	2.4570155
17.85302068884201	4.9220986	2.2185802
17.870762535081607	4.234871	2.0578802
17.888504813224934	3.913178	1.9781754
17.90624752372891	3.760893	1.9393022
17.923990667050536	3.6607447	1.9133073
17.941734243646895	3.615292	1.9013921
17.959478253975185	3.578841	1.8917825
17.9772226984927	3.5124736	1.8741595
17.994967577656833	3.4274201	1.8513293
18.01271289192506	3.3983006	1.843448
18.030458641754965	3.3773546	1.8377581
18.04820482760425	3.3615851	1.8334626
18.06595144993067	3.315775	1.8209269
18.083698509192125	3.2837007	1.8120984
18.101446005846576	3.2596476	1.8054494
18.119193940352105	3.2834754	1.8120363
18.136942313166887	3.2736356	1.8093191
18.1546911247492	3.2181742	1.7939271
18.1724403755574	3.1890035	1.7857782
18.19019006604997	3.1436167	1.7730247
18.207940196685467	3.122289	1.767
18.225690767922575	3.1275792	1.7684963
18.243441780220046	3.1632254	1.7785459
18.261193234036764	3.1671915	1.7796605
18.278945129831676	3.1576645	1.7769818
18.29669746806386	3.1364672	1.7710074
18.314450249192483	3.0913618	1.7582269
18.3322034736768	3.062716	1.7500618
18.349957141976184	3.0595047	1.749144
18.3677112545501	3.0559983	1.7481414
18.385465811858108	3.0671566	1.7513299
18.403220814359884	3.0682578	1.7516444
18.420976262515172	3.099085	1.7604219
18.43873215678387	3.1467466	1.7739072
18.456488497625923	3.1990378	1.7885854
18.474245285501407	3.283648	1.8120838
18.492002520870486	3.3242273	1.8232464
18.50976020419343	3.3913953	1.8415742
18.527518335930615	3.734242	1.9324187
18.545276916542516	4.3215785	2.0788407
18.563035946489688	4.507324	2.123046
18.580795426232832	4.9327173	2.220972
18.598555356232698	4.855232	2.203459
18.616315736950185	5.188762	2.2778854
18.63407656884626	4.8122706	2.1936889
18.65183785238201	4.974967	2.2304635
18.669599588018617	4.7310276	2.1750925
18.68736177621737	4.726736	2.174106
18.705124417439652	4.6969986	2.167256
18.72288751214696	4.5004754	2.1214323
18.740651060800886	4.609715	2.1470246
18.758415063863115	4.351926	2.086127
18.77617952179546	4.533085	2.1291041
18.793944435059814	4.293685	2.072121
18.811709804118184	4.2942743	2.072263
18.829475629432675	4.2599564	2.0639663
18.8472419114655	4.0576	2.0143485
18.86500865067897	4.1258006	2.0312066
18.88277584753551	3.8502693	1.9622103
18.90054350249763	3.893229	1.9731266
18.918311616027957	3.5469918	1.883346
18.936080188589226	3.413657	1.8476084
18.953849220644265	3.0867352	1.7569107
18.971618712656007	2.9077125	1.7052016
18.9893886650875	2.850675	1.6883942
19.007159078401887	8.015129	2.8311002
19.024929953062408	32.87797	5.7339315
19.042701289532435	32.860455	5.7324038
19.060473088275405	25.458149	5.045607
19.07824534975489	2.7707741	1.6645643
19.096018074434568	2.7332332	1.6532493
19.113791262778197	2.685425	1.6387267
19.13156491524966	2.6262524	1.6205716
19.149339032312945	2.6052318	1.614073
19.167113614432136	2.5990717	1.6121637
19.184888662071433	2.5971713	1.6115742
19.202664175695123	2.568913	1.6027828
19.220440155767623	2.5435584	1.5948538
19.238216602753447	2.56897	1.6028006
19.2559935171172	2.5966325	1.611407
19.27377089932361	2.6085737	1.6151079
19.291548749837514	2.562546	1.6007954
19.309327069123835	2.5076084	1.583543
19.32710585764763	2.483924	1.576047
19.344885115874032	2.5460362	1.5956304
19.362664844268313	2.5504014	1.5969976
19.380445043295822	2.5186245	1.5870175
19.39822571342203	2.4689095	1.5712764
19.41600685511252	2.4572299	1.5675554
19.43378846883297	2.4795194	1.574649
19.451570555049173	2.5272887	1.5897448
19.469353114227037	2.549792	1.5968069
19.48713614683254	2.536319	1.5925825
19.50491965333182	2.4837635	1.575996
19.52270363419109	2.5242705	1.5887953
19.540488089876686	2.5378382	1.5930594
19.55827302085503	2.559831	1.5999472
19.576058427592674	2.5488431	1.5965097
19.593844310556282	2.550261	1.5969536
19.611630670212598	2.5618553	1.6005797
19.629417507028506	2.539151	1.5934714
19.64720482147098	2.546753	1.5958549
19.6649926140071	2.5509498	1.5971693
19.682780885104084	2.5428262	1.5946242
19.70056963522921	2.5436897	1.5948949
19.718358864849908	2.5240576	1.5887283
19.7361485744337	2.5765204	1.6051544
19.753938764448215	2.5940423	1.6106031
19.771729435361202	2.5971894	1.6115798
19.789520587640506	2.5511687	1.5972378
19.807312221754092	2.5472968	1.5960253
19.825104338170043	2.5651035	1.6015941
19.842896937356517	2.5675201	1.6023483
19.860690019781824	2.527846	1.5899202
19.87848358591436	2.5118997	1.5848974
19.896277636222635	2.5319426	1.5912079
19.914072171175278	2.5454967	1.5954612
19.931867191241015	2.5371444	1.5928416
19.94966269688869	2.5301843	1.5906553
19.967458688587264	2.5235991	1.5885841
19.985255166805807	2.5093973	1.5841078
20.00305213201348	2.5124712	1.5850776
20.020849584679578	2.5241897	1.5887699
20.038647525273507	2.5071216	1.5833893
20.05644595426477	2.4792442	1.5745616
20.07424487212299	2.492335	1.578713
20.092044279317903	2.5121264	1.5849689
20.109844176319353	2.503325	1.5821899
20.127644563597304	2.479306	1.5745813
20.145445441621817	2.4825253	1.5756031
20.16324681086307	2.4681196	1.571025
20.181048671791373	2.476192	1.5735921
20.198851024877122	2.4656353	1.5702342
20.216653870590836	2.4485815	1.5647944
20.234457209403146	2.4260302	1.5575719
20.252261041784802	2.431921	1.5594617
20.270065368206662	2.4557085	1.56707
20.287870189139685	2.453904	1.5664941
20.305675505054968	2.4501934	1.5653094
20.323481316423702	2.4446335	1.5635324
20.341287623717207	2.446914	1.5642614
20.359094427406884	2.3968863	1.5481881
20.376901727964288	2.3486307	1.5325242
20.39470952586107	2.3375435	1.5289026
20.41251782156899	2.3654318	1.537996
20.430326615559935	2.4084294	1.5519115
20.448135908305886	2.3960023	1.5479026
20.465945700278965	2.3741188	1.5408176
20.483755991951384	2.3423276	1.5304664
20.50156678379548	2.3519864	1.5336187
20.519378076283708	2.360282	1.5363209
20.537189869888635	2.3981369	1.5485919
20.55500216508294	2.408962	1.5520831
20.572814962339415	2.3877878	1.5452468
20.59062826213098	2.3633246	1.5373108
20.60844206493066	2.3560176	1.5349325
20.626256371211593	2.36625	1.538262
20.644071181447032	2.3808744	1.5430082
20.66188649611036	2.3652976	1.5379524
20.67970231567506	2.3209848	1.5234779
20.697518640614742	2.3035543	1.5177464
20.715335471403122	2.3349116	1.5280417
20.73315280851404	2.3556972	1.5348281
20.750970652421447	2.3519585	1.5336096
20.768789003599412	2.348387	1.5324448
20.786607862522136	2.351734	1.5335364
20.8044272296639	2.3468516	1.5319437
20.82224710549913	2.3574984	1.5354147
20.84006749050237	2.3544807	1.5344317
20.857888385148268	3.916713	1.9790688
20.8757097899116	45.997414	6.7821393
20.893531705267254	64.85949	8.053539
20.911354131690224	83.904976	9.1599655
20.92917706965566	69.12628	8.314221
20.94700051963877	50.137947	7.0808153
20.96482448211493	29.396242	5.42183
20.982648957559622	4.140947	2.0349317
21.00047394644843	2.2765176	1.5088133
21.01829944925707	2.2877584	1.5125338
21.036125466461375	2.2925901	1.5141301
21.053951998537297	2.2655618	1.5051783
21.071779045960906	2.2764325	1.5087851
21.089606609208378	2.2963045	1.5153562
21.10743468875603	2.273922	1.5079529
21.12526328508028	2.239095	1.4963605
21.143092398657675	2.226976	1.4923055
21.16092202996488	2.232836	1.4942677
21.17875217947867	2.1939163	1.4811875
21.19658284767596	2.2109153	1.4869148
21.21441403503377	2.2138104	1.4878879
21.232245742029225	2.226199	1.4920452
21.2500779691396	2.2006736	1.4834667
21.26791071684227	2.1959617	1.4818778
21.28574398561475	2.193409	1.4810162
21.30357777593465	2.1870522	1.4788686
21.321412088279704	2.1928828	1.4808385
21.339246923127792	2.2279272	1.4926243
21.357082280956888	2.2054827	1.4850868
21.3749181622451	2.1684177	1.4725548
21.392754567470647	2.1504908	1.4664552
21.41059149711187	2.1438785	1.464199
21.42842895164726	2.1300619	1.4594731
21.446266931555378	2.1325192	1.4603148
21.464105437314945	2.1330671	1.4605024
21.481944469404798	2.1347852	1.4610904
21.49978402830388	2.1391296	1.4625764
21.51762411449127	2.1217577	1.4566255
21.53546472844617	2.1132326	1.4536961
21.553305870647876	2.1201062	1.4560585
21.571147541575865	2.1338902	1.4607841
21.58898974170967	2.1197784	1.4559458
21.60683247152899	2.1032486	1.4502581
21.62467573151363	2.0877676	1.4449109
21.642519522143523	2.0844307	1.4437557
21.660363843898722	2.0950444	1.4474268
21.6782086972594	2.0586295	1.4347925
21.696054082705864	2.0596576	1.4351507
21.713900000718535	2.0600305	1.4352806
21.73174645177795	2.1010582	1.4495027
21.749593436364794	2.0729618	1.4397784
21.767440954959845	2.070136	1.4387968
21.785289008044032	2.0407016	1.4285313
21.803137596098388	2.036204	1.4269562
21.820986719604086	2.0310078	1.4251343
21.838836379042412	2.0386825	1.4278244
21.85668657489478	2.0464401	1.4305384
21.87453730764273	2.0595264	1.4351051
21.892388577767914	2.0451486	1.430087
21.91024038575213	2.014759	1.419422
21.928092732077285	1.9739987	1.4049907
21.945945617225426	1.9683002	1.4029613
21.963799041678694	1.9881566	1.4100201
21.981653005919398	31.33578	5.597837
21.999507510429943	78.13029	8.839134
22.01736255569286	73.10073	8.549896
22.035218142190818	4.1960654	2.04843
22.05307427040661	2.032723	1.425736
22.07093094082315	2.046084	1.4304138
22.088788153923474	2.0494564	1.4315922
22.106645910190746	2.0502102	1.4318556
22.12450421010827	2.0466826	1.4306232
22.142363054159464	2.0225308	1.422157
22.16022244282787	1.9967966	1.4130806
22.178082376597164	1.9733245	1.4047507
22.195942855951145	1.9762956	1.4058079
22.213803881373742	1.9834288	1.4083426
22.231665453349002	2.0046778	1.4158665
22.24952757236111	2.0291975	1.424499
22.26739023889438	2.0504885	1.4319527
22.28525345343323	2.0184155	1.4207095
22.30311721646225	1.9984795	1.4136759
22.320981528466113	1.9670091	1.402501
22.33884638992964	1.9368917	1.3917226
22.356711801337788	1.9170703	1.3845831
22.37457776317561	1.975498	1.4055241
22.392444275928337	2.023705	1.4225699
22.410311340081282	2.011023	1.4181055
22.428178956119904	1.9624956	1.400891
22.446047124529805	1.9362122	1.3914784
22.46391584579669	1.9378742	1.3920755
22.481785120406414	1.9464085	1.3951374
22.49965494884496	1.9416239	1.3934216
22.51752533159841	1.9657462	1.4020507
22.53539626915302	1.9639041	1.4013937
22.553267761995137	2.000216	1.41429
22.571139810611264	1.9884918	1.410139
22.589012415488025	1.9686822	1.4030974
22.60688557711216	1.9369	1.3917255
22.624759295970566	1.9166971	1.3844483
22.642633572550263	1.9181218	1.3849628
22.660508407338362	1.9353728	1.3911768
22.67838380082217	1.9635559	1.4012694
22.696259753489077	1.9919329	1.4113585
22.714136265826614	1.9798398	1.4070678
22.73201333832246	1.9598402	1.3999429
22.74989097146439	1.9324435	1.3901236
22.76776916574035	1.9457693	1.3949083
22.785647921638393	1.9591489	1.399696
22.803527239646712	1.9921901	1.4114497
22.82140712025363	1.9907031	1.4109228
22.839287563947593	1.9792707	1.4068656
22.85716857121719	1.9855344	1.4090899
22.875050142551135	1.9918194	1.4113183
22.892932278438277	1.9734943	1.4048111
22.910814979367604	1.9594444	1.3998016
22.928698245828222	1.9545338	1.3980464
22.946582078309387	1.953534	1.3976889
22.96446647730047	1.9122488	1.3828409
22.98235144329098	1.9190779	1.3853079
23.000236976770562	1.9021587	1.3791877
23.018123078229	1.9033273	1.3796113
23.03600974815619	1.8920007	1.3755002
23.053896987042194	1.9137653	1.3833891
23.071784795377173	1.9421384	1.3936063
23.08967317365145	1.9649036	1.4017502
23.10756212235546	1.923348	1.3868482
23.125451641979787	1.8977187	1.3775771
23.143341733015134	1.9215121	1.3861861
23.161232395952357	1.9348627	1.3909935
23.179123631282426	1.9344728	1.3908533
23.197015439496468	1.9472415	1.3954359
23.214907821085717	1.9579669	1.3992738
23.23280077654157	1.9232241	1.3868035
23.250694306355538	1.9098904	1.3819878
23.268588411019277	1.8914645	1.3753052
23.28648309102458	1.9493057	1.3961754
23.304378346863356	1.9567449	1.398837
23.322274179027676	1.9679259	1.4028279
23.340170588009723	1.9681574	1.4029104
23.358067574301852	1.9594784	1.3998137
23.37596513839651	1.9531164	1.3975394
23.39386328078629	1.927176	1.3882277
23.411762001963947	1.9248143	1.3873768
23.429661302422353	1.9323434	1.3900875
23.4475611826545	1.9399511	1.3928213
23.46546164315356	1.9537458	1.3977646
23.48336268441279	1.9239177	1.3870536
23.501264306925638	1.9301603	1.3893021
23.51916651118564	1.8893375	1.3745317
23.537069297686497	1.8980871	1.3777108
23.554972666922037	1.9047318	1.3801202
23.57287661938623	1.9199151	1.38561
23.59078115557318	1.9496298	1.3962915
23.608686275977128	1.9573691	1.3990601
23.62659198109246	1.9656866	1.4020294
23.6444982714137	1.9049969	1.3802162
23.66240514743549	1.8944521	1.3763909
23.68031260965263	1.8956169	1.376814
23.698220658560068	1.9331359	1.3903725
23.716129294652845	1.9390656	1.3925034
23.7340385184262	1.9405692	1.3930432
23.75194833037546	1.9598622	1.3999507
23.769858730996123	1.9342425	1.3907704
23.78776972078382	1.9189814	1.3852731
23.80568130023431	1.9296765	1.389128
23.823593469843495	1.9551574	1.3982694
23.841506230107424	1.9736981	1.4048836
23.859419581522275	1.9565545	1.3987689
23.87733352458438	1.9331267	1.3903693
23.89524805979019	1.8813819	1.3716347
23.913163187636318	1.8969215	1.3772877
23.931078908619508	1.947636	1.3955773
23.948995223236633	2.040256	1.4283754
23.966912131984735	2.0514667	1.4322942
23.98482963536096	2.0697782	1.4386724
24.002747733862616	2.0671084	1.4377443
24.020666427987155	2.0950649	1.447434
24.038585718232156	2.059452	1.4350791
24.056505605095353	2.0241182	1.4227151
24.074426089074617	2.0056362	1.4162048
24.092347170667946	2.0474868	1.4309042
24.110268850373515	2.0598197	1.4352072
24.128191128689586	2.0537205	1.4330808
24.146114006114626	2.0315647	1.4253297
24.164037483147187	2.070972	1.4390872
24.181961560286005	2.0816205	1.4427822
24.199886238029926	2.0557578	1.4337914
24.21781151687797	2.1040285	1.450527
24.235737397329274	2.1511977	1.4666961
24.253663879883135	2.1435916	1.464101
24.271590965038975	2.1430542	1.4639174
24.289518653296376	2.137389	1.4619812
24.30744694515505	2.125382	1.4578689
24.32537584111486	2.0837686	1.4435265
24.34330534167581	2.0863185	1.4444094
24.361235447338046	2.062955	1.4362991
24.379166158601876	2.0388377	1.4278787
24.39709747596772	2.018496	1.4207379
24.41502939993615	2.0288546	1.4243786
24.432961931007917	2.0596237	1.435139
24.450895069683856	2.034949	1.4265164
24.468828816465	1.9727288	1.4045386
24.4867631718525	2.0088649	1.4173443
24.504698136347656	2.0347006	1.4264293
24.52263371045192	2.0003078	1.4143224
24.540569894666874	1.9927126	1.4116347
24.558506689494266	1.985667	1.409137
24.57644409543597	1.95021	1.3964992
24.594382112994012	1.8744811	1.3691169
24.61232074267057	1.8894689	1.3745795
24.630259984967953	1.9390444	1.3924958
24.64819984038863	1.9953973	1.4125854
24.66614030943522	2.0044062	1.4157705
24.684081392610462	1.9893785	1.4104533
24.702023090417274	1.9587648	1.3995588
24.7199654033587	1.9809777	1.4074721
24.737908331937927	2.0366979	1.4271293
24.755851876658305	2.0544448	1.4333334
24.773796038023324	2.0541651	1.4332359
24.79174081653661	2.067983	1.4380482
24.809686212701962	2.0732918	1.439893
24.827632227023294	2.07151	1.4392742
24.8455788600047	2.104672	1.4507488
24.8635261121504	2.1738064	1.4743834
24.88147398396475	2.179669	1.4763702
24.899422475952303	2.1913004	1.4803041
24.917371588617698	2.157399	1.4688087
24.935321322465768	2.1381803	1.4622518
24.953271678001478	2.2185924	1.489494
24.97122265572994	2.4638195	1.5696559
24.989174256156414	2.815481	1.6779395
25.00712647978632	3.257191	1.8047689
25.02507932712521	3.7358968	1.9328468
25.043032798678798	4.257236	2.063307
25.060986894952933	4.9406114	2.2227485
25.078941616453637	5.7210364	2.3918688
25.096896963687055	6.6426387	2.5773318
25.114852937159508	7.8604345	2.8036466
25.132809537377444	8.374702	2.8939078
25.150766764847468	8.3646555	2.8921714
25.168724620076347	7.7744718	2.788274
25.186683103570985	6.7831135	2.6044412
25.204642215838426	5.665357	2.380201
25.222601957385894	4.3472676	2.0850103
25.24056232872074	3.312616	1.8200594
25.25852333035048	2.714354	1.6475297
25.276484962782778	2.3296063	1.5263048
25.294447226525435	2.134902	1.4611304
25.312410122086423	2.0430448	1.4293512
25.330373649973843	1.9963783	1.4129325
25.348337810695988	1.9869305	1.4095852
25.366302604761245	1.9978213	1.4134431
25.384268032678207	1.955021	1.3982207
25.40223409495558	1.9477774	1.395628
25.420200792102257	1.9328202	1.390259
25.438168124627246	1.9604849	1.4001732
25.45613609303974	1.9437628	1.3941889
25.474104697849057	1.9130493	1.3831303
25.492073939564698	1.9161398	1.3842471
25.510043818696285	1.9722172	1.4043565
25.528014335753614	1.9873319	1.4097276
25.54598549124664	1.9414992	1.393377
25.56395728568544	1.9228598	1.3866723
25.58192971958028	1.8970813	1.3773457
25.59990279344156	1.897577	1.3775257
25.617876507779833	1.8613515	1.3643136
25.635850863105826	1.8885837	1.3742574
25.653825859930386	1.9227746	1.3866415
25.671801498764548	1.9465361	1.3951832
25.68977778011949	1.9657748	1.4020609
25.707754704506524	1.9473503	1.3954749
25.725732272437153	1.9319801	1.3899568
25.743710484423012	1.9063386	1.3807023
25.761689340975888	1.8741546	1.3689977
25.77966884260774	1.7853355	1.3361645
25.797648989830662	1.7979923	1.3408923
25.815629783156922	1.8265278	1.351491
25.83361122309895	1.8751712	1.3693689
25.85159331016929	1.8555944	1.362202
25.869576044880695	1.8495429	1.359979
25.887559427746034	1.8564763	1.3625257
25.90554345927836	1.8504192	1.3603011
25.92352813999086	1.7964401	1.3403134
25.94151347039689	1.7872822	1.3368927
25.959499451009965	1.8216412	1.3496819
25.97748608234374	1.8666282	1.366246
25.995473364912062	1.9245797	1.3872923
26.013461299228904	1.9285513	1.3887229
26.03144988580839	1.9259477	1.3877852
26.04943912516483	1.8838165	1.372522
26.067429017812675	1.8703548	1.3676091
26.085419564266537	1.7976817	1.3407766
26.103410765041186	1.8128681	1.3464279
26.12140262065155	1.8230447	1.3502017
26.139395131612723	1.8627262	1.3648173
26.157388298439948	1.8433235	1.3576905
26.17538212164861	1.8380482	1.3557464
26.193376601754295	1.8358839	1.3549479
26.211371739272714	1.8450208	1.3583155
26.229367534719746	1.8711652	1.3679054
26.247363988611433	1.878083	1.3704317
26.26536110146397	1.8791629	1.3708256
26.283358873793727	1.8467481	1.3589511
26.301357306117204	1.8793247	1.3708847
26.319356398951104	1.8482132	1.35949
26.33735615281224	1.8106364	1.3455989
26.35535656821762	1.8006866	1.3418967
26.373357645684404	1.8372109	1.3554375
26.39135938572991	1.8731779	1.3686409
26.409361788871614	1.8616631	1.3644278
26.427364855627165	1.8400136	1.3564711
26.445368586514352	1.8379438	1.3557079
26.46337298205115	1.8475007	1.359228
26.48137804275568	1.84113	1.3568825
26.499383769146217	1.8375992	1.3555807
26.517390161741215	1.8752744	1.3694066
26.53539722105928	1.9054459	1.380379
26.553404947619182	1.8905218	1.3749624
26.571413341939856	1.8420984	1.3572392
26.589422404540397	1.8064697	1.3440497
26.60743213594006	1.7785485	1.3336223
26.62544253665827	1.752677	1.3238871
26.64345360721459	1.7894055	1.3376867
26.66146534812879	1.7992136	1.3413477
26.679477759920758	1.8327503	1.3537911
26.69749084311057	1.8887553	1.3743199
26.71550459821847	1.9208981	1.3859646
26.733519025764842	1.8941058	1.3762652
26.751534126270258	1.8144214	1.3470047
26.769549900255434	1.7923636	1.3387918
26.787566348241267	1.7809504	1.3345226
26.80558347074881	1.7798461	1.3341087
26.823601268299267	1.7775731	1.3332566
26.841619741414036	1.8445066	1.3581262
26.85963889061465	1.8581595	1.3631432
26.877658716422832	1.8899169	1.3747425
26.89567921936045	1.9021797	1.3791953
26.913700399949544	1.8703059	1.3675913
26.93172225871233	1.8172855	1.3480673
26.949744796171174	1.788823	1.3374689
26.967768012848605	1.8005072	1.3418298
26.98579190926733	1.832096	1.3535494
27.003816485950225	1.8269018	1.3516293
27.021841743420318	1.8335695	1.3540937
27.039867682200814	1.7947826	1.339695
27.057894302815072	1.7737852	1.3318353
27.07592160578664	1.7882581	1.3372576
27.0939495916392	1.8176829	1.3482147
27.111978260896635	1.8656307	1.365881
27.13000761408296	1.8856059	1.3731737
27.148037651722397	1.8631932	1.3649883
27.166068374339304	1.8741777	1.369006
27.184099782458215	1.8800665	1.3711551
27.20213187660384	1.8474401	1.3592057
27.22016465730105	1.784098	1.3357013
27.23819812507487	1.8157544	1.3474994
27.256232280450533	1.8717295	1.3681116
27.274267123953383	1.8918455	1.3754437
27.292302656108987	1.8660285	1.3660265
27.31033887744306	1.8362147	1.35507
27.32837578848146	1.8121562	1.3461635
27.34641338975026	1.8216172	1.349673
27.364451681775673	1.85253	1.3610768
27.382490665084074	1.829763	1.3526874
27.400530340202046	1.8254317	1.3510854
27.41857070765629	1.8561321	1.3623995
27.436611767973726	1.8944743	1.376399
27.454653521681404	1.8832397	1.3723118
27.472695969306564	1.8589783	1.3634435
27.490739111376627	1.8308719	1.3530972
27.508782948419153	1.8277782	1.3519535
27.526827480961902	1.8294442	1.3525695
27.54487270953279	1.8322098	1.3535914
27.562918634659898	1.8260878	1.3513281
27.580965256871508	1.853667	1.3614944
27.599012576696026	1.8487277	1.3596792
27.617060594662068	1.8177336	1.3482336
27.63510931129842	1.8577648	1.3629985
27.65315872713401	1.839684	1.3563495
27.67120884269797	1.863844	1.3652267
27.68925965851958	1.8921598	1.375558
27.707311175128307	1.903232	1.3795767
27.725363393053787	1.8683048	1.3668594
27.74341631282583	1.8905829	1.3749847
27.7614699349744	1.9092582	1.3817592
27.77952426002968	2.0416286	1.4288557
27.797579288521973	2.0977187	1.4483503
27.815635020981784	2.5905173	1.6095084
27.83369145793979	2.708773	1.645835
27.85174859992682	2.584001	1.6074828
27.869806447473923	2.407385	1.5515751
27.887865001112267	2.0514147	1.432276
27.905924261373233	1.9426854	1.3938025
27.92398422878836	1.8992884	1.3781468
27.94204490388936	1.8491957	1.3598514
27.96010628720813	1.8546869	1.3618689
27.978168379276728	1.8413019	1.3569458
27.9962311806274	1.8644707	1.3654562
28.014294691792568	1.8825098	1.3720459
28.0323589133048	1.8907423	1.3750427
28.050423845696887	1.8861681	1.3733784
28.068489489501758	1.8647897	1.365573
28.086555845252523	1.8710952	1.3678799
28.104622913482487	1.9475083	1.3955315
28.122690694725115	1.9645144	1.4016113
28.14075918951405	1.8811721	1.3715583
28.15882839838312	1.8391905	1.3561676
28.176898321866304	1.8530974	1.3612852
28.1949689604978	1.8769169	1.3700062
28.213040314811945	1.9383357	1.3922412
28.23111238534327	1.9672711	1.4025944
28.249185172626493	1.949837	1.3963656
28.267258677196473	1.9356543	1.3912779
28.285332899588294	1.9283488	1.38865
28.303407840337172	1.915253	1.3839266
28.321483499978545	1.8816524	1.3717333
28.33955987904799	1.8303895	1.3529189
28.357636978081285	1.843007	1.357574
28.37571479761439	1.8846265	1.372817
28.393793338183425	1.9313264	1.3897218
28.41187260032469	1.930616	1.389466
28.429952584574686	1.8986549	1.3779169
28.448033291470065	1.9215642	1.386205
28.46611472154769	1.9782014	1.4064854
28.484196875344566	2.0115242	1.4182822
28.502279753397914	1.985332	1.4090182
28.52036335624511	2.0103343	1.4178625
28.538447684423716	2.0714326	1.4392473
28.556532738471482	2.0899937	1.4456811
28.574618518926325	2.063849	1.4366102
28.59270502632635	1.9889226	1.4102917
28.61079226120985	1.9652439	1.4018716
28.628880224115274	1.994455	1.4122517
28.646968915581287	2.0014136	1.4147133
28.66505833614671	2.029036	1.4244424
28.68314848635055	2.0058396	1.4162767
28.701239366732004	2.054203	1.4332491
28.71933097783044	2.1831384	1.4775447
28.737423320185403	2.167967	1.4724019
28.75551639433665	2.0882833	1.4450893
28.773610200824074	2.0899954	1.4456817
28.791704740187793	2.1880906	1.4792196
28.80980001296809	2.2223344	1.4907496
28.827896019705413	2.2284539	1.4928007
28.845992760940433	2.2213197	1.4904093
28.86409023721397	2.2568955	1.5022968
28.88218844906704	2.2158492	1.4885728
28.900287397040845	2.164186	1.4711173
28.918387081676755	2.1994462	1.483053
28.936487503516343	2.238356	1.4961137
28.954588663101365	2.307355	1.518998
28.97269056097374	2.3547175	1.5345088
28.990793197675597	2.3912418	1.5463641
29.00889657374923	2.3913774	1.5464079
29.027000689737125	2.4314682	1.5593166
29.04510554618196	2.5354404	1.5923066
29.06321114362659	2.5541534	1.598172
29.08131748261405	2.5235734	1.588576
29.099424563687567	2.4698555	1.5715774
29.11753238739057	2.48322	1.5758237
29.13564095426663	2.497118	1.5802273
29.15375026485954	2.549569	1.5967369
29.171860319713275	2.5651693	1.6016146
29.18997111937199	2.6337092	1.6228707
29.20808266438002	2.7203202	1.6493393
29.226194955281898	2.7856631	1.6690305
29.244307992622335	2.8110719	1.6766251
29.26242177694624	2.8900054	1.7000016
29.2805363087987	2.8676896	1.6934254
29.29865158872498	2.8878713	1.6993738
29.316767617270557	2.978087	1.7257135
29.334884394981064	3.011523	1.735374
29.353001922402367	3.0231583	1.7387232
29.37112020008047	3.1054232	1.7622211
29.389239228561596	3.3048427	1.8179226
29.407359008392152	3.4655328	1.8615942
29.42547954011872	3.7716568	1.9420754
29.44360082428809	4.3768287	2.0920873
29.46172286144722	5.418058	2.3276722
29.479845652143283	6.978768	2.6417358
29.497969196923606	9.000511	3.000085
29.516093496335728	11.703977	3.4211075
29.5342185509274	14.677412	3.831111
29.55234436124651	17.064377	4.130905
29.570470927841175	18.285984	4.2762113
29.588598251259686	17.93009	4.2343936
29.60672633205055	16.631155	4.078131
29.624855170762405	14.567958	3.8167994
29.642984767944146	11.710067	3.4219975
29.66111512414481	8.9061985	2.9843254
29.67924623991366	6.614914	2.5719476
29.697378115800138	5.123752	2.2635705
29.71551075235387	4.2422576	2.0596743
29.733644150124675	3.7781205	1.9437388
29.751778309662576	3.5284963	1.8784292
29.769913231517766	3.4391813	1.854503
29.78804891624066	3.3997784	1.8438488
29.806185364381818	3.3756597	1.8372968
29.82432257649206	3.3885052	1.8407893
29.842460553122333	3.3913298	1.8415563
29.86059929482382	3.3707056	1.8359481
29.878738802147872	3.3224833	1.8227681
29.896879075646048	3.2512846	1.8031319
29.915020115870114	3.2881002	1.8133119
29.933161923371976	3.3626819	1.8337617
29.951304498703777	3.3417344	1.8280412
29.969447842417857	3.2674298	1.8076034
29.987591955066733	3.278522	1.810669
30.005736837203123	3.3306727	1.825013
30.023882489379943	3.2939224	1.8149166
30.04202891215028	3.261428	1.8059424
30.060176106067455	3.2351177	1.7986432
30.078324071684946	3.245139	1.8014269
30.09647280955646	3.2229404	1.795255
30.114622320235863	3.1225235	1.7670664
30.132772604277257	3.056392	1.748254
30.1509236622349	3.0636194	1.7503198
30.16907549466328	2.9935174	1.7301785
30.18722810211705	3.0500731	1.7464459
30.205381485151097	3.0491748	1.7461886
30.22353564432045	3.0511565	1.746756
30.241690580180403	3.0598934	1.7492551
30.25984629328638	3.073926	1.7532616
30.278002784194037	3.147326	1.7740705
30.296160053459246	3.0986512	1.7602986
30.314318101638033	3.082481	1.7556995
30.332476929286646	3.0709412	1.7524102
30.35063653696153	3.0057583	1.7337123
30.368796925219307	2.9271417	1.7108891
30.386958094616844	2.9124136	1.7065794
30.40512004571115	2.9222825	1.7094685
30.423282779059463	2.8966932	1.7019675
30.441446295219233	2.8715224	1.6945567
30.459610594748067	2.8728957	1.6949619
30.47777567820382	2.7890658	1.6700497
30.495941546144504	2.7777796	1.6666672
30.51410819912835	2.81666	1.6782907
30.532275637713795	2.8644812	1.6924778
30.55044386245946	2.818818	1.6789336
30.56861287392416	2.8463488	1.6871126
30.586782672666956	2.869355	1.693917
30.604953259247047	2.8792748	1.6968426
30.623124634223885	2.880686	1.6972584
30.641296798157075	2.8091989	1.6760665
30.659469751606462	2.770192	1.6643894
30.677643495132074	2.8092065	1.6760688
30.695818029294152	2.8311362	1.6825981
30.713993354653116	2.7914507	1.6707635
30.73216947176962	2.736476	1.6542298
30.75034638120448	2.697074	1.642277
30.768524083518756	2.746985	1.6574031
30.786702579273673	2.8053253	1.6749105
30.80488186903069	2.838653	1.6848303
30.82306195335144	2.930749	1.711943
30.841242832797782	3.109435	1.7633591
30.85942450793176	3.3689005	1.8354565
30.877606979315637	3.7301803	1.9313675
30.895790247511883	4.1348133	2.0334241
30.913974313083134	4.562985	2.1361144
30.932159176592283	4.845747	2.2013059
30.95034483860237	4.9094706	2.2157326
30.968531299676698	4.775235	2.1852312
30.98671856037873	4.500946	2.1215434
31.00490662127215	4.053571	2.0133483
31.023095482920848	3.4957047	1.8696804
31.04128514588892	2.9988122	1.7317079
31.059475610740662	2.7663565	1.6632367
31.07766687804056	2.6283102	1.6212064
31.09585894835335	2.5021331	1.5818132
31.11405182224393	2.4768202	1.5737916
31.132245500277417	2.5107963	1.5845492
31.15043998301914	2.4560752	1.5671871
31.168635271034628	2.426969	1.5578732
31.18683136488964	2.476809	1.5737882
31.20502826515008	2.475504	1.5733734
31.223225972382135	2.4104054	1.552548
31.241424487152155	2.370345	1.5395925
31.259623810026692	2.443743	1.5632476
31.27782394157253	2.4276946	1.5581061
31.296024882356644	2.3830965	1.5437281
31.314226632946237	2.328254	1.5258617
31.332429193908684	2.3671486	1.5385541
31.350632565811598	2.4620888	1.5691044
31.368836749222787	2.5083869	1.5837888
31.387041744710295	2.5460513	1.595635
31.40524755284232	2.538675	1.593322
31.423454174187317	2.5456126	1.5954976
31.441661609313922	2.5521421	1.5975425
31.459869858791002	2.5185914	1.587007
31.478078923187628	2.4984171	1.5806382
31.496288803073064	2.446376	1.5640895
31.514499499016807	2.3560834	1.5349538
31.532711011588546	2.328247	1.5258595
31.550923341358178	2.34078	1.5299608
31.56913648889584	2.3500662	1.5329926
31.587350454771844	2.3690975	1.5391873
31.605565239556732	2.3486636	1.532535
31.62378084382127	2.346398	1.5317957
31.641997268136382	2.3006985	1.5168054
31.660214513073274	2.2662358	1.5054022
31.67843257920331	2.2404962	1.4968287
31.6966514670981	2.230692	1.4935501
31.71487117732944	2.2191577	1.4896837
31.733091710469346	2.2053893	1.4850553
31.751313067090052	2.268535	1.5061656
31.769535247764008	2.348031	1.5323286
31.787758253063878	2.383806	1.543958
31.805982083562526	2.3879645	1.5453041
31.824206739833024	2.3056297	1.51843
31.84243222244869	2.2779186	1.5092775
31.860658531983013	2.266596	1.5055219
31.878885669009737	2.2326024	1.4941895
31.897113634102784	2.228167	1.4927046
31.91534242783632	2.3055665	1.5184093
31.933572050784694	2.2964408	1.5154012
31.951802503522508	2.2269845	1.4923085
31.970033786624548	2.133059	1.4604995
31.988265900665834	2.1783621	1.4759276
32.006498846221575	2.1815863	1.4770194
32.02473262386724	2.1015255	1.449664
32.04296723417845	2.0703464	1.4388698
32.0612026777311	2.0869677	1.4446341
32.07943895510129	2.112892	1.453579
32.097676066865304	2.1837065	1.477737
32.115914013599685	2.25016	1.5000533
32.13415279588115	2.271319	1.5070895
32.152392414286666	2.2302322	1.4933962
32.1706328693934	2.280906	1.5102669
32.18887416177875	2.22715	1.4923639
32.20711629202032	2.1713347	1.473545
32.225359260695924	2.0989385	1.4487714
32.243603068383614	2.0490723	1.4314581
32.26184771566166	1.9883978	1.4101056
32.28009320310852	2.0028894	1.4152348
32.2983395313029	2.0871887	1.4447106
32.31658670082372	2.129024	1.4591175
32.33483471225012	2.140075	1.4628996
32.35308356616143	2.2117484	1.4871948
32.371333263137245	2.2597046	1.5032314
32.38958380375734	2.2142324	1.4880297
32.407835188601744	2.1929154	1.4808496
32.42608741825067	2.1475632	1.4654566
32.444340493284585	2.160581	1.4698915
32.46259441428416	2.0987172	1.448695
32.48084918183028	2.0682309	1.4381346
32.49910479650405	2.0448656	1.429988
32.51736125888683	2.0928104	1.4466549
32.53561856956014	2.1184223	1.4554801
32.5538767291058	2.12276	1.4569695
32.572135738105764	2.115726	1.4545535
32.59039559714228	2.0666077	1.4375701
32.608656306797776	2.0637345	1.4365704
32.62691786765491	2.0922325	1.4464551
32.645180280296586	2.0914965	1.4462007
32.663443545305896	2.0885503	1.4451817
32.68170766326619	2.1510313	1.4666394
32.69997263476099	2.0890281	1.4453471
32.7182384603741	2.030259	1.4248716
32.7365051406895	2.0316372	1.4253551
32.75477267629144	2.0443597	1.4298111
32.77304106776434	2.1009004	1.4494483
32.79131031569289	2.1132119	1.4536891
32.809580420661966	2.0745554	1.4403317
32.827851383256714	2.0549088	1.4334953
32.84612320406245	2.040767	1.4285542
32.86439588366476	2.0332386	1.4259168
32.88266942264945	1.9622235	1.4007939
32.9009438216025	1.9121749	1.3828142
32.9192190811102	1.9461676	1.3950511
32.937495201758985	2.0801096	1.4422585
32.95577218413556	2.1421485	1.463608
32.974050028826866	2.1097267	1.4524899
32.992328736420035	1.9866706	1.4094931
33.010608307502444	1.9388558	1.392428
33.02888874266169	1.9857954	1.4091825
33.047170042485604	1.9701474	1.4036194
33.06545220756225	1.9082966	1.3814111
33.083735238479896	1.9289743	1.3888751
33.10201913582707	2.035301	1.4266398
33.12030390019248	2.1055965	1.4510673
33.138589532165135	2.1167843	1.4549173
33.15687603233419	2.051418	1.4322772
33.17516340128909	2.0306358	1.4250038
33.19345163961947	2.0072496	1.4167744
33.211740747915215	1.9928532	1.4116845
33.23003072676643	1.937317	1.3918754
33.248321576763466	1.9284788	1.3886968
33.266613298496885	1.9900768	1.4107008
33.28490589255747	2.034219	1.4262605
33.30319935953626	2.0094364	1.4175459
33.32149370002451	1.9374981	1.3919404
33.339788914613706	1.8955427	1.3767871
33.358085003895575	1.8606225	1.3640463
33.376381968462034	1.9258258	1.3877413
33.39467980890529	1.9314741	1.3897748
33.41297852581774	1.8717499	1.3681191
33.43127811979204	1.8404081	1.3566164
33.44957859142105	1.8793865	1.3709072
33.467879941297866	1.8763025	1.3697819
33.486182170015844	1.8577821	1.3630048
33.50448527816853	1.8821667	1.3719208
33.522789266349754	1.8881481	1.374099
33.541094135153514	1.8484432	1.3595747
33.55939988517411	1.868418	1.3669009
33.57770651700602	1.9471374	1.3953986
33.59601403124398	2.0168135	1.4201456
33.61432242848296	1.9785022	1.4065924
33.632631709318154	1.9487584	1.3959794
33.650941874344994	1.9478573	1.3956566
33.66925292415916	1.922818	1.3866571
33.68756485935654	1.942104	1.3935939
33.70587768053328	1.9323845	1.3901024
33.724191388285746	1.9352028	1.3911157
33.74250598321054	1.9074911	1.3811195
33.760821465904506	1.8292084	1.3524823
33.77913783696474	1.8575454	1.362918
33.79745509698852	1.9754857	1.4055197
33.815773246573414	1.8907737	1.375054
33.8340922863172	1.8054465	1.343669
33.852412216817896	1.7755326	1.3324912
33.87073303867377	1.882835	1.3721644
33.889054752483304	2.0214577	1.4217798
33.907377358845245	2.092616	1.4465877
33.92570085835853	2.1012914	1.4495832
33.94402525162239	2.0605636	1.4354663
33.96235053923627	2.057702	1.4344692
33.980676721799824	1.9916835	1.4112701
33.999003799912984	1.8749005	1.3692701
34.01733177417592	1.9041691	1.3799163
34.03566064518901	2.0617948	1.4358951
34.0539904135529	2.0401957	1.4283541
34.07232107986846	1.8972706	1.3774145
34.090652644736785	1.9265199	1.3879913
34.108985108759235	2.0720687	1.4394681
34.12731847253742	2.100756	1.4493985
34.14565273667313	2.0852573	1.444042
34.16398790176847	1.9855028	1.4090787
34.18232396842574	1.8514836	1.3606923
34.20066093724749	1.8107678	1.3456477
34.21899880883651	1.8524961	1.3610643
34.23733758379583	1.8486187	1.3596392
34.25567726272874	1.8364948	1.3551733
34.27401784623872	1.9996943	1.4141055
34.29235933492957	2.161585	1.470233
34.31070172940526	2.0011039	1.4146038
34.32904503027003	1.8817085	1.3717538
34.347389238128386	1.976609	1.4059193
34.36573435358502	1.9999688	1.4142026
34.38408037724492	1.9006116	1.3786267
34.402427309713296	1.867082	1.366412
34.42077515159559	1.8412622	1.3569312
34.43912390349752	1.940416	1.3929882
34.45747356602499	1.9124746	1.3829225
34.47582413978423	1.8790298	1.370777
34.49417562538163	1.7383729	1.3184737
34.51252802342388	1.7160494	1.3099808
34.53088133451789	1.7216158	1.3121036
34.54923555927084	1.7794117	1.3339459
34.567590698290104	1.9699851	1.4035616
34.58594675218336	1.9941568	1.4121462
34.6043037215585	1.8912706	1.3752347
34.62266160702365	1.9956584	1.4126778
34.641020409187234	2.0762165	1.4409082
34.65938012865785	2.0581264	1.4346172
34.677740766044394	2.0066416	1.4165598
34.69610232195598	1.9943215	1.4122045
34.714464797002016	2.053816	1.4331142
34.73282819179208	2.0563424	1.4339952
34.751192506936064	1.9572805	1.3990284
34.76955774304408	1.9646211	1.4016494
34.7879239007265	2.0980394	1.448461
34.80629098059391	2.261172	1.5037194
34.824658983257194	2.1151001	1.4543384
34.843027909327446	1.9188015	1.3852081
34.86139775941603	1.758956	1.3262564
34.879768534134534	1.8880783	1.3740736
34.89814023409483	1.9334614	1.3904896
34.91651285990901	1.8815737	1.3717047
34.93488641218944	1.9116975	1.3826416
34.95326089154871	2.0002952	1.414318
34.97163629859967	1.9278432	1.3884679
34.99001263395542	1.8895104	1.3745946
35.00838989822934	1.937202	1.391834
35.02676809203499	1.7874465	1.3369542
35.04514721598624	1.7487279	1.3223947
35.063527270697215	1.8080494	1.3446373
35.081908256782256	1.8200859	1.3491056
35.10029017485597	2.0393856	1.4280705
35.11867302553321	2.2073758	1.485724
35.137056809429104	2.018664	1.4207969
35.155441527159006	1.9082688	1.3814011
35.173827179338524	2.0526736	1.4327154
35.19221376658354	2.0373042	1.4273417
35.21060128951017	1.7187718	1.3110194
35.2289897487348	1.8030417	1.3427739
35.24737914487405	1.9784462	1.4065725
35.26576947854479	1.9049306	1.3801923
35.28416075036418	1.733575	1.3166529
35.30255296094958	1.9268025	1.3880931
35.32094611091867	2.1576416	1.4688913
35.33934020088932	2.250511	1.5001704
35.35773523147969	2.4227016	1.556503
35.3761312033082	2.506023	1.5830423
35.394528116993506	2.2849703	1.5116118
35.41292597315452	1.8471029	1.3590816
35.431324772410434	1.6903828	1.3001473
35.449724515380666	1.8580295	1.3630955
35.46812520268491	1.9888229	1.4102564
35.486526834943106	2.0826263	1.4431307
35.504929412775454	2.127666	1.4586521
35.52333293680242	2.0366216	1.4271026
35.54173740764471	1.8238823	1.3505119
35.560142825923286	1.5052475	1.2268853
35.5785491922594	0.93539995	0.96716076
35.59695650727454	1.2260189	1.1072574
35.61536477159042	1.6540529	1.2860999
