0.008763373481513119	0.0	0.0
0.026290120649546365	0.25869247	0.5086182
0.043816868432600686	0.24693623	0.49692678
0.06134361724069026	0.19342409	0.43980005
0.07887036748382949	0.2678716	0.5175631
0.0963971195720331	0.1695829	0.41180444
0.11392387391531617	0.23153418	0.48117998
0.1314506309236943	0.19768876	0.44462204
0.1489773910071836	0.18227872	0.42694113
0.16650415457580078	0.14047049	0.37479392
0.18403092203956356	0.0755504	0.27486432
0.20155769380849	0.088421464	0.29735747
0.2190844702925996	0.14152206	0.37619418
0.2366112519019124	0.16794397	0.40980968
0.2541380390464497	0.12822926	0.35809115
0.27166483213623416	0.09324121	0.30535424
0.28919163158128947	0.053641878	0.23160717
0.3067184377916406	0.075250186	0.27431768
0.324245251177314	0.098596916	0.31400147
0.34177207214833777	0.14443946	0.3800519
0.3592989011147415	0.123047225	0.35078087
0.37682573848655654	0.12542088	0.35414812
0.39435258467381573	0.136278	0.3691585
0.41187944008655414	0.22022365	0.46927992
0.42940630513480854	0.24212484	0.49206182
0.446933180228618	0.19915615	0.44626915
0.4644600657780234	0.15044087	0.3878671
0.48198696219306775	0.13242123	0.36389726
0.49951386988379676	0.15514989	0.3938907
0.5170407892602581	0.16790839	0.40976626
0.5345677207325025	0.17897117	0.42304984
0.5520946647105822	0.12689035	0.3562167
0.5696216216045534	0.1186114	0.34440005
0.5871485918244737	0.10467796	0.32353973
0.6046755757804043	0.11917509	0.34521747
0.6222025738824094	0.13476025	0.36709705
0.6397295865405557	0.13951962	0.37352324
0.6572566141649129	0.18909284	0.43484807
0.6747836571655547	0.18274835	0.42749077
0.6923107159525568	0.17805757	0.42196867
0.7098377909359992	0.15840526	0.39800158
0.7273648825259653	0.15435027	0.39287436
0.7448919911325411	0.19606192	0.4427888
0.762419117165817	0.2283755	0.4778865
0.7799462610358868	0.23059556	0.48020366
0.7974734231528482	0.23125157	0.48088622
0.8150006039268024	0.18658873	0.43195918
0.8325278037678551	0.20913006	0.4573074
0.8500550230861152	0.22380793	0.47308344
0.8675822622916969	0.24246143	0.49240372
0.8851095217947171	0.24886589	0.4988646
0.9026368020052984	0.21299112	0.46150962
0.9201641033335665	0.20904952	0.45721933
0.9376914261896523	0.20217642	0.44964033
0.9552187709836915	0.20199107	0.44943416
0.9727461381258234	0.17764163	0.42147553
0.990273528026193	0.19591273	0.4426203
1.0078009410949496	0.26386544	0.5136784
1.0253283777422473	0.29027584	0.5387725
1.0428558383782454	0.29972726	0.54747355
1.0603833234131086	0.28732812	0.53603
1.0779108332570058	0.30879742	0.5556954
1.0954383683201119	0.3074498	0.55448157
1.112965929012607	0.305152	0.55240566
1.1304935157446763	0.45490298	0.67446494
1.1480211289265108	0.51620495	0.71847403
1.1655487689683062	1.3730211	1.1717598
1.1830764362802655	1.6662577	1.2908361
1.200604131272596	2.0765142	1.4410115
1.2181318543555117	2.3511803	1.533356
1.235659605939232	2.3073819	1.5190068
1.253187386433982	3.7803824	1.9443206
1.270715196249994	6.1124854	2.4723442
1.2882430357975057	11.764581	3.4299536
1.3057709054867608	16.9817	4.120886
1.3232988057280106	22.811712	4.7761607
1.3408267369315112	27.321426	5.22699
1.358354699507526	30.832033	5.55266
1.3758826938663256	34.839752	5.9025207
1.3934107204181858	37.43183	6.118156
1.410938779573391	37.848293	6.1520967
1.4284668717422309	38.40827	6.1974406
1.4459949973350033	37.481056	6.1221776
1.4635231567620117	37.10113	6.0910697
1.4810513504335687	36.229633	6.019106
1.4985795787599925	35.845127	5.98708
1.5161078421516088	35.88247	5.9901977
1.5336361410187505	35.57783	5.9647155
1.5511644757717598	35.37381	5.9475884
1.5686928468209842	35.95566	5.996304
1.58622125457678	36.21524	6.01791
1.6037496994495108	37.221687	6.100958
1.621278181849548	36.984592	6.081496
1.6388067021872719	37.978275	6.1626515
1.6563352608730693	37.555252	6.128234
1.673863858317336	36.88054	6.072935
1.6913924949304753	36.15189	6.0126443
1.7089211711228998	34.806095	5.899669
1.7264498873050296	33.593353	5.795977
1.7439786438872935	32.410137	5.6929903
1.7615074412801288	31.914583	5.649299
1.779036279893981	31.55491	5.617376
1.796565160139305	30.727533	5.543242
1.814094082426564	30.15291	5.4911666
1.8316230471662298	29.175896	5.4014716
1.849152054768784	27.970304	5.288696
1.8666811056447168	27.517775	5.2457385
1.8842102002045273	26.81677	5.178491
1.901739338858724	26.742348	5.1713004
1.9192685220178245	26.29273	5.1276436
1.9367977500923557	25.458008	5.045593
1.9543270234928547	24.603931	4.960235
1.971856342629867	23.807087	4.8792505
1.9893857079139496	23.241283	4.8209214
2.006915119755667	22.563917	4.7501493
2.0244445785655945	22.009596	4.6914387
2.0419740847543175	21.615973	4.649298
2.0595036387324317	21.381243	4.623986
2.0770332409105414	20.934456	4.5754185
2.094562891699263	20.525236	4.5304785
2.1120925915092217	19.919685	4.4631476
2.129622340751053	19.656715	4.4335895
2.1471521398354043	187.8886	13.707246
2.1646819891729323	444.22903	21.076742
2.182211889174303	440.32565	20.983938
2.1997418402501974	452.62387	21.27496
2.2172718428113023	432.7737	20.803213
2.234801897268317	320.91922	17.914219
2.2523320040319548	17.398958	4.171206
2.269862163512935	16.883102	4.1089053
2.287392376121992	16.58171	4.072065
2.304922642269869	16.33939	4.042201
2.322452962367322	16.21831	4.0271964
2.3399833368251164	15.970755	3.9963427
2.357513766054032	15.740492	3.967429
2.3750442504648586	15.382502	3.9220533
2.3925747904683963	15.011501	3.8744678
2.410105386475459	14.608647	3.822126
2.4276360388968707	14.315335	3.7835612
2.445166748143469	14.012944	3.7433867
2.4626975146261025	13.825946	3.7183256
2.4802283387556323	13.470309	3.670192
2.4977592209429305	13.150648	3.6263824
2.5152901615988825	12.864205	3.5866704
2.5328211611343865	12.850104	3.5847042
2.5503522199603523	12.729013	3.5677743
2.5678833384877024	12.572534	3.5457768
2.5854145171273712	12.366653	3.5166254
2.6029457562903064	12.083291	3.4761028
2.620477056387469	11.781779	3.4324596
2.6380084178298326	11.639608	3.4116871
2.655539841028383	11.444453	3.382965
2.673071326394119	11.376749	3.3729436
2.6906028743380523	11.145797	3.3385322
2.708134485271211	11.05524	3.324942
2.7256661596046325	10.797731	3.2859902
2.743197897749369	10.646566	3.2629077
2.760729700116486	10.480946	3.237429
2.778261567117063	10.3325205	3.214424
2.795793499162193	10.247619	3.2011902
2.8133254966629817	10.121094	3.1813667
2.830857560030551	9.947253	3.1539266
2.8483896896760337	9.876052	3.1426187
2.865921886010578	9.648191	3.1061537
2.883454149445347	9.447415	3.073665
2.9009864803915177	9.27582	3.045623
2.91851887926028	9.114112	3.0189588
2.9360513464628384	9.07557	3.0125687
2.953583882410413	8.934397	2.989046
2.9711164875142373	8.850634	2.9750013
2.9886491621855606	8.779627	2.9630435
3.0061819068356455	8.790263	2.9648378
3.023714721875769	8.723282	2.9535203
3.041247607717225	8.521277	2.9191227
3.0587805647713213	8.297784	2.8805873
3.0763135934493806	8.139553	2.8529902
3.0938466941627407	8.081436	2.8427868
3.1113798673227544	8.087329	2.843823
3.1289131133407904	8.111483	2.8480666
3.1464464326282315	8.001204	2.82864
3.1639798255964786	7.919286	2.8141227
3.1815132926569443	7.746201	2.7831998
3.1990468342210603	7.7041426	2.7756338
3.216580450700272	7.5271306	2.7435617
3.2341141425060416	7.4295673	2.7257233
3.251647910049847	7.4098444	2.7221029
3.2691817537431813	7.285546	2.6991751
3.286715673997555	7.1593504	2.6756961
3.3042496712244938	7.0338936	2.652149
3.32178374583554	7.020673	2.649655
3.339317898242251	7.0103106	2.647699
3.3568521288562034	6.9390144	2.6342008
3.3743864380889876	6.8717365	2.6213996
3.3919208263522127	6.841716	2.6156673
3.4094552940575023	6.7711377	2.602141
3.4269898416164972	6.6965923	2.5877774
3.444524469440858	6.5413713	2.5576105
3.4620591779422587	6.4655533	2.542745
3.479593967532391	6.4465103	2.538998
3.4971288386229658	6.4694	2.5435016
3.5146637916257086	6.515064	2.5524623
3.5321988269523628	6.540279	2.557397
3.5497339450146903	6.5488086	2.559064
3.5672691462244708	6.4219375	2.5341542
3.5848044309934988	6.379348	2.525737
3.60233979973359	6.261919	2.5023828
3.619875252856575	6.3077307	2.5115197
3.6374107907743034	6.2563806	2.5012758
3.6549464138986427	6.368043	2.523498
3.6724821226414788	6.334045	2.516753
3.690017917414714	6.33251	2.5164478
3.7075537986302702	6.2397804	2.4979553
3.7250897667000857	6.1307354	2.4760323
3.7426258220361235	6.2521486	2.5004296
3.7601619650503553	6.6742806	2.583463
3.777698196154779	7.385023	2.7175398
3.7952345157614067	8.583168	2.9297044
3.8127709242822716	9.464814	3.0764937
3.830307422129425	11.644835	3.412453
3.847844009714936	30.388811	5.5126047
3.8653806874508954	97.619675	9.880267
3.882917455749409	96.82032	9.839732
3.900454315022606	96.642235	9.830678
3.917991265682631	41.29089	6.425799
3.9355283081416506	10.93173	3.3063166
3.9530654428118495	8.794732	2.9655914
3.970602670105433	7.5785027	2.752908
3.9881399904346244	6.670705	2.5827708
4.005677404211669	6.584603	2.5660481
4.023214911848827	6.433529	2.5364401
4.0407525137583855	6.419682	2.533709
4.058290210352644	6.436352	2.5369966
4.075828002043927	6.3392577	2.5177882
4.0933658892445814	6.133855	2.4766622
4.110903872366966	6.0055413	2.4506207
4.128441951823468	6.100268	2.469872
4.145980128026488	6.2504325	2.5000865
4.163518401388452	6.32254	2.514466
4.181056772321807	6.3521895	2.520355
4.1985952412390155	6.2463503	2.49927
4.216133808552567	6.264326	2.5028636
4.233672474674966	6.307416	2.511457
4.251211240018741	6.514975	2.552445
4.268750104996445	6.723691	2.593008
4.286289070020643	7.537013	2.745362
4.303828135503928	9.141507	3.0234926
4.3213673018589125	29.456318	5.4273677
4.3389065694982305	90.69627	9.523459
4.356445938834537	165.93416	12.881543
4.3739854102805085	171.41225	13.09245
4.391524984248844	172.22543	13.123468
4.409064661152262	136.33006	11.676046
4.426604441403504	96.50909	9.823904
4.444144325415337	75.689674	8.699982
4.461684313600543	21.82742	4.6719823
4.47922440637193	22.45955	4.739151
4.496764604142329	20.783718	4.5589166
4.5143049073245916	18.799038	4.335786
4.531845316331589	16.495907	4.0615153
4.5493858315762195	13.55221	3.6813326
4.566926453471405	11.338635	3.367289
4.584467182430081	9.2613535	3.0432472
4.602008018865218	8.210711	2.8654337
4.619548963189798	7.599445	2.756709
4.637090015816834	7.15784	2.6754138
4.654631177159353	6.792358	2.6062152
4.672172447630417	6.49602	2.5487292
4.689713827643102	6.275709	2.5051365
4.7072553176105085	6.1074886	2.4713333
4.724796917945764	6.0064306	2.450802
4.742338629062015	5.9000406	2.429
4.759880451372434	5.7998757	2.408293
4.777422385290215	5.7541165	2.398774
4.794964431228581	5.7674828	2.4015584
4.812506589600768	5.8652763	2.4218333
4.830048860820047	5.8826537	2.4254181
4.847591245299709	5.8409057	2.4167967
4.8651337434530655	5.7229366	2.392266
4.882676355693457	5.615906	2.3697903
4.900219082434242	5.6143527	2.3694625
4.917761924088813	5.6676135	2.380675
4.935304881070575	5.68052	2.3833842
4.952847953792969	5.651564	2.377302
4.970391142669449	5.577519	2.3616772
4.9879344481135055	5.524585	2.3504436
5.005477870538642	5.47547	2.3399723
5.023021410358394	5.4715676	2.3391383
5.040565067986324	5.4178667	2.3276312
5.05810884383601	5.39438	2.3225806
5.075652738321066	5.3970833	2.3231623
5.09319675185512	5.350957	2.3132136
5.110740884851836	5.3552585	2.3141432
5.128285137724894	5.3930144	2.3222864
5.145829510888007	5.4008064	2.3239634
5.163374004754908	5.332064	2.3091264
5.1809186197393595	5.278634	2.2975278
5.198463356255145	5.286274	2.2991898
5.216008214716077	5.307353	2.3037694
5.233553195535998	5.3106256	2.3044794
5.251098299128764	5.2912374	2.300269
5.268643525908272	5.317998	2.3060784
5.286188876288432	5.3465176	2.3122537
5.3037343506831895	5.325834	2.3077767
5.32127994950651	5.239749	2.2890499
5.3388256731723915	5.23396	2.287785
5.356371522094851	5.2625885	2.2940333
5.373917496687938	5.363269	2.3158731
5.391463597365729	5.389577	2.3215463
5.40900982454232	5.27771	2.2973268
5.426556178631843	5.2307105	2.2870746
5.444102660048449	5.208309	2.282172
5.4616492692063225	5.2401605	2.2891397
5.479196006519669	5.2245374	2.2857246
5.496742872402727	5.2402525	2.2891598
5.514289867269756	5.245059	2.2902093
5.531836991535049	5.232637	2.2874959
5.549384245612924	5.224086	2.285626
5.566931629917724	5.2293844	2.2867846
5.584479144863822	5.238462	2.2887688
5.6020267908656205	5.2049327	2.2814322
5.619574568337545	5.2199845	2.2847285
5.637122477694054	5.1844563	2.27694
5.654670519349629	5.1439223	2.2680216
5.672218693718784	5.083749	2.254717
5.689767001216059	5.123858	2.2635942
5.707315442256021	5.175634	2.275002
5.724864017253266	5.213675	2.2833474
5.7424127266224225	5.2469344	2.290619
5.75996157077814	5.2912636	2.3002746
5.777510550135105	5.3209553	2.3067195
5.795059665108022	5.3421974	2.3113194
5.812608916111639	5.370535	2.3174415
5.830158303560715	5.451378	2.3348186
5.847707827870055	5.401636	2.324142
5.86525748945448	5.390801	2.3218098
5.8828072887288485	5.4864345	2.342314
5.900357226108044	5.577114	2.3615913
5.917907302006979	5.6388807	2.3746328
5.9354575168406	6.2020087	2.4903831
5.9530078710238765	6.7791953	2.6036887
5.970558364971812	7.3862534	2.7177663
5.988108999099438	7.7298756	2.7802653
6.005659773821818	8.255584	2.873253
6.023210689554039	7.936484	2.8171766
6.040761746711227	8.277034	2.8769834
6.058312945708531	7.60564	2.7578325
6.075864286961132	7.165792	2.6768997
6.093415770884244	6.5491185	2.5591245
6.1109673978931065	6.1083517	2.471508
6.128519168402993	5.578757	2.3619392
6.146071082829204	5.4054704	2.3249667
6.163623141587075	5.263366	2.2942028
6.181175345091969	5.1698537	2.2737312
6.198727693759281	5.157933	2.2711084
6.216280188004435	5.1633477	2.2723
6.233832828242885	5.183443	2.2767177
6.251385614890126	5.284745	2.2988575
6.268938548361669	5.2305536	2.2870405
6.286491629073067	5.1377296	2.2666562
6.304044857439898	5.0721684	2.2521474
6.321598233877777	4.99941	2.2359362
6.339151758802344	4.9852138	2.2327592
6.356705432629277	4.987968	2.233376
6.37425925577428	4.939064	2.2224004
6.391813228653095	4.938907	2.2223651
6.409367351681486	4.972226	2.2298489
6.426921625275259	5.0357704	2.2440522
6.44447604985025	5.027797	2.242275
6.46203062582232	4.992979	2.2344975
6.47958535360737	4.918891	2.2178574
6.497140233621328	4.9354916	2.2215967
6.514695266280161	4.9386353	2.222304
6.532250451999859	4.9384856	2.2222705
6.549805791196454	4.9587536	2.226826
6.567361284286002	4.9171777	2.2174711
6.584916931684597	4.956601	2.2263424
6.602472733808367	4.976387	2.2307818
6.6200286910734665	4.997654	2.2355433
6.637584803896092	4.9939756	2.2347205
6.655141072692462	4.8995385	2.21349
6.672697497878842	4.87403	2.2077205
6.690254079871514	4.8949237	2.2124474
6.707810819086808	4.972006	2.2297995
6.725367715941078	4.9534287	2.22563
6.742924770850719	4.9527097	2.2254684
6.760481984232151	4.948999	2.2246346
6.778039356501836	4.971741	2.2297401
6.795596888076266	4.9540296	2.225765
6.813154579371963	4.939917	2.2225924
6.830712430805492	4.90533	2.214798
6.84827044279344	4.934178	2.2213008
6.865828615752445	4.967559	2.2288022
6.883386950099159	5.0468283	2.2465148
6.900945446250287	5.074294	2.2526193
6.918504104622553	5.0374084	2.2444172
6.936062925632727	5.016422	2.239737
6.953621909697607	4.981926	2.2320228
6.971181057234028	5.035904	2.244082
6.988740368658859	5.073734	2.252495
7.006299844389007	5.0989494	2.2580853
7.023859484841407	5.191492	2.2784846
7.041419290433036	5.3241806	2.3074186
7.058979261580902	5.5267715	2.3509088
7.0765393987020495	5.7643423	2.4009044
7.094099702213559	6.076346	2.4650245
7.111660172532549	6.401357	2.5300903
7.129220810076164	6.720306	2.5923553
7.146781615261595	7.254614	2.693439
7.16434258850606	7.4483	2.7291574
7.181903730226821	7.872794	2.80585
7.1994650408411704	8.0546665	2.8380744
7.217026520766437	8.219045	2.8668876
7.234588170419983	8.510552	2.9172852
7.252149990219215	8.456193	2.9079535
7.269711980581568	8.28599	2.8785396
7.2872741419245175	8.057302	2.838539
7.304836474665574	7.7115326	2.7769647
7.322398979222286	7.466954	2.7325728
7.339961656012233	7.206681	2.6845262
7.357524505453039	6.845365	2.616365
7.375087527962357	6.4700837	2.5436358
7.392650723957886	6.1572094	2.4813726
7.410214093857353	5.738373	2.3954902
7.427777638078528	5.5153427	2.3484766
7.445341357039213	5.443791	2.3331933
7.4629052511572525	5.43261	2.330796
7.480469320850524	5.4088283	2.3256888
7.498033566536948	5.3720407	2.3177664
7.5155979886344735	5.294053	2.300881
7.5331625875610975	5.321329	2.3068006
7.550727363734844	5.2572827	2.2928765
7.568292317573788	5.1725087	2.2743149
7.585857449496025	5.169625	2.273681
7.603422759919705	5.170614	2.2738984
7.620988249263007	5.2462335	2.2904658
7.638553917944147	5.222984	2.285385
7.656119766381391	5.227498	2.2863722
7.673685794993023	5.247967	2.2908442
7.691252004197388	5.303586	2.3029516
7.70881839441285	5.3188615	2.3062656
7.726384966057826	5.2844706	2.2987976
7.743951719550762	5.2739286	2.2965035
7.761518655310149	5.263158	2.2941573
7.779085773754511	5.2949123	2.3010676
7.796653075302419	5.30305	2.3028352
7.814220560372475	5.333287	2.309391
7.831788229383323	5.348647	2.3127143
7.8493560827536495	5.368934	2.317096
7.866924120902174	5.3580565	2.3147476
7.884492344247663	5.3369117	2.3101757
7.9020607532089135	5.3404613	2.3109438
7.919629348204771	5.348471	2.3126762
7.937198129654115	5.395549	2.322832
7.954767097975865	5.400157	2.3238237
7.972336253588986	5.3829303	2.3201144
7.989905596912472	5.352765	2.3136044
8.007475128365371	5.346048	2.3121521
8.025044848366756	5.3858824	2.3207505
8.042614757335754	5.4736257	2.3395782
8.060184855691523	5.551115	2.3560805
8.07775514385327	5.6917367	2.385736
8.095325622240228	5.771924	2.402483
8.112896291271687	5.8719687	2.4232144
8.130467151366968	5.912605	2.4315848
8.148038202945436	5.9945683	2.4483807
8.165609446426497	6.006887	2.450895
8.183180882229594	5.998177	2.4491177
8.200752510774217	5.940673	2.4373496
8.218324332479893	5.9192634	2.4329536
8.235896347766193	5.9387407	2.436953
8.253468557052724	5.998802	2.4492452
8.27104096075914	5.9833975	2.4460983
8.288613559305137	6.09333	2.4684672
8.306186353110448	6.1368093	2.4772584
8.32375934259485	6.249235	2.499847
8.341332528178162	6.2895603	2.5078995
8.358905910280246	6.3074975	2.5114732
8.376479489321003	6.305425	2.5110605
8.394053265720377	6.3517194	2.5202618
8.411627239898356	6.344167	2.518763
8.42920141227497	6.3016324	2.5103052
8.44677578327029	6.288854	2.5077589
8.464350353304427	6.2897153	2.5079305
8.48192512279754	6.2505765	2.5001154
8.499500092169827	6.178176	2.4855938
8.51707526184153	6.095223	2.4688506
8.534650632232934	6.1426115	2.4784293
8.552226203764365	6.2410693	2.4982133
8.569801976856192	6.288396	2.5076673
8.587377951928834	6.3544927	2.5208118
8.60495412940274	6.3146186	2.5128906
8.622530509698416	6.320193	2.5139995
8.6401070932364	6.362234	2.522347
8.657683880437283	6.473545	2.5443163
8.675260871721695	6.6800556	2.5845804
8.692838067510303	6.802675	2.6081939
8.710415468223834	6.937338	2.6338828
8.727993074283043	7.0660787	2.6582096
8.745570886108737	7.1202226	2.6683745
8.763148904121765	7.225258	2.687984
8.78072712874302	7.2709208	2.6964645
8.798305560393441	7.495114	2.7377205
8.815884199494006	7.646767	2.7652788
8.833463046465745	7.8421154	2.8003776
8.851042101729728	7.996427	2.8277955
8.86862136570707	8.252603	2.8727343
8.886200838818924	8.3628845	2.8918653
8.903780521486505	8.328837	2.8859725
8.921360414131055	8.3692255	2.8929613
8.938940517173874	8.490789	2.9138958
8.956520831036297	8.77247	2.9618356
8.97410135613971	9.085782	3.0142632
8.99168209290554	9.337029	3.0556552
9.009263041755265	9.611653	3.1002667
9.026844203110405	9.7807045	3.1274118
9.044425577392525	9.820982	3.1338446
9.062007165023239	9.895705	3.145744
9.079588966424197	10.19401	3.192806
9.097170982017108	10.301199	3.209548
9.11475321222372	11.355526	3.369796
9.132335657465825	12.262488	3.5017836
9.149918318165264	12.484516	3.5333436
9.167501194743924	13.139093	3.6247888
9.18508428762374	12.852652	3.5850594
9.202667597226693	12.697189	3.5633116
9.220251123974803	12.202798	3.4932504
9.237834868290143	11.819019	3.43788
9.255418830594836	11.701692	3.4207735
9.273003011311046	11.225164	3.3503976
9.290587410860985	11.042214	3.3229828
9.308172029666911	10.404116	3.225541
9.32575686815113	10.1350975	3.1835668
9.343341926735997	8.806571	2.9675868
9.360927205843916	8.592782	2.9313447
9.378512705897327	8.390804	2.8966885
9.396098427318728	8.112795	2.8482969
9.413684370530664	8.035033	2.8346133
9.431270535955722	7.891146	2.8091185
9.448856924016539	7.8146	2.7954607
9.466443535135806	7.761819	2.786004
9.484030369736251	7.7874527	2.7906008
9.501617428240658	7.8568416	2.8030057
9.519204711071852	7.849517	2.801699
9.536792218652714	7.906531	2.8118553
9.55437995140617	7.953244	2.8201497
9.571967909755191	7.9581585	2.8210208
9.589556094122802	7.967054	2.822597
9.60714450493207	7.932451	2.8164606
9.624733142606116	7.9328966	2.8165398
9.642322007568108	7.9728785	2.8236287
9.659911100241267	7.9875345	2.8262227
9.677500421048851	8.077221	2.8420453
9.695089970414175	8.117583	2.8491373
9.712679748760609	8.154225	2.8555605
9.730269756511557	8.165709	2.8575704
9.747859994090492	8.140997	2.853243
9.765450461920915	8.101465	2.8463073
9.78304116042639	8.232821	2.8692894
9.800632090030527	8.263918	2.8747032
9.81822325115699	8.304134	2.8816895
9.835814644229481	8.318407	2.8841648
9.853406269671762	8.26433	2.8747747
9.870998127907646	8.286484	2.8786254
9.888590219360985	8.250659	2.872396
9.906182544455698	8.2711525	2.875961
9.923775103615734	8.314452	2.883479
9.941367897265108	8.37394	2.8937762
9.958960925827878	8.330209	2.8862102
9.97655418972816	8.215556	2.8662791
9.994147689390106	8.162371	2.8569863
10.011741425237934	8.164358	2.8573341
10.029335397695904	8.229037	2.86863
10.04692960718833	8.290101	2.8792536
10.06452405413958	8.268579	2.8755136
10.082118738974064	8.2572155	2.873537
10.099713662116246	8.210251	2.8653536
10.117308823990651	8.1934	2.8624117
10.134904225021844	8.221556	2.8673255
10.152499865634445	8.279443	2.877402
10.170095746253125	8.338518	2.8876493
10.18769186730261	8.438058	2.9048336
10.205288229207675	8.41583	2.901005
10.222884832393145	8.350267	2.889683
10.2404816772839	8.230611	2.868904
10.258078764304868	8.125858	2.850589
10.275676093881035	8.027286	2.8332465
10.293273666437438	7.9922047	2.8270488
10.310871482399158	8.00041	2.8284996
10.32846954219134	8.03946	2.8353941
10.346067846239173	8.110905	2.847965
10.363666394967908	8.1585245	2.856313
10.38126518880283	8.212658	2.8657734
10.398864228169298	8.254073	2.8729904
10.416463513492713	8.24479	2.8713741
10.434063045198531	8.189696	2.8617644
10.451662823712262	8.174851	2.8591697
10.469262849459467	8.200505	2.8636525
10.486863122865758	8.160575	2.856672
10.504463644356806	8.082055	2.8428955
10.522064414358338	7.9631205	2.8219001
10.539665433296118	7.874167	2.8060946
10.557266701595987	7.8590074	2.8033922
10.574868219683818	7.892275	2.8093193
10.592469987985552	7.857887	2.8031921
10.610072006927185	7.758255	2.7853644
10.627674276934751	7.5959167	2.7560692
10.64527679843435	7.461939	2.731655
10.662879571852143	7.2595496	2.6943552
10.680482597614331	7.1155567	2.6675
10.698085876147173	7.002639	2.64625
10.715689407876988	6.9925075	2.644335
10.733293193230146	6.9715357	2.6403666
10.750897232633072	6.9230523	2.6311693
10.76850152651225	6.80535	2.6087065
10.786106075294207	6.753724	2.5987928
10.803710879405534	6.630659	2.5750067
10.821315939272877	6.547125	2.558735
10.83892125532294	6.488106	2.5471761
10.856526827982472	6.402441	2.5303044
10.874132657678285	6.3290815	2.5157666
10.891738744837243	6.2699847	2.5039937
10.909345089886271	6.1838136	2.4867275
10.926951693252343	6.1095824	2.471757
10.944558555362494	6.0302663	2.45566
10.96216567664381	5.9820023	2.4458132
10.979773057523436	5.9403543	2.4372842
10.997380698428573	5.84516	2.4176767
11.014988599786477	5.780809	2.4043312
11.032596762024461	5.7109303	2.3897552
11.050205185569892	5.683196	2.3839455
11.067813870850198	5.6309133	2.3729546
11.085422818292859	5.633536	2.373507
11.10303202832541	5.6004534	2.3665278
11.120641501375454	5.541966	2.3541381
11.138251237870636	5.400775	2.3239567
11.155861238238671	5.3136935	2.305145
11.173471502907317	5.2221227	2.2851963
11.191082032304402	5.179333	2.2758148
11.208692826857805	5.1187787	2.262472
11.226303886995465	5.038436	2.244646
11.243915213145371	4.9809775	2.2318103
11.261526805735578	4.9228706	2.2187543
11.279138665194196	4.9439216	2.223493
11.296750791949393	4.9430118	2.2232885
11.314363186429393	4.8559847	2.20363
11.331975849062479	4.8018627	2.1913154
11.34958878027699	4.722864	2.1732152
11.36720198050133	4.726182	2.1739783
11.384815450163948	4.6597624	2.1586483
11.402429189693366	4.5776267	2.139539
11.420043199518153	4.521423	2.1263638
11.437657480066942	63.46271	7.9663486
11.455272031768422	85.202255	9.230507
11.472886855051353	107.56018	10.371122
11.490501950344528	99.12132	9.955969
11.508117318076819	84.47013	9.190763
11.52573295867715	45.861996	6.7721486
11.543348872574514	4.171622	2.042455
11.560965060197946	4.138415	2.0343094
11.57858152197655	4.1028113	2.0255399
11.59619825833949	4.081002	2.020149
11.613815269715985	4.0352144	2.0087843
11.631432556535323	38.510933	6.2057176
11.649050119226837	83.052086	9.113292
11.666667958219929	93.42844	9.665838
11.68428607394406	107.65971	10.37592
11.701904466828756	82.44282	9.0798025
11.719523137303586	65.31534	8.081791
11.737142085798196	4.5732656	2.1385195
11.754761312742286	3.7397037	1.9338313
11.772380818565619	3.6782396	1.9178737
11.790000603698015	3.61932	1.902451
11.80762066856935	3.581815	1.8925683
11.825241013609572	3.5909488	1.89498
11.842861639248683	3.585627	1.8935752
11.860482545916748	3.5650082	1.8881229
11.878103734043883	3.5240047	1.8772333
11.895725204060282	3.4464102	1.8564509
11.91334695639619	3.3973732	1.8431965
11.930968991481919	3.3740232	1.8368515
11.948591309747824	3.358299	1.8325663
11.966213911624347	3.3407393	1.8277689
11.98383679754198	3.3237755	1.8231225
12.001459967931268	3.2713315	1.8086823
12.019083423222835	3.2676537	1.8076652
12.036707163847352	3.260321	1.8056359
12.05433119023556	3.2326972	1.7979703
12.071955502818259	3.244789	1.8013297
12.089580102026313	3.2392292	1.7997859
12.107204988290643	3.2662516	1.8072774
12.12483016204224	3.2582877	1.8050728
12.142455623712152	3.2179556	1.7938662
12.16008137373149	3.142471	1.7727016
12.177707412531431	3.0688157	1.7518035
12.19533374054321	3.047261	1.7456405
12.212960358198126	3.04617	1.7453281
12.230587265927545	3.056613	1.7483171
12.248214464162889	3.018412	1.7373579
12.265841953335649	3.0046763	1.7334002
12.283469733877375	2.9803221	1.7263609
12.301097806219685	2.9997845	1.7319885
12.31872617079425	3.0220864	1.7384149
12.336354828032825	3.051047	1.7467247
12.353983778367205	3.0225632	1.7385521
12.371613022229262	2.9991753	1.7318127
12.389242560050928	2.9973319	1.7312804
12.406872392264201	3.001851	1.7325851
12.424502519301143	2.9699473	1.7233535
12.442132941593874	2.9185226	1.7083684
12.459763659574586	2.8647003	1.6925426
12.477394673675532	2.8436759	1.6863202
12.49502598432903	2.80529	1.6748999
12.51265759196746	2.8052235	1.6748801
12.530289497023267	2.7848325	1.6687818
12.547921699928967	2.804621	1.6747003
12.565554201117134	2.8121955	1.6769602
12.583187001020404	2.839001	1.6849335
12.600820100071486	2.8464627	1.6871463
12.618453498703152	2.8126006	1.677081
12.636087197348235	2.7758725	1.666095
12.65372119643964	2.7508032	1.6585546
12.671355496410326	2.793788	1.6714628
12.68899009769333	2.8361855	1.6840978
12.706625000721749	2.8916776	1.7004933
12.724260205928752	2.933541	1.7127583
12.741895713747551	2.955112	1.719044
12.759531524611454	2.972307	1.724038
12.777167638953818	2.9508593	1.7178066
12.794804057208072	2.9622815	1.721128
12.812440779807702	3.0174453	1.7370795
12.830077807186271	3.1919727	1.7866093
12.847715139777405	3.2659397	1.8071911
12.865352778014795	3.4589837	1.8598343
12.882990722332197	3.5639539	1.8878437
12.90062897316344	3.6062233	1.8990059
12.918267530942412	3.720874	1.9289567
12.935906396103071	3.5994868	1.8972313
12.953545569079449	3.7675123	1.9410081
12.971185050305628	3.5380237	1.8809636
12.988824840215775	3.5339181	1.8798718
13.006464939244115	3.5351048	1.8801874
13.024105347824943	3.3955216	1.8426942
13.041746066392617	3.5081494	1.8730054
13.05938709538157	3.3174658	1.8213912
13.077028435226296	3.3507795	1.8305135
13.094670086361363	3.2847033	1.8123751
13.112312049221401	3.2250917	1.795854
13.129954324241112	3.1328683	1.769991
13.147596911855258	2.9349837	1.7131795
13.165239812498685	2.8788168	1.6967076
13.182883026606293	2.8033388	1.6743174
13.200526554613058	2.7392416	1.6550654
13.218170396954017	2.7056441	1.6448842
13.235814554064284	2.6827128	1.6378989
13.253459026379034	2.683274	1.6380702
13.271103814333523	2.6644785	1.632323
13.288748918363058	2.6756392	1.6357381
13.306394338903031	2.6834269	1.6381168
13.32404007638889	2.6732104	1.6349956
13.341686131256164	2.654539	1.6292757
13.359332503940449	2.641131	1.6251557
13.376979194877402	2.6449597	1.6263332
13.394626204502751	2.6781409	1.6365026
13.412273533252307	2.7287822	1.6519026
13.429921181561937	2.7399824	1.6552892
13.447569149867581	2.8019056	1.6738894
13.465217438605247	2.8149102	1.6777694
13.482866048211022	2.7564447	1.6602544
13.500514979121052	2.7325656	1.6530473
13.518164231771568	2.6801414	1.6371138
13.535813806598844	2.705221	1.6447556
13.553463704039254	2.6966357	1.6421436
13.571113924529229	2.703294	1.6441697
13.588764468505275	2.723526	1.6503109
13.606415336403956	2.7567923	1.6603591
13.624066528661917	2.787143	1.6694739
13.641718045715882	2.833502	1.683301
13.659369888002635	2.847777	1.6875358
13.67702205595903	2.884784	1.6984652
13.694674550021993	2.939785	1.7145802
13.712327370628532	3.0172327	1.7370183
13.729980518215713	3.1006613	1.7608695
13.747633993220681	3.2201636	1.7944814
13.765287796080647	3.2936518	1.8148421
13.7829419272329	3.3503308	1.8303909
13.800596387114801	3.3401394	1.8276048
13.818251176163775	3.3334641	1.8257776
13.835906294817324	3.3482568	1.8298242
13.853561743513023	3.3702238	1.8358169
13.871217522688525	3.4252467	1.8507422
13.888873632781538	3.4913619	1.8685186
13.906530074229858	3.5462668	1.8831534
13.92418684747135	3.5419316	1.882002
13.941843952943948	3.5292747	1.8786364
13.959501391085665	3.5009375	1.8710792
13.977159162334578	3.4253623	1.8507735
13.994817267128846	3.3682907	1.8352903
14.012475705906693	3.3015282	1.8170108
14.030134479106424	3.2300625	1.7972375
14.047793587166414	3.113005	1.7643709
14.065453030525108	3.0088863	1.7346141
14.083112809621026	3.0034244	1.733039
14.100772924892766	2.9872115	1.7283552
14.118433376778997	2.9262557	1.7106302
14.136094165718458	2.8419363	1.6858044
14.153755292149969	2.7825148	1.6680871
14.171416756512416	2.6959696	1.6419408
14.189078559244768	2.5989385	1.6121223
14.20674070078606	2.5180907	1.5868493
14.224403181575408	2.4917116	1.5785156
14.242066002051999	2.482062	1.5754561
14.259729162655093	2.45862	1.5679988
14.277392663824022	2.441271	1.5624567
14.295056505998208	2.426966	1.5578723
14.312720689617128	2.3944232	1.5473924
14.330385215120348	2.3781722	1.5421324
14.348050082947497	2.370987	1.5398009
14.3657152935383	2.3964055	1.5480328
14.383380847332528	2.422778	1.5565275
14.401046744770051	2.396789	1.5481566
14.418712986290798	2.3826165	1.5435727
14.436379572334793	2.3658557	1.5381339
14.454046503342123	2.3640609	1.5375503
14.471713779752946	2.3581765	1.5356355
14.489381402007504	2.3433795	1.5308101
14.507049370546113	2.3786013	1.5422715
14.524717685809168	2.4297204	1.558756
14.542386348237134	2.4885287	1.5775071
14.560055358270553	2.4930854	1.5789508
14.577724716350051	2.443458	1.5631565
14.595394422916325	2.3913543	1.5464004
14.61306447841015	2.4266434	1.5577687
14.63073488327237	2.4419599	1.5626771
14.648405637943917	2.4871452	1.5770686
14.6660767428658	2.4902108	1.5780401
14.683748198479094	2.5624175	1.6007553
14.701420005224954	2.5786047	1.6058035
14.719092163544628	2.6321518	1.6223907
14.73676467387942	2.6394868	1.6246498
14.754437536670727	2.6623206	1.6316619
14.772110752360014	2.6590931	1.6306726
14.78978432138882	2.670634	1.6342075
14.807458244198777	2.6745198	1.6353959
14.82513252123159	2.6651216	1.63252
14.842807152929028	2.734429	1.6536108
14.860482139732962	2.7487628	1.6579393
14.87815748208531	2.717557	1.6485014
14.8958331804281	2.6923285	1.6408316
14.91350923520342	2.63058	1.6219063
14.931185646853438	2.656469	1.6298678
14.948862415820408	2.658586	1.6305171
14.966539542546656	2.7204514	1.6493791
14.98421702747459	2.6793015	1.6368572
15.001894871046696	2.6769953	1.6361526
15.019573073705542	2.6605837	1.6311296
15.037251635893766	2.6922572	1.6408099
15.054930558054092	2.7304015	1.6523926
15.072609840629323	2.7866569	1.6693282
15.090289484062351	2.9248698	1.7102251
15.107969488796124	3.2281396	1.7967024
15.125649855273691	3.6348968	1.9065405
15.14333058393817	4.1596484	2.0395217
15.161011675232768	5.0814333	2.2542036
15.17869312960076	6.370299	2.523945
15.196374947485506	8.207028	2.8647912
15.214057129330447	11.28611	3.3594806
15.231739675579114	16.107384	4.0134006
15.249422586675102	21.218058	4.606306
15.267105863062092	24.486807	4.948415
15.284789505183847	24.867327	4.986715
15.302473513484218	22.776154	4.772437
15.320157888407127	19.10947	4.371438
15.337842630396578	14.804214	3.8476243
15.355527739896656	11.565897	3.400867
15.37321321735153	9.032161	3.0053554
15.39089906320545	6.5847063	2.5660682
15.408585277902748	4.8935256	2.2121315
15.42627186188783	3.742808	1.9346339
15.443958815605198	3.219413	1.7942723
15.461646139499424	2.9036856	1.7040204
15.479333834015168	2.7530396	1.6592286
15.497021899597165	2.6815734	1.6375511
15.514710336690234	2.623752	1.6198
15.53239914573928	2.5627944	1.600873
15.550088327189297	2.5372643	1.5928793
15.567777881485336	2.524083	1.5887363
15.58546780907256	2.505818	1.5829775
15.6031581103962	2.5071054	1.5833842
15.620848785901568	2.4953878	1.5796796
15.638539836034063	2.5013306	1.5815595
15.656231261239173	2.5071118	1.5833862
15.673923061962451	2.4848683	1.5763465
15.691615238649552	2.454587	1.5667121
15.709307791746202	2.4353194	1.560551
15.727000721698221	2.42802	1.5582105
15.744694028951498	2.411783	1.5529916
15.76238771395202	2.4128463	1.553334
15.780081777145844	2.4020329	1.5498493
15.797776218979125	2.3726485	1.5403404
15.815471039898094	2.343083	1.5307132
15.833166240349064	2.3699977	1.5394797
15.850861820778437	2.4187975	1.5552484
15.868557781632699	2.4087882	1.5520271
15.886254123358412	2.3926723	1.5468265
15.903950846402232	2.375536	1.5412774
15.921647951210897	2.374717	1.5410117
15.939345438231225	2.3823442	1.5434844
15.957043307910133	2.3841877	1.5440814
15.974741560694602	2.3773952	1.5418804
15.992440197031714	2.4161608	1.5544004
16.01013921736862	2.3997982	1.5491282
16.02783862215259	2.3866405	1.5448756
16.045538411830933	2.3976848	1.5484459
16.06323858685107	2.4433634	1.5631262
16.080939147660512	2.481261	1.5752019
16.09864009470684	2.477372	1.573967
16.11634142843774	2.455843	1.5671129
16.134043149300954	2.450894	1.5655332
16.15174525774433	2.4336212	1.5600067
16.169447754215817	2.4627428	1.5693128
16.18715063916342	2.4621599	1.5691271
16.204853913035244	2.473709	1.5728029
16.222557576279478	2.4553208	1.5669464
16.240261629344403	22.43626	4.736693
16.257966072678386	42.98248	6.5561023
16.275670906729868	38.06958	6.170055
16.293376131947387	2.5035896	1.5822736
16.31108174877957	2.5491436	1.5966038
16.328787757675133	2.5841248	1.6075213
16.34649415908287	2.6050117	1.6140049
16.364200953451657	2.5898464	1.6093
16.38190814123048	2.580233	1.6063104
16.39961572286839	2.58109	1.6065772
16.41732369881455	2.635235	1.6233407
16.43503206951817	2.7205546	1.6494104
16.45274083542859	2.7455924	1.6569829
16.47044999699522	2.7799463	1.6673172
16.488159554667558	2.8289216	1.6819398
16.505869508895184	2.9050741	1.7044278
16.523579860127786	2.9458377	1.7163442
16.541290608815117	2.939088	1.7143769
16.559001755407035	2.983856	1.7273841
16.57671330035348	3.0286844	1.7403116
16.59442524410448	3.0809267	1.7552569
16.61213758711015	3.1423726	1.7726738
16.629850329820705	3.2298462	1.7971773
16.647563472686436	3.344204	1.8287165
16.665277016157724	3.4259691	1.8509374
16.682990960685053	3.4748414	1.8640926
16.70070530671898	3.5065894	1.872589
16.718420054710155	3.5034513	1.8717508
16.736135205109335	3.5386453	1.8811287
16.753850758367335	3.5833764	1.8929808
16.771566714935087	3.6973262	1.9228432
16.789283075263597	3.770843	1.9418659
16.80699983980398	3.828847	1.956744
16.82471700900741	3.8887267	1.9719855
16.84243458332518	3.979406	1.9948449
16.860152563208665	4.047626	2.0118713
16.87787094910932	4.1162553	2.0288556
16.89558974147871	4.1747093	2.0432105
16.913308940768466	4.200777	2.0495796
16.931028547430333	4.2125225	2.052443
16.94874856191613	4.2575755	2.0633893
16.966468984677785	4.3140044	2.0770183
16.98418981616729	4.328654	2.0805416
17.00191105683676	4.3821077	2.0933485
17.019632707138374	4.451843	2.109939
17.03735476752442	4.5223618	2.1265845
17.05507723844728	4.5860195	2.1414993
17.072800120359403	4.643129	2.154792
17.090523413713353	4.6414733	2.154408
17.108247118961785	4.62318	2.1501582
17.125971236557437	4.6551814	2.157587
17.143695766953133	4.6911364	2.165903
17.161420710601806	4.7036695	2.1687944
17.179146067956477	4.719081	2.1723447
17.19687183947025	4.7214546	2.172891
17.21459802559634	4.695996	2.1670246
17.232324626788028	4.6738176	2.1619015
17.25005164349871	4.688451	2.165283
17.267779076181863	4.6762624	2.1624668
17.285506925291074	4.6037874	2.1456437
17.30323519127999	4.560793	2.1356013
17.320963874602384	4.552606	2.1336837
17.33869297571211	4.5817504	2.1405025
17.356422495063114	4.5089693	2.1234334
17.37415243310944	4.573635	2.1386058
17.391882790305218	4.5962725	2.1438918
17.40961356710468	4.5388193	2.1304505
17.42734476396215	4.5114007	2.1240058
17.445076381332044	4.500173	2.1213613
17.462808419668868	4.57819	2.1396706
17.48054087942723	4.6710887	2.1612701
17.498273761061835	4.9964046	2.2352638
17.51600706502747	5.498604	2.3449101
17.533740791779024	6.215609	2.4931123
17.551474941771485	7.65121	2.766082
17.56920951545993	8.723182	2.9535034
17.586944513299528	10.872961	3.2974174
17.60467993574556	12.533339	3.5402455
17.622415783253373	14.280096	3.7789013
17.64015205627843	15.762508	3.9702024
17.657888755276293	16.907585	4.1118836
17.675625880702604	17.490799	4.1822004
17.69336343301311	17.313807	4.1609864
17.71110141266366	16.487675	4.0605016
17.728839820110178	15.45983	3.931899
17.746578655808705	14.421686	3.7975895
17.764317920215372	12.924598	3.5950797
17.7820576137864	11.327276	3.365602
17.79979773697811	9.334583	3.055255
17.81753829024692	7.4615393	2.731582
17.835279274049356	5.836561	2.4158976
17.85302068884201	4.7988734	2.190633
17.870762535081607	4.1740217	2.0430422
17.888504813224934	3.8877552	1.9717392
17.90624752372891	3.700147	1.9235766
17.923990667050536	3.6188512	1.9023278
17.941734243646895	3.5438666	1.882516
17.959478253975185	3.5258126	1.8777148
17.9772226984927	3.4744353	1.8639838
17.994967577656833	3.4367065	1.8538356
18.01271289192506	3.390794	1.8414109
18.030458641754965	3.361701	1.8334942
18.04820482760425	3.3455575	1.8290865
18.06595144993067	3.3613667	1.8334031
18.083698509192125	3.315293	1.8207946
18.101446005846576	3.2832787	1.811982
18.119193940352105	3.2473366	1.8020368
18.136942313166887	3.2183836	1.7939854
18.1546911247492	3.1801693	1.7833029
18.1724403755574	3.1647475	1.7789737
18.19019006604997	3.1759603	1.7821224
18.207940196685467	3.1506286	1.775001
18.225690767922575	3.143897	1.7731038
18.243441780220046	3.106451	1.7625127
18.261193234036764	3.0720086	1.7527146
18.278945129831676	3.0534356	1.7474083
18.29669746806386	3.0864198	1.7568209
18.314450249192483	3.0625832	1.7500237
18.3322034736768	3.0527709	1.747218
18.349957141976184	3.056003	1.7481427
18.3677112545501	3.0924168	1.7585269
18.385465811858108	3.1021326	1.7612872
18.403220814359884	3.0851374	1.7564559
18.420976262515172	3.0857096	1.7566187
18.43873215678387	3.0863268	1.7567945
18.456488497625923	3.1479971	1.7742596
18.474245285501407	3.2403598	1.8001
18.492002520870486	3.3280919	1.8243059
18.50976020419343	3.4385116	1.8543224
18.527518335930615	3.7221003	1.9292746
18.545276916542516	4.2724223	2.066984
18.563035946489688	4.3974924	2.09702
18.580795426232832	4.84264	2.2006
18.598555356232698	4.7578106	2.1812406
18.616315736950185	5.0223207	2.2410536
18.63407656884626	4.6188965	2.1491618
18.65183785238201	4.7893667	2.1884623
18.669599588018617	4.582204	2.1406083
18.68736177621737	4.640976	2.1542923
18.705124417439652	4.67356	2.1618419
18.72288751214696	4.5115595	2.1240432
18.740651060800886	4.6190553	2.1491988
18.758415063863115	4.3368306	2.082506
18.77617952179546	4.5145764	2.1247532
18.793944435059814	4.270229	2.0664532
18.811709804118184	4.252256	2.0621
18.829475629432675	4.208521	2.051468
18.8472419114655	3.9761217	1.9940215
18.86500865067897	4.078086	2.019427
18.88277584753551	3.733743	1.9322896
18.90054350249763	3.7660022	1.940619
18.918311616027957	3.49166	1.8685985
18.936080188589226	3.370182	1.8358055
18.953849220644265	3.0854943	1.7565575
18.971618712656007	2.8977718	1.7022843
18.9893886650875	2.830489	1.6824057
19.007159078401887	7.990333	2.8267176
19.024929953062408	32.864918	5.7327933
19.042701289532435	32.84549	5.7310987
19.060473088275405	25.41399	5.0412292
19.07824534975489	2.6704588	1.6341538
19.096018074434568	2.625469	1.6203299
19.113791262778197	2.612967	1.6164675
19.13156491524966	2.586253	1.6081831
19.149339032312945	2.5841136	1.6075178
19.167113614432136	2.5435846	1.594862
19.184888662071433	2.5120358	1.5849403
19.202664175695123	2.4806614	1.5750116
19.220440155767623	2.5077696	1.5835938
19.238216602753447	2.5487392	1.5964772
19.2559935171172	2.5683134	1.6025958
19.27377089932361	2.5312855	1.5910014
19.291548749837514	2.5092616	1.5840648
19.309327069123835	2.469334	1.5714115
19.32710585764763	2.4736714	1.572791
19.344885115874032	2.4349153	1.5604215
19.362664844268313	2.439961	1.5620375
19.380445043295822	2.4751582	1.5732635
19.39822571342203	2.5054152	1.5828503
19.41600685511252	2.463882	1.5696758
19.43378846883297	2.4468186	1.564231
19.451570555049173	2.4373345	1.5611966
19.469353114227037	2.4606185	1.5686358
19.48713614683254	2.490862	1.5782465
19.50491965333182	2.5069225	1.5833263
19.52270363419109	2.5014496	1.5815972
19.540488089876686	2.4851658	1.5764409
19.55827302085503	2.4926505	1.578813
19.576058427592674	2.5107017	1.5845194
19.593844310556282	2.524153	1.5887583
19.611630670212598	2.5070808	1.5833764
19.629417507028506	2.5141087	1.585594
19.64720482147098	2.5053854	1.5828409
19.6649926140071	2.521009	1.5877686
19.682780885104084	2.519808	1.5873903
19.70056963522921	2.5326974	1.5914451
19.718358864849908	2.536506	1.5926412
19.7361485744337	2.5651293	1.6016021
19.753938764448215	2.5511029	1.5972172
19.771729435361202	2.5446303	1.5951897
19.789520587640506	2.5232394	1.5884708
19.807312221754092	2.5343177	1.5919541
19.825104338170043	2.5077772	1.5835963
19.842896937356517	2.4965641	1.5800519
19.860690019781824	2.5046396	1.5826054
19.87848358591436	2.5110357	1.5846248
19.896277636222635	2.5064006	1.5831616
19.914072171175278	2.5168965	1.586473
19.931867191241015	2.5090253	1.5839903
19.94966269688869	2.489413	1.5777874
19.967458688587264	2.4844973	1.5762289
19.985255166805807	2.4703515	1.5717351
20.00305213201348	2.484375	1.57619
20.020849584679578	2.4652348	1.5701066
20.038647525273507	2.436376	1.5608895
20.05644595426477	2.4328642	1.5597641
20.07424487212299	2.4081893	1.5518342
20.092044279317903	2.4061084	1.5511636
20.109844176319353	2.3804061	1.5428565
20.127644563597304	2.3706505	1.5396917
20.145445441621817	2.3772962	1.5418483
20.16324681086307	2.4208486	1.5559076
20.181048671791373	2.4263775	1.5576833
20.198851024877122	2.3933141	1.547034
20.216653870590836	2.3803666	1.5428437
20.234457209403146	2.3742743	1.540868
20.252261041784802	2.391982	1.5466034
20.270065368206662	2.397402	1.5483546
20.287870189139685	2.4023404	1.5499486
20.305675505054968	2.386125	1.5447087
20.323481316423702	2.3805342	1.5428979
20.341287623717207	2.3692045	1.539222
20.359094427406884	2.3509345	1.5332757
20.376901727964288	2.3307128	1.5266672
20.39470952586107	2.3166232	1.5220457
20.41251782156899	2.305681	1.5184469
20.430326615559935	2.3076863	1.5191071
20.448135908305886	2.3582013	1.5356436
20.465945700278965	2.3568063	1.5351893
20.483755991951384	2.3225267	1.5239838
20.50156678379548	2.3159394	1.5218211
20.519378076283708	2.3485577	1.5325005
20.537189869888635	2.3542507	1.5343567
20.55500216508294	2.3426378	1.5305678
20.572814962339415	2.340895	1.5299983
20.59062826213098	2.3678842	1.5387931
20.60844206493066	2.3937688	1.5471809
20.626256371211593	2.3666923	1.5384058
20.644071181447032	2.342435	1.5305015
20.66188649611036	2.365004	1.5378569
20.67970231567506	2.356661	1.5351421
20.697518640614742	2.3168042	1.5221052
20.715335471403122	2.2931602	1.5143183
20.73315280851404	2.309224	1.519613
20.750970652421447	2.3153288	1.5216205
20.768789003599412	2.306103	1.5185858
20.786607862522136	2.2584515	1.5028145
20.8044272296639	2.2912765	1.5136963
20.82224710549913	2.3002312	1.5166513
20.84006749050237	2.335926	1.5283737
20.857888385148268	3.860842	1.9649025
20.8757097899116	45.912994	6.775913
20.893531705267254	64.72781	8.04536
20.911354131690224	83.73957	9.150932
20.92917706965566	68.996544	8.306416
20.94700051963877	50.05763	7.0751414
20.96482448211493	29.353035	5.4178443
20.982648957559622	4.113144	2.0280888
21.00047394644843	2.2124717	1.487438
21.01829944925707	2.246097	1.4986985
21.036125466461375	2.2546442	1.5015472
21.053951998537297	2.2438407	1.4979455
21.071779045960906	2.2028065	1.4841855
21.089606609208378	2.1755893	1.4749879
21.10743468875603	2.1580095	1.4690166
21.12526328508028	2.156362	1.4684557
21.143092398657675	2.1661317	1.4717784
21.16092202996488	2.1604838	1.4698584
21.17875217947867	2.1633332	1.4708273
21.19658284767596	2.1645079	1.4712267
21.21441403503377	2.1771948	1.475532
21.232245742029225	2.179906	1.4764504
21.2500779691396	2.199482	1.483065
21.26791071684227	2.1935072	1.4810493
21.28574398561475	2.2074292	1.485742
21.30357777593465	2.190558	1.4800533
21.321412088279704	2.1853154	1.4782813
21.339246923127792	2.1665628	1.4719249
21.357082280956888	2.1622431	1.4704567
21.3749181622451	2.171158	1.473485
21.392754567470647	2.1905892	1.4800639
21.41059149711187	2.1968968	1.4821932
21.42842895164726	2.1451943	1.4646481
21.446266931555378	2.125569	1.4579332
21.464105437314945	2.147895	1.4655699
21.481944469404798	2.1309042	1.4597617
21.49978402830388	2.0862613	1.4443896
21.51762411449127	2.0807073	1.4424657
21.53546472844617	2.0930002	1.4467205
21.553305870647876	2.0822585	1.4430033
21.571147541575865	2.0755012	1.44066
21.58898974170967	2.0838542	1.4435561
21.60683247152899	2.0735164	1.439971
21.62467573151363	2.0663385	1.4374764
21.642519522143523	2.0843568	1.4437301
21.660363843898722	2.096891	1.4480646
21.6782086972594	2.0227141	1.4222215
21.696054082705864	2.0269344	1.4237045
21.713900000718535	2.044493	1.4298576
21.73174645177795	2.0811732	1.4426272
21.749593436364794	2.0679154	1.4380249
21.767440954959845	2.0629125	1.4362843
21.785289008044032	2.0712857	1.4391962
21.803137596098388	2.0855591	1.4441465
21.820986719604086	2.0719047	1.4394112
21.838836379042412	2.0182095	1.420637
21.85668657489478	2.0060122	1.4163376
21.87453730764273	1.9953098	1.4125544
21.892388577767914	2.0304027	1.424922
21.91024038575213	2.040329	1.4284009
21.928092732077285	2.0219529	1.4219539
21.945945617225426	2.010558	1.4179415
21.963799041678694	2.0067005	1.4165806
21.981653005919398	31.344234	5.5985923
21.999507510429943	78.16814	8.841274
22.01736255569286	73.16091	8.553415
22.035218142190818	4.228873	2.0564222
22.05307427040661	2.0103672	1.4178742
22.07093094082315	2.0049045	1.4159465
22.088788153923474	2.0098944	1.4177074
22.106645910190746	2.0154393	1.4196616
22.12450421010827	2.0080845	1.417069
22.142363054159464	2.0119479	1.4184315
22.16022244282787	2.0256784	1.4232633
22.178082376597164	2.0314565	1.4252917
22.195942855951145	2.0072286	1.416767
22.213803881373742	1.9832966	1.4082956
22.231665453349002	1.9661031	1.4021779
22.24952757236111	1.9667841	1.4024208
22.26739023889438	1.9993156	1.4139715
22.28525345343323	1.9886609	1.4101989
22.30311721646225	1.9772036	1.4061307
22.320981528466113	1.9540198	1.3978626
22.33884638992964	1.9640696	1.4014527
22.356711801337788	1.9608961	1.40032
22.37457776317561	1.9839404	1.4085242
22.392444275928337	1.9818608	1.4077858
22.410311340081282	1.9594784	1.3998137
22.428178956119904	1.960209	1.4000746
22.446047124529805	1.9411844	1.3932639
22.46391584579669	1.9373044	1.3918709
22.481785120406414	1.9483315	1.3958265
22.49965494884496	1.982378	1.4079695
22.51752533159841	1.993815	1.4120251
22.53539626915302	1.98483	1.40884
22.553267761995137	1.9543251	1.3979717
22.571139810611264	1.9173012	1.3846664
22.589012415488025	1.9062377	1.3806657
22.60688557711216	1.914505	1.3836564
22.624759295970566	1.925842	1.3877472
22.642633572550263	1.9335412	1.3905183
22.660508407338362	1.949764	1.3963395
22.67838380082217	1.9745364	1.405182
22.696259753489077	1.9781554	1.4064691
22.714136265826614	1.9733962	1.4047762
22.73201333832246	1.9688112	1.4031433
22.74989097146439	1.9362228	1.3914822
22.76776916574035	1.9345177	1.3908694
22.785647921638393	1.9078803	1.3812604
22.803527239646712	1.9569986	1.3989277
22.82140712025363	1.9226805	1.3866075
22.839287563947593	1.8950073	1.3765926
22.85716857121719	1.8693113	1.3672276
22.875050142551135	1.8742193	1.3690213
22.892932278438277	1.889272	1.3745079
22.910814979367604	1.8768505	1.3699819
22.928698245828222	1.8892292	1.3744923
22.946582078309387	1.9267615	1.3880783
22.96446647730047	1.9481841	1.3957736
22.98235144329098	1.9409088	1.393165
23.000236976770562	1.9145261	1.383664
23.018123078229	1.9089102	1.3816332
23.03600974815619	1.9350599	1.3910643
23.053896987042194	1.950303	1.3965325
23.071784795377173	1.930512	1.3894286
23.08967317365145	1.8995751	1.3782507
23.10756212235546	1.8656043	1.3658713
23.125451641979787	1.8595533	1.3636544
23.143341733015134	1.8878297	1.3739831
23.161232395952357	1.9108642	1.3823401
23.179123631282426	1.9266961	1.3880547
23.197015439496468	1.9527862	1.3974212
23.214907821085717	1.9361322	1.3914497
23.23280077654157	1.921578	1.38621
23.250694306355538	1.9433491	1.3940406
23.268588411019277	1.9621989	1.4007851
23.28648309102458	1.9587288	1.3995459
23.304378346863356	1.9207886	1.3859252
23.322274179027676	1.922716	1.3866204
23.340170588009723	1.9153008	1.3839439
23.358067574301852	1.9098802	1.3819841
23.37596513839651	1.904577	1.3800641
23.39386328078629	1.9245623	1.387286
23.411762001963947	1.9436841	1.3941607
23.429661302422353	1.9368984	1.391725
23.4475611826545	1.918605	1.3851372
23.46546164315356	1.8904688	1.3749433
23.48336268441279	1.9079323	1.3812792
23.501264306925638	1.9536138	1.3977174
23.51916651118564	1.9375306	1.391952
23.537069297686497	1.9123544	1.382879
23.554972666922037	1.9223199	1.3864775
23.57287661938623	1.9403651	1.3929698
23.59078115557318	1.9571135	1.3989687
23.608686275977128	1.9662995	1.402248
23.62659198109246	1.9342645	1.3907784
23.6444982714137	1.8993095	1.3781544
23.66240514743549	1.8444318	1.3580986
23.68031260965263	1.8869783	1.3736733
23.698220658560068	1.9232538	1.3868142
23.716129294652845	1.9182079	1.3849938
23.7340385184262	1.880087	1.3711627
23.75194833037546	1.8639516	1.3652661
23.769858730996123	1.888502	1.3742278
23.78776972078382	1.9073942	1.3810844
23.80568130023431	1.9111909	1.3824583
23.823593469843495	1.8849884	1.3729488
23.841506230107424	1.8792261	1.3708487
23.859419581522275	1.881869	1.3718123
23.87733352458438	1.8783907	1.370544
23.89524805979019	1.9226612	1.3866006
23.913163187636318	1.954838	1.3981552
23.931078908619508	2.0122917	1.4185526
23.948995223236633	2.026223	1.4234545
23.966912131984735	2.0112827	1.418197
23.98482963536096	2.0494199	1.4315795
24.002747733862616	2.0711746	1.4391576
24.020666427987155	2.0815756	1.4427667
24.038585718232156	2.0633128	1.4364237
24.056505605095353	2.028944	1.4244101
24.074426089074617	2.0259178	1.4233474
24.092347170667946	2.004524	1.4158121
24.110268850373515	2.0182097	1.4206371
24.128191128689586	2.054581	1.433381
24.146114006114626	2.0841515	1.4436591
24.164037483147187	2.0665753	1.4375588
24.181961560286005	2.0653622	1.4371368
24.199886238029926	2.0774598	1.4413396
24.21781151687797	2.1037421	1.4504282
24.235737397329274	2.1010208	1.4494898
24.253663879883135	2.1132567	1.4537045
24.271590965038975	2.0642612	1.4367537
24.289518653296376	2.0436575	1.4295655
24.30744694515505	2.021636	1.4218425
24.32537584111486	2.0373352	1.4273525
24.34330534167581	2.0790358	1.4418862
24.361235447338046	2.0700593	1.43877
24.379166158601876	2.093154	1.4467736
24.39709747596772	2.0941374	1.4471135
24.41502939993615	2.0308564	1.4250811
24.432961931007917	1.9596386	1.3998709
24.450895069683856	1.9692471	1.4032986
24.468828816465	1.9833406	1.4083112
24.4867631718525	1.9972527	1.4132419
24.504698136347656	2.0065012	1.4165102
24.52263371045192	2.0531816	1.4328928
24.540569894666874	2.0404773	1.4284527
24.558506689494266	2.0002809	1.4143128
24.57644409543597	1.9828689	1.4081438
24.594382112994012	1.9719883	1.4042751
24.61232074267057	1.9466299	1.3952168
24.630259984967953	1.9387176	1.3923784
24.64819984038863	1.9682537	1.4029447
24.66614030943522	2.0190659	1.4209384
24.684081392610462	2.0674222	1.4378533
24.702023090417274	2.039006	1.4279376
24.7199654033587	1.9906379	1.4108996
24.737908331937927	1.9822732	1.4079323
24.755851876658305	2.0395072	1.4281131
24.773796038023324	2.0973592	1.4482262
24.79174081653661	2.0685525	1.4382464
24.809686212701962	2.0327728	1.4257534
24.827632227023294	2.0461812	1.4304479
24.8455788600047	2.1340773	1.4608481
24.8635261121504	2.1608157	1.4699713
24.88147398396475	2.1789677	1.4761326
24.899422475952303	2.1764038	1.475264
24.917371588617698	2.1713505	1.4735503
24.935321322465768	2.212622	1.4874885
24.953271678001478	2.300422	1.5167142
24.97122265572994	2.4725769	1.572443
24.989174256156414	2.7639415	1.6625106
25.00712647978632	3.2516055	1.8032209
25.02507932712521	3.8038466	1.9503453
25.043032798678798	4.430465	2.104867
25.060986894952933	5.129942	2.2649374
25.078941616453637	5.891928	2.4273295
25.096896963687055	6.778221	2.6035018
25.114852937159508	7.8808665	2.8072882
25.132809537377444	8.444226	2.905895
25.150766764847468	8.44043	2.9052417
25.168724620076347	7.8163204	2.7957683
25.186683103570985	6.6783557	2.5842514
25.204642215838426	5.4971275	2.3445954
25.222601957385894	4.1905017	2.0470715
25.24056232872074	3.1918993	1.7865888
25.25852333035048	2.5940819	1.6106154
25.276484962782778	2.198435	1.482712
25.294447226525435	2.0162685	1.4199537
25.312410122086423	1.9670678	1.402522
25.330373649973843	1.9670733	1.4025239
25.348337810695988	1.946205	1.3950645
25.366302604761245	1.9296796	1.389129
25.384268032678207	1.9016373	1.3789986
25.40223409495558	1.8881259	1.3740909
25.420200792102257	1.8571451	1.3627712
25.438168124627246	1.8531586	1.3613076
25.45613609303974	1.857871	1.3630375
25.474104697849057	1.8362747	1.3550922
25.492073939564698	1.8516518	1.3607541
25.510043818696285	1.8843441	1.3727142
25.528014335753614	1.8917501	1.375409
25.54598549124664	1.8560646	1.3623745
25.56395728568544	1.8290223	1.3524135
25.58192971958028	1.8118058	1.3460333
25.59990279344156	1.8222684	1.3499142
25.617876507779833	1.8378431	1.3556707
25.635850863105826	1.8505921	1.3603647
25.653825859930386	1.8577918	1.3630084
25.671801498764548	1.8706739	1.3677258
25.68977778011949	1.8484689	1.3595841
25.707754704506524	1.8348813	1.3545779
25.725732272437153	1.8734214	1.3687298
25.743710484423012	1.9007707	1.3786844
25.761689340975888	1.9092498	1.3817561
25.77966884260774	1.9119257	1.382724
25.797648989830662	1.8860254	1.3733264
25.815629783156922	1.884454	1.3727542
25.83361122309895	1.8522282	1.3609658
25.85159331016929	1.8760232	1.3696799
25.869576044880695	1.8369205	1.3553303
25.887559427746034	1.7886506	1.3374045
25.90554345927836	1.7740914	1.3319502
25.92352813999086	1.8227266	1.350084
25.94151347039689	1.8419992	1.3572026
25.959499451009965	1.8560038	1.3623523
25.97748608234374	1.8317801	1.3534327
25.995473364912062	1.8497787	1.3600657
26.013461299228904	1.8093171	1.3451086
26.03144988580839	1.835799	1.3549166
26.04943912516483	1.8428203	1.3575052
26.067429017812675	1.8559203	1.3623216
26.085419564266537	1.8344694	1.3544259
26.103410765041186	1.8389841	1.3560915
26.12140262065155	1.800063	1.3416643
26.139395131612723	1.7689128	1.3300048
26.157388298439948	1.7510093	1.3232571
26.17538212164861	1.7876736	1.3370391
26.193376601754295	1.8312625	1.3532414
26.211371739272714	1.861325	1.3643038
26.229367534719746	1.8333986	1.3540305
26.247363988611433	1.7916888	1.3385398
26.26536110146397	1.8004783	1.341819
26.283358873793727	1.8035055	1.3429465
26.301357306117204	1.788576	1.3373766
26.319356398951104	1.7792535	1.3338866
26.33735615281224	1.797981	1.3408881
26.35535656821762	1.808469	1.3447933
26.373357645684404	1.7959816	1.3401424
26.39135938572991	1.7978934	1.3408555
26.409361788871614	1.757588	1.3257406
26.427364855627165	1.781157	1.3346
26.445368586514352	1.8482949	1.3595201
26.46337298205115	1.8620261	1.3645607
26.48137804275568	1.8163166	1.3477079
26.499383769146217	1.769257	1.3301342
26.517390161741215	1.7470895	1.3217751
26.53539722105928	1.7896763	1.3377879
26.553404947619182	1.8351133	1.3546635
26.571413341939856	1.8181683	1.3483948
26.589422404540397	1.7431064	1.3202676
26.60743213594006	1.7732064	1.331618
26.62544253665827	1.8037479	1.3430368
26.64345360721459	1.8264841	1.3514748
26.66146534812879	1.832257	1.3536088
26.679477759920758	1.8314667	1.3533169
26.69749084311057	1.8154879	1.3474004
26.71550459821847	1.803246	1.34285
26.733519025764842	1.8091575	1.3450493
26.751534126270258	1.7668738	1.329238
26.769549900255434	1.7817417	1.334819
26.787566348241267	1.8204505	1.3492408
26.80558347074881	1.8779854	1.370396
26.823601268299267	1.8390784	1.3561263
26.841619741414036	1.789117	1.3375788
26.85963889061465	1.7730685	1.3315662
26.877658716422832	1.778815	1.3337222
26.89567921936045	1.7584257	1.3260565
26.913700399949544	1.7679265	1.329634
26.93172225871233	1.8055083	1.3436921
26.949744796171174	1.8327265	1.3537823
26.967768012848605	1.8573836	1.3628587
26.98579190926733	1.8433294	1.3576927
27.003816485950225	1.8686099	1.366971
27.021841743420318	1.8473504	1.3591727
27.039867682200814	1.8474065	1.3591933
27.057894302815072	1.8221815	1.349882
27.07592160578664	1.8099419	1.3453408
27.0939495916392	1.8177491	1.3482393
27.111978260896635	1.8101381	1.3454137
27.13000761408296	1.7920865	1.3386884
27.148037651722397	1.8193299	1.3488253
27.166068374339304	1.829884	1.3527321
27.184099782458215	1.8093939	1.3451371
27.20213187660384	1.7983	1.3410071
27.22016465730105	1.8061328	1.3439244
27.23819812507487	1.8468683	1.3589953
27.256232280450533	1.869647	1.3673503
27.274267123953383	1.8309991	1.3531442
27.292302656108987	1.7934476	1.3391967
27.31033887744306	1.7704648	1.3305881
27.32837578848146	1.8115684	1.3459451
27.34641338975026	1.8086832	1.344873
27.364451681775673	1.7788092	1.3337201
27.382490665084074	1.7407491	1.3193746
27.400530340202046	1.7645108	1.3283489
27.41857070765629	1.8254317	1.3510854
27.436611767973726	1.8430959	1.3576066
27.454653521681404	1.7588513	1.3262169
27.472695969306564	1.6902348	1.3000903
27.490739111376627	1.740416	1.3192483
27.508782948419153	1.7688768	1.3299912
27.526827480961902	1.8090484	1.3450087
27.54487270953279	1.8328122	1.3538139
27.562918634659898	1.848581	1.3596253
27.580965256871508	1.8521231	1.3609273
27.599012576696026	1.8021735	1.3424505
27.617060594662068	1.8441788	1.3580054
27.63510931129842	1.857423	1.3628731
27.65315872713401	1.8362199	1.3550719
27.67120884269797	1.835987	1.354986
27.68925965851958	1.8636814	1.3651671
27.707311175128307	1.8744015	1.3690878
27.725363393053787	1.8938855	1.3761852
27.74341631282583	1.9197621	1.3855548
27.7614699349744	1.8876653	1.3739233
27.77952426002968	2.001745	1.4148303
27.797579288521973	2.0432973	1.4294395
27.815635020981784	2.3974087	1.5483568
27.83369145793979	2.4791138	1.5745202
27.85174859992682	2.397248	1.5483049
27.869806447473923	2.2690017	1.5063206
27.887865001112267	1.9793377	1.4068893
27.905924261373233	1.8578345	1.363024
27.92398422878836	1.8514776	1.3606901
27.94204490388936	1.885093	1.3729869
27.96010628720813	1.8544372	1.3617772
27.978168379276728	1.827255	1.3517599
27.9962311806274	1.8815043	1.3716794
28.014294691792568	1.9278077	1.3884552
28.0323589133048	1.8856196	1.3731787
28.050423845696887	1.8547893	1.3619065
28.068489489501758	1.8199263	1.3490465
28.086555845252523	1.8790376	1.3707799
28.104622913482487	1.9235351	1.3869157
28.122690694725115	1.9508365	1.3967235
28.14075918951405	1.9802775	1.4072233
28.15882839838312	1.9719112	1.4042475
28.176898321866304	1.8992821	1.3781444
28.1949689604978	1.8744811	1.3691169
28.213040314811945	1.8845414	1.372786
28.23111238534327	1.9073507	1.3810687
28.249185172626493	1.87749	1.3702153
28.267258677196473	1.8945922	1.3764418
28.285332899588294	1.9044499	1.3800181
28.303407840337172	1.9115418	1.3825852
28.321483499978545	1.9476207	1.3955718
28.33955987904799	1.9679672	1.4028425
28.357636978081285	1.9805499	1.4073201
28.37571479761439	1.970602	1.4037813
28.393793338183425	2.0171232	1.4202546
28.41187260032469	2.0207815	1.4215419
28.429952584574686	1.932524	1.3901525
28.448033291470065	1.9236184	1.3869457
28.46611472154769	1.9471306	1.3953962
28.484196875344566	1.9460595	1.3950124
28.502279753397914	2.0024822	1.4150909
28.52036335624511	2.0609019	1.4355842
28.538447684423716	2.0641813	1.4367259
28.556532738471482	2.015438	1.4196613
28.574618518926325	1.9783367	1.4065336
28.59270502632635	1.9688797	1.4031677
28.61079226120985	1.9750534	1.405366
28.628880224115274	1.992579	1.4115874
28.646968915581287	1.9802502	1.4072137
28.66505833614671	1.9641706	1.4014887
28.68314848635055	2.0560515	1.4338938
28.701239366732004	2.072428	1.439593
28.71933097783044	2.048567	1.4312816
28.737423320185403	2.063123	1.4363575
28.75551639433665	2.014244	1.4192407
28.773610200824074	1.9796088	1.4069858
28.791704740187793	2.0150845	1.4195367
28.80980001296809	2.077497	1.4413525
28.827896019705413	2.17747	1.4756253
28.845992760940433	2.2149172	1.4882598
28.86409023721397	2.203378	1.484378
28.88218844906704	2.1920955	1.4805727
28.900287397040845	2.216619	1.4888314
28.918387081676755	2.2555535	1.50185
28.936487503516343	2.2746701	1.508201
28.954588663101365	2.288707	1.5128473
28.97269056097374	2.3299997	1.5264337
28.990793197675597	2.3452363	1.5314164
29.00889657374923	2.3866098	1.5448656
29.027000689737125	2.4148152	1.5539676
29.04510554618196	2.3951283	1.5476202
29.06321114362659	2.423839	1.5568683
29.08131748261405	2.4944065	1.579369
29.099424563687567	2.5377235	1.5930234
29.11753238739057	2.5757558	1.6049161
29.13564095426663	2.5656226	1.6017561
29.15375026485954	2.5443563	1.5951039
29.171860319713275	2.615257	1.6171756
29.18997111937199	2.6851108	1.6386307
29.20808266438002	2.6813262	1.6374755
29.226194955281898	2.6847656	1.6385255
29.244307992622335	2.757817	1.6606677
29.26242177694624	2.8205488	1.679449
29.2805363087987	2.8376029	1.6845186
29.29865158872498	2.8728704	1.6949544
29.316767617270557	2.9066176	1.7048806
29.334884394981064	2.964562	1.7217903
29.353001922402367	3.0156715	1.7365689
29.37112020008047	3.065228	1.7507793
29.389239228561596	3.1972318	1.7880805
29.407359008392152	3.3765817	1.8375478
29.42547954011872	3.628629	1.904896
29.44360082428809	4.2118115	2.05227
29.46172286144722	5.2704773	2.295752
29.479845652143283	6.8114243	2.6098704
29.497969196923606	8.946867	2.9911313
29.516093496335728	11.620848	3.4089365
29.5342185509274	14.413396	3.7964978
29.55234436124651	16.905506	4.1116304
29.570470927841175	18.477215	4.298513
29.588598251259686	18.234364	4.270171
29.60672633205055	16.873587	4.107747
29.624855170762405	14.717266	3.836309
29.642984767944146	11.975952	3.4606287
29.66111512414481	9.063239	3.0105214
29.67924623991366	6.641182	2.577049
29.697378115800138	5.125014	2.2638493
29.71551075235387	4.279654	2.0687325
29.733644150124675	3.8138447	1.9529067
29.751778309662576	3.5772777	1.8913692
29.769913231517766	3.4479373	1.8568622
29.78804891624066	3.2954724	1.8153436
29.806185364381818	3.2078907	1.7910585
29.82432257649206	3.29721	1.8158221
29.842460553122333	3.3914058	1.8415769
29.86059929482382	3.3420253	1.8281207
29.878738802147872	3.3022008	1.8171959
29.896879075646048	3.316889	1.8212328
29.915020115870114	3.2895794	1.8137197
29.933161923371976	3.2289948	1.7969404
29.951304498703777	3.1972473	1.7880847
29.969447842417857	3.1848478	1.7846142
29.987591955066733	3.195965	1.7877263
30.005736837203123	3.188896	1.785748
30.023882489379943	3.171462	1.78086
30.04202891215028	3.1628172	1.778431
30.060176106067455	3.1168182	1.7654513
30.078324071684946	3.1325004	1.7698871
30.09647280955646	3.093524	1.7588416
30.114622320235863	3.087275	1.7570643
30.132772604277257	3.1426842	1.7727617
30.1509236622349	3.1096873	1.7634306
30.16907549466328	3.0405571	1.7437193
30.18722810211705	3.0591383	1.7490393
30.205381485151097	3.1307824	1.7694017
30.22353564432045	3.1637824	1.7787024
30.241690580180403	3.103463	1.7616649
30.25984629328638	3.010388	1.735047
30.278002784194037	2.9462786	1.7164727
30.296160053459246	2.9470863	1.716708
30.314318101638033	3.011668	1.7354158
30.332476929286646	3.0069163	1.7340462
30.35063653696153	2.9499898	1.7175534
30.368796925219307	2.915938	1.7076118
30.386958094616844	2.8851266	1.6985661
30.40512004571115	2.8707998	1.6943434
30.423282779059463	2.8968158	1.7020035
30.441446295219233	2.9382617	1.7141359
30.459610594748067	2.9110246	1.7061725
30.47777567820382	2.9024081	1.7036456
30.495941546144504	2.8732083	1.695054
30.51410819912835	2.788263	1.6698093
30.532275637713795	2.7547288	1.6597376
30.55044386245946	2.7796013	1.6672137
30.56861287392416	2.7787144	1.6669476
30.586782672666956	2.751804	1.6588563
30.604953259247047	2.703711	1.6442965
30.623124634223885	2.6872478	1.6392827
30.641296798157075	2.6958969	1.6419187
30.659469751606462	2.751334	1.6587145
30.677643495132074	2.7893772	1.6701429
30.695818029294152	2.7196732	1.6491431
30.713993354653116	2.6619184	1.6315386
30.73216947176962	2.6994603	1.6430035
30.75034638120448	2.7439802	1.6564964
30.768524083518756	2.7224762	1.6499928
30.786702579273673	2.6531746	1.6288569
30.80488186903069	2.77171	1.6648453
30.82306195335144	2.9490964	1.7172934
30.841242832797782	3.1164567	1.7653489
30.85942450793176	3.359501	1.8328941
30.877606979315637	3.76337	1.9399407
30.895790247511883	4.1885605	2.0465972
30.913974313083134	4.6136346	2.1479373
30.932159176592283	4.886441	2.2105296
30.95034483860237	4.9026423	2.2141912
30.968531299676698	4.6942167	2.166614
30.98671856037873	4.41801	2.1019063
31.00490662127215	4.012128	2.0030296
31.023095482920848	3.5535922	1.8850974
31.04128514588892	3.0646071	1.7506019
31.059475610740662	2.7482586	1.6577872
31.07766687804056	2.6425734	1.6255994
31.09585894835335	2.550577	1.5970526
31.11405182224393	2.5089076	1.5839531
31.132245500277417	2.4856496	1.5765944
31.15043998301914	2.435647	1.560656
31.168635271034628	2.3622212	1.5369519
31.18683136488964	2.3641543	1.5375807
31.20502826515008	2.4247262	1.5571532
31.223225972382135	2.484062	1.5760907
31.241424487152155	2.5103304	1.5844022
31.259623810026692	2.467528	1.5708368
31.27782394157253	2.4375238	1.5612571
31.296024882356644	2.4438531	1.5632828
31.314226632946237	2.439058	1.5617484
31.332429193908684	2.4064746	1.5512816
31.350632565811598	2.4543548	1.566638
31.368836749222787	2.475386	1.5733359
31.387041744710295	2.497028	1.5801988
31.40524755284232	2.579444	1.6060647
31.423454174187317	2.6245973	1.6200609
31.441661609313922	2.6171176	1.6177508
31.459869858791002	2.5161798	1.5862471
31.478078923187628	2.3939996	1.5472555
31.496288803073064	2.2944655	1.5147493
31.514499499016807	2.3275692	1.5256373
31.532711011588546	2.3487866	1.5325751
31.550923341358178	2.2781825	1.509365
31.56913648889584	2.2504416	1.5001472
31.587350454771844	2.2754333	1.508454
31.605565239556732	2.2608268	1.5036047
31.62378084382127	2.2763221	1.5087485
31.641997268136382	2.2566457	1.5022136
31.660214513073274	2.243296	1.4977636
31.67843257920331	2.2432218	1.4977388
31.6966514670981	2.2770462	1.5089885
31.71487117732944	2.2835357	1.5111372
31.733091710469346	2.2937903	1.5145265
31.751313067090052	2.3006375	1.5167853
31.769535247764008	2.255159	1.5017186
31.787758253063878	2.2804902	1.5101292
31.805982083562526	2.3416789	1.5302545
31.824206739833024	2.3244183	1.5246043
31.84243222244869	2.2597706	1.5032533
31.860658531983013	2.2401054	1.4966981
31.878885669009737	2.2910833	1.5136325
31.897113634102784	2.2985392	1.5160934
31.91534242783632	2.249934	1.499978
31.933572050784694	2.1873882	1.4789821
31.951802503522508	2.241953	1.4973153
31.970033786624548	2.2780838	1.5093322
31.988265900665834	2.3286595	1.5259947
32.006498846221575	2.2703397	1.5067647
32.02473262386724	2.237135	1.4957055
32.04296723417845	2.2245953	1.4915078
32.0612026777311	2.227575	1.4925063
32.07943895510129	2.2253797	1.4917706
32.097676066865304	2.2199805	1.4899598
32.115914013599685	2.2056532	1.4851441
32.13415279588115	2.2711766	1.5070423
32.152392414286666	2.3200312	1.5231649
32.1706328693934	2.2185802	1.4894899
32.18887416177875	2.1055489	1.451051
32.20711629202032	2.1250272	1.4577473
32.225359260695924	2.1753755	1.4749154
32.243603068383614	2.1581008	1.4690475
32.26184771566166	2.2139192	1.4879245
32.28009320310852	2.1509306	1.4666052
32.2983395313029	2.0881999	1.4450605
32.31658670082372	2.1052516	1.4509485
32.33483471225012	2.0783157	1.4416364
32.35308356616143	2.057874	1.4345292
32.371333263137245	2.127242	1.4585068
32.38958380375734	2.1665046	1.4719051
32.407835188601744	2.1986408	1.4827814
32.42608741825067	2.1962507	1.4819753
32.444340493284585	2.0787573	1.4417896
32.46259441428416	1.9699663	1.4035549
32.48084918183028	1.9471672	1.3954093
32.49910479650405	1.9970437	1.413168
32.51736125888683	2.1171625	1.4550472
32.53561856956014	2.0662012	1.4374287
32.5538767291058	2.0154252	1.4196568
32.572135738105764	2.0099552	1.4177289
32.59039559714228	2.1261632	1.4581369
32.608656306797776	2.0815384	1.4427538
32.62691786765491	2.0491285	1.4314778
32.645180280296586	2.1173992	1.4551286
32.663443545305896	2.1668265	1.4720144
32.68170766326619	1.9873133	1.409721
32.69997263476099	1.9668998	1.402462
32.7182384603741	1.9946387	1.4123168
32.7365051406895	2.0380278	1.4275951
32.75477267629144	2.0429947	1.4293337
32.77304106776434	2.0268018	1.4236579
32.79131031569289	1.9406683	1.3930787
32.809580420661966	1.9612525	1.4004472
32.827851383256714	1.9878521	1.4099121
32.84612320406245	2.0056787	1.4162198
32.86439588366476	2.0592613	1.4350127
32.88266942264945	2.1403267	1.4629855
32.9009438216025	2.113705	1.4538586
32.9192190811102	2.0930367	1.4467331
32.937495201758985	1.9529613	1.397484
32.95577218413556	1.880323	1.3712487
32.974050028826866	2.0406294	1.428506
32.992328736420035	2.0972755	1.4481974
33.010608307502444	1.9997929	1.4141403
33.02888874266169	2.018024	1.4205717
33.047170042485604	2.067862	1.4380063
33.06545220756225	2.036064	1.4269071
33.083735238479896	1.9560769	1.3985982
33.10201913582707	1.9112781	1.3824898
33.12030390019248	1.9542594	1.3979483
33.138589532165135	1.9933461	1.411859
33.15687603233419	1.9836688	1.4084278
33.17516340128909	2.0524724	1.4326452
33.19345163961947	1.9872491	1.4096982
33.211740747915215	1.9833239	1.4083053
33.23003072676643	2.0590475	1.4349382
33.248321576763466	2.0092597	1.4174836
33.266613298496885	1.9970433	1.4131678
33.28490589255747	2.0116415	1.4183235
33.30319935953626	1.9887842	1.4102426
33.32149370002451	2.0132616	1.4188945
33.339788914613706	2.022779	1.4222443
33.358085003895575	2.0263395	1.4234955
33.376381968462034	2.0647056	1.4369084
33.39467980890529	2.0682356	1.4381362
33.41297852581774	1.9330608	1.3903456
33.43127811979204	1.8922114	1.3755767
33.44957859142105	1.8852333	1.3730379
33.467879941297866	1.9314165	1.3897542
33.486182170015844	1.9695798	1.4034172
33.50448527816853	2.0215373	1.4218078
33.522789266349754	2.0524151	1.4326253
33.541094135153514	1.9945015	1.4122682
33.55939988517411	1.9231943	1.3867928
33.57770651700602	1.8951832	1.3766565
33.59601403124398	1.8428086	1.3575009
33.61432242848296	1.787092	1.3368216
33.632631709318154	1.832445	1.3536783
33.650941874344994	1.9570402	1.3989425
33.66925292415916	2.0372334	1.4273168
33.68756485935654	2.0376778	1.4274725
33.70587768053328	2.0651422	1.4370602
33.724191388285746	2.1249516	1.4577214
33.74250598321054	2.0230265	1.4223313
33.760821465904506	1.8926208	1.3757255
33.77913783696474	1.8281381	1.3520865
33.79745509698852	1.8638923	1.3652444
33.815773246573414	2.0177767	1.4204847
33.8340922863172	1.9240503	1.3871014
33.852412216817896	1.8214066	1.349595
33.87073303867377	1.7785313	1.3336159
33.889054752483304	1.784516	1.3358577
33.907377358845245	1.9233907	1.3868636
33.92570085835853	2.0379627	1.4275723
33.94402525162239	1.9436353	1.3941432
33.96235053923627	2.0105097	1.4179244
33.980676721799824	2.0360155	1.4268901
33.999003799912984	1.9370621	1.3917838
34.01733177417592	1.9522288	1.3972218
34.03566064518901	2.1144671	1.4541208
34.0539904135529	2.107946	1.4518766
34.07232107986846	1.9912839	1.4111286
34.090652644736785	1.9088746	1.3816203
34.108985108759235	1.8574944	1.3628993
34.12731847253742	1.8932589	1.3759575
34.14565273667313	1.9180787	1.3849472
34.16398790176847	1.9153498	1.3839617
34.18232396842574	1.8636894	1.3651701
34.20066093724749	1.8120303	1.3461168
34.21899880883651	1.8540877	1.3616489
34.23733758379583	1.9228783	1.3866788
34.25567726272874	2.01733	1.4203274
34.27401784623872	2.0748258	1.4404255
34.29235933492957	2.007648	1.4169149
34.31070172940526	1.9004151	1.3785554
34.32904503027003	2.0160763	1.419886
34.347389238128386	2.093865	1.4470193
34.36573435358502	2.1209784	1.456358
34.38408037724492	2.1347249	1.4610698
34.402427309713296	2.0617445	1.4358776
34.42077515159559	1.8805298	1.3713241
34.43912390349752	1.8706188	1.3677057
34.45747356602499	1.8755996	1.3695253
34.47582413978423	1.9727778	1.4045562
34.49417562538163	1.9585718	1.3994899
34.51252802342388	1.8089224	1.3449619
34.53088133451789	1.8954679	1.3767599
34.54923555927084	1.9800389	1.4071386
34.567590698290104	2.0082371	1.4171228
34.58594675218336	1.9016067	1.3789876
34.6043037215585	1.7457576	1.3212712
34.62266160702365	1.8213742	1.3495829
34.641020409187234	1.9574476	1.3990881
34.65938012865785	2.0007756	1.4144877
34.677740766044394	1.8269079	1.3516315
34.69610232195598	1.8254416	1.351089
34.714464797002016	1.9233772	1.3868587
34.73282819179208	1.9584743	1.399455
34.751192506936064	1.8669065	1.3663479
34.76955774304408	1.7640723	1.3281839
34.7879239007265	1.6678672	1.2914593
34.80629098059391	1.6804891	1.2963368
34.824658983257194	1.8760297	1.3696823
34.843027909327446	2.1606522	1.4699157
34.86139775941603	2.0975056	1.4482768
34.879768534134534	1.7876605	1.3370342
34.89814023409483	1.6491634	1.2841976
34.91651285990901	1.7930181	1.3390362
34.93488641218944	1.9717518	1.4041908
34.95326089154871	2.01279	1.4187282
34.97163629859967	1.8537784	1.3615353
34.99001263395542	1.8591261	1.3634977
35.00838989822934	2.036987	1.4272306
35.02676809203499	2.0095692	1.4175928
35.04514721598624	1.8032417	1.3428484
35.063527270697215	1.7633984	1.3279301
35.081908256782256	1.945931	1.3949662
35.10029017485597	2.0656767	1.4372462
35.11867302553321	1.9800049	1.4071264
35.137056809429104	1.9371881	1.391829
35.155441527159006	1.7675221	1.3294818
35.173827179338524	1.6835035	1.297499
35.19221376658354	1.8291812	1.3524723
35.21060128951017	1.8587499	1.3633598
35.2289897487348	1.6702945	1.2923987
35.24737914487405	1.744131	1.3206555
35.26576947854479	1.822077	1.3498434
35.28416075036418	1.7561117	1.3251836
35.30255296094958	1.6998218	1.3037722
35.32094611091867	1.7585293	1.3260955
35.33934020088932	1.8871516	1.3737364
35.35773523147969	2.1895986	1.4797292
35.3761312033082	2.1073449	1.4516697
35.394528116993506	1.891178	1.3752011
35.41292597315452	2.1724255	1.473915
35.431324772410434	2.2787917	1.5095667
35.449724515380666	1.9573928	1.3990686
35.46812520268491	2.1054425	1.4510143
35.486526834943106	2.2287755	1.4929084
35.504929412775454	2.3334467	1.5275624
35.52333293680242	2.4646184	1.5699103
35.54173740764471	2.3720572	1.5401484
35.560142825923286	1.7656213	1.3287668
35.5785491922594	1.2767922	1.1299523
35.59695650727454	1.7216367	1.3121115
35.61536477159042	2.396952	1.5482093
