0.008763373481513119	0.0	0.0
0.026290120649546365	0.0	0.0
0.043816868432600686	0.0	0.0
0.06134361724069026	0.052548494	0.22923458
0.07887036748382949	0.09884987	0.31440398
0.0963971195720331	0.11319202	0.3364402
0.11392387391531617	0.07300862	0.27020106
0.1314506309236943	0.03877213	0.1969064
0.1489773910071836	0.0064472063	0.0802945
0.16650415457580078	0.0	0.0
0.18403092203956356	0.012251535	0.11068665
0.20155769380849	0.040614218	0.2015297
0.2190844702925996	0.09234383	0.3038813
0.2366112519019124	0.11391397	0.33751142
0.2541380390464497	0.08472388	0.29107368
0.27166483213623416	0.07600062	0.2756821
0.28919163158128947	0.1182171	0.34382713
0.3067184377916406	0.17672229	0.4203835
0.324245251177314	0.22012295	0.46917263
0.34177207214833777	0.23370081	0.48342612
0.3592989011147415	0.18478306	0.429864
0.37682573848655654	0.100906156	0.3176573
0.39435258467381573	0.1355586	0.36818284
0.41187944008655414	0.14327879	0.37852186
0.42940630513480854	0.17071249	0.41317368
0.446933180228618	0.16572924	0.40709856
0.4644600657780234	0.17308865	0.41603926
0.48198696219306775	0.19258146	0.43884104
0.49951386988379676	0.18373927	0.4286482
0.5170407892602581	0.17889439	0.4229591
0.5345677207325025	0.12504825	0.35362163
0.5520946647105822	0.13962716	0.37366718
0.5696216216045534	0.146002	0.38210207
0.5871485918244737	0.16692203	0.40856093
0.6046755757804043	0.16276626	0.403443
0.6222025738824094	0.15719628	0.39647987
0.6397295865405557	0.15328349	0.39151436
0.6572566141649129	0.17453693	0.41777617
0.6747836571655547	0.1870205	0.43245867
0.6923107159525568	0.2181667	0.4670832
0.7098377909359992	0.24274746	0.49269408
0.7273648825259653	0.23683678	0.48665878
0.7448919911325411	0.21211384	0.46055818
0.762419117165817	0.19878875	0.44585732
0.7799462610358868	0.18670838	0.43209764
0.7974734231528482	0.20497322	0.4527397
0.8150006039268024	0.18832462	0.43396384
0.8325278037678551	0.20901665	0.4571834
0.8500550230861152	0.23052908	0.48013446
0.8675822622916969	0.2092916	0.457484
0.8851095217947171	0.17474522	0.41802537
0.9026368020052984	0.1536429	0.39197308
0.9201641033335665	0.15012525	0.38746
0.9376914261896523	0.1815051	0.42603415
0.9552187709836915	0.20672695	0.45467237
0.9727461381258234	0.25212947	0.50212497
0.990273528026193	0.2691679	0.5188139
1.0078009410949496	0.28164548	0.5307028
1.0253283777422473	0.32671094	0.5715863
1.0428558383782454	0.33552286	0.57924336
1.0603833234131086	0.34162122	0.58448374
1.0779108332570058	0.32184476	0.5673136
1.0954383683201119	0.31050414	0.557229
1.112965929012607	0.3447713	0.58717227
1.1304935157446763	0.45281303	0.67291385
1.1480211289265108	0.4996701	0.7068735
1.1655487689683062	1.3702712	1.1705859
1.1830764362802655	1.7126622	1.3086872
1.200604131272596	2.1480994	1.4656396
1.2181318543555117	2.3326962	1.5273167
1.235659605939232	2.4021773	1.5498959
1.253187386433982	4.0061855	2.0015457
1.270715196249994	6.289021	2.507792
1.2882430357975057	11.689986	3.4190621
1.3057709054867608	16.592152	4.0733466
1.3232988057280106	22.77826	4.7726574
1.3408267369315112	27.78376	5.2710304
1.358354699507526	31.275303	5.5924325
1.3758826938663256	35.138897	5.9278073
1.3934107204181858	37.28701	6.106309
1.410938779573391	37.6967	6.139764
1.4284668717422309	38.739925	6.2241406
1.4459949973350033	38.55397	6.209184
1.4635231567620117	38.469124	6.202348
1.4810513504335687	37.72255	6.1418686
1.4985795787599925	36.959187	6.0794067
1.5161078421516088	36.869816	6.072052
1.5336361410187505	35.92785	5.993984
1.5511644757717598	35.86698	5.988905
1.5686928468209842	36.19094	6.0158906
1.58622125457678	36.51264	6.042569
1.6037496994495108	37.358814	6.112186
1.621278181849548	37.04053	6.0860934
1.6388067021872719	37.49004	6.122911
1.6563352608730693	37.016766	6.0841403
1.673863858317336	36.348507	6.028972
1.6913924949304753	36.33973	6.0282445
1.7089211711228998	35.38711	5.9487066
1.7264498873050296	34.53248	5.8764343
1.7439786438872935	33.398365	5.779132
1.7615074412801288	32.245266	5.6784916
1.779036279893981	31.319294	5.5963645
1.796565160139305	30.292486	5.503861
1.814094082426564	29.702211	5.4499736
1.8316230471662298	28.897348	5.3756256
1.849152054768784	28.07901	5.298963
1.8666811056447168	27.506144	5.24463
1.8842102002045273	26.784246	5.1753497
1.901739338858724	26.113556	5.110142
1.9192685220178245	25.888014	5.0880265
1.9367977500923557	25.54352	5.05406
1.9543270234928547	25.00968	5.000968
1.971856342629867	24.155088	4.9147825
1.9893857079139496	23.629423	4.8610106
2.006915119755667	23.306173	4.8276467
2.0244445785655945	22.753838	4.770098
2.0419740847543175	21.961197	4.6862774
2.0595036387324317	21.091911	4.592593
2.0770332409105414	20.482399	4.5257483
2.094562891699263	20.323465	4.5081553
2.1120925915092217	20.258564	4.5009513
2.129622340751053	20.140326	4.4877973
2.1471521398354043	188.33965	13.723689
2.1646819891729323	444.68506	21.087557
2.182211889174303	440.85614	20.996574
2.1997418402501974	453.19702	21.288425
2.2172718428113023	433.00128	20.808683
2.234801897268317	320.6741	17.907375
2.2523320040319548	17.018131	4.1253037
2.269862163512935	16.681974	4.0843573
2.287392376121992	16.405241	4.0503383
2.304922642269869	16.206772	4.0257635
2.322452962367322	16.001719	4.0002146
2.3399833368251164	15.689247	3.9609654
2.357513766054032	15.395394	3.9236965
2.3750442504648586	15.008175	3.8740385
2.3925747904683963	14.700237	3.8340888
2.410105386475459	14.402047	3.795003
2.4276360388968707	14.113263	3.7567623
2.445166748143469	13.8968525	3.7278483
2.4626975146261025	13.617122	3.6901383
2.4802283387556323	13.582495	3.6854436
2.4977592209429305	13.408596	3.6617749
2.5152901615988825	13.298891	3.6467645
2.5328211611343865	12.916157	3.5939054
2.5503522199603523	12.552999	3.5430212
2.5678833384877024	12.496769	3.5350769
2.5854145171273712	12.425479	3.5249794
2.6029457562903064	12.364372	3.516301
2.620477056387469	12.070502	3.474263
2.6380084178298326	11.698144	3.420255
2.655539841028383	11.408468	3.3776424
2.673071326394119	11.1977625	3.3463058
2.6906028743380523	11.02966	3.3210933
2.708134485271211	10.909178	3.3029044
2.7256661596046325	10.8088455	3.2876809
2.743197897749369	10.681286	3.2682238
2.760729700116486	10.635815	3.2612596
2.778261567117063	10.298362	3.209106
2.795793499162193	10.140265	3.1843784
2.8133254966629817	10.000365	3.1623354
2.830857560030551	9.871951	3.141966
2.8483896896760337	9.815557	3.132979
2.865921886010578	9.633068	3.1037185
2.883454149445347	9.545261	3.0895407
2.9009864803915177	9.373979	3.0616953
2.91851887926028	9.26534	3.0439022
2.9360513464628384	9.084229	3.0140057
2.953583882410413	9.060543	3.0100737
2.9711164875142373	8.999614	2.9999356
2.9886491621855606	9.013208	3.0022006
3.0061819068356455	8.923784	2.9872704
3.023714721875769	8.688953	2.9477031
3.041247607717225	8.466887	2.9097917
3.0587805647713213	8.283008	2.8780215
3.0763135934493806	8.275773	2.8767643
3.0938466941627407	8.190565	2.8619163
3.1113798673227544	8.082198	2.8429208
3.1289131133407904	7.857558	2.8031335
3.1464464326282315	7.6841564	2.772031
3.1639798255964786	7.624416	2.7612345
3.1815132926569443	7.71361	2.7773387
3.1990468342210603	7.697402	2.7744193
3.216580450700272	7.707776	2.7762883
3.2341141425060416	7.5834913	2.753814
3.251647910049847	7.494786	2.7376606
3.2691817537431813	7.4353385	2.7267816
3.286715673997555	7.357617	2.7124927
3.3042496712244938	7.2967277	2.7012455
3.32178374583554	7.098392	2.6642807
3.339317898242251	7.0459623	2.6544232
3.3568521288562034	6.942938	2.6349456
3.3743864380889876	6.891754	2.625215
3.3919208263522127	6.7802763	2.6038964
3.4094552940575023	6.699894	2.5884154
3.4269898416164972	6.7008433	2.5885987
3.444524469440858	6.600229	2.569091
3.4620591779422587	6.538382	2.557026
3.479593967532391	6.4670143	2.5430324
3.4971288386229658	6.436378	2.5370018
3.5146637916257086	6.4826393	2.5461028
3.5321988269523628	6.482985	2.5461707
3.5497339450146903	6.5023627	2.549973
3.5672691462244708	6.45443	2.5405571
3.5848044309934988	6.4724817	2.5441072
3.60233979973359	6.468998	2.5434225
3.619875252856575	6.4288325	2.5355144
3.6374107907743034	6.305281	2.5110319
3.6549464138986427	6.2374086	2.4974804
3.6724821226414788	6.1753063	2.4850163
3.690017917414714	6.3036995	2.510717
3.7075537986302702	6.3399463	2.517925
3.7250897667000857	6.3884406	2.5275364
3.7426258220361235	6.5737557	2.5639336
3.7601619650503553	6.9341874	2.6332846
3.777698196154779	7.491432	2.7370481
3.7952345157614067	8.455305	2.9078007
3.8127709242822716	9.207165	3.034331
3.830307422129425	11.408951	3.377714
3.847844009714936	30.237644	5.4988766
3.8653806874508954	97.79914	9.889345
3.882917455749409	97.0464	9.851213
3.900454315022606	96.912926	9.844437
3.917991265682631	41.546207	6.445635
3.9355283081416506	11.212041	3.3484385
3.9530654428118495	8.945836	2.9909592
3.970602670105433	7.5616894	2.7498527
3.9881399904346244	6.600074	2.5690608
4.005677404211669	6.5614724	2.561537
4.023214911848827	6.4216604	2.5340996
4.0407525137583855	6.383205	2.5265005
4.058290210352644	6.357843	2.5214763
4.075828002043927	6.2591867	2.5018368
4.0933658892445814	6.2237086	2.4947362
4.110903872366966	6.19714	2.4894056
4.128441951823468	6.1388326	2.4776669
4.145980128026488	6.107023	2.471239
4.163518401388452	6.0372977	2.4570913
4.181056772321807	6.1225967	2.4743881
4.1985952412390155	6.205641	2.4911125
4.216133808552567	6.256485	2.5012968
4.233672474674966	6.2846045	2.5069113
4.251211240018741	6.4165425	2.5330896
4.268750104996445	6.6733108	2.5832753
4.286289070020643	7.6883974	2.772796
4.303828135503928	9.404527	3.0666802
4.3213673018589125	29.542202	5.4352736
4.3389065694982305	90.57305	9.516988
4.356445938834537	165.7823	12.875648
4.3739854102805085	171.45161	13.093953
4.391524984248844	172.3537	13.128355
4.409064661152262	136.4139	11.679636
4.426604441403504	96.7283	9.835054
4.444144325415337	75.77479	8.704871
4.461684313600543	21.89912	4.67965
4.47922440637193	22.2166	4.713449
4.496764604142329	20.555304	4.533796
4.5143049073245916	18.721786	4.326868
4.531845316331589	16.65866	4.0815024
4.5493858315762195	13.796318	3.7143395
4.566926453471405	11.514844	3.393353
4.584467182430081	9.448886	3.073904
4.602008018865218	8.25044	2.8723578
4.619548963189798	7.5435543	2.7465532
4.637090015816834	7.0117702	2.6479747
4.654631177159353	6.835194	2.6144204
4.672172447630417	6.5539227	2.5600631
4.689713827643102	6.381221	2.5261078
4.7072553176105085	6.138671	2.4776342
4.724796917945764	5.9119916	2.4314587
4.742338629062015	5.776219	2.4033766
4.759880451372434	5.7572527	2.3994277
4.777422385290215	5.698558	2.3871653
4.794964431228581	5.7462654	2.397137
4.812506589600768	5.727551	2.3932302
4.830048860820047	5.6706023	2.3813026
4.847591245299709	5.651706	2.3773317
4.8651337434530655	5.6047196	2.367429
4.882676355693457	5.548105	2.3554416
4.900219082434242	5.563482	2.3587034
4.917761924088813	5.4891725	2.3428984
4.935304881070575	5.5669217	2.3594325
4.952847953792969	5.5691814	2.3599112
4.970391142669449	5.537007	2.3530846
4.9879344481135055	5.535341	2.3527305
5.005477870538642	5.5596185	2.3578844
5.023021410358394	5.521862	2.3498642
5.040565067986324	5.579208	2.3620348
5.05810884383601	5.503599	2.3459752
5.075652738321066	5.4726925	2.3393786
5.09319675185512	5.381283	2.3197591
5.110740884851836	5.3692536	2.317165
5.128285137724894	5.4657135	2.3378866
5.145829510888007	5.5289664	2.3513753
5.163374004754908	5.5953074	2.3654401
5.1809186197393595	5.5629787	2.3585968
5.198463356255145	5.4488654	2.3342805
5.216008214716077	5.3424077	2.311365
5.233553195535998	5.2451925	2.2902386
5.251098299128764	5.282995	2.2984767
5.268643525908272	5.3439965	2.3117087
5.286188876288432	5.3690286	2.3171165
5.3037343506831895	5.3805995	2.319612
5.32127994950651	5.3762565	2.3186755
5.3388256731723915	5.39774	2.3233037
5.356371522094851	5.4570036	2.336023
5.373917496687938	5.3984566	2.323458
5.391463597365729	5.3406906	2.3109934
5.40900982454232	5.303162	2.3028595
5.426556178631843	5.327238	2.3080812
5.444102660048449	5.248016	2.290855
5.4616492692063225	5.159836	2.2715273
5.479196006519669	5.113648	2.2613378
5.496742872402727	5.145707	2.2684152
5.514289867269756	5.3070483	2.303703
5.531836991535049	5.3217416	2.30689
5.549384245612924	5.275519	2.2968497
5.566931629917724	5.240512	2.2892165
5.584479144863822	5.2010055	2.2805712
5.6020267908656205	5.1710477	2.2739937
5.619574568337545	5.138556	2.2668383
5.637122477694054	5.132265	2.2654502
5.654670519349629	5.1925163	2.2787094
5.672218693718784	5.0862355	2.2552683
5.689767001216059	5.1002417	2.2583714
5.707315442256021	5.059227	2.2492726
5.724864017253266	5.1174283	2.2621734
5.7424127266224225	5.1939383	2.2790213
5.75996157077814	5.1844964	2.276949
5.777510550135105	5.222196	2.2852125
5.795059665108022	5.1635556	2.2723458
5.812608916111639	5.183477	2.276725
5.830158303560715	5.3213468	2.3068044
5.847707827870055	5.3365645	2.3101006
5.86525748945448	5.3529453	2.3136432
5.8828072887288485	5.472455	2.3393278
5.900357226108044	5.5655074	2.3591328
5.917907302006979	5.6643586	2.3799913
5.9354575168406	6.3080297	2.511579
5.9530078710238765	6.951843	2.6366348
5.970558364971812	7.496156	2.737911
5.988108999099438	7.809392	2.794529
6.005659773821818	8.3463955	2.8890128
6.023210689554039	8.054964	2.838127
6.040761746711227	8.43572	2.904431
6.058312945708531	7.7432365	2.7826672
6.075864286961132	7.3023634	2.7022886
6.093415770884244	6.719325	2.5921662
6.1109673978931065	6.1963	2.4892368
6.128519168402993	5.461532	2.336992
6.146071082829204	5.341317	2.311129
6.163623141587075	5.271007	2.2958674
6.181175345091969	5.3136153	2.305128
6.198727693759281	5.2668705	2.2949662
6.216280188004435	5.205425	2.28154
6.233832828242885	5.225408	2.2859151
6.251385614890126	5.2151546	2.2836714
6.268938548361669	5.178606	2.275655
6.286491629073067	5.139588	2.267066
6.304044857439898	5.159385	2.271428
6.321598233877777	5.1528926	2.2699983
6.339151758802344	5.1580853	2.2711418
6.356705432629277	5.125887	2.2640421
6.37425925577428	5.0847516	2.2549393
6.391813228653095	5.0367017	2.2442598
6.409367351681486	4.9746943	2.2304022
6.426921625275259	5.0016932	2.2364466
6.44447604985025	4.995975	2.2351677
6.46203062582232	5.0598807	2.2494178
6.47958535360737	5.056017	2.2485588
6.497140233621328	5.085504	2.2551062
6.514695266280161	5.0661726	2.2508159
6.532250451999859	5.116388	2.2619433
6.549805791196454	5.1345453	2.2659535
6.567361284286002	5.108305	2.260156
6.584916931684597	5.030359	2.2428463
6.602472733808367	4.9925723	2.2344065
6.6200286910734665	5.0032144	2.2367866
6.637584803896092	4.9498725	2.2248309
6.655141072692462	4.9121146	2.216329
6.672697497878842	4.8664784	2.2060096
6.690254079871514	4.9237614	2.218955
6.707810819086808	4.973707	2.230181
6.725367715941078	4.983874	2.232459
6.742924770850719	4.966966	2.2286692
6.760481984232151	4.9308863	2.2205598
6.778039356501836	5.006314	2.2374794
6.795596888076266	5.0671015	2.2510223
6.813154579371963	5.091992	2.2565444
6.830712430805492	5.0687113	2.25138
6.84827044279344	5.046231	2.2463818
6.865828615752445	5.0411887	2.245259
6.883386950099159	5.077894	2.2534184
6.900945446250287	5.047639	2.246695
6.918504104622553	4.9981885	2.235663
6.936062925632727	5.013185	2.2390144
6.953621909697607	5.0950384	2.257219
6.971181057234028	5.148741	2.2690837
6.988740368658859	5.2705197	2.2957613
7.006299844389007	5.3569217	2.3145025
7.023859484841407	5.3718696	2.3177295
7.041419290433036	5.361264	2.3154404
7.058979261580902	5.417099	2.3274662
7.0765393987020495	5.673966	2.3820088
7.094099702213559	6.070347	2.4638073
7.111660172532549	6.477643	2.5451214
7.129220810076164	6.881472	2.623256
7.146781615261595	7.4751754	2.7340767
7.16434258850606	7.634017	2.7629726
7.181903730226821	8.051878	2.837583
7.1994650408411704	8.138035	2.852724
7.217026520766437	8.304453	2.8817449
7.234588170419983	8.527983	2.920271
7.252149990219215	8.496295	2.9148405
7.269711980581568	8.42772	2.9030535
7.2872741419245175	8.266886	2.8752193
7.304836474665574	7.8275003	2.797767
7.322398979222286	7.5274982	2.7436287
7.339961656012233	7.2551	2.6935291
7.357524505453039	6.9350324	2.633445
7.375087527962357	6.6256847	2.5740407
7.392650723957886	6.336405	2.5172217
7.410214093857353	5.9887614	2.4471946
7.427777638078528	5.788406	2.4059107
7.445341357039213	5.628961	2.372543
7.4629052511572525	5.487886	2.3426237
7.480469320850524	5.381329	2.3197691
7.498033566536948	5.2635956	2.2942526
7.5155979886344735	5.247095	2.290654
7.5331625875610975	5.201275	2.2806304
7.550727363734844	5.2143884	2.2835035
7.568292317573788	5.154863	2.2704322
7.585857449496025	5.1809278	2.2761652
7.603422759919705	5.220108	2.2847555
7.620988249263007	5.268452	2.295311
7.638553917944147	5.2703123	2.295716
7.656119766381391	5.199484	2.2802377
7.673685794993023	5.151933	2.269787
7.691252004197388	5.1564045	2.2707717
7.70881839441285	5.174041	2.2746518
7.726384966057826	5.1477976	2.2688758
7.743951719550762	5.1562443	2.2707365
7.761518655310149	5.2597985	2.293425
7.779085773754511	5.358068	2.3147502
7.796653075302419	5.356412	2.3143923
7.814220560372475	5.2971454	2.3015528
7.831788229383323	5.271044	2.2958753
7.8493560827536495	5.2910957	2.3002381
7.866924120902174	5.3320756	2.3091288
7.884492344247663	5.3463125	2.3122094
7.9020607532089135	5.4171777	2.3274832
7.919629348204771	5.3754964	2.3185117
7.937198129654115	5.372068	2.3177722
7.954767097975865	5.356115	2.3143282
7.972336253588986	5.3674383	2.3167732
7.989905596912472	5.425658	2.3293042
8.007475128365371	5.424029	2.3289545
8.025044848366756	5.474675	2.3398023
8.042614757335754	5.5388546	2.3534772
8.060184855691523	5.633851	2.3735735
8.07775514385327	5.7991757	2.4081478
8.095325622240228	5.908702	2.430782
8.112896291271687	5.875811	2.4240072
8.130467151366968	5.880375	2.4249485
8.148038202945436	5.924777	2.4340866
8.165609446426497	6.0457735	2.4588156
8.183180882229594	6.103711	2.470569
8.200752510774217	6.0679536	2.4633217
8.218324332479893	6.051672	2.4600146
8.235896347766193	6.029371	2.4554777
8.253468557052724	5.9942174	2.4483092
8.27104096075914	5.982352	2.4458847
8.288613559305137	6.007785	2.4510784
8.306186353110448	6.0616245	2.4620366
8.32375934259485	6.1206484	2.4739945
8.341332528178162	6.1743517	2.4848242
8.358905910280246	6.256721	2.5013437
8.376479489321003	6.229777	2.4959521
8.394053265720377	6.2530546	2.5006108
8.411627239898356	6.2663784	2.5032735
8.42920141227497	6.267658	2.503529
8.44677578327029	6.2818875	2.5063694
8.464350353304427	6.1923556	2.4884443
8.48192512279754	6.177259	2.4854093
8.499500092169827	6.179667	2.4858935
8.51707526184153	6.128461	2.4755728
8.534650632232934	6.1504183	2.4800036
8.552226203764365	6.160041	2.481943
8.569801976856192	6.2945633	2.5088968
8.587377951928834	6.323875	2.5147316
8.60495412940274	6.3477306	2.5194702
8.622530509698416	6.3670435	2.5233002
8.6401070932364	6.4959664	2.5487187
8.657683880437283	6.6025696	2.5695465
8.675260871721695	6.772255	2.6023557
8.692838067510303	6.940019	2.6343915
8.710415468223834	7.1305165	2.6703026
8.727993074283043	7.2276497	2.6884289
8.745570886108737	7.2532024	2.693177
8.763148904121765	7.275133	2.6972454
8.78072712874302	7.2368603	2.6901412
8.798305560393441	7.508819	2.7402225
8.815884199494006	7.698497	2.7746165
8.833463046465745	7.9196615	2.8141894
8.851042101729728	8.064	2.8397183
8.86862136570707	8.360496	2.891452
8.886200838818924	8.507991	2.916846
8.903780521486505	8.591244	2.9310822
8.921360414131055	8.62779	2.93731
8.938940517173874	8.745862	2.9573405
8.956520831036297	8.833387	2.9721014
8.97410135613971	9.063614	3.0105836
8.99168209290554	9.266288	3.0440578
9.009263041755265	9.59612	3.0977604
9.026844203110405	9.9065	3.1474593
9.044425577392525	10.080642	3.1750026
9.062007165023239	10.107345	3.179205
9.079588966424197	10.354941	3.2179096
9.097170982017108	10.461883	3.2344832
9.11475321222372	11.412497	3.3782387
9.132335657465825	12.219911	3.495699
9.149918318165264	12.260974	3.5015674
9.167501194743924	12.95875	3.5998263
9.18508428762374	12.770326	3.5735593
9.202667597226693	12.766693	3.573051
9.220251123974803	12.396376	3.5208488
9.237834868290143	12.090993	3.4772105
9.255418830594836	11.89059	3.4482734
9.273003011311046	11.306973	3.3625844
9.290587410860985	11.035356	3.3219507
9.308172029666911	10.428229	3.229277
9.32575686815113	10.111218	3.179814
9.343341926735997	8.83739	2.9727747
9.360927205843916	8.572593	2.9278991
9.378512705897327	8.409956	2.8999925
9.396098427318728	8.237692	2.870138
9.413684370530664	8.096979	2.845519
9.431270535955722	7.9744115	2.8239
9.448856924016539	8.000339	2.828487
9.466443535135806	7.917323	2.8137739
9.484030369736251	7.866245	2.8046827
9.501617428240658	7.74021	2.7821233
9.519204711071852	7.7623267	2.7860951
9.536792218652714	7.7806344	2.789379
9.55437995140617	7.8648467	2.8044333
9.571967909755191	7.917134	2.8137403
9.589556094122802	7.929662	2.8159657
9.60714450493207	7.9939423	2.827356
9.624733142606116	8.002531	2.8288746
9.642322007568108	8.058986	2.8388352
9.659911100241267	8.034401	2.834502
9.677500421048851	8.018968	2.8317783
9.695089970414175	8.018664	2.8317246
9.712679748760609	8.063375	2.8396084
9.730269756511557	8.155137	2.85572
9.747859994090492	8.245244	2.8714533
9.765450461920915	8.299309	2.880852
9.78304116042639	8.322665	2.884903
9.800632090030527	8.228591	2.868552
9.81822325115699	8.218302	2.866758
9.835814644229481	8.246172	2.871615
9.853406269671762	8.293033	2.8797626
9.870998127907646	8.364915	2.8922162
9.888590219360985	8.382548	2.8952632
9.906182544455698	8.397849	2.8979042
9.923775103615734	8.4095545	2.899923
9.941367897265108	8.347254	2.8891613
9.958960925827878	8.418582	2.9014792
9.97655418972816	8.427938	2.9030912
9.994147689390106	8.396939	2.8977473
10.011741425237934	8.315865	2.883724
10.029335397695904	8.24211	2.8709075
10.04692960718833	8.320849	2.8845882
10.06452405413958	8.412068	2.9003565
10.082118738974064	8.458842	2.9084089
10.099713662116246	8.431725	2.9037433
10.117308823990651	8.315366	2.8836377
10.134904225021844	8.3142605	2.883446
10.152499865634445	8.267482	2.8753228
10.170095746253125	8.300127	2.880994
10.18769186730261	8.242323	2.8709445
10.205288229207675	8.199636	2.8635008
10.222884832393145	8.187771	2.861428
10.2404816772839	8.226746	2.8682303
10.258078764304868	8.164754	2.8574033
10.275676093881035	8.153394	2.8554149
10.293273666437438	8.091607	2.844575
10.310871482399158	8.191149	2.8620183
10.32846954219134	8.223914	2.8677368
10.346067846239173	8.261852	2.8743439
10.363666394967908	8.228864	2.8685997
10.38126518880283	8.1949415	2.862681
10.398864228169298	8.199852	2.8635383
10.416463513492713	8.187138	2.8613174
10.434063045198531	8.170485	2.8584058
10.451662823712262	8.208014	2.864963
10.469262849459467	8.23768	2.870136
10.486863122865758	8.226516	2.8681903
10.504463644356806	8.233862	2.8694706
10.522064414358338	8.1743355	2.8590796
10.539665433296118	8.055447	2.8382118
10.557266701595987	8.021575	2.8322384
10.574868219683818	7.9228354	2.814753
10.592469987985552	7.835601	2.7992144
10.610072006927185	7.7095714	2.7766116
10.627674276934751	7.5987782	2.7565882
10.64527679843435	7.445259	2.7286003
10.662879571852143	7.3428755	2.709774
10.680482597614331	7.256088	2.6937127
10.698085876147173	7.1265798	2.6695654
10.715689407876988	7.0314198	2.6516824
10.733293193230146	6.958927	2.6379778
10.750897232633072	6.95793	2.6377888
10.76850152651225	6.8590016	2.6189697
10.786106075294207	6.7393236	2.5960207
10.803710879405534	6.61025	2.5710406
10.821315939272877	6.479387	2.545464
10.83892125532294	6.429123	2.5355716
10.856526827982472	6.4132886	2.532447
10.874132657678285	6.3232813	2.5146136
10.891738744837243	6.2101398	2.4920151
10.909345089886271	6.176247	2.4852057
10.926951693252343	6.129941	2.4758718
10.944558555362494	6.13229	2.476346
10.96216567664381	6.024355	2.454456
10.979773057523436	5.9599404	2.441299
10.997380698428573	5.880004	2.424872
11.014988599786477	5.8578424	2.420298
11.032596762024461	5.8508887	2.4188612
11.050205185569892	5.7816753	2.4045115
11.067813870850198	5.6903653	2.3854487
11.085422818292859	5.62866	2.3724797
11.10303202832541	5.5828266	2.3628006
11.120641501375454	5.46305	2.3373168
11.138251237870636	5.382346	2.3199885
11.155861238238671	5.3113923	2.3046458
11.173471502907317	5.3311744	2.3089335
11.191082032304402	5.295252	2.3011415
11.208692826857805	5.1765327	2.2751994
11.226303886995465	5.056021	2.2485597
11.243915213145371	5.014222	2.239246
11.261526805735578	4.9554477	2.2260835
11.279138665194196	4.9402304	2.222663
11.296750791949393	4.8499403	2.202258
11.314363186429393	4.801442	2.1912193
11.331975849062479	4.769279	2.183868
11.34958878027699	4.739016	2.176928
11.36720198050133	4.6855254	2.1646075
11.384815450163948	4.600485	2.144874
11.402429189693366	4.539188	2.130537
11.420043199518153	4.5148096	2.124808
11.437657480066942	63.465042	7.966495
11.455272031768422	85.131744	9.2266865
11.472886855051353	107.51326	10.36886
11.490501950344528	99.11777	9.9557905
11.508117318076819	84.493706	9.192046
11.52573295867715	45.86266	6.7721977
11.543348872574514	4.1737323	2.0429714
11.560965060197946	4.0824337	2.0205033
11.57858152197655	4.0495667	2.0123534
11.59619825833949	4.048842	2.0121734
11.613815269715985	4.060527	2.015075
11.631432556535323	38.578896	6.211191
11.649050119226837	83.04282	9.112783
11.666667958219929	93.41806	9.665302
11.68428607394406	107.687965	10.377281
11.701904466828756	82.54027	9.085168
11.719523137303586	65.41319	8.087842
11.737142085798196	4.6565766	2.1579103
11.754761312742286	3.7738125	1.9426303
11.772380818565619	3.742065	1.9344418
11.790000603698015	3.7634056	1.9399499
11.80762066856935	3.7543998	1.9376273
11.825241013609572	3.7168424	1.9279114
11.842861639248683	3.6796901	1.9182519
11.860482545916748	3.6247284	1.903872
11.878103734043883	3.5533674	1.8850378
11.895725204060282	3.5228353	1.8769218
11.91334695639619	3.4583902	1.8596748
11.930968991481919	3.4432478	1.855599
11.948591309747824	3.3715208	1.8361701
11.966213911624347	3.3270457	1.8240191
11.98383679754198	3.3504174	1.8304145
12.001459967931268	3.368563	1.8353646
12.019083423222835	3.3506866	1.8304881
12.036707163847352	3.3019881	1.8171374
12.05433119023556	3.2691667	1.8080837
12.071955502818259	3.243347	1.8009294
12.089580102026313	3.2104127	1.7917625
12.107204988290643	3.1464524	1.7738242
12.12483016204224	3.118991	1.7660666
12.142455623712152	3.1306844	1.769374
12.16008137373149	3.1801312	1.7832923
12.177707412531431	3.2073233	1.7909001
12.19533374054321	3.1644003	1.7788762
12.212960358198126	3.1291406	1.7689377
12.230587265927545	3.0862913	1.7567843
12.248214464162889	3.0976353	1.76001
12.265841953335649	3.0396943	1.7434719
12.283469733877375	3.011131	1.7352611
12.301097806219685	2.97217	1.7239983
12.31872617079425	2.955539	1.7191681
12.336354828032825	2.9505303	1.7177107
12.353983778367205	2.9532547	1.7185036
12.371613022229262	3.0046244	1.7333852
12.389242560050928	3.024717	1.7391714
12.406872392264201	3.017642	1.7371361
12.424502519301143	2.9909127	1.7294255
12.442132941593874	2.9585495	1.7200434
12.459763659574586	2.9559643	1.7192918
12.477394673675532	2.9327497	1.7125273
12.49502598432903	2.9090755	1.7056012
12.51265759196746	2.8925345	1.7007452
12.530289497023267	2.8528466	1.6890372
12.547921699928967	2.7967575	1.6723509
12.565554201117134	2.8154628	1.677934
12.583187001020404	2.836431	1.6841707
12.600820100071486	2.8578498	1.6905177
12.618453498703152	2.8434572	1.6862553
12.636087197348235	2.828454	1.6818008
12.65372119643964	2.867383	1.6933348
12.671355496410326	2.8407605	1.6854556
12.68899009769333	2.8824887	1.6977893
12.706625000721749	2.8823535	1.6977495
12.724260205928752	2.9942966	1.7304035
12.741895713747551	3.0073767	1.734179
12.759531524611454	3.009652	1.7348348
12.777167638953818	2.9863484	1.7281054
12.794804057208072	2.9798133	1.7262136
12.812440779807702	3.0482664	1.7459285
12.830077807186271	3.214358	1.7928631
12.847715139777405	3.2520912	1.8033556
12.865352778014795	3.46	1.8601075
12.882990722332197	3.5933115	1.8956032
12.90062897316344	3.696513	1.9226317
12.918267530942412	3.7606208	1.939232
12.935906396103071	3.6415348	1.9082806
12.953545569079449	3.784754	1.9454445
12.971185050305628	3.6255488	1.9040874
12.988824840215775	3.6641204	1.9141892
13.006464939244115	3.6977363	1.9229499
13.024105347824943	3.5493941	1.8839836
13.041746066392617	3.6064084	1.8990546
13.05938709538157	3.3778942	1.8379048
13.077028435226296	3.419899	1.8492969
13.094670086361363	3.3402832	1.8276441
13.112312049221401	3.2517302	1.8032554
13.129954324241112	3.136716	1.7710776
13.147596911855258	2.9103754	1.7059822
13.165239812498685	2.8613465	1.6915514
13.182883026606293	2.8170345	1.6784023
13.200526554613058	2.7903388	1.6704307
13.218170396954017	2.8046896	1.6747208
13.235814554064284	2.7696617	1.6642301
13.253459026379034	2.7236724	1.6503552
13.271103814333523	2.6706057	1.6341988
13.288748918363058	2.690168	1.6401731
13.306394338903031	2.7324233	1.6530043
13.32404007638889	2.74523	1.6568736
13.341686131256164	2.7524586	1.6590536
13.359332503940449	2.6963143	1.6420457
13.376979194877402	2.6741712	1.6352893
13.394626204502751	2.6850703	1.6386184
13.412273533252307	2.7056148	1.6448753
13.429921181561937	2.7071707	1.6453482
13.447569149867581	2.7483106	1.6578029
13.465217438605247	2.8060944	1.6751401
13.482866048211022	2.7855144	1.6689861
13.500514979121052	2.7469866	1.6574036
13.518164231771568	2.688044	1.6395255
13.535813806598844	2.711247	1.6465864
13.553463704039254	2.7214506	1.6496819
13.571113924529229	2.746723	1.6573241
13.588764468505275	2.7210999	1.6495757
13.606415336403956	2.7091663	1.6459545
13.624066528661917	2.7011015	1.6435028
13.641718045715882	2.7739906	1.6655301
13.659369888002635	2.868426	1.6936429
13.67702205595903	2.9289315	1.7114121
13.694674550021993	2.982569	1.7270116
13.712327370628532	3.0104165	1.7350552
13.729980518215713	3.0993538	1.7604982
13.747633993220681	3.1928794	1.786863
13.765287796080647	3.2404416	1.8001226
13.7829419272329	3.285022	1.8124629
13.800596387114801	3.264831	1.8068844
13.818251176163775	3.2708676	1.808554
13.835906294817324	3.312848	1.8201231
13.853561743513023	3.3344738	1.8260542
13.871217522688525	3.4360914	1.8536698
13.888873632781538	3.4874444	1.86747
13.906530074229858	3.5412014	1.881808
13.92418684747135	3.5425048	1.8821543
13.941843952943948	3.5263288	1.8778522
13.959501391085665	3.504145	1.8719361
13.977159162334578	3.4104433	1.8467386
13.994817267128846	3.3491485	1.8300679
14.012475705906693	3.278455	1.8106505
14.030134479106424	3.2519011	1.8033029
14.047793587166414	3.2021763	1.7894626
14.065453030525108	3.1401374	1.7720433
14.083112809621026	3.0784647	1.7545555
14.100772924892766	3.0220263	1.7383976
14.118433376778997	2.958071	1.7199043
14.136094165718458	2.869062	1.6938306
14.153755292149969	2.8114924	1.6767505
14.171416756512416	2.743241	1.6562732
14.189078559244768	2.6682	1.6334625
14.20674070078606	2.615155	1.6171441
14.224403181575408	2.5388987	1.5933923
14.242066002051999	2.4825993	1.5756266
14.259729162655093	2.4386778	1.5616267
14.277392663824022	2.4467313	1.5642031
14.295056505998208	2.4594474	1.5682626
14.312720689617128	2.420283	1.5557259
14.330385215120348	2.3989687	1.5488604
14.348050082947497	2.3838341	1.543967
14.3657152935383	2.392341	1.5467194
14.383380847332528	2.3888564	1.5455925
14.401046744770051	2.401326	1.5496212
14.418712986290798	2.3999457	1.5491759
14.436379572334793	2.3995085	1.5490347
14.454046503342123	2.3965034	1.5480645
14.471713779752946	2.3600233	1.5362368
14.489381402007504	2.3524609	1.5337734
14.507049370546113	2.3342013	1.5278094
14.524717685809168	2.3447232	1.5312489
14.542386348237134	2.325219	1.5248668
14.560055358270553	2.369994	1.5394784
14.577724716350051	2.4186323	1.5551952
14.595394422916325	2.4664993	1.5705093
14.61306447841015	2.5037153	1.5823133
14.63073488327237	2.5173104	1.5866034
14.648405637943917	2.553603	1.5979997
14.6660767428658	2.5489156	1.5965323
14.683748198479094	2.552812	1.5977522
14.701420005224954	2.5510519	1.5972012
14.719092163544628	2.59518	1.6109562
14.73676467387942	2.637316	1.6239815
14.754437536670727	2.685214	1.6386622
14.772110752360014	2.7254307	1.6508878
14.78978432138882	2.6811736	1.637429
14.807458244198777	2.657372	1.6301448
14.82513252123159	2.6370609	1.623903
14.842807152929028	2.697954	1.642545
14.860482139732962	2.6760375	1.6358598
14.87815748208531	2.6538057	1.6290506
14.8958331804281	2.663572	1.6320454
14.91350923520342	2.637962	1.6241804
14.931185646853438	2.6673877	1.6332139
14.948862415820408	2.6255786	1.6203637
14.966539542546656	2.6206038	1.6188279
14.98421702747459	2.6467235	1.6268754
15.001894871046696	2.7182465	1.6487105
15.019573073705542	2.7272348	1.6514342
15.037251635893766	2.6955764	1.641821
15.054930558054092	2.6928697	1.6409966
15.072609840629323	2.7619	1.6618965
15.090289484062351	2.8892908	1.6997914
15.107969488796124	3.1614876	1.7780572
15.125649855273691	3.547454	1.8834686
15.14333058393817	4.031752	2.0079224
15.161011675232768	4.90981	2.215809
15.17869312960076	6.299767	2.5099337
15.196374947485506	8.17459	2.859124
15.214057129330447	11.355193	3.3697467
15.231739675579114	16.153957	4.0191984
15.249422586675102	21.306734	4.615922
15.267105863062092	24.543852	4.954175
15.284789505183847	24.863413	4.9863224
15.302473513484218	22.793518	4.7742558
15.320157888407127	19.09754	4.3700733
15.337842630396578	14.876409	3.8569949
15.355527739896656	11.583288	3.403423
15.37321321735153	9.070282	3.0116909
15.39089906320545	6.6187816	2.5726993
15.408585277902748	4.948968	2.2246275
15.42627186188783	3.815741	1.9533921
15.443958815605198	3.280694	1.8112686
15.461646139499424	3.0133257	1.7358934
15.479333834015168	2.8751109	1.6956152
15.497021899597165	2.7799735	1.6673253
15.514710336690234	2.716934	1.6483124
15.53239914573928	2.6570995	1.6300611
15.550088327189297	2.6082284	1.6150011
15.567777881485336	2.5444496	1.5951331
15.58546780907256	2.4553614	1.5669593
15.6031581103962	2.4566622	1.5673743
15.620848785901568	2.452936	1.5661851
15.638539836034063	2.4835844	1.5759392
15.656231261239173	2.4849083	1.5763592
15.673923061962451	2.4866	1.5768957
15.691615238649552	2.462725	1.5693071
15.709307791746202	2.4329734	1.5597992
15.727000721698221	2.41655	1.5545256
15.744694028951498	2.3995113	1.5490357
15.76238771395202	2.4023933	1.5499656
15.780081777145844	2.429757	1.5587678
15.797776218979125	2.4333804	1.5599296
15.815471039898094	2.450943	1.5655488
15.833166240349064	2.4282336	1.558279
15.850861820778437	2.4029818	1.5501554
15.868557781632699	2.3554738	1.5347552
15.886254123358412	2.3509755	1.5332891
15.903950846402232	2.3302379	1.5265117
15.921647951210897	2.3331177	1.5274546
15.939345438231225	2.3552966	1.5346975
15.957043307910133	2.384189	1.5440819
15.974741560694602	2.4086587	1.5519854
15.992440197031714	2.4454784	1.5638026
16.01013921736862	2.4537442	1.5664432
16.02783862215259	2.4669356	1.5706482
16.045538411830933	2.4421878	1.5627501
16.06323858685107	2.4536924	1.5664266
16.080939147660512	2.451526	1.565735
16.09864009470684	2.441585	1.5625572
16.11634142843774	2.4491909	1.5649891
16.134043149300954	2.478485	1.5743206
16.15174525774433	2.4852538	1.5764688
16.169447754215817	2.517606	1.5866966
16.18715063916342	2.4705114	1.571786
16.204853913035244	2.4280772	1.5582289
16.222557576279478	2.4263914	1.5576879
16.240261629344403	22.429115	4.7359385
16.257966072678386	42.97156	6.5552697
16.275670906729868	38.086994	6.1714664
16.293376131947387	2.5320065	1.591228
16.31108174877957	2.5228274	1.5883411
16.328787757675133	2.5099077	1.5842688
16.34649415908287	2.5038888	1.5823681
16.364200953451657	2.5613127	1.6004101
16.38190814123048	2.6050193	1.6140072
16.39961572286839	2.6552725	1.6295006
16.41732369881455	2.6935644	1.6412082
16.43503206951817	2.7231767	1.650205
16.45274083542859	2.762649	1.6621219
16.47044999699522	2.8090146	1.6760116
16.488159554667558	2.870077	1.6941302
16.505869508895184	2.896099	1.701793
16.523579860127786	2.9008398	1.7031852
16.541290608815117	2.937385	1.7138802
16.559001755407035	3.0146103	1.7362633
16.57671330035348	3.09875	1.7603267
16.59442524410448	3.1387606	1.7716547
16.61213758711015	3.2250555	1.795844
16.629850329820705	3.314089	1.820464
16.647563472686436	3.3877187	1.8405757
16.665277016157724	3.399082	1.8436599
16.682990960685053	3.4166825	1.848427
16.70070530671898	3.447462	1.8567343
16.718420054710155	3.4728777	1.8635659
16.736135205109335	3.5455618	1.8829663
16.753850758367335	3.6241915	1.903731
16.771566714935087	3.7268002	1.9304922
16.789283075263597	3.7770758	1.94347
16.80699983980398	3.8596447	1.9645978
16.82471700900741	3.9605336	1.990109
16.84243458332518	4.011581	2.0028932
16.860152563208665	4.108446	2.0269303
16.87787094910932	4.1933084	2.047757
16.89558974147871	4.2247334	2.0554156
16.913308940768466	4.2337537	2.0576088
16.931028547430333	4.2137756	2.0527482
16.94874856191613	4.227354	2.056053
16.966468984677785	4.284823	2.0699813
16.98418981616729	4.365984	2.0894938
17.00191105683676	4.459886	2.1118443
17.019632707138374	4.5618973	2.1358597
17.03735476752442	4.6212807	2.1497164
17.05507723844728	4.6370983	2.1533923
17.072800120359403	4.621155	2.149687
17.090523413713353	4.626689	2.150974
17.108247118961785	4.682728	2.1639612
17.125971236557437	4.683335	2.1641014
17.143695766953133	4.7025394	2.168534
17.161420710601806	4.676209	2.1624544
17.179146067956477	4.6807327	2.1635
17.19687183947025	4.702449	2.168513
17.21459802559634	4.751615	2.17982
17.232324626788028	4.785576	2.1875958
17.25005164349871	4.7520266	2.1799142
17.267779076181863	4.6957364	2.1669648
17.285506925291074	4.6439786	2.1549892
17.30323519127999	4.588165	2.1420002
17.320963874602384	4.537612	2.130167
17.33869297571211	4.4928293	2.1196296
17.356422495063114	4.517765	2.1255035
17.37415243310944	4.502725	2.1219625
17.391882790305218	4.4883785	2.1185794
17.40961356710468	4.4760513	2.115668
17.42734476396215	4.5056806	2.1226587
17.445076381332044	4.5431304	2.131462
17.462808419668868	4.6007233	2.1449296
17.48054087942723	4.7420425	2.177623
17.498273761061835	5.036748	2.24427
17.51600706502747	5.540518	2.3538303
17.533740791779024	6.24942	2.4998841
17.551474941771485	7.6770487	2.7707489
17.56920951545993	8.820661	2.9699597
17.586944513299528	11.02658	3.3206294
17.60467993574556	12.751132	3.5708728
17.622415783253373	14.504486	3.8084755
17.64015205627843	15.982489	3.9978104
17.657888755276293	17.063248	4.1307683
17.675625880702604	17.563986	4.190941
17.69336343301311	17.407776	4.1722627
17.71110141266366	16.632084	4.078245
17.728839820110178	15.619438	3.9521434
17.746578655808705	14.6053295	3.821692
17.764317920215372	12.977264	3.602397
17.7820576137864	11.374858	3.3726633
17.79979773697811	9.312638	3.0516615
17.81753829024692	7.4739704	2.7338564
17.835279274049356	5.81697	2.4118395
17.85302068884201	4.84013	2.2000296
17.870762535081607	4.2081885	2.051387
17.888504813224934	3.9135506	1.9782696
17.90624752372891	3.7021754	1.9241037
17.923990667050536	3.6592512	1.9129169
17.941734243646895	3.5808103	1.8923029
17.959478253975185	3.5334	1.879734
17.9772226984927	3.4689846	1.862521
17.994967577656833	3.4827244	1.8662059
18.01271289192506	3.473123	1.8636317
18.030458641754965	3.4543705	1.8585937
18.04820482760425	3.4195378	1.8491992
18.06595144993067	3.381483	1.8388809
18.083698509192125	3.3522422	1.830913
18.101446005846576	3.29905	1.8163288
18.119193940352105	3.2582006	1.8050487
18.136942313166887	3.234459	1.7984601
18.1546911247492	3.2186	1.7940457
18.1724403755574	3.2234323	1.7953919
18.19019006604997	3.2181985	1.7939339
18.207940196685467	3.1804128	1.7833712
18.225690767922575	3.116638	1.7654002
18.243441780220046	3.088986	1.7575511
18.261193234036764	3.0868027	1.7569299
18.278945129831676	3.1057777	1.7623217
18.29669746806386	3.1132288	1.7644345
18.314450249192483	3.1242113	1.7675439
18.3322034736768	3.0888267	1.7575058
18.349957141976184	3.1118982	1.7640573
18.3677112545501	3.1274424	1.7684577
18.385465811858108	3.1009705	1.7609572
18.403220814359884	3.087009	1.7569886
18.420976262515172	3.1042168	1.7618787
18.43873215678387	3.143744	1.7730607
18.456488497625923	3.166913	1.7795823
18.474245285501407	3.2495894	1.8026618
18.492002520870486	3.3053005	1.8180485
18.50976020419343	3.3991585	1.8436807
18.527518335930615	3.7170134	1.9279557
18.545276916542516	4.2966113	2.0728269
18.563035946489688	4.4313455	2.105076
18.580795426232832	4.8976617	2.213066
18.598555356232698	4.806499	2.1923728
18.616315736950185	5.140046	2.267167
18.63407656884626	4.804781	2.191981
18.65183785238201	4.971202	2.2296193
18.669599588018617	4.7464833	2.1786425
18.68736177621737	4.724807	2.1736622
18.705124417439652	4.715637	2.1715517
18.72288751214696	4.517367	2.1254098
18.740651060800886	4.640733	2.154236
18.758415063863115	4.345569	2.0846028
18.77617952179546	4.554985	2.134241
18.793944435059814	4.3299117	2.080844
18.811709804118184	4.317769	2.0779243
18.829475629432675	4.2429485	2.0598419
18.8472419114655	3.996939	1.9992346
18.86500865067897	4.126733	2.0314362
18.88277584753551	3.8210318	1.954746
18.90054350249763	3.826863	1.956237
18.918311616027957	3.4723325	1.8634195
18.936080188589226	3.3655782	1.8345512
18.953849220644265	3.0689745	1.7518489
18.971618712656007	2.8979943	1.7023497
18.9893886650875	2.8372197	1.6844049
19.007159078401887	7.9993334	2.8283093
19.024929953062408	32.928394	5.7383265
19.042701289532435	32.8725	5.7334547
19.060473088275405	25.436752	5.043486
19.07824534975489	2.6924062	1.6408553
19.096018074434568	2.6533165	1.6289004
19.113791262778197	2.650474	1.6280277
19.13156491524966	2.6348355	1.6232176
19.149339032312945	2.615717	1.6173178
19.167113614432136	2.6075013	1.6147759
19.184888662071433	2.5829983	1.6071709
19.202664175695123	2.5869114	1.6083878
19.220440155767623	2.5879748	1.6087184
19.238216602753447	2.5752792	1.6047677
19.2559935171172	2.54784	1.5961955
19.27377089932361	2.5368755	1.5927572
19.291548749837514	2.5475838	1.5961152
19.309327069123835	2.5206149	1.5876445
19.32710585764763	2.5037262	1.5823168
19.344885115874032	2.5459876	1.5956151
19.362664844268313	2.5600412	1.6000129
19.380445043295822	2.5449197	1.5952804
19.39822571342203	2.504749	1.5826399
19.41600685511252	2.4978716	1.5804657
19.43378846883297	2.4982505	1.5805855
19.451570555049173	2.5167263	1.5864193
19.469353114227037	2.5103781	1.5844172
19.48713614683254	2.4961817	1.5799309
19.50491965333182	2.516223	1.5862607
19.52270363419109	2.5248895	1.5889901
19.540488089876686	2.5284588	1.5901128
19.55827302085503	2.504059	1.5824219
19.576058427592674	2.4980354	1.5805174
19.593844310556282	2.461796	1.5690112
19.611630670212598	2.4708927	1.5719073
19.629417507028506	2.4774017	1.5739764
19.64720482147098	2.462414	1.5692081
19.6649926140071	2.4625149	1.5692402
19.682780885104084	2.5056176	1.5829142
19.70056963522921	2.5089343	1.5839616
19.718358864849908	2.4678962	1.570954
19.7361485744337	2.4359775	1.5607618
19.753938764448215	2.4712834	1.5720316
19.771729435361202	2.4903042	1.5780698
19.789520587640506	2.4821765	1.5754925
19.807312221754092	2.492099	1.5786383
19.825104338170043	2.534563	1.5920311
19.842896937356517	2.5652843	1.6016505
19.860690019781824	2.5511363	1.5972277
19.87848358591436	2.5463924	1.595742
19.896277636222635	2.5261614	1.5893903
19.914072171175278	2.5264018	1.5894659
19.931867191241015	2.5227587	1.5883194
19.94966269688869	2.5420752	1.5943886
19.967458688587264	2.5479696	1.5962361
19.985255166805807	2.534436	1.5919912
20.00305213201348	2.4956346	1.5797578
20.020849584679578	2.4803927	1.5749263
20.038647525273507	2.4988296	1.5807687
20.05644595426477	2.5145159	1.5857226
20.07424487212299	2.502188	1.5818306
20.092044279317903	2.4843225	1.5761734
20.109844176319353	2.4685133	1.5711503
20.127644563597304	2.4392083	1.5617965
20.145445441621817	2.407172	1.5515064
20.16324681086307	2.420474	1.5557873
20.181048671791373	2.4432163	1.5630791
20.198851024877122	2.4235046	1.5567609
20.216653870590836	2.4189034	1.5552824
20.234457209403146	2.398482	1.5487033
20.252261041784802	2.3955066	1.5477425
20.270065368206662	2.3694713	1.5393087
20.287870189139685	2.4127755	1.5533111
20.305675505054968	2.4123702	1.5531807
20.323481316423702	2.4101124	1.5524536
20.341287623717207	2.400976	1.5495083
20.359094427406884	2.3926764	1.5468278
20.376901727964288	2.3667645	1.5384293
20.39470952586107	2.342143	1.5304061
20.41251782156899	2.3437467	1.53093
20.430326615559935	2.364059	1.5375496
20.448135908305886	2.3803935	1.5428524
20.465945700278965	2.3224244	1.5239502
20.483755991951384	2.310375	1.5199918
20.50156678379548	2.3099482	1.5198513
20.519378076283708	2.3215137	1.5236514
20.537189869888635	2.3377335	1.5289649
20.55500216508294	2.3332684	1.527504
20.572814962339415	2.3196113	1.5230271
20.59062826213098	2.2818463	1.5105782
20.60844206493066	2.2812254	1.5103726
20.626256371211593	2.284526	1.5114648
20.644071181447032	2.266592	1.5055205
20.66188649611036	2.2873578	1.5124013
20.67970231567506	2.3255124	1.5249631
20.697518640614742	2.3487024	1.5325477
20.715335471403122	2.3475068	1.5321575
20.73315280851404	2.3386858	1.5292763
20.750970652421447	2.348548	1.5324973
20.768789003599412	2.362951	1.5371894
20.786607862522136	2.3505414	1.5331476
20.8044272296639	2.3236964	1.5243676
20.82224710549913	2.2996984	1.5164757
20.84006749050237	2.2984958	1.5160791
20.857888385148268	3.8428676	1.9603233
20.8757097899116	45.973503	6.7803764
20.893531705267254	64.849724	8.052933
20.911354131690224	83.87431	9.158292
20.92917706965566	69.113365	8.313445
20.94700051963877	50.142853	7.081162
20.96482448211493	29.398207	5.4220114
20.982648957559622	4.1838336	2.045442
21.00047394644843	2.3128603	1.520809
21.01829944925707	2.291963	1.513923
21.036125466461375	2.2732217	1.5077207
21.053951998537297	2.292809	1.5142025
21.071779045960906	2.3220468	1.5238264
21.089606609208378	2.2884793	1.5127721
21.10743468875603	2.2766325	1.5088514
21.12526328508028	2.2656505	1.5052078
21.143092398657675	2.255744	1.5019134
21.16092202996488	2.196238	1.481971
21.17875217947867	2.200363	1.4833621
21.19658284767596	2.2277603	1.4925684
21.21441403503377	2.239164	1.4963837
21.232245742029225	2.2081306	1.485978
21.2500779691396	2.1851897	1.4782387
21.26791071684227	2.1665828	1.4719317
21.28574398561475	2.1581306	1.4690578
21.30357777593465	2.1884573	1.4793435
21.321412088279704	2.1738975	1.4744143
21.339246923127792	2.1633646	1.4708381
21.357082280956888	2.142382	1.4636878
21.3749181622451	2.1619165	1.4703457
21.392754567470647	2.1972218	1.4823029
21.41059149711187	2.2084103	1.4860721
21.42842895164726	2.1976113	1.4824343
21.446266931555378	2.184681	1.4780666
21.464105437314945	2.1481006	1.46564
21.481944469404798	2.1307545	1.4597104
21.49978402830388	2.1042833	1.4506148
21.51762411449127	2.108999	1.4522393
21.53546472844617	2.0868008	1.4445764
21.553305870647876	2.091229	1.4461082
21.571147541575865	2.0774486	1.4413357
21.58898974170967	2.0673563	1.4378304
21.60683247152899	2.0550058	1.4335291
21.62467573151363	2.102331	1.4499418
21.642519522143523	2.1316671	1.460023
21.660363843898722	2.133726	1.4607278
21.6782086972594	2.1068664	1.4515048
21.696054082705864	2.1068308	1.4514927
21.713900000718535	2.0566368	1.4340979
21.73174645177795	2.0101314	1.417791
21.749593436364794	1.9831611	1.4082475
21.767440954959845	2.0060775	1.4163606
21.785289008044032	2.0253336	1.4231422
21.803137596098388	2.0459175	1.4303558
21.820986719604086	2.0688372	1.4383453
21.838836379042412	2.0848043	1.4438851
21.85668657489478	2.085878	1.4442569
21.87453730764273	2.0614378	1.4357709
21.892388577767914	2.0225737	1.4221722
21.91024038575213	2.0017025	1.4148154
21.928092732077285	1.998505	1.4136848
21.945945617225426	2.0269406	1.4237067
21.963799041678694	2.0408192	1.4285724
21.981653005919398	31.35889	5.5999007
21.999507510429943	78.16837	8.841288
22.01736255569286	73.13191	8.55172
22.035218142190818	4.22842	2.056312
22.05307427040661	2.0465899	1.4305907
22.07093094082315	2.0385041	1.4277619
22.088788153923474	2.0662644	1.4374506
22.106645910190746	2.0577102	1.4344721
22.12450421010827	2.0576992	1.4344683
22.142363054159464	2.0578754	1.4345297
22.16022244282787	2.055505	1.4337033
22.178082376597164	2.0151992	1.4195771
22.195942855951145	1.9817222	1.4077365
22.213803881373742	1.9666764	1.4023824
22.231665453349002	1.992439	1.4115378
22.24952757236111	2.0204768	1.4214348
22.26739023889438	2.0411077	1.4286734
22.28525345343323	1.9996157	1.4140776
22.30311721646225	1.9699427	1.4035465
22.320981528466113	1.958926	1.3996164
22.33884638992964	1.9958028	1.4127288
22.356711801337788	1.9918789	1.4113394
22.37457776317561	1.9882299	1.4100461
22.392444275928337	1.9608138	1.4002906
22.410311340081282	1.9690634	1.4032332
22.428178956119904	1.9478462	1.3956527
22.446047124529805	1.9418696	1.3935099
22.46391584579669	1.947333	1.3954687
22.481785120406414	1.9628236	1.4010081
22.49965494884496	1.9951566	1.4125001
22.51752533159841	2.02902	1.4244368
22.53539626915302	2.0098505	1.417692
22.553267761995137	1.9677732	1.4027734
22.571139810611264	1.9261655	1.3878636
22.589012415488025	1.9289609	1.3888704
22.60688557711216	1.9279897	1.3885207
22.624759295970566	1.9518499	1.3970863
22.642633572550263	1.9632107	1.4011462
22.660508407338362	1.9875251	1.4097961
22.67838380082217	1.9894996	1.4104962
22.696259753489077	2.0127566	1.4187165
22.714136265826614	2.0400922	1.428318
22.73201333832246	1.9926931	1.4116278
22.74989097146439	1.9343492	1.3908088
22.76776916574035	1.89894	1.3780203
22.785647921638393	1.903061	1.3795148
22.803527239646712	1.8693459	1.3672403
22.82140712025363	1.861213	1.3642628
22.839287563947593	1.892008	1.3755028
22.85716857121719	1.9339851	1.3906779
22.875050142551135	1.9572313	1.3990108
22.892932278438277	1.9267702	1.3880814
22.910814979367604	1.9192308	1.3853631
22.928698245828222	1.956877	1.3988842
22.946582078309387	1.9959198	1.4127703
22.96446647730047	1.9598272	1.3999382
22.98235144329098	1.9104906	1.382205
23.000236976770562	1.8866888	1.3735679
23.018123078229	1.8907053	1.3750292
23.03600974815619	1.8966838	1.3772014
23.053896987042194	1.9240514	1.3871018
23.071784795377173	1.9238999	1.3870472
23.08967317365145	1.9137433	1.3833811
23.10756212235546	1.9062827	1.380682
23.125451641979787	1.8927393	1.3757687
23.143341733015134	1.9236271	1.3869488
23.161232395952357	1.9129016	1.3830769
23.179123631282426	1.9124703	1.382921
23.197015439496468	1.946427	1.3951441
23.214907821085717	1.9548004	1.3981417
23.23280077654157	1.9601191	1.4000425
23.250694306355538	1.9276916	1.3884133
23.268588411019277	1.9312048	1.389678
23.28648309102458	1.9605947	1.4002124
23.304378346863356	1.9855906	1.4091098
23.322274179027676	1.9736134	1.4048535
23.340170588009723	1.937618	1.3919835
23.358067574301852	1.915703	1.3840892
23.37596513839651	1.9344544	1.3908466
23.39386328078629	1.9929197	1.4117081
23.411762001963947	1.9828024	1.4081202
23.429661302422353	2.0063105	1.4164429
23.4475611826545	1.978545	1.4066076
23.46546164315356	1.9674765	1.4026676
23.48336268441279	1.9766401	1.4059303
23.501264306925638	2.0108166	1.4180326
23.51916651118564	2.0031664	1.4153327
23.537069297686497	1.9606041	1.4002157
23.554972666922037	1.9688467	1.4031559
23.57287661938623	1.995715	1.4126978
23.59078115557318	1.996895	1.4131154
23.608686275977128	1.9794685	1.4069358
23.62659198109246	2.0013468	1.4146897
23.6444982714137	1.9858065	1.4091865
23.66240514743549	1.9647901	1.4017097
23.68031260965263	1.9170202	1.384565
23.698220658560068	1.9052091	1.3802931
23.716129294652845	1.9148431	1.3837786
23.7340385184262	1.938111	1.3921605
23.75194833037546	1.9532546	1.3975888
23.769858730996123	1.9258413	1.3877468
23.78776972078382	1.8850113	1.3729571
23.80568130023431	1.8702797	1.3675817
23.823593469843495	1.8594652	1.3636221
23.841506230107424	1.904241	1.3799424
23.859419581522275	1.9303831	1.3893822
23.87733352458438	1.9549339	1.3981895
23.89524805979019	1.9763198	1.4058164
23.913163187636318	1.9893618	1.4104474
23.931078908619508	1.991567	1.4112289
23.948995223236633	2.0086038	1.4172522
23.966912131984735	2.0250938	1.4230579
23.98482963536096	2.016367	1.4199884
24.002747733862616	2.0228224	1.4222596
24.020666427987155	2.0195532	1.4211098
24.038585718232156	2.042066	1.4290087
24.056505605095353	2.0354452	1.4266903
24.074426089074617	2.0460494	1.4304018
24.092347170667946	2.0726247	1.4396613
24.110268850373515	2.0826724	1.4431467
24.128191128689586	2.04488	1.429993
24.146114006114626	2.0073302	1.4168028
24.164037483147187	2.0534256	1.4329779
24.181961560286005	2.0938258	1.4470059
24.199886238029926	2.1075945	1.4517556
24.21781151687797	2.0693955	1.4385394
24.235737397329274	2.077187	1.441245
24.253663879883135	2.0228615	1.4222734
24.271590965038975	1.9573125	1.3990399
24.289518653296376	1.9894409	1.4104754
24.30744694515505	2.027878	1.4240358
24.32537584111486	2.0145888	1.4193621
24.34330534167581	1.9736167	1.4048547
24.361235447338046	1.9944476	1.4122491
24.379166158601876	2.0043278	1.4157429
24.39709747596772	2.0130272	1.4188119
24.41502939993615	1.9917985	1.4113109
24.432961931007917	1.968135	1.4029024
24.450895069683856	1.963716	1.4013265
24.468828816465	1.9693503	1.4033355
24.4867631718525	2.0205874	1.4214737
24.504698136347656	2.012475	1.4186172
24.52263371045192	1.9771283	1.406104
24.540569894666874	2.0165825	1.4200642
24.558506689494266	2.009385	1.4175278
24.57644409543597	1.9917859	1.4113065
24.594382112994012	1.9658144	1.402075
24.61232074267057	1.9541512	1.3979095
24.630259984967953	1.9433328	1.3940347
24.64819984038863	1.9613767	1.4004916
24.66614030943522	1.950904	1.3967477
24.684081392610462	1.9351832	1.3911086
24.702023090417274	1.9072875	1.3810458
24.7199654033587	1.9274802	1.3883373
24.737908331937927	1.8958294	1.3768913
24.755851876658305	1.9436911	1.3941633
24.773796038023324	1.977093	1.4060913
24.79174081653661	2.0311832	1.4251958
24.809686212701962	2.0601363	1.4353175
24.827632227023294	2.0899584	1.4456688
24.8455788600047	2.0870645	1.4446676
24.8635261121504	2.080929	1.4425426
24.88147398396475	2.12746	1.4585814
24.899422475952303	2.1354828	1.4613291
24.917371588617698	2.150259	1.4663762
24.935321322465768	2.1635034	1.4708853
24.953271678001478	2.2626972	1.5042264
24.97122265572994	2.4904118	1.5781039
24.989174256156414	2.8789005	1.6967323
25.00712647978632	3.3193097	1.8218973
25.02507932712521	3.8724003	1.9678415
25.043032798678798	4.3470006	2.0849462
25.060986894952933	4.957983	2.2266529
25.078941616453637	5.694048	2.3862205
25.096896963687055	6.7021713	2.5888553
25.114852937159508	7.8867455	2.808335
25.132809537377444	8.348366	2.8893538
25.150766764847468	8.383939	2.8955033
25.168724620076347	7.777617	2.788838
25.186683103570985	6.796399	2.6069903
25.204642215838426	5.5938907	2.3651407
25.222601957385894	4.2494802	2.0614266
25.24056232872074	3.2320905	1.7978016
25.25852333035048	2.6585827	1.630516
25.276484962782778	2.295962	1.5152433
25.294447226525435	2.1237974	1.4573255
25.312410122086423	2.0303655	1.4249089
25.330373649973843	2.0129063	1.4187692
25.348337810695988	2.0058796	1.4162908
25.366302604761245	2.012728	1.4187064
25.384268032678207	1.9634228	1.4012219
25.40223409495558	1.9777095	1.4063106
25.420200792102257	1.9739103	1.4049592
25.438168124627246	1.9672993	1.4026045
25.45613609303974	1.9179577	1.3849034
25.474104697849057	1.8661962	1.3660879
25.492073939564698	1.8744025	1.3690882
25.510043818696285	1.9161398	1.3842471
25.528014335753614	1.9111412	1.3824403
25.54598549124664	1.8585275	1.3632783
25.56395728568544	1.8527442	1.3611555
25.58192971958028	1.8653432	1.3657757
25.59990279344156	1.917758	1.3848314
25.617876507779833	1.9074574	1.3811073
25.635850863105826	1.8644925	1.3654642
25.653825859930386	1.8667322	1.3662841
25.671801498764548	1.8684741	1.3669214
25.68977778011949	1.881887	1.3718189
25.707754704506524	1.8523625	1.3610152
25.725732272437153	1.8423119	1.3573179
25.743710484423012	1.8372234	1.3554422
25.761689340975888	1.9407593	1.3931113
25.77966884260774	1.9400944	1.3928727
25.797648989830662	1.8878255	1.3739816
25.815629783156922	1.8623255	1.3646705
25.83361122309895	1.846179	1.3587416
25.85159331016929	1.8243773	1.3506951
25.869576044880695	1.8085692	1.3448305
25.887559427746034	1.8263441	1.351423
25.90554345927836	1.8192956	1.3488127
25.92352813999086	1.8190773	1.3487318
25.94151347039689	1.8429545	1.3575546
25.959499451009965	1.8707842	1.3677661
25.97748608234374	1.8374422	1.3555229
25.995473364912062	1.8062528	1.3439691
26.013461299228904	1.8270118	1.35167
26.03144988580839	1.834714	1.3545161
26.04943912516483	1.8582131	1.3631629
26.067429017812675	1.8227698	1.3500999
26.085419564266537	1.8165505	1.3477947
26.103410765041186	1.8572804	1.3628207
26.12140262065155	1.8630126	1.3649222
26.139395131612723	1.8441341	1.357989
26.157388298439948	1.8073802	1.3443884
26.17538212164861	1.8062296	1.3439604
26.193376601754295	1.8149111	1.3471863
26.211371739272714	1.8109368	1.3457105
26.229367534719746	1.7825044	1.3351047
26.247363988611433	1.779143	1.3338451
26.26536110146397	1.7962053	1.3402258
26.283358873793727	1.8072863	1.3443534
26.301357306117204	1.8098446	1.3453046
26.319356398951104	1.809116	1.3450339
26.33735615281224	1.8396741	1.3563459
26.35535656821762	1.8463278	1.3587965
26.373357645684404	1.8722795	1.3683126
26.39135938572991	1.824032	1.3505672
26.409361788871614	1.7842011	1.33574
26.427364855627165	1.7859769	1.3364044
26.445368586514352	1.8111461	1.3457882
26.46337298205115	1.777191	1.3331133
26.48137804275568	1.7542894	1.3244959
26.499383769146217	1.7914277	1.3384423
26.517390161741215	1.7854521	1.3362081
26.53539722105928	1.8285382	1.3522345
26.553404947619182	1.8935053	1.376047
26.571413341939856	1.8889331	1.3743846
26.589422404540397	1.8054849	1.3436834
26.60743213594006	1.7781758	1.3334826
26.62544253665827	1.8262509	1.3513885
26.64345360721459	1.8227386	1.3500884
26.66146534812879	1.7942863	1.3395097
26.679477759920758	1.7755759	1.3325074
26.69749084311057	1.8199507	1.3490555
26.71550459821847	1.8240229	1.3505639
26.733519025764842	1.8208574	1.3493915
26.751534126270258	1.8107044	1.3456242
26.769549900255434	1.8174534	1.3481296
26.787566348241267	1.8081449	1.3446728
26.80558347074881	1.8290449	1.3524219
26.823601268299267	1.8578641	1.3630348
26.841619741414036	1.8528401	1.3611907
26.85963889061465	1.8182173	1.3484129
26.877658716422832	1.8331305	1.3539315
26.89567921936045	1.844431	1.3580983
26.913700399949544	1.8252927	1.3510339
26.93172225871233	1.8549979	1.3619831
26.949744796171174	1.8731911	1.3686457
26.967768012848605	1.8451012	1.358345
26.98579190926733	1.8123316	1.3462286
27.003816485950225	1.8271028	1.3517036
27.021841743420318	1.8118604	1.3460536
27.039867682200814	1.8165083	1.347779
27.057894302815072	1.8375106	1.355548
27.07592160578664	1.8271308	1.351714
27.0939495916392	1.802131	1.3424348
27.111978260896635	1.8052135	1.3435823
27.13000761408296	1.8343438	1.3543795
27.148037651722397	1.8564591	1.3625194
27.166068374339304	1.8440565	1.3579605
27.184099782458215	1.8311576	1.3532027
27.20213187660384	1.8644323	1.3654422
27.22016465730105	1.8699172	1.3674492
27.23819812507487	1.8569046	1.3626828
27.256232280450533	1.8318256	1.3534496
27.274267123953383	1.8175256	1.3481563
27.292302656108987	1.7953606	1.3399106
27.31033887744306	1.7895775	1.3377509
27.32837578848146	1.7988305	1.3412049
27.34641338975026	1.7646166	1.3283887
27.364451681775673	1.754676	1.3246418
27.382490665084074	1.7853194	1.3361585
27.400530340202046	1.8391459	1.3561511
27.41857070765629	1.8417552	1.3571128
27.436611767973726	1.80818	1.3446858
27.454653521681404	1.8241189	1.3505994
27.472695969306564	1.8559926	1.3623482
27.490739111376627	1.8463228	1.3587946
27.508782948419153	1.8281057	1.3520746
27.526827480961902	1.8721443	1.3682632
27.54487270953279	1.8676444	1.3666179
27.562918634659898	1.8785081	1.3705868
27.580965256871508	1.8722193	1.3682907
27.599012576696026	1.8577896	1.3630075
27.617060594662068	1.8398451	1.3564088
27.63510931129842	1.8462838	1.3587803
27.65315872713401	1.8666269	1.3662455
27.67120884269797	1.8290396	1.3524199
27.68925965851958	1.8302377	1.3528628
27.707311175128307	1.8809259	1.3714685
27.725363393053787	1.9113437	1.3825135
27.74341631282583	1.8792131	1.3708439
27.7614699349744	1.8734758	1.3687497
27.77952426002968	2.0430524	1.4293538
27.797579288521973	2.1169977	1.4549906
27.815635020981784	2.5668447	1.6021376
27.83369145793979	2.6593163	1.630741
27.85174859992682	2.483582	1.5759385
27.869806447473923	2.3450606	1.5313591
27.887865001112267	2.0603302	1.435385
27.905924261373233	1.9278985	1.3884878
27.92398422878836	1.8914171	1.375288
27.94204490388936	1.9009621	1.3787538
27.96010628720813	1.9278104	1.3884561
27.978168379276728	1.9478945	1.3956699
27.9962311806274	1.8882989	1.3741539
28.014294691792568	1.8129969	1.3464757
28.0323589133048	1.8210396	1.3494589
28.050423845696887	1.8572729	1.362818
28.068489489501758	1.8525515	1.3610847
28.086555845252523	1.8597734	1.3637351
28.104622913482487	1.8712217	1.367926
28.122690694725115	1.8823247	1.3719784
28.14075918951405	1.9346993	1.3909347
28.15882839838312	1.9776111	1.4062756
28.176898321866304	1.9706991	1.4038159
28.1949689604978	1.9159757	1.3841877
28.213040314811945	1.9292834	1.3889865
28.23111238534327	1.9294541	1.3890479
28.249185172626493	1.8821551	1.3719165
28.267258677196473	1.8188651	1.3486531
28.285332899588294	1.9011879	1.3788357
28.303407840337172	1.9242989	1.387191
28.321483499978545	1.8677096	1.3666418
28.33955987904799	1.845552	1.358511
28.357636978081285	1.8875142	1.3738683
28.37571479761439	1.9274846	1.3883388
28.393793338183425	1.9375315	1.3919524
28.41187260032469	1.9309781	1.3895963
28.429952584574686	1.9220741	1.3863889
28.448033291470065	1.9565991	1.3987849
28.46611472154769	1.9931529	1.4117906
28.484196875344566	2.000041	1.4142281
28.502279753397914	1.9846355	1.4087709
28.52036335624511	2.0225224	1.4221542
28.538447684423716	2.0388753	1.427892
28.556532738471482	2.0213518	1.4217426
28.574618518926325	2.0217407	1.4218793
28.59270502632635	2.0093498	1.4175154
28.61079226120985	2.0061407	1.4163829
28.628880224115274	1.9977778	1.4134277
28.646968915581287	2.070509	1.4389263
28.66505833614671	2.0941086	1.4471035
28.68314848635055	2.077555	1.4413726
28.701239366732004	2.098377	1.4485775
28.71933097783044	2.0931027	1.4467559
28.737423320185403	2.1014283	1.4496304
28.75551639433665	2.0866728	1.444532
28.773610200824074	2.1282258	1.458844
28.791704740187793	2.1858184	1.4784514
28.80980001296809	2.194308	1.4813197
28.827896019705413	2.185652	1.4783951
28.845992760940433	2.1780627	1.4758261
28.86409023721397	2.133485	1.4606454
28.88218844906704	2.140019	1.4628804
28.900287397040845	2.214554	1.4881378
28.918387081676755	2.247348	1.4991157
28.936487503516343	2.2965744	1.5154452
28.954588663101365	2.3578658	1.5355344
28.97269056097374	2.3854542	1.5444915
28.990793197675597	2.3632617	1.5372903
29.00889657374923	2.357188	1.5353136
29.027000689737125	2.345652	1.5315522
29.04510554618196	2.430462	1.5589938
29.06321114362659	2.4678133	1.5709275
29.08131748261405	2.4095988	1.5522883
29.099424563687567	2.436518	1.560935
29.11753238739057	2.4742913	1.572988
29.13564095426663	2.5344496	1.5919955
29.15375026485954	2.6096919	1.6154541
29.171860319713275	2.6129718	1.6164689
29.18997111937199	2.628615	1.6213003
29.20808266438002	2.731342	1.6526773
29.226194955281898	2.7749739	1.6658252
29.244307992622335	2.7905488	1.6704936
29.26242177694624	2.8186395	1.6788805
29.2805363087987	2.8416035	1.6857057
29.29865158872498	2.8656507	1.6928233
29.316767617270557	2.9045765	1.7042818
29.334884394981064	2.9666238	1.722389
29.353001922402367	3.0731764	1.7530477
29.37112020008047	3.094922	1.7592391
29.389239228561596	3.1640012	1.778764
29.407359008392152	3.3509958	1.8305725
29.42547954011872	3.689658	1.9208483
29.44360082428809	4.2763276	2.0679283
29.46172286144722	5.3426523	2.3114178
29.479845652143283	6.9607706	2.6383271
29.497969196923606	9.090241	3.0150027
29.516093496335728	11.539204	3.3969402
29.5342185509274	14.358308	3.7892358
29.55234436124651	16.915272	4.112818
29.570470927841175	18.44823	4.2951403
29.588598251259686	18.230679	4.26974
29.60672633205055	16.667255	4.082555
29.624855170762405	14.284138	3.779436
29.642984767944146	11.4834795	3.3887284
29.66111512414481	8.796027	2.9658096
29.67924623991366	6.533691	2.5561085
29.697378115800138	4.978773	2.2313166
29.71551075235387	4.147052	2.036431
29.733644150124675	3.815911	1.9534357
29.751778309662576	3.6426587	1.908575
29.769913231517766	3.5052278	1.8722254
29.78804891624066	3.4508212	1.8576386
29.806185364381818	3.3861678	1.8401543
29.82432257649206	3.287399	1.8131186
29.842460553122333	3.3279917	1.8242784
29.86059929482382	3.353173	1.8311671
29.878738802147872	3.3195167	1.8219541
29.896879075646048	3.3024902	1.8172755
29.915020115870114	3.31237	1.8199918
29.933161923371976	3.313059	1.820181
29.951304498703777	3.280855	1.811313
29.969447842417857	3.3023849	1.8172466
29.987591955066733	3.3226976	1.8228269
30.005736837203123	3.2733576	1.8092422
30.023882489379943	3.2882257	1.8133465
30.04202891215028	3.246004	1.8016671
30.060176106067455	3.1767845	1.7823536
30.078324071684946	3.2310417	1.7975099
30.09647280955646	3.1889763	1.7857705
30.114622320235863	3.2086527	1.7912712
30.132772604277257	3.2413836	1.8003843
30.1509236622349	3.1712174	1.7807913
30.16907549466328	3.1045766	1.7619809
30.18722810211705	3.0766082	1.7540263
30.205381485151097	3.0914412	1.7582494
30.22353564432045	3.1182933	1.765869
30.241690580180403	3.167756	1.7798191
30.25984629328638	3.05494	1.7478386
30.278002784194037	3.0556853	1.7480519
30.296160053459246	3.0956686	1.7594512
30.314318101638033	3.1249292	1.7677469
30.332476929286646	3.0631938	1.7501982
30.35063653696153	3.0007715	1.7322735
30.368796925219307	2.9703906	1.7234821
30.386958094616844	2.893909	1.7011493
30.40512004571115	2.9138467	1.7069993
30.423282779059463	2.8997421	1.702863
30.441446295219233	2.8747313	1.6955032
30.459610594748067	2.8739	1.695258
30.47777567820382	2.8999557	1.7029257
30.495941546144504	2.9184146	1.7083368
30.51410819912835	2.8653247	1.692727
30.532275637713795	2.8712642	1.6944805
30.55044386245946	2.8984387	1.7024802
30.56861287392416	2.8993366	1.7027439
30.586782672666956	2.8719053	1.6946697
30.604953259247047	2.861209	1.6915108
30.623124634223885	2.8279405	1.6816481
30.641296798157075	2.811802	1.6768428
30.659469751606462	2.7801752	1.6673857
30.677643495132074	2.7771077	1.6664656
30.695818029294152	2.778201	1.6667937
30.713993354653116	2.7482123	1.6577733
30.73216947176962	2.667857	1.6333575
30.75034638120448	2.6987064	1.642774
30.768524083518756	2.807424	1.675537
30.786702579273673	2.9093528	1.7056825
30.80488186903069	2.9445133	1.7159585
30.82306195335144	3.0305223	1.7408396
30.841242832797782	3.2139971	1.7927624
30.85942450793176	3.4077957	1.8460215
30.877606979315637	3.7040422	1.9245888
30.895790247511883	4.1461673	2.0362139
30.913974313083134	4.5659847	2.1368165
30.932159176592283	4.754653	2.1805167
30.95034483860237	4.7238955	2.1734524
30.968531299676698	4.5669	2.1370306
30.98671856037873	4.3904266	2.0953345
31.00490662127215	4.0452366	2.0112774
31.023095482920848	3.5762239	1.8910906
31.04128514588892	3.0569065	1.7484012
31.059475610740662	2.713343	1.6472228
31.07766687804056	2.5839174	1.6074568
31.09585894835335	2.6041286	1.6137313
31.11405182224393	2.6398706	1.6247679
31.132245500277417	2.6097035	1.6154577
31.15043998301914	2.5049603	1.5827067
31.168635271034628	2.4392705	1.5618165
31.18683136488964	2.3856637	1.5445594
31.20502826515008	2.4481833	1.5646671
31.223225972382135	2.497204	1.5802544
31.241424487152155	2.5246348	1.58891
31.259623810026692	2.4807575	1.575042
31.27782394157253	2.4354632	1.5605971
31.296024882356644	2.385873	1.5446272
31.314226632946237	2.394469	1.5474072
31.332429193908684	2.4605253	1.5686061
31.350632565811598	2.5052483	1.5827976
31.368836749222787	2.517875	1.5867813
31.387041744710295	2.4824202	1.5755697
31.40524755284232	2.549588	1.5967429
31.423454174187317	2.5446732	1.5952032
31.441661609313922	2.475093	1.5732428
31.459869858791002	2.42698	1.5578768
31.478078923187628	2.4468324	1.5642354
31.496288803073064	2.4561138	1.5671993
31.514499499016807	2.3683393	1.538941
31.532711011588546	2.301199	1.5169703
31.550923341358178	2.3050687	1.5182453
31.56913648889584	2.3387573	1.5292996
31.587350454771844	2.4061728	1.5511843
31.605565239556732	2.4348772	1.5604093
31.62378084382127	2.423356	1.5567132
31.641997268136382	2.388122	1.545355
31.660214513073274	2.3503182	1.5330747
31.67843257920331	2.3047466	1.5181392
31.6966514670981	2.3109658	1.5201861
31.71487117732944	2.3052065	1.5182906
31.733091710469346	2.3374507	1.5288724
31.751313067090052	2.3745544	1.5409589
31.769535247764008	2.3495772	1.5328331
31.787758253063878	2.2975698	1.5157737
31.805982083562526	2.24928	1.49976
31.824206739833024	2.1719491	1.4737535
31.84243222244869	2.203982	1.4845815
31.860658531983013	2.3101935	1.519932
31.878885669009737	2.3349278	1.5280471
31.897113634102784	2.2926388	1.5141462
31.91534242783632	2.2638261	1.5046016
31.933572050784694	2.2647955	1.5049238
31.951802503522508	2.2720308	1.5073258
31.970033786624548	2.2060149	1.485266
31.988265900665834	2.2125547	1.4874659
32.006498846221575	2.2243538	1.4914267
32.02473262386724	2.210108	1.4866432
32.04296723417845	2.1938941	1.48118
32.0612026777311	2.264214	1.5047306
32.07943895510129	2.27822	1.5093774
32.097676066865304	2.2689545	1.506305
32.115914013599685	2.2132363	1.487695
32.13415279588115	2.2664921	1.5054873
32.152392414286666	2.237943	1.4959756
32.1706328693934	2.091509	1.446205
32.18887416177875	2.040399	1.4284254
32.20711629202032	2.120688	1.4562582
32.225359260695924	2.1229548	1.4570364
32.243603068383614	2.1064005	1.4513444
32.26184771566166	2.0840535	1.4436251
32.28009320310852	2.1145647	1.4541543
32.2983395313029	2.0755594	1.4406801
32.31658670082372	2.0671203	1.4377483
32.33483471225012	2.0850837	1.4439819
32.35308356616143	2.114354	1.4540818
32.371333263137245	2.0794332	1.442024
32.38958380375734	2.0565195	1.434057
32.407835188601744	2.0287235	1.4243326
32.42608741825067	2.0601435	1.43532
32.444340493284585	2.1057186	1.4511094
32.46259441428416	2.0919094	1.4463434
32.48084918183028	2.0849948	1.4439511
32.49910479650405	2.1111712	1.452987
32.51736125888683	2.123266	1.4571431
32.53561856956014	2.152688	1.4672041
32.5538767291058	2.1263716	1.4582083
32.572135738105764	2.0925772	1.4465743
32.59039559714228	2.169792	1.4730214
32.608656306797776	2.1477673	1.4655263
32.62691786765491	2.0232484	1.4224094
32.645180280296586	1.8827577	1.3721361
32.663443545305896	1.8899444	1.3747525
32.68170766326619	1.9800732	1.4071507
32.69997263476099	2.0513616	1.4322575
32.7182384603741	2.091956	1.4463595
32.7365051406895	2.0373342	1.4273522
32.75477267629144	2.0029252	1.4152474
32.77304106776434	2.0190217	1.4209229
32.79131031569289	1.9772991	1.4061646
32.809580420661966	2.0638866	1.4366233
32.827851383256714	2.0911486	1.4460804
32.84612320406245	2.0258915	1.4233382
32.86439588366476	1.9762025	1.4057747
32.88266942264945	2.0089898	1.4173883
32.9009438216025	2.0098956	1.4177078
32.9192190811102	1.9723713	1.4044114
32.937495201758985	1.9923197	1.4114956
32.95577218413556	1.9995975	1.4140713
32.974050028826866	1.9709556	1.4039073
32.992328736420035	1.9502459	1.396512
33.010608307502444	2.0314426	1.4252869
33.02888874266169	2.109453	1.4523956
33.047170042485604	2.116509	1.4548227
33.06545220756225	1.999224	1.4139391
33.083735238479896	1.9471021	1.395386
33.10201913582707	1.9973787	1.4132864
33.12030390019248	2.0239408	1.4226527
33.138589532165135	1.9906974	1.4109207
33.15687603233419	1.9091897	1.3817343
33.17516340128909	1.8182371	1.3484203
33.19345163961947	1.8873158	1.3737961
33.211740747915215	2.0210333	1.4216305
33.23003072676643	2.045857	1.4303346
33.248321576763466	1.9346255	1.3909081
33.266613298496885	1.9723822	1.4044152
33.28490589255747	2.0232146	1.4223975
33.30319935953626	1.9968597	1.4131029
33.32149370002451	1.9791387	1.4068186
33.339788914613706	1.911401	1.3825343
33.358085003895575	1.8169382	1.3479385
33.376381968462034	1.8111696	1.3457971
33.39467980890529	1.8424435	1.3573663
33.41297852581774	1.8595814	1.3636646
33.43127811979204	1.8397008	1.3563557
33.44957859142105	1.8493681	1.3599148
33.467879941297866	1.8743258	1.3690602
33.486182170015844	1.9180435	1.3849344
33.50448527816853	1.9353325	1.3911623
33.522789266349754	1.9222635	1.3864572
33.541094135153514	1.9322343	1.3900483
33.55939988517411	1.9253107	1.3875557
33.57770651700602	1.9426141	1.3937769
33.59601403124398	2.065711	1.4372581
33.61432242848296	2.0374348	1.4273874
33.632631709318154	1.8716061	1.3680665
33.650941874344994	1.7903322	1.338033
33.66925292415916	1.7992897	1.3413761
33.68756485935654	1.8515602	1.3607205
33.70587768053328	1.9279913	1.3885212
33.724191388285746	2.0294132	1.4245747
33.74250598321054	2.095362	1.4475365
33.760821465904506	2.0039647	1.4156146
33.77913783696474	1.8938502	1.3761723
33.79745509698852	1.9737467	1.4049009
33.815773246573414	2.136604	1.4617127
33.8340922863172	2.0983853	1.4485805
33.852412216817896	2.0033505	1.4153976
33.87073303867377	1.9530566	1.397518
33.889054752483304	1.8582369	1.3631716
33.907377358845245	1.8637184	1.3651807
33.92570085835853	1.8744185	1.369094
33.94402525162239	1.8759006	1.3696352
33.96235053923627	1.885727	1.3732178
33.980676721799824	1.867134	1.3664311
33.999003799912984	1.8067858	1.3441674
34.01733177417592	1.8536086	1.361473
34.03566064518901	1.9781648	1.4064724
34.0539904135529	2.0347984	1.4264636
34.07232107986846	1.9948984	1.4124087
34.090652644736785	1.943393	1.3940563
34.108985108759235	1.9444572	1.3944379
34.12731847253742	1.9064901	1.3807571
34.14565273667313	1.9577527	1.3991972
34.16398790176847	2.0702014	1.4388194
34.18232396842574	2.1271012	1.4584585
34.20066093724749	1.8415341	1.3570313
34.21899880883651	1.7485241	1.3223177
34.23733758379583	1.8598931	1.363779
34.25567726272874	1.8336674	1.3541298
34.27401784623872	1.7708329	1.3307265
34.29235933492957	1.8024521	1.3425543
34.31070172940526	1.8200827	1.3491044
34.32904503027003	1.760062	1.3266733
34.347389238128386	1.762692	1.3276641
34.36573435358502	1.8975165	1.3775038
34.38408037724492	2.0065303	1.4165205
34.402427309713296	1.9614547	1.4005195
34.42077515159559	1.9902748	1.410771
34.43912390349752	1.9917518	1.4112943
34.45747356602499	2.0406325	1.4285071
34.47582413978423	1.9616921	1.4006042
34.49417562538163	1.9387119	1.3923763
34.51252802342388	1.9846188	1.408765
34.53088133451789	2.0508733	1.4320871
34.54923555927084	2.0456276	1.4302543
34.567590698290104	2.0669062	1.4376739
34.58594675218336	2.0775023	1.4413543
34.6043037215585	2.031492	1.4253042
34.62266160702365	1.9082092	1.3813795
34.641020409187234	1.772417	1.3313215
34.65938012865785	1.7980434	1.3409114
34.677740766044394	1.7397468	1.3189946
34.69610232195598	1.7201786	1.3115557
34.714464797002016	2.009842	1.417689
34.73282819179208	2.1272814	1.4585203
34.751192506936064	2.1176777	1.4552243
34.76955774304408	2.0207994	1.4215482
34.7879239007265	1.8111693	1.345797
34.80629098059391	1.8699744	1.36747
34.824658983257194	2.0262067	1.4234489
34.843027909327446	2.035159	1.4265901
34.86139775941603	2.0451667	1.4300933
34.879768534134534	1.92016	1.3856984
34.89814023409483	1.9451641	1.3946913
34.91651285990901	1.9646817	1.401671
34.93488641218944	1.7239214	1.3129818
34.95326089154871	1.6604006	1.2885653
34.97163629859967	1.8454561	1.3584757
34.99001263395542	1.838103	1.3557665
35.00838989822934	1.8301855	1.3528435
35.02676809203499	1.9774534	1.4062195
35.04514721598624	2.0634675	1.4364774
35.063527270697215	2.081093	1.4425994
35.081908256782256	2.1119094	1.453241
35.10029017485597	1.9002405	1.3784921
35.11867302553321	1.8786403	1.370635
35.137056809429104	2.1550088	1.4679948
35.155441527159006	2.3411677	1.5300875
35.173827179338524	2.2665808	1.5055168
35.19221376658354	2.212094	1.487311
35.21060128951017	1.9837579	1.4084594
35.2289897487348	2.0364022	1.4270257
35.24737914487405	2.0591743	1.4349823
35.26576947854479	1.9645633	1.4016287
35.28416075036418	1.777518	1.333236
35.30255296094958	1.8051292	1.3435509
35.32094611091867	1.9185462	1.385116
35.33934020088932	2.189696	1.4797622
35.35773523147969	2.2640088	1.5046624
35.3761312033082	2.2700841	1.5066799
35.394528116993506	2.1338267	1.4607624
35.41292597315452	1.8073938	1.3443935
35.431324772410434	2.0055656	1.4161799
35.449724515380666	2.4752126	1.5732808
35.46812520268491	2.186447	1.4786639
35.486526834943106	1.8697894	1.3674024
35.504929412775454	1.7795715	1.3340058
35.52333293680242	1.5914351	1.261521
35.54173740764471	1.801827	1.3423215
35.560142825923286	2.0305588	1.4249768
35.5785491922594	2.0821517	1.4429662
35.59695650727454	1.9692347	1.4032942
35.61536477159042	1.6662048	1.2908156
