0.008763373481513119	0.0	0.0
0.026290120649546365	0.0	0.0
0.043816868432600686	0.0	0.0
0.06134361724069026	0.116039455	0.34064564
0.07887036748382949	0.16056077	0.40070036
0.0963971195720331	0.22913113	0.47867644
0.11392387391531617	0.25560084	0.5055698
0.1314506309236943	0.2186162	0.4675641
0.1489773910071836	0.22265975	0.47186837
0.16650415457580078	0.11153169	0.3339636
0.18403092203956356	0.11280241	0.3358607
0.20155769380849	0.087622255	0.29601055
0.2190844702925996	0.117794186	0.34321156
0.2366112519019124	0.15298773	0.39113647
0.2541380390464497	0.15564884	0.39452356
0.27166483213623416	0.14553875	0.38149542
0.28919163158128947	0.14099129	0.37548807
0.3067184377916406	0.16721554	0.40891996
0.324245251177314	0.21526286	0.46396428
0.34177207214833777	0.19512185	0.441726
0.3592989011147415	0.19273731	0.43901858
0.37682573848655654	0.16214907	0.4026774
0.39435258467381573	0.16545321	0.4067594
0.41187944008655414	0.17014687	0.41248864
0.42940630513480854	0.15505083	0.39376494
0.446933180228618	0.12824208	0.35810903
0.4644600657780234	0.16410945	0.40510425
0.48198696219306775	0.20341657	0.45101726
0.49951386988379676	0.21165343	0.46005806
0.5170407892602581	0.19250023	0.43874848
0.5345677207325025	0.16877376	0.41082084
0.5520946647105822	0.15136538	0.38905704
0.5696216216045534	0.13526046	0.36777773
0.5871485918244737	0.11336485	0.33669698
0.6046755757804043	0.11958196	0.34580624
0.6222025738824094	0.1136453	0.33711317
0.6397295865405557	0.14190377	0.37670118
0.6572566141649129	0.176686	0.42034033
0.6747836571655547	0.19140342	0.43749675
0.6923107159525568	0.16810657	0.410008
0.7098377909359992	0.16753078	0.40930524
0.7273648825259653	0.17909522	0.42319643
0.7448919911325411	0.19160935	0.43773207
0.762419117165817	0.18204762	0.4266704
0.7799462610358868	0.16079563	0.40099332
0.7974734231528482	0.16018997	0.40023738
0.8150006039268024	0.1703245	0.4127039
0.8325278037678551	0.19512208	0.44172624
0.8500550230861152	0.19397493	0.44042584
0.8675822622916969	0.19287997	0.43918103
0.8851095217947171	0.21731934	0.46617523
0.9026368020052984	0.19724154	0.44411883
0.9201641033335665	0.19071604	0.43671048
0.9376914261896523	0.18322338	0.42804602
0.9552187709836915	0.22933033	0.47888446
0.9727461381258234	0.23468527	0.48444325
0.990273528026193	0.22352697	0.4727864
1.0078009410949496	0.2284768	0.47799248
1.0253283777422473	0.26166338	0.5115304
1.0428558383782454	0.3220789	0.56751996
1.0603833234131086	0.34104273	0.5839886
1.0779108332570058	0.36023226	0.6001935
1.0954383683201119	0.34656346	0.5886964
1.112965929012607	0.37452608	0.6119854
1.1304935157446763	0.46047863	0.67858577
1.1480211289265108	0.48075882	0.6933677
1.1655487689683062	1.3404543	1.1577799
1.1830764362802655	1.67278	1.29336
1.200604131272596	2.0753307	1.4406009
1.2181318543555117	2.3173566	1.5222867
1.235659605939232	2.3639178	1.5375037
1.253187386433982	4.031249	2.007797
1.270715196249994	6.6270986	2.574315
1.2882430357975057	12.025692	3.467808
1.3057709054867608	16.719915	4.0889993
1.3232988057280106	22.482128	4.7415323
1.3408267369315112	27.594887	5.2530837
1.358354699507526	31.353848	5.5994506
1.3758826938663256	35.324425	5.9434357
1.3934107204181858	37.04859	6.0867553
1.410938779573391	37.37576	6.1135716
1.4284668717422309	37.8576	6.152853
1.4459949973350033	37.456055	6.1201353
1.4635231567620117	37.700203	6.140049
1.4810513504335687	37.1927	6.098582
1.4985795787599925	36.516953	6.042926
1.5161078421516088	35.667007	5.972186
1.5336361410187505	34.91124	5.9085736
1.5511644757717598	34.76103	5.8958483
1.5686928468209842	35.62884	5.96899
1.58622125457678	36.06165	6.005135
1.6037496994495108	37.425114	6.1176066
1.621278181849548	37.19408	6.098695
1.6388067021872719	37.78539	6.146982
1.6563352608730693	37.027187	6.0849967
1.673863858317336	36.129143	6.010752
1.6913924949304753	35.25669	5.9377346
1.7089211711228998	34.40882	5.8659034
1.7264498873050296	33.673138	5.802856
1.7439786438872935	33.124928	5.755426
1.7615074412801288	32.35876	5.688476
1.779036279893981	31.758446	5.635463
1.796565160139305	30.70867	5.54154
1.814094082426564	29.8716	5.465492
1.8316230471662298	29.046246	5.3894567
1.849152054768784	27.984373	5.2900257
1.8666811056447168	27.297853	5.224735
1.8842102002045273	26.452229	5.143173
1.901739338858724	26.078602	5.1067214
1.9192685220178245	25.822044	5.0815396
1.9367977500923557	25.138046	5.013786
1.9543270234928547	24.637823	4.96365
1.971856342629867	24.003355	4.899322
1.9893857079139496	23.473299	4.844925
2.006915119755667	22.986801	4.794455
2.0244445785655945	22.337608	4.726268
2.0419740847543175	21.806646	4.669759
2.0595036387324317	21.337803	4.619286
2.0770332409105414	20.88816	4.570357
2.094562891699263	20.657993	4.5451064
2.1120925915092217	20.294802	4.5049753
2.129622340751053	19.97519	4.4693613
2.1471521398354043	187.93657	13.708996
2.1646819891729323	444.0246	21.071892
2.182211889174303	440.13293	20.979345
2.1997418402501974	452.73608	21.277596
2.2172718428113023	432.7262	20.802073
2.234801897268317	320.79224	17.910673
2.2523320040319548	17.257023	4.154157
2.269862163512935	17.106121	4.135955
2.287392376121992	16.893604	4.110183
2.304922642269869	16.440348	4.05467
2.322452962367322	15.932554	3.9915605
2.3399833368251164	15.456395	3.9314623
2.357513766054032	15.279996	3.9089634
2.3750442504648586	15.071636	3.8822205
2.3925747904683963	15.086146	3.8840888
2.410105386475459	14.943875	3.865731
2.4276360388968707	14.669628	3.830095
2.445166748143469	14.416233	3.7968714
2.4626975146261025	13.97095	3.7377734
2.4802283387556323	13.667138	3.6969092
2.4977592209429305	13.315466	3.6490364
2.5152901615988825	12.927969	3.5955484
2.5328211611343865	12.699069	3.5635753
2.5503522199603523	12.508317	3.53671
2.5678833384877024	12.384825	3.519208
2.5854145171273712	12.3835535	3.5190272
2.6029457562903064	12.140033	3.484255
2.620477056387469	11.884663	3.447414
2.6380084178298326	11.594226	3.4050295
2.655539841028383	11.354149	3.3695917
2.673071326394119	11.250517	3.354179
2.6906028743380523	11.228862	3.3509493
2.708134485271211	11.093644	3.3307123
2.7256661596046325	10.780317	3.2833393
2.743197897749369	10.536227	3.2459555
2.760729700116486	10.3965	3.2243602
2.778261567117063	10.220845	3.1970057
2.795793499162193	10.278908	3.2060735
2.8133254966629817	10.2005205	3.1938255
2.830857560030551	9.987066	3.160232
2.8483896896760337	9.800592	3.1305897
2.865921886010578	9.611022	3.100165
2.883454149445347	9.42425	3.069894
2.9009864803915177	9.321869	3.0531735
2.91851887926028	9.195109	3.0323439
2.9360513464628384	9.103592	3.017216
2.953583882410413	8.905095	2.9841406
2.9711164875142373	8.787832	2.9644277
2.9886491621855606	8.703372	2.9501479
3.0061819068356455	8.524246	2.9196312
3.023714721875769	8.467542	2.909904
3.041247607717225	8.352221	2.8900208
3.0587805647713213	8.264648	2.8748302
3.0763135934493806	8.185379	2.86101
3.0938466941627407	8.099823	2.8460188
3.1113798673227544	7.9746833	2.8239481
3.1289131133407904	7.8451815	2.800925
3.1464464326282315	7.671076	2.7696707
3.1639798255964786	7.5727844	2.7518692
3.1815132926569443	7.4244075	2.7247765
3.1990468342210603	7.3987727	2.7200685
3.216580450700272	7.326685	2.706785
3.2341141425060416	7.287753	2.6995838
3.251647910049847	7.295746	2.7010639
3.2691817537431813	7.214989	2.6860733
3.286715673997555	7.249583	2.692505
3.3042496712244938	7.0953083	2.663702
3.32178374583554	7.0044684	2.6465957
3.339317898242251	6.8138857	2.610342
3.3568521288562034	6.8029785	2.608252
3.3743864380889876	6.882704	2.6234908
3.3919208263522127	6.8888903	2.6246696
3.4094552940575023	6.705519	2.5895016
3.4269898416164972	6.5655947	2.5623417
3.444524469440858	6.448487	2.539387
3.4620591779422587	6.4053936	2.5308878
3.479593967532391	6.391453	2.5281322
3.4971288386229658	6.3059764	2.5111704
3.5146637916257086	6.3302956	2.516008
3.5321988269523628	6.3030996	2.5105975
3.5497339450146903	6.271755	2.5043473
3.5672691462244708	6.238012	2.4976013
3.5848044309934988	6.302871	2.510552
3.60233979973359	6.2084208	2.4916704
3.619875252856575	6.161578	2.4822526
3.6374107907743034	6.142214	2.478349
3.6549464138986427	6.2829304	2.5065775
3.6724821226414788	6.341397	2.518213
3.690017917414714	6.4126577	2.5323226
3.7075537986302702	6.4189425	2.5335631
3.7250897667000857	6.424048	2.5345705
3.7426258220361235	6.556667	2.5605989
3.7601619650503553	6.839306	2.6152067
3.777698196154779	7.34074	2.7093801
3.7952345157614067	8.292039	2.87959
3.8127709242822716	9.068595	3.0114107
3.830307422129425	11.025817	3.3205144
3.847844009714936	29.853903	5.4638724
3.8653806874508954	97.476875	9.873037
3.882917455749409	96.88351	9.842942
3.900454315022606	96.660355	9.8316
3.917991265682631	41.108536	6.411594
3.9355283081416506	10.571788	3.2514286
3.9530654428118495	8.482108	2.912406
3.970602670105433	7.38852	2.7181833
3.9881399904346244	6.600234	2.569092
4.005677404211669	6.610728	2.5711336
4.023214911848827	6.4630013	2.5422432
4.0407525137583855	6.489231	2.547397
4.058290210352644	6.5147076	2.5523925
4.075828002043927	6.4125443	2.5323002
4.0933658892445814	6.3616605	2.5222332
4.110903872366966	6.333636	2.5166717
4.128441951823468	6.2865057	2.5072906
4.145980128026488	6.169617	2.4838715
4.163518401388452	6.1000714	2.4698322
4.181056772321807	6.1026063	2.4703455
4.1985952412390155	6.1819506	2.486353
4.216133808552567	6.143115	2.478531
4.233672474674966	6.196279	2.4892325
4.251211240018741	6.4465184	2.5389996
4.268750104996445	6.738155	2.5957956
4.286289070020643	7.712319	2.7771063
4.303828135503928	9.348082	3.0574632
4.3213673018589125	29.675186	5.4474936
4.3389065694982305	90.783485	9.528037
4.356445938834537	165.92363	12.881135
4.3739854102805085	171.68141	13.102725
4.391524984248844	172.60461	13.137908
4.409064661152262	136.63179	11.68896
4.426604441403504	96.928955	9.84525
4.444144325415337	75.7366	8.702678
4.461684313600543	21.906263	4.680413
4.47922440637193	22.054472	4.696219
4.496764604142329	20.293854	4.50487
4.5143049073245916	18.41462	4.291226
4.531845316331589	16.414232	4.0514483
4.5493858315762195	13.760713	3.7095435
4.566926453471405	11.497023	3.390726
4.584467182430081	9.607819	3.0996482
4.602008018865218	8.401014	2.8984504
4.619548963189798	7.643359	2.7646625
4.637090015816834	7.116585	2.667693
4.654631177159353	6.7820077	2.6042287
4.672172447630417	6.5716357	2.5635202
4.689713827643102	6.3990116	2.5296268
4.7072553176105085	6.192757	2.4885252
4.724796917945764	5.9590864	2.441124
4.742338629062015	5.837688	2.4161308
4.759880451372434	5.717188	2.3910642
4.777422385290215	5.6625853	2.3796186
4.794964431228581	5.573229	2.3607688
4.812506589600768	5.5084305	2.3470047
4.830048860820047	5.4821544	2.3414001
4.847591245299709	5.5445876	2.3546948
4.8651337434530655	5.61419	2.3694282
4.882676355693457	5.583271	2.3628945
4.900219082434242	5.6169686	2.3700144
4.917761924088813	5.5585413	2.357656
4.935304881070575	5.567758	2.3596098
4.952847953792969	5.5900183	2.364322
4.970391142669449	5.522527	2.3500059
4.9879344481135055	5.555836	2.3570821
5.005477870538642	5.541753	2.3540928
5.023021410358394	5.5922804	2.3648002
5.040565067986324	5.521069	2.3496954
5.05810884383601	5.4081755	2.3255484
5.075652738321066	5.3515797	2.313348
5.09319675185512	5.372477	2.3178604
5.110740884851836	5.447651	2.3340204
5.128285137724894	5.470224	2.338851
5.145829510888007	5.4078975	2.3254886
5.163374004754908	5.297708	2.301675
5.1809186197393595	5.2454247	2.2902892
5.198463356255145	5.2124386	2.2830765
5.216008214716077	5.2337966	2.2877493
5.233553195535998	5.3527107	2.3135927
5.251098299128764	5.401017	2.324009
5.268643525908272	5.341225	2.311109
5.286188876288432	5.292189	2.3004758
5.3037343506831895	5.2721376	2.2961135
5.32127994950651	5.258868	2.2932222
5.3388256731723915	5.3135133	2.305106
5.356371522094851	5.227821	2.2864428
5.373917496687938	5.1784735	2.275626
5.391463597365729	5.1049495	2.2594135
5.40900982454232	5.076348	2.2530751
5.426556178631843	5.1083465	2.2601652
5.444102660048449	5.0688615	2.251413
5.4616492692063225	5.0832086	2.2545972
5.479196006519669	5.188675	2.2778664
5.496742872402727	5.196189	2.279515
5.514289867269756	5.1867466	2.277443
5.531836991535049	5.1057124	2.2595823
5.549384245612924	5.0895977	2.2560136
5.566931629917724	5.11692	2.262061
5.584479144863822	5.0637093	2.2502687
5.6020267908656205	5.075181	2.2528162
5.619574568337545	5.048256	2.2468324
5.637122477694054	5.0728493	2.2522986
5.654670519349629	5.046837	2.2465167
5.672218693718784	5.0619664	2.2498815
5.689767001216059	5.098754	2.258042
5.707315442256021	5.065806	2.2507346
5.724864017253266	5.039901	2.2449722
5.7424127266224225	5.0263743	2.2419577
5.75996157077814	5.0579667	2.2489924
5.777510550135105	5.165374	2.2727458
5.795059665108022	5.2287927	2.2866554
5.812608916111639	5.2909966	2.3002167
5.830158303560715	5.395312	2.322781
5.847707827870055	5.368204	2.3169386
5.86525748945448	5.440484	2.3324845
5.8828072887288485	5.519915	2.3494499
5.900357226108044	5.5812297	2.3624625
5.917907302006979	5.6833224	2.383972
5.9354575168406	6.117164	2.4732902
5.9530078710238765	6.657571	2.580227
5.970558364971812	7.143547	2.6727414
5.988108999099438	7.4939013	2.737499
6.005659773821818	8.019484	2.8318694
6.023210689554039	7.8021026	2.7932243
6.040761746711227	8.193807	2.8624825
6.058312945708531	7.657393	2.7671995
6.075864286961132	7.191799	2.681753
6.093415770884244	6.570022	2.5632055
6.1109673978931065	6.0029764	2.4500973
6.128519168402993	5.450978	2.334733
6.146071082829204	5.3162384	2.305697
6.163623141587075	5.176789	2.2752557
6.181175345091969	5.090052	2.2561145
6.198727693759281	5.0854845	2.255102
6.216280188004435	5.082953	2.2545404
6.233832828242885	5.078067	2.2534566
6.251385614890126	5.03909	2.2447917
6.268938548361669	5.0358033	2.2440596
6.286491629073067	4.990983	2.2340508
6.304044857439898	4.9911084	2.234079
6.321598233877777	4.9472117	2.224233
6.339151758802344	4.9828997	2.232241
6.356705432629277	5.0529027	2.2478662
6.37425925577428	5.015972	2.2396367
6.391813228653095	4.985233	2.2327635
6.409367351681486	4.9126225	2.2164435
6.426921625275259	4.921541	2.2184546
6.44447604985025	4.938273	2.2222226
6.46203062582232	5.0006275	2.2362082
6.47958535360737	5.0465465	2.2464519
6.497140233621328	5.07152	2.2520034
6.514695266280161	5.077773	2.2533915
6.532250451999859	5.127612	2.2644231
6.549805791196454	5.1287465	2.2646737
6.567361284286002	5.070942	2.2518752
6.584916931684597	4.957089	2.226452
6.602472733808367	4.9527473	2.225477
6.6200286910734665	4.9886446	2.2335274
6.637584803896092	5.048204	2.246821
6.655141072692462	5.0576005	2.248911
6.672697497878842	4.993051	2.2345135
6.690254079871514	4.9972997	2.235464
6.707810819086808	4.987483	2.2332673
6.725367715941078	5.093963	2.256981
6.742924770850719	5.116322	2.2619288
6.760481984232151	5.120734	2.262904
6.778039356501836	5.0871024	2.2554605
6.795596888076266	5.0781574	2.2534769
6.813154579371963	5.0164514	2.2397437
6.830712430805492	5.0477824	2.246727
6.84827044279344	5.0527368	2.2478294
6.865828615752445	5.034203	2.243703
6.883386950099159	5.048394	2.2468631
6.900945446250287	5.073596	2.2524645
6.918504104622553	5.10473	2.259365
6.936062925632727	5.0891194	2.2559078
6.953621909697607	5.0404034	2.2450843
6.971181057234028	5.094982	2.2572067
6.988740368658859	5.117568	2.2622042
7.006299844389007	5.216998	2.2840748
7.023859484841407	5.276833	2.2971358
7.041419290433036	5.4147124	2.3269534
7.058979261580902	5.5761023	2.3613772
7.0765393987020495	5.7958145	2.4074497
7.094099702213559	6.160803	2.4820964
7.111660172532549	6.462527	2.54215
7.129220810076164	6.8853006	2.6239855
7.146781615261595	7.5872893	2.7545035
7.16434258850606	7.853903	2.8024817
7.181903730226821	8.317334	2.8839788
7.1994650408411704	8.318793	2.8842318
7.217026520766437	8.372875	2.8935921
7.234588170419983	8.565457	2.9266803
7.252149990219215	8.449592	2.9068182
7.269711980581568	8.380255	2.894867
7.2872741419245175	8.19628	2.8629146
7.304836474665574	7.8011546	2.7930548
7.322398979222286	7.5220027	2.742627
7.339961656012233	7.2087255	2.684907
7.357524505453039	6.817848	2.611101
7.375087527962357	6.5177603	2.5529904
7.392650723957886	6.2042236	2.4908278
7.410214093857353	5.9556603	2.440422
7.427777638078528	5.804013	2.4091518
7.445341357039213	5.632525	2.373294
7.4629052511572525	5.4730654	2.3394585
7.480469320850524	5.36088	2.3153574
7.498033566536948	5.3103404	2.3044176
7.5155979886344735	5.255502	2.292488
7.5331625875610975	5.2166486	2.2839985
7.550727363734844	5.2484717	2.2909544
7.568292317573788	5.261401	2.2937744
7.585857449496025	5.261614	2.2938209
7.603422759919705	5.2640843	2.2943592
7.620988249263007	5.2800817	2.2978427
7.638553917944147	5.290484	2.300105
7.656119766381391	5.313272	2.3050535
7.673685794993023	5.2902164	2.3000472
7.691252004197388	5.2307277	2.2870784
7.70881839441285	5.1420984	2.2676196
7.726384966057826	5.089738	2.2560446
7.743951719550762	5.104563	2.2593281
7.761518655310149	5.211391	2.2828472
7.779085773754511	5.3258166	2.307773
7.796653075302419	5.408358	2.3255877
7.814220560372475	5.377951	2.319041
7.831788229383323	5.297153	2.3015544
7.8493560827536495	5.197982	2.2799082
7.866924120902174	5.246869	2.2906046
7.884492344247663	5.3185997	2.3062088
7.9020607532089135	5.344075	2.3117256
7.919629348204771	5.338413	2.3105006
7.937198129654115	5.36878	2.3170629
7.954767097975865	5.4583535	2.336312
7.972336253588986	5.491126	2.3433151
7.989905596912472	5.475566	2.3399928
8.007475128365371	5.497693	2.344716
8.025044848366756	5.494169	2.3439643
8.042614757335754	5.6451573	2.375954
8.060184855691523	5.7510467	2.398134
8.07775514385327	5.874729	2.423784
8.095325622240228	5.882169	2.4253182
8.112896291271687	5.8425336	2.4171333
8.130467151366968	5.9001184	2.4290159
8.148038202945436	5.9506145	2.439388
8.165609446426497	5.96612	2.4425642
8.183180882229594	6.0129414	2.45213
8.200752510774217	5.99803	2.4490876
8.218324332479893	5.962238	2.4417694
8.235896347766193	5.9617515	2.4416697
8.253468557052724	5.9824247	2.4458995
8.27104096075914	6.049917	2.459658
8.288613559305137	6.088669	2.4675229
8.306186353110448	6.117926	2.4734442
8.32375934259485	6.133078	2.4765053
8.341332528178162	6.1852016	2.4870067
8.358905910280246	6.2310843	2.496214
8.376479489321003	6.2072787	2.491441
8.394053265720377	6.2648106	2.5029604
8.411627239898356	6.2470164	2.4994032
8.42920141227497	6.3153176	2.5130296
8.44677578327029	6.3673444	2.5233598
8.464350353304427	6.333431	2.516631
8.48192512279754	6.3000445	2.509989
8.499500092169827	6.2077665	2.491539
8.51707526184153	6.182332	2.4864297
8.534650632232934	6.183085	2.486581
8.552226203764365	6.1905313	2.4880779
8.569801976856192	6.151644	2.4802508
8.587377951928834	6.1653695	2.4830163
8.60495412940274	6.2024083	2.4904635
8.622530509698416	6.2676907	2.5035357
8.6401070932364	6.409643	2.5317273
8.657683880437283	6.4634156	2.5423248
8.675260871721695	6.637005	2.5762384
8.692838067510303	6.835173	2.6144164
8.710415468223834	7.041249	2.6535351
8.727993074283043	7.1633587	2.6764452
8.745570886108737	7.1319637	2.6705737
8.763148904121765	7.1279783	2.6698275
8.78072712874302	7.1772304	2.6790354
8.798305560393441	7.4791083	2.7347958
8.815884199494006	7.6577497	2.767264
8.833463046465745	7.8930464	2.8094566
8.851042101729728	8.011379	2.830438
8.86862136570707	8.197761	2.8631732
8.886200838818924	8.323048	2.8849692
8.903780521486505	8.298771	2.8807588
8.921360414131055	8.49503	2.9146235
8.938940517173874	8.680271	2.94623
8.956520831036297	8.897142	2.9828079
8.97410135613971	9.15392	3.0255446
8.99168209290554	9.291715	3.0482314
9.009263041755265	9.584885	3.0959466
9.026844203110405	9.6879015	3.1125393
9.044425577392525	9.776245	3.1266987
9.062007165023239	9.816382	3.1331108
9.079588966424197	10.074313	3.1740057
9.097170982017108	10.201655	3.194003
9.11475321222372	11.170801	3.342275
9.132335657465825	12.093549	3.477578
9.149918318165264	12.193633	3.4919384
9.167501194743924	12.666889	3.5590572
9.18508428762374	12.338387	3.512604
9.202667597226693	12.2828045	3.5046833
9.220251123974803	11.935057	3.4547153
9.237834868290143	11.704404	3.42117
9.255418830594836	11.575944	3.402344
9.273003011311046	11.120355	3.3347197
9.290587410860985	10.866748	3.2964752
9.308172029666911	10.225323	3.1977057
9.32575686815113	9.989554	3.1606257
9.343341926735997	8.817705	2.9694622
9.360927205843916	8.527313	2.9201565
9.378512705897327	8.353216	2.890193
9.396098427318728	8.148991	2.8546436
9.413684370530664	8.133904	2.852
9.431270535955722	8.000332	2.8284857
9.448856924016539	7.8499684	2.8017795
9.466443535135806	7.6817093	2.7715898
9.484030369736251	7.6951475	2.7740128
9.501617428240658	7.7437563	2.7827606
9.519204711071852	7.761246	2.7859013
9.536792218652714	7.714046	2.7774172
9.55437995140617	7.8087225	2.794409
9.571967909755191	7.901215	2.81091
9.589556094122802	7.9997454	2.828382
9.60714450493207	8.003212	2.8289948
9.624733142606116	7.9213667	2.8144922
9.642322007568108	7.8803906	2.8072033
9.659911100241267	7.9231453	2.8148081
9.677500421048851	8.022061	2.8323243
9.695089970414175	8.11469	2.8486295
9.712679748760609	8.115288	2.8487344
9.730269756511557	8.1159315	2.8488474
9.747859994090492	8.112747	2.8482885
9.765450461920915	8.086094	2.8436058
9.78304116042639	8.09057	2.8443928
9.800632090030527	8.154611	2.8556278
9.81822325115699	8.222664	2.8675187
9.835814644229481	8.231561	2.8690696
9.853406269671762	8.1895895	2.8617458
9.870998127907646	8.169025	2.8581507
9.888590219360985	8.139336	2.852952
9.906182544455698	8.206238	2.864653
9.923775103615734	8.246785	2.8717217
9.941367897265108	8.248793	2.872071
9.958960925827878	8.1836	2.8606992
9.97655418972816	8.188069	2.8614802
9.994147689390106	8.2322645	2.8691924
10.011741425237934	8.266563	2.8751633
10.029335397695904	8.258516	2.8737633
10.04692960718833	8.214927	2.8661695
10.06452405413958	8.1889105	2.8616273
10.082118738974064	8.207182	2.8648179
10.099713662116246	8.300304	2.8810248
10.117308823990651	8.341349	2.8881392
10.134904225021844	8.335661	2.8871546
10.152499865634445	8.2600975	2.8740385
10.170095746253125	8.149757	2.854778
10.18769186730261	8.092838	2.8447914
10.205288229207675	8.139218	2.8529315
10.222884832393145	8.184598	2.8608737
10.2404816772839	8.2234745	2.86766
10.258078764304868	8.166756	2.8577535
10.275676093881035	8.162094	2.856938
10.293273666437438	8.156493	2.8559575
10.310871482399158	8.163743	2.8572264
10.32846954219134	8.136101	2.852385
10.346067846239173	8.149043	2.854653
10.363666394967908	8.267512	2.8753283
10.38126518880283	8.265458	2.874971
10.398864228169298	8.259483	2.8739316
10.416463513492713	8.216246	2.8663995
10.434063045198531	8.155861	2.855847
10.451662823712262	8.147018	2.8542984
10.469262849459467	8.200398	2.8636339
10.486863122865758	8.159694	2.8565178
10.504463644356806	8.114594	2.8486128
10.522064414358338	7.9539742	2.8202791
10.539665433296118	7.8084884	2.7943673
10.557266701595987	7.79218	2.7914476
10.574868219683818	7.7709513	2.7876427
10.592469987985552	7.7825847	2.7897284
10.610072006927185	7.5879664	2.7546263
10.627674276934751	7.4523883	2.7299063
10.64527679843435	7.3021717	2.702253
10.662879571852143	7.2297106	2.688812
10.680482597614331	7.1941395	2.6821892
10.698085876147173	7.121603	2.6686332
10.715689407876988	7.045532	2.6543422
10.733293193230146	6.9216647	2.6309056
10.750897232633072	6.78652	2.605095
10.76850152651225	6.705177	2.5894356
10.786106075294207	6.619223	2.5727851
10.803710879405534	6.4642096	2.542481
10.821315939272877	6.3720207	2.5242863
10.83892125532294	6.2806787	2.5061283
10.856526827982472	6.2591934	2.501838
10.874132657678285	6.255827	2.5011652
10.891738744837243	6.2757616	2.505147
10.909345089886271	6.188923	2.4877546
10.926951693252343	6.087806	2.467348
10.944558555362494	5.9998837	2.449466
10.96216567664381	5.961247	2.4415665
10.979773057523436	5.9246964	2.4340699
10.997380698428573	5.8954268	2.42805
11.014988599786477	5.8441887	2.4174757
11.032596762024461	5.8122544	2.4108617
11.050205185569892	5.7235193	2.3923879
11.067813870850198	5.6016245	2.366775
11.085422818292859	5.56088	2.358152
11.10303202832541	5.4900045	2.343076
11.120641501375454	5.414448	2.3268967
11.138251237870636	5.3660135	2.3164659
11.155861238238671	5.3426495	2.311417
11.173471502907317	5.2930126	2.300655
11.191082032304402	5.276277	2.2970147
11.208692826857805	5.1837277	2.2767801
11.226303886995465	5.1086774	2.2602384
11.243915213145371	5.0749345	2.2527616
11.261526805735578	5.046501	2.2464418
11.279138665194196	5.0251827	2.2416918
11.296750791949393	4.919717	2.2180436
11.314363186429393	4.8177667	2.194941
11.331975849062479	4.772758	2.1846642
11.34958878027699	4.667605	2.160464
11.36720198050133	4.597065	2.1440768
11.384815450163948	4.5401855	2.1307712
11.402429189693366	4.513514	2.1245031
11.420043199518153	4.5202565	2.1260896
11.437657480066942	63.490772	7.9681096
11.455272031768422	85.26764	9.234048
11.472886855051353	107.666626	10.376253
11.490501950344528	99.2711	9.963489
11.508117318076819	84.53563	9.194326
11.52573295867715	45.902546	6.7751417
11.543348872574514	4.114851	2.0285096
11.560965060197946	4.094412	2.0234654
11.57858152197655	4.079506	2.0197787
11.59619825833949	4.0600395	2.014954
11.613815269715985	3.9982517	1.9995629
11.631432556535323	38.48403	6.20355
11.649050119226837	83.03179	9.112178
11.666667958219929	93.43152	9.665998
11.68428607394406	107.68801	10.377283
11.701904466828756	82.51117	9.083566
11.719523137303586	65.339966	8.083314
11.737142085798196	4.6029453	2.1454475
11.754761312742286	3.7395027	1.9337794
11.772380818565619	3.7121098	1.9266837
11.790000603698015	3.6629972	1.9138958
11.80762066856935	3.6592138	1.9129071
11.825241013609572	3.6577165	1.9125158
11.842861639248683	3.6067445	1.8991431
11.860482545916748	3.4967837	1.8699689
11.878103734043883	3.4191842	1.8491036
11.895725204060282	3.3885534	1.8408024
11.91334695639619	3.3452559	1.829004
11.930968991481919	3.3641193	1.8341535
11.948591309747824	3.4018316	1.8444055
11.966213911624347	3.3589308	1.8327386
11.98383679754198	3.297923	1.8160185
12.001459967931268	3.2359838	1.798884
12.019083423222835	3.2331033	1.7980832
12.036707163847352	3.2215602	1.7948705
12.05433119023556	3.2346983	1.7985266
12.071955502818259	3.1804898	1.7833928
12.089580102026313	3.119196	1.7661246
12.107204988290643	3.0958936	1.7595152
12.12483016204224	3.121539	1.7667878
12.142455623712152	3.134721	1.7705144
12.16008137373149	3.151126	1.7751411
12.177707412531431	3.1556985	1.7764286
12.19533374054321	3.1441662	1.7731797
12.212960358198126	3.0966191	1.7597213
12.230587265927545	3.0437984	1.7446486
12.248214464162889	2.9848552	1.7276733
12.265841953335649	2.971345	1.7237589
12.283469733877375	2.9586682	1.720078
12.301097806219685	3.0008402	1.7322934
12.31872617079425	2.979338	1.7260759
12.336354828032825	2.9843137	1.7275167
12.353983778367205	2.9868398	1.7282476
12.371613022229262	2.9613183	1.7208481
12.389242560050928	2.9079819	1.7052805
12.406872392264201	2.8590608	1.6908758
12.424502519301143	2.8871636	1.6991656
12.442132941593874	2.8886435	1.6996009
12.459763659574586	2.87296	1.6949809
12.477394673675532	2.87567	1.69578
12.49502598432903	2.8791423	1.6968036
12.51265759196746	2.8551927	1.6897315
12.530289497023267	2.833709	1.6833624
12.547921699928967	2.8129153	1.6771748
12.565554201117134	2.8395638	1.6851006
12.583187001020404	2.8314705	1.6826974
12.600820100071486	2.783889	1.668499
12.618453498703152	2.7562935	1.660209
12.636087197348235	2.729977	1.6522641
12.65372119643964	2.7952623	1.6719038
12.671355496410326	2.8406947	1.685436
12.68899009769333	2.8542948	1.6894659
12.706625000721749	2.8629353	1.692021
12.724260205928752	2.8881164	1.6994458
12.741895713747551	2.9277523	1.7110676
12.759531524611454	2.971824	1.7238979
12.777167638953818	2.9680178	1.7227936
12.794804057208072	2.961757	1.7209756
12.812440779807702	3.0086248	1.7345388
12.830077807186271	3.1616054	1.7780904
12.847715139777405	3.1965225	1.7878821
12.865352778014795	3.3812425	1.8388156
12.882990722332197	3.4782863	1.8650165
12.90062897316344	3.566107	1.8884139
12.918267530942412	3.6447384	1.9091198
12.935906396103071	3.5448844	1.8827864
12.953545569079449	3.7312963	1.9316564
12.971185050305628	3.5747607	1.8907038
12.988824840215775	3.5838008	1.8930929
13.006464939244115	3.5431666	1.8823301
13.024105347824943	3.3879235	1.8406312
13.041746066392617	3.478261	1.8650097
13.05938709538157	3.3010285	1.8168733
13.077028435226296	3.313695	1.8203558
13.094670086361363	3.2459874	1.8016624
13.112312049221401	3.1752074	1.7819111
13.129954324241112	3.0969555	1.7598169
13.147596911855258	2.9692795	1.7231598
13.165239812498685	2.9296782	1.7116302
13.182883026606293	2.876809	1.6961159
13.200526554613058	2.7926497	1.6711223
13.218170396954017	2.711608	1.6466961
13.235814554064284	2.6993182	1.6429602
13.253459026379034	2.722829	1.6500998
13.271103814333523	2.741781	1.6558324
13.288748918363058	2.7524502	1.6590511
13.306394338903031	2.705534	1.6448507
13.32404007638889	2.7035193	1.6442382
13.341686131256164	2.7317078	1.6527879
13.359332503940449	2.711132	1.6465516
13.376979194877402	2.6971426	1.642298
13.394626204502751	2.719277	1.649023
13.412273533252307	2.7451751	1.656857
13.429921181561937	2.7465627	1.6572757
13.447569149867581	2.7269402	1.6513449
13.465217438605247	2.6852427	1.638671
13.482866048211022	2.6853907	1.6387162
13.500514979121052	2.6600697	1.630972
13.518164231771568	2.6387734	1.6244302
13.535813806598844	2.5961134	1.6112459
13.553463704039254	2.6000187	1.6124574
13.571113924529229	2.6632974	1.6319612
13.588764468505275	2.670308	1.6341077
13.606415336403956	2.6998675	1.6431273
13.624066528661917	2.708654	1.6457989
13.641718045715882	2.802474	1.6740592
13.659369888002635	2.8786173	1.6966488
13.67702205595903	2.9048493	1.7043618
13.694674550021993	2.9209392	1.7090756
13.712327370628532	2.9540873	1.7187458
13.729980518215713	3.041084	1.7438704
13.747633993220681	3.1521142	1.7754195
13.765287796080647	3.236049	1.7989022
13.7829419272329	3.2548113	1.8041096
13.800596387114801	3.301787	1.8170819
13.818251176163775	3.3451865	1.8289851
13.835906294817324	3.4087837	1.8462892
13.853561743513023	3.4458697	1.8563054
13.871217522688525	3.4424093	1.855373
13.888873632781538	3.4834712	1.866406
13.906530074229858	3.4851823	1.8668643
13.92418684747135	3.5011947	1.871148
13.941843952943948	3.490937	1.868405
13.959501391085665	3.4629924	1.8609117
13.977159162334578	3.3880703	1.8406712
13.994817267128846	3.3199072	1.8220613
14.012475705906693	3.2289605	1.7969309
14.030134479106424	3.1341965	1.7703662
14.047793587166414	3.0765204	1.7540013
14.065453030525108	3.0148442	1.7363306
14.083112809621026	2.9800644	1.7262863
14.100772924892766	2.945229	1.716167
14.118433376778997	2.9249382	1.710245
14.136094165718458	2.8864439	1.6989537
14.153755292149969	2.844526	1.6865723
14.171416756512416	2.7750685	1.6658537
14.189078559244768	2.668784	1.6336412
14.20674070078606	2.571548	1.6036047
14.224403181575408	2.5323586	1.5913386
14.242066002051999	2.5419068	1.5943359
14.259729162655093	2.536627	1.5926793
14.277392663824022	2.4961524	1.5799216
14.295056505998208	2.4592118	1.5681875
14.312720689617128	2.4173965	1.5547979
14.330385215120348	2.393611	1.5471299
14.348050082947497	2.39559	1.5477694
14.3657152935383	2.378059	1.5420957
14.383380847332528	2.3898556	1.5459158
14.401046744770051	2.389629	1.5458424
14.418712986290798	2.3910706	1.5463088
14.436379572334793	2.3927639	1.5468562
14.454046503342123	2.3641305	1.537573
14.471713779752946	2.3312602	1.5268465
14.489381402007504	2.347367	1.532112
14.507049370546113	2.3858016	1.5446041
14.524717685809168	2.3729894	1.540451
14.542386348237134	2.367356	1.5386214
14.560055358270553	2.3409646	1.5300211
14.577724716350051	2.4160888	1.5543773
14.595394422916325	2.4596605	1.5683305
14.61306447841015	2.527154	1.5897025
14.63073488327237	2.534814	1.5921099
14.648405637943917	2.5471435	1.5959773
14.6660767428658	2.486296	1.5767993
14.683748198479094	2.4924862	1.578761
14.701420005224954	2.5524068	1.5976254
14.719092163544628	2.6280622	1.6211299
14.73676467387942	2.6752133	1.635608
14.754437536670727	2.6754882	1.635692
14.772110752360014	2.6557074	1.6296341
14.78978432138882	2.6299393	1.6217088
14.807458244198777	2.647842	1.6272191
14.82513252123159	2.6547322	1.6293349
14.842807152929028	2.688711	1.6397289
14.860482139732962	2.6724617	1.6347666
14.87815748208531	2.6716151	1.6345077
14.8958331804281	2.678655	1.6366596
14.91350923520342	2.620807	1.6188906
14.931185646853438	2.624494	1.6200291
14.948862415820408	2.586127	1.6081439
14.966539542546656	2.5954213	1.6110312
14.98421702747459	2.5897737	1.6092774
15.001894871046696	2.6318653	1.6223024
15.019573073705542	2.7046452	1.6445805
15.037251635893766	2.7080612	1.6456188
15.054930558054092	2.7357597	1.6540133
15.072609840629323	2.786317	1.6692265
15.090289484062351	2.9303935	1.7118392
15.107969488796124	3.2200325	1.7944449
15.125649855273691	3.627908	1.9047068
15.14333058393817	4.1375756	2.0341032
15.161011675232768	5.154186	2.2702832
15.17869312960076	6.5564604	2.5605586
15.196374947485506	8.326682	2.8855991
15.214057129330447	11.317422	3.3641376
15.231739675579114	15.8716	3.9839177
15.249422586675102	20.690414	4.5486717
15.267105863062092	23.626436	4.8607035
15.284789505183847	23.699453	4.8682084
15.302473513484218	21.523184	4.6393085
15.320157888407127	17.952286	4.237014
15.337842630396578	13.952627	3.7353215
15.355527739896656	10.871371	3.2971764
15.37321321735153	8.563442	2.926336
15.39089906320545	6.372144	2.5243106
15.408585277902748	4.8421254	2.200483
15.42627186188783	3.7748356	1.9428936
15.443958815605198	3.2653384	1.8070247
15.461646139499424	2.9939506	1.7303036
15.479333834015168	2.8555253	1.68983
15.497021899597165	2.7958724	1.6720862
15.514710336690234	2.7363348	1.6541871
15.53239914573928	2.6709645	1.6343086
15.550088327189297	2.5873842	1.6085348
15.567777881485336	2.522702	1.5883017
15.58546780907256	2.4983897	1.5806296
15.6031581103962	2.4729922	1.572575
15.620848785901568	2.4355652	1.5606297
15.638539836034063	2.4133952	1.5535105
15.656231261239173	2.3808932	1.5430143
15.673923061962451	2.3648548	1.5378084
15.691615238649552	2.374856	1.5410568
15.709307791746202	2.4090626	1.5521156
15.727000721698221	2.41159	1.5529295
15.744694028951498	2.3460248	1.5316738
15.76238771395202	2.3238204	1.5244082
15.780081777145844	2.3289385	1.526086
15.797776218979125	2.3362198	1.5284698
15.815471039898094	2.3179984	1.5224974
15.833166240349064	2.2860222	1.5119597
15.850861820778437	2.3157423	1.5217563
15.868557781632699	2.3626091	1.5370781
15.886254123358412	2.409153	1.5521446
15.903950846402232	2.4276447	1.5580901
15.921647951210897	2.4169111	1.5546418
15.939345438231225	2.414273	1.5537931
15.957043307910133	2.4059212	1.5511032
15.974741560694602	2.3851378	1.5443891
15.992440197031714	2.380953	1.5430337
16.01013921736862	2.3897169	1.5458709
16.02783862215259	2.4162104	1.5544164
16.045538411830933	2.4056675	1.5510215
16.06323858685107	2.4245026	1.5570815
16.080939147660512	2.4491417	1.5649734
16.09864009470684	2.4394803	1.5618836
16.11634142843774	2.418838	1.5552614
16.134043149300954	2.389097	1.5456704
16.15174525774433	2.372348	1.5402429
16.169447754215817	2.3831322	1.5437397
16.18715063916342	2.4396527	1.5619388
16.204853913035244	2.4445689	1.5635117
16.222557576279478	2.4207509	1.5558763
16.240261629344403	22.387733	4.731568
16.257966072678386	42.94506	6.553248
16.275670906729868	38.087368	6.1714964
16.293376131947387	2.4939408	1.5792216
16.31108174877957	2.4928098	1.5788635
16.328787757675133	2.5248246	1.5889697
16.34649415908287	2.5969534	1.6115066
16.364200953451657	2.6558383	1.6296743
16.38190814123048	2.6837165	1.6382053
16.39961572286839	2.7022235	1.6438441
16.41732369881455	2.7150116	1.6477293
16.43503206951817	2.7437	1.6564118
16.45274083542859	2.7608044	1.6615669
16.47044999699522	2.7928684	1.6711878
16.488159554667558	2.824703	1.6806853
16.505869508895184	2.9023185	1.7036192
16.523579860127786	2.9276695	1.7110434
16.541290608815117	2.9599721	1.720457
16.559001755407035	2.968018	1.7227937
16.57671330035348	3.0294437	1.7405298
16.59442524410448	3.0892663	1.7576308
16.61213758711015	3.1691952	1.7802234
16.629850329820705	3.2276366	1.7965624
16.647563472686436	3.281337	1.8114461
16.665277016157724	3.3474767	1.8296111
16.682990960685053	3.424642	1.8505789
16.70070530671898	3.4441788	1.8558499
16.718420054710155	3.4517848	1.857898
16.736135205109335	3.488717	1.8678107
16.753850758367335	3.561417	1.8871717
16.771566714935087	3.6413367	1.9082286
16.789283075263597	3.7080824	1.9256382
16.80699983980398	3.7433512	1.9347742
16.82471700900741	3.7889578	1.9465245
16.84243458332518	3.8777034	1.9691886
16.860152563208665	3.967353	1.9918215
16.87787094910932	4.007988	2.001996
16.89558974147871	4.0393033	2.0098019
16.913308940768466	4.117586	2.0291836
16.931028547430333	4.22403	2.0552444
16.94874856191613	4.304649	2.0747647
16.966468984677785	4.3591843	2.087866
16.98418981616729	4.3446665	2.0843863
17.00191105683676	4.304413	2.074708
17.019632707138374	4.379067	2.092622
17.03735476752442	4.479713	2.1165333
17.05507723844728	4.5777144	2.1395595
17.072800120359403	4.60688	2.1463645
17.090523413713353	4.58688	2.1417003
17.108247118961785	4.6188483	2.1491506
17.125971236557437	4.638445	2.153705
17.143695766953133	4.6858807	2.1646895
17.161420710601806	4.6910973	2.165894
17.179146067956477	4.6849766	2.1644807
17.19687183947025	4.6920485	2.1661136
17.21459802559634	4.645473	2.155336
17.232324626788028	4.6143875	2.1481125
17.25005164349871	4.6544304	2.157413
17.267779076181863	4.6722364	2.1615357
17.285506925291074	4.6648793	2.1598332
17.30323519127999	4.6152906	2.1483228
17.320963874602384	4.580321	2.1401684
17.33869297571211	4.5395565	2.1306236
17.356422495063114	4.5428944	2.1314065
17.37415243310944	4.55315	2.1338112
17.391882790305218	4.55385	2.1339753
17.40961356710468	4.517051	2.1253355
17.42734476396215	4.489893	2.1189368
17.445076381332044	4.517896	2.1255343
17.462808419668868	4.6001983	2.1448073
17.48054087942723	4.7204876	2.1726682
17.498273761061835	4.9913597	2.2341352
17.51600706502747	5.4573827	2.3361042
17.533740791779024	6.199792	2.489938
17.551474941771485	7.5867753	2.7544103
17.56920951545993	8.693283	2.9484375
17.586944513299528	10.83521	3.291688
17.60467993574556	12.369195	3.5169866
17.622415783253373	13.848858	3.7214053
17.64015205627843	14.921521	3.8628385
17.657888755276293	15.8601465	3.98248
17.675625880702604	16.328619	4.0408688
17.69336343301311	16.313301	4.038973
17.71110141266366	15.655637	3.9567204
17.728839820110178	14.844787	3.8528934
17.746578655808705	14.086691	3.7532241
17.764317920215372	12.784523	3.575545
17.7820576137864	11.337963	3.3671892
17.79979773697811	9.330053	3.0545137
17.81753829024692	7.4667287	2.7325315
17.835279274049356	5.819617	2.412388
17.85302068884201	4.8483825	2.2019043
17.870762535081607	4.248808	2.0612636
17.888504813224934	3.9107637	1.977565
17.90624752372891	3.7069013	1.9253315
17.923990667050536	3.6253767	1.9040422
17.941734243646895	3.5197754	1.8761065
17.959478253975185	3.5190933	1.8759246
17.9772226984927	3.5142486	1.874633
17.994967577656833	3.4535704	1.8583784
18.01271289192506	3.393333	1.8421001
18.030458641754965	3.332458	1.8255022
18.04820482760425	3.332066	1.8253947
18.06595144993067	3.3110716	1.819635
18.083698509192125	3.2918308	1.8143404
18.101446005846576	3.250839	1.8030083
18.119193940352105	3.2189178	1.7941343
18.136942313166887	3.1956806	1.7876467
18.1546911247492	3.160705	1.7778372
18.1724403755574	3.1701972	1.7805048
18.19019006604997	3.1741989	1.7816281
18.207940196685467	3.1695113	1.7803122
18.225690767922575	3.140423	1.7721239
18.243441780220046	3.1100204	1.763525
18.261193234036764	3.1051958	1.7621566
18.278945129831676	3.0782762	1.7545017
18.29669746806386	3.0598462	1.7492416
18.314450249192483	3.0273383	1.7399248
18.3322034736768	3.0662062	1.7510586
18.349957141976184	3.0777748	1.7543588
18.3677112545501	3.0976284	1.7600081
18.385465811858108	3.0579665	1.7487042
18.403220814359884	3.0596204	1.7491771
18.420976262515172	3.0456092	1.7451674
18.43873215678387	3.0934646	1.7588248
18.456488497625923	3.1330006	1.7700285
18.474245285501407	3.246661	1.8018494
18.492002520870486	3.3313186	1.8251901
18.50976020419343	3.3888853	1.8408926
18.527518335930615	3.688514	1.9205505
18.545276916542516	4.2669516	2.06566
18.563035946489688	4.4648447	2.1130178
18.580795426232832	4.8757334	2.2081063
18.598555356232698	4.7436066	2.1779823
18.616315736950185	5.074593	2.2526858
18.63407656884626	4.753505	2.1802535
18.65183785238201	4.970482	2.2294579
18.669599588018617	4.7494717	2.1793282
18.68736177621737	4.748615	2.1791317
18.705124417439652	4.6846685	2.1644094
18.72288751214696	4.4562693	2.1109877
18.740651060800886	4.6295986	2.1516502
18.758415063863115	4.3450594	2.0844805
18.77617952179546	4.517133	2.1253548
18.793944435059814	4.2589755	2.0637286
18.811709804118184	4.280226	2.0688708
18.829475629432675	4.166834	2.0412824
18.8472419114655	3.9237788	1.9808531
18.86500865067897	3.9984064	1.9996016
18.88277584753551	3.745055	1.9352144
18.90054350249763	3.791012	1.9470521
18.918311616027957	3.4727874	1.8635416
18.936080188589226	3.351483	1.8307056
18.953849220644265	3.0203812	1.7379245
18.971618712656007	2.8276665	1.6815667
18.9893886650875	2.7465348	1.6572673
19.007159078401887	7.948142	2.8192449
19.024929953062408	32.82328	5.7291603
19.042701289532435	32.79278	5.726498
19.060473088275405	25.321926	5.0320897
19.07824534975489	2.6197464	1.618563
19.096018074434568	2.621782	1.6191918
19.113791262778197	2.6468732	1.6269214
19.13156491524966	2.652975	1.6287956
19.149339032312945	2.6349552	1.6232545
19.167113614432136	2.5824518	1.6070008
19.184888662071433	2.5536213	1.5980054
19.202664175695123	2.550541	1.5970412
19.220440155767623	2.5507104	1.5970944
19.238216602753447	2.5260015	1.58934
19.2559935171172	2.5080574	1.5836847
19.27377089932361	2.4543347	1.5666317
19.291548749837514	2.450479	1.5654006
19.309327069123835	2.4829867	1.5757495
19.32710585764763	2.5034413	1.5822268
19.344885115874032	2.509726	1.5842115
19.362664844268313	2.5006742	1.581352
19.380445043295822	2.477236	1.5739238
19.39822571342203	2.4614894	1.5689135
19.41600685511252	2.4546056	1.5667181
19.43378846883297	2.4549294	1.5668215
19.451570555049173	2.4860983	1.5767366
19.469353114227037	2.5023224	1.581873
19.48713614683254	2.52015	1.5874981
19.50491965333182	2.51561	1.5860674
19.52270363419109	2.5092506	1.5840614
19.540488089876686	2.4695828	1.5714906
19.55827302085503	2.452296	1.5659808
19.576058427592674	2.4475951	1.5644792
19.593844310556282	2.4398324	1.5619963
19.611630670212598	2.4567106	1.5673897
19.629417507028506	2.483238	1.5758293
19.64720482147098	2.495069	1.5795788
19.6649926140071	2.5390248	1.5934318
19.682780885104084	2.541895	1.5943321
19.70056963522921	2.539698	1.593643
19.718358864849908	2.4730349	1.5725886
19.7361485744337	2.4806793	1.5750172
19.753938764448215	2.529001	1.5902833
19.771729435361202	2.5521371	1.597541
19.789520587640506	2.530258	1.5906785
19.807312221754092	2.4961352	1.5799162
19.825104338170043	2.4754808	1.573366
19.842896937356517	2.515275	1.5859618
19.860690019781824	2.5369897	1.592793
19.87848358591436	2.5785465	1.6057854
19.896277636222635	2.5891752	1.6090914
19.914072171175278	2.576341	1.6050984
19.931867191241015	2.5139358	1.5855396
19.94966269688869	2.486055	1.5767229
19.967458688587264	2.47565	1.5734198
19.985255166805807	2.4230094	1.5566019
20.00305213201348	2.3872478	1.5450721
20.020849584679578	2.3624744	1.5370343
20.038647525273507	2.380798	1.5429835
20.05644595426477	2.4287333	1.5584394
20.07424487212299	2.473384	1.5726995
20.092044279317903	2.470354	1.571736
20.109844176319353	2.439024	1.5617375
20.127644563597304	2.4251437	1.5572873
20.145445441621817	2.4109578	1.5527259
20.16324681086307	2.4091728	1.552151
20.181048671791373	2.3906367	1.5461684
20.198851024877122	2.3923619	1.5467262
20.216653870590836	2.402654	1.5500497
20.234457209403146	2.3313482	1.5268753
20.252261041784802	2.3141935	1.5212474
20.270065368206662	2.3081682	1.5192657
20.287870189139685	2.3361545	1.5284483
20.305675505054968	2.3634574	1.537354
20.323481316423702	2.3603063	1.5363288
20.341287623717207	2.346302	1.5317644
20.359094427406884	2.3402019	1.5297718
20.376901727964288	2.338931	1.5293565
20.39470952586107	2.3405898	1.5298986
20.41251782156899	2.3194234	1.5229653
20.430326615559935	2.291733	1.5138471
20.448135908305886	2.3120866	1.5205547
20.465945700278965	2.3379076	1.5290217
20.483755991951384	2.3649702	1.537846
20.50156678379548	2.3598287	1.5361733
20.519378076283708	2.3565142	1.5350943
20.537189869888635	2.32937	1.5262274
20.55500216508294	2.3260236	1.5251306
20.572814962339415	2.2947826	1.514854
20.59062826213098	2.300608	1.5167755
20.60844206493066	2.306542	1.5187304
20.626256371211593	2.3316987	1.52699
20.644071181447032	2.329235	1.5261831
20.66188649611036	2.323447	1.5242857
20.67970231567506	2.3045251	1.5180663
20.697518640614742	2.2769823	1.5089673
20.715335471403122	2.2668433	1.505604
20.73315280851404	2.275195	1.5083749
20.750970652421447	2.2743046	1.5080798
20.768789003599412	2.2908556	1.5135573
20.786607862522136	2.300988	1.5169008
20.8044272296639	2.3082623	1.5192966
20.82224710549913	2.291051	1.5136218
20.84006749050237	2.2703235	1.5067593
20.857888385148268	3.864435	1.9658166
20.8757097899116	45.999344	6.7822814
20.893531705267254	64.82872	8.051628
20.911354131690224	83.791626	9.153776
20.92917706965566	69.020035	8.30783
20.94700051963877	50.097347	7.077948
20.96482448211493	29.367414	5.419171
20.982648957559622	4.1056066	2.0262296
21.00047394644843	2.1922665	1.4806304
21.01829944925707	2.2171865	1.489022
21.036125466461375	2.2361412	1.4953732
21.053951998537297	2.2424724	1.4974887
21.071779045960906	2.212264	1.4873681
21.089606609208378	2.1693442	1.4728694
21.10743468875603	2.166008	1.4717364
21.12526328508028	2.16286	1.4706665
21.143092398657675	2.1790142	1.4761485
21.16092202996488	2.17334	1.4742253
21.17875217947867	2.1698701	1.4730479
21.19658284767596	2.1698575	1.4730436
21.21441403503377	2.2071047	1.4856328
21.232245742029225	2.22815	1.4926989
21.2500779691396	2.1935341	1.4810585
21.26791071684227	2.1405647	1.4630668
21.28574398561475	2.0880082	1.4449942
21.30357777593465	2.0799954	1.4422189
21.321412088279704	2.1264315	1.4582288
21.339246923127792	2.1850052	1.4781764
21.357082280956888	2.1605184	1.4698702
21.3749181622451	2.1496594	1.4661716
21.392754567470647	2.1459901	1.4649198
21.41059149711187	2.155681	1.4682237
21.42842895164726	2.1373935	1.4619827
21.446266931555378	2.1505013	1.4664588
21.464105437314945	2.1318164	1.4600741
21.481944469404798	2.107798	1.4518257
21.49978402830388	2.1030655	1.450195
21.51762411449127	2.088471	1.4451543
21.53546472844617	2.1084752	1.4520589
21.553305870647876	2.1155427	1.4544905
21.571147541575865	2.0671098	1.4377447
21.58898974170967	2.0509508	1.4321141
21.60683247152899	2.0312035	1.425203
21.62467573151363	2.0450997	1.4300698
21.642519522143523	2.042964	1.429323
21.660363843898722	2.0482874	1.4311839
21.6782086972594	2.018776	1.4208363
21.696054082705864	2.0282152	1.4241542
21.713900000718535	2.02482	1.4229617
21.73174645177795	2.0268059	1.4236593
21.749593436364794	2.0226727	1.422207
21.767440954959845	2.0347805	1.4264573
21.785289008044032	2.032011	1.4254862
21.803137596098388	2.0073123	1.4167964
21.820986719604086	2.0009234	1.41454
21.838836379042412	1.9693707	1.4033427
21.85668657489478	1.983031	1.4082013
21.87453730764273	2.0065374	1.416523
21.892388577767914	2.0162709	1.4199545
21.91024038575213	2.0018651	1.4148729
21.928092732077285	1.9784392	1.40657
21.945945617225426	1.9803003	1.4072315
21.963799041678694	1.9716175	1.404143
21.981653005919398	31.311316	5.5956516
21.999507510429943	78.11681	8.838371
22.01736255569286	73.07784	8.548558
22.035218142190818	4.141511	2.0350702
22.05307427040661	1.969728	1.40347
22.07093094082315	1.9766074	1.4059187
22.088788153923474	1.9831803	1.4082544
22.106645910190746	2.0158274	1.4197984
22.12450421010827	2.0128329	1.4187434
22.142363054159464	1.9781063	1.4064517
22.16022244282787	1.9645663	1.4016299
22.178082376597164	2.0143063	1.4192626
22.195942855951145	2.0315573	1.4253271
22.213803881373742	1.9983777	1.4136399
22.231665453349002	1.9930053	1.4117384
22.24952757236111	1.9703555	1.4036936
22.26739023889438	2.0002916	1.4143167
22.28525345343323	2.0028393	1.415217
22.30311721646225	1.9962798	1.4128977
22.320981528466113	1.9730507	1.4046532
22.33884638992964	1.9595532	1.3998405
22.356711801337788	1.9762402	1.4057881
22.37457776317561	1.9292006	1.3889567
22.392444275928337	1.9694974	1.4033878
22.410311340081282	1.9912416	1.4111136
22.428178956119904	1.986533	1.4094442
22.446047124529805	1.947097	1.3953842
22.46391584579669	1.9237012	1.3869755
22.481785120406414	1.9355319	1.3912339
22.49965494884496	1.9802587	1.4072167
22.51752533159841	1.9959064	1.4127655
22.53539626915302	1.9719877	1.4042748
22.553267761995137	1.9258685	1.3877567
22.571139810611264	1.9265205	1.3879915
22.589012415488025	1.9082549	1.3813959
22.60688557711216	1.9278129	1.3884571
22.624759295970566	1.9134597	1.3832786
22.642633572550263	1.925707	1.3876984
22.660508407338362	1.9321638	1.390023
22.67838380082217	1.9591352	1.3996911
22.696259753489077	1.9820681	1.4078594
22.714136265826614	2.012525	1.4186349
22.73201333832246	1.9711567	1.403979
22.74989097146439	1.927076	1.3881916
22.76776916574035	1.9035958	1.3797086
22.785647921638393	1.925194	1.3875136
22.803527239646712	1.9587857	1.3995663
22.82140712025363	1.918067	1.384943
22.839287563947593	1.880377	1.3712684
22.85716857121719	1.8718106	1.3681413
22.875050142551135	1.8846543	1.3728272
22.892932278438277	1.8680755	1.3667756
22.910814979367604	1.8747957	1.3692318
22.928698245828222	1.8833762	1.3723615
22.946582078309387	1.9074328	1.3810984
22.96446647730047	1.9223281	1.3864805
22.98235144329098	1.9298381	1.3891861
23.000236976770562	1.9243343	1.3872038
23.018123078229	1.8967555	1.3772274
23.03600974815619	1.8835477	1.372424
23.053896987042194	1.8954899	1.3767679
23.071784795377173	1.9334062	1.3904698
23.08967317365145	1.932366	1.3900957
23.10756212235546	1.9078289	1.3812418
23.125451641979787	1.8904451	1.3749346
23.143341733015134	1.8680187	1.3667548
23.161232395952357	1.9144812	1.3836478
23.179123631282426	1.9550242	1.3982219
23.197015439496468	1.9681374	1.4029032
23.214907821085717	1.920017	1.3856468
23.23280077654157	1.905736	1.380484
23.250694306355538	1.9122986	1.3828589
23.268588411019277	1.9132346	1.3831972
23.28648309102458	1.9122579	1.3828441
23.304378346863356	1.9306166	1.3894663
23.322274179027676	1.9516602	1.3970183
23.340170588009723	1.943626	1.3941399
23.358067574301852	1.9223474	1.3864875
23.37596513839651	1.9265944	1.3880181
23.39386328078629	1.9108577	1.3823378
23.411762001963947	1.920676	1.3858845
23.429661302422353	1.9206218	1.385865
23.4475611826545	1.9536666	1.3977362
23.46546164315356	1.9556283	1.3984379
23.48336268441279	1.9788481	1.4067154
23.501264306925638	1.9324428	1.3901232
23.51916651118564	1.9236171	1.3869452
23.537069297686497	1.9142828	1.383576
23.554972666922037	1.9611917	1.4004256
23.57287661938623	1.9461719	1.3950527
23.59078115557318	1.9010291	1.3787781
23.608686275977128	1.8796362	1.3709983
23.62659198109246	1.8740093	1.3689445
23.6444982714137	1.9020958	1.3791649
23.66240514743549	1.9209155	1.385971
23.68031260965263	1.9181584	1.3849759
23.698220658560068	1.9365013	1.3915823
23.716129294652845	1.9325657	1.3901675
23.7340385184262	1.8915075	1.3753209
23.75194833037546	1.8487918	1.3597028
23.769858730996123	1.8490661	1.3598037
23.78776972078382	1.8767189	1.3699338
23.80568130023431	1.8811082	1.371535
23.823593469843495	1.9076722	1.381185
23.841506230107424	1.9315312	1.3897954
23.859419581522275	1.9540387	1.3978693
23.87733352458438	1.9539381	1.3978333
23.89524805979019	1.9182171	1.3849971
23.913163187636318	1.8816892	1.3717468
23.931078908619508	1.9176549	1.3847941
23.948995223236633	1.9714805	1.4040942
23.966912131984735	2.0307043	1.4250278
23.98482963536096	2.0455592	1.4302305
24.002747733862616	2.0544033	1.433319
24.020666427987155	2.0667818	1.4376307
24.038585718232156	2.0451882	1.4301008
24.056505605095353	2.0210917	1.421651
24.074426089074617	2.048243	1.4311684
24.092347170667946	2.075038	1.4404992
24.110268850373515	2.0803003	1.4423246
24.128191128689586	2.1043406	1.4506345
24.146114006114626	2.0518517	1.4324286
24.164037483147187	2.0257585	1.4232914
24.181961560286005	2.015211	1.4195813
24.199886238029926	2.0252135	1.4231
24.21781151687797	1.9996158	1.4140778
24.235737397329274	1.9893533	1.4104444
24.253663879883135	2.03535	1.426657
24.271590965038975	2.0557878	1.4338019
24.289518653296376	2.0715156	1.4392761
24.30744694515505	2.0520756	1.4325068
24.32537584111486	2.0455782	1.4302372
24.34330534167581	2.044001	1.4296857
24.361235447338046	2.0010629	1.4145893
24.379166158601876	1.9693695	1.4033422
24.39709747596772	1.9916197	1.4112476
24.41502939993615	2.0103927	1.4178832
24.432961931007917	2.0213478	1.4217411
24.450895069683856	2.015697	1.4197525
24.468828816465	2.0216513	1.4218478
24.4867631718525	2.0165215	1.4200428
24.504698136347656	1.9971869	1.4132186
24.52263371045192	1.9407892	1.3931221
24.540569894666874	1.9013007	1.3788766
24.558506689494266	1.9302623	1.3893389
24.57644409543597	1.9523555	1.3972671
24.594382112994012	1.9707465	1.4038328
24.61232074267057	1.9273126	1.3882768
24.630259984967953	1.923277	1.3868226
24.64819984038863	1.9236587	1.3869603
24.66614030943522	1.9849507	1.4088827
24.684081392610462	1.9704984	1.4037445
24.702023090417274	1.9300977	1.3892796
24.7199654033587	1.9405216	1.3930261
24.737908331937927	2.0012703	1.4146626
24.755851876658305	2.0784683	1.4416894
24.773796038023324	2.0786517	1.441753
24.79174081653661	2.0925634	1.4465696
24.809686212701962	2.054184	1.4332424
24.827632227023294	2.067826	1.4379938
24.8455788600047	2.0457432	1.4302948
24.8635261121504	2.0535276	1.4330134
24.88147398396475	2.0862436	1.4443835
24.899422475952303	2.0981305	1.4484925
24.917371588617698	2.1108565	1.4528787
24.935321322465768	2.133405	1.460618
24.953271678001478	2.2065136	1.4854338
24.97122265572994	2.3566067	1.5351243
24.989174256156414	2.6562076	1.6297876
25.00712647978632	3.1244898	1.7676226
25.02507932712521	3.6208608	1.902856
25.043032798678798	4.1133676	2.028144
25.060986894952933	4.7588544	2.18148
25.078941616453637	5.4872165	2.342481
25.096896963687055	6.2779727	2.5055883
25.114852937159508	7.2387304	2.6904888
25.132809537377444	7.723428	2.7791057
25.150766764847468	7.8523436	2.8022034
25.168724620076347	7.4705243	2.733226
25.186683103570985	6.54265	2.5578604
25.204642215838426	5.431038	2.3304586
25.222601957385894	4.170383	2.0421515
25.24056232872074	3.2406209	1.8001724
25.25852333035048	2.6477132	1.6271795
25.276484962782778	2.3184636	1.5226501
25.294447226525435	2.098645	1.44867
25.312410122086423	1.9718314	1.4042192
25.330373649973843	1.8972392	1.377403
25.348337810695988	1.9124191	1.3829024
25.366302604761245	1.9047793	1.3801374
25.384268032678207	1.887591	1.3738962
25.40223409495558	1.8739485	1.3689224
25.420200792102257	1.8885375	1.3742408
25.438168124627246	1.8978916	1.3776399
25.45613609303974	1.8819292	1.3718343
25.474104697849057	1.9093528	1.3817933
25.492073939564698	1.8785352	1.3705966
25.510043818696285	1.8213108	1.3495594
25.528014335753614	1.8188577	1.3486503
25.54598549124664	1.8691349	1.3671631
25.56395728568544	1.9332335	1.3904077
25.58192971958028	1.978793	1.4066957
25.59990279344156	1.9294838	1.3890586
25.617876507779833	1.8832289	1.3723079
25.635850863105826	1.8661145	1.366058
25.653825859930386	1.8631959	1.3649893
25.671801498764548	1.8971423	1.3773679
25.68977778011949	1.9131868	1.3831799
25.707754704506524	1.8945913	1.3764416
25.725732272437153	1.9017227	1.3790296
25.743710484423012	1.8584259	1.363241
25.761689340975888	1.8244168	1.3507097
25.77966884260774	1.8282002	1.3521096
25.797648989830662	1.8530543	1.3612694
25.815629783156922	1.8232043	1.3502609
25.83361122309895	1.8295066	1.3525926
25.85159331016929	1.8299179	1.3527446
25.869576044880695	1.8232629	1.3502825
25.887559427746034	1.7992753	1.3413707
25.90554345927836	1.8274722	1.3518403
25.92352813999086	1.8251107	1.3509666
25.94151347039689	1.7725629	1.3313763
25.959499451009965	1.7998046	1.341568
25.97748608234374	1.829356	1.3525369
25.995473364912062	1.8264091	1.351447
26.013461299228904	1.8091172	1.3450342
26.03144988580839	1.877915	1.3703704
26.04943912516483	1.8866428	1.3735511
26.067429017812675	1.8330493	1.3539015
26.085419564266537	1.7924076	1.3388083
26.103410765041186	1.8063374	1.3440005
26.12140262065155	1.8336253	1.3541142
26.139395131612723	1.8853971	1.3730977
26.157388298439948	1.9113162	1.3825036
26.17538212164861	1.8582082	1.3631611
26.193376601754295	1.8252113	1.3510038
26.211371739272714	1.808788	1.3449118
26.229367534719746	1.7678432	1.3296027
26.247363988611433	1.7768369	1.3329804
26.26536110146397	1.8219767	1.3498062
26.283358873793727	1.8669531	1.366365
26.301357306117204	1.856905	1.362683
26.319356398951104	1.8625538	1.3647541
26.33735615281224	1.8518158	1.3608145
26.35535656821762	1.8379023	1.3556925
26.373357645684404	1.8569566	1.3627019
26.39135938572991	1.8458999	1.358639
26.409361788871614	1.8336158	1.3541107
26.427364855627165	1.8560134	1.3623558
26.445368586514352	1.8263638	1.3514303
26.46337298205115	1.7893882	1.3376801
26.48137804275568	1.7422292	1.3199353
26.499383769146217	1.7605159	1.3268443
26.517390161741215	1.8418928	1.3571635
26.53539722105928	1.8204514	1.349241
26.553404947619182	1.7988373	1.3412074
26.571413341939856	1.8054944	1.3436868
26.589422404540397	1.8251214	1.3509705
26.60743213594006	1.8072919	1.3443556
26.62544253665827	1.7752485	1.3323846
26.64345360721459	1.7614146	1.327183
26.66146534812879	1.7854968	1.3362248
26.679477759920758	1.7882906	1.3372698
26.69749084311057	1.7959962	1.3401479
26.71550459821847	1.7905042	1.3380972
26.733519025764842	1.7715561	1.3309982
26.751534126270258	1.715403	1.309734
26.769549900255434	1.7440982	1.3206431
26.787566348241267	1.7993492	1.3413982
26.80558347074881	1.8417062	1.3570948
26.823601268299267	1.8382276	1.3558125
26.841619741414036	1.860821	1.3641192
26.85963889061465	1.8602024	1.3638924
26.877658716422832	1.8123342	1.3462297
26.89567921936045	1.8034208	1.342915
26.913700399949544	1.792661	1.338903
26.93172225871233	1.7846911	1.3359233
26.949744796171174	1.8112773	1.345837
26.967768012848605	1.8137264	1.3467466
26.98579190926733	1.7750243	1.3323004
27.003816485950225	1.7415364	1.3196728
27.021841743420318	1.7580367	1.3259097
27.039867682200814	1.7899439	1.3378879
27.057894302815072	1.8210766	1.3494728
27.07592160578664	1.782868	1.3352408
27.0939495916392	1.7833995	1.3354398
27.111978260896635	1.7821692	1.334979
27.13000761408296	1.7580724	1.3259232
27.148037651722397	1.7647349	1.3284333
27.166068374339304	1.7463052	1.3214784
27.184099782458215	1.7608241	1.3269604
27.20213187660384	1.7492052	1.3225752
27.22016465730105	1.7675725	1.3295009
27.23819812507487	1.7961813	1.3402169
27.256232280450533	1.7832112	1.3353693
27.274267123953383	1.78054	1.3343687
27.292302656108987	1.800114	1.3416833
27.31033887744306	1.8143642	1.3469833
27.32837578848146	1.7570245	1.325528
27.34641338975026	1.7032274	1.3050776
27.364451681775673	1.6997718	1.3037529
27.382490665084074	1.7471733	1.3218068
27.400530340202046	1.7910167	1.3382887
27.41857070765629	1.7799915	1.3341632
27.436611767973726	1.765538	1.3287355
27.454653521681404	1.7641712	1.3282211
27.472695969306564	1.8241657	1.3506168
27.490739111376627	1.8281341	1.3520851
27.508782948419153	1.7910645	1.3383065
27.526827480961902	1.7804459	1.3343335
27.54487270953279	1.8134739	1.3466529
27.562918634659898	1.8331871	1.3539524
27.580965256871508	1.7951086	1.3398166
27.599012576696026	1.7925857	1.3388748
27.617060594662068	1.816742	1.3478657
27.63510931129842	1.836524	1.3551841
27.65315872713401	1.7879962	1.3371598
27.67120884269797	1.764459	1.3283294
27.68925965851958	1.7721099	1.3312062
27.707311175128307	1.8166379	1.3478271
27.725363393053787	1.8364756	1.3551663
27.74341631282583	1.8410103	1.3568383
27.7614699349744	1.8452134	1.3583863
27.77952426002968	2.0459683	1.4303734
27.797579288521973	2.120314	1.4561298
27.815635020981784	2.5498013	1.5968097
27.83369145793979	2.6049862	1.613997
27.85174859992682	2.4886549	1.5775471
27.869806447473923	2.353311	1.5340506
27.887865001112267	2.027046	1.4237436
27.905924261373233	1.8941706	1.3762888
27.92398422878836	1.8970858	1.3773474
27.94204490388936	1.8605558	1.3640219
27.96010628720813	1.8016707	1.3422632
27.978168379276728	1.7997199	1.3415364
27.9962311806274	1.7839875	1.33566
28.014294691792568	1.7802896	1.334275
28.0323589133048	1.8233747	1.3503239
28.050423845696887	1.864031	1.3652952
28.068489489501758	1.8716235	1.3680729
28.086555845252523	1.8529832	1.3612432
28.104622913482487	1.8340029	1.3542536
28.122690694725115	1.835074	1.3546491
28.14075918951405	1.8613507	1.3643132
28.15882839838312	1.8956333	1.37682
28.176898321866304	1.8215016	1.3496301
28.1949689604978	1.8099415	1.3453407
28.213040314811945	1.8834293	1.3723809
28.23111238534327	1.9007673	1.3786832
28.249185172626493	1.9634718	1.4012394
28.267258677196473	1.9345397	1.3908772
28.285332899588294	1.9132499	1.3832028
28.303407840337172	1.9129199	1.3830835
28.321483499978545	1.9068071	1.3808719
28.33955987904799	1.8973193	1.3774321
28.357636978081285	1.9034163	1.3796436
28.37571479761439	1.8849049	1.3729184
28.393793338183425	1.8936685	1.3761063
28.41187260032469	1.8946618	1.3764671
28.429952584574686	1.880611	1.3713537
28.448033291470065	1.9037838	1.3797767
28.46611472154769	1.9205227	1.3858292
28.484196875344566	1.9336638	1.3905624
28.502279753397914	1.9527915	1.3974231
28.52036335624511	2.022087	1.4220011
28.538447684423716	2.0451694	1.4300941
28.556532738471482	2.0290205	1.4244369
28.574618518926325	1.9949365	1.4124222
28.59270502632635	1.9796562	1.4070026
28.61079226120985	2.0052564	1.4160708
28.628880224115274	2.0350149	1.4265394
28.646968915581287	2.0089977	1.4173912
28.66505833614671	2.0189996	1.420915
28.68314848635055	1.9966036	1.4130123
28.701239366732004	1.9791927	1.4068378
28.71933097783044	1.997479	1.413322
28.737423320185403	2.094988	1.4474074
28.75551639433665	2.1635878	1.4709139
28.773610200824074	2.1344051	1.4609604
28.791704740187793	2.1184664	1.4554952
28.80980001296809	2.1765509	1.4753138
28.827896019705413	2.184607	1.4780416
28.845992760940433	2.2028737	1.4842081
28.86409023721397	2.2174911	1.4891243
28.88218844906704	2.2015686	1.4837683
28.900287397040845	2.2055526	1.4851103
28.918387081676755	2.2659314	1.5053011
28.936487503516343	2.2467031	1.4989007
28.954588663101365	2.1982253	1.4826413
28.97269056097374	2.2262487	1.4920619
28.990793197675597	2.285495	1.5117854
29.00889657374923	2.2897398	1.5131886
29.027000689737125	2.338782	1.5293077
29.04510554618196	2.3318877	1.5270519
29.06321114362659	2.3149965	1.5215112
29.08131748261405	2.3464096	1.5317994
29.099424563687567	2.3858972	1.5446349
29.11753238739057	2.4183145	1.555093
29.13564095426663	2.4897232	1.5778856
29.15375026485954	2.4673207	1.5707707
29.171860319713275	2.5230672	1.5884166
29.18997111937199	2.562576	1.6008048
29.20808266438002	2.5799012	1.6062071
29.226194955281898	2.6373281	1.6239853
29.244307992622335	2.7906508	1.6705241
29.26242177694624	2.8831203	1.6979754
29.2805363087987	2.8593194	1.6909522
29.29865158872498	2.8174257	1.6785189
29.316767617270557	2.805935	1.6750925
29.334884394981064	2.8727002	1.6949042
29.353001922402367	2.8903763	1.7001107
29.37112020008047	2.9944205	1.7304394
29.389239228561596	3.13364	1.7702091
29.407359008392152	3.3385682	1.8271749
29.42547954011872	3.6411645	1.9081836
29.44360082428809	4.2835846	2.0696824
29.46172286144722	5.2721763	2.296122
29.479845652143283	6.7226343	2.5928044
29.497969196923606	8.62278	2.936457
29.516093496335728	11.007238	3.317716
29.5342185509274	13.5550995	3.681725
29.55234436124651	15.696722	3.9619088
29.570470927841175	17.050097	4.129176
29.588598251259686	16.729948	4.0902257
29.60672633205055	15.328927	3.9152174
29.624855170762405	13.436752	3.6656177
29.642984767944146	11.103438	3.3321822
29.66111512414481	8.617773	2.9356043
29.67924623991366	6.4870467	2.5469682
29.697378115800138	5.030712	2.242925
29.71551075235387	4.147278	2.0364866
29.733644150124675	3.753439	1.9373794
29.751778309662576	3.539939	1.8814726
29.769913231517766	3.3392508	1.8273617
29.78804891624066	3.2607615	1.8057579
29.806185364381818	3.2977614	1.815974
29.82432257649206	3.3447213	1.8288579
29.842460553122333	3.3619976	1.8335751
29.86059929482382	3.3047802	1.8179054
29.878738802147872	3.2542014	1.8039405
29.896879075646048	3.2364864	1.7990237
29.915020115870114	3.2456944	1.801581
29.933161923371976	3.2424362	1.8006766
29.951304498703777	3.2004547	1.7889814
29.969447842417857	3.186676	1.7851263
29.987591955066733	3.1788692	1.7829384
30.005736837203123	3.1724546	1.7811385
30.023882489379943	3.1475813	1.7741424
30.04202891215028	3.1785057	1.7828364
30.060176106067455	3.206365	1.7906326
30.078324071684946	3.179795	1.783198
30.09647280955646	3.1090298	1.7632442
30.114622320235863	3.0682695	1.7516476
30.132772604277257	3.0537872	1.7475089
30.1509236622349	3.137307	1.7712444
30.16907549466328	3.1263497	1.7681487
30.18722810211705	3.0520837	1.7470214
30.205381485151097	3.0367966	1.7426407
30.22353564432045	2.9689202	1.7230555
30.241690580180403	2.9569457	1.7195772
30.25984629328638	2.977103	1.7254283
30.278002784194037	2.9780242	1.7256953
30.296160053459246	2.9333606	1.7127056
30.314318101638033	2.9093027	1.7056679
30.332476929286646	2.8475766	1.6874764
30.35063653696153	2.8088427	1.6759602
30.368796925219307	2.8347955	1.6836851
30.386958094616844	2.8583758	1.6906732
30.40512004571115	2.8676746	1.693421
30.423282779059463	2.8398566	1.6851875
30.441446295219233	2.8061588	1.6751593
30.459610594748067	2.8491027	1.6879286
30.47777567820382	2.8477275	1.6875211
30.495941546144504	2.8302076	1.682322
30.51410819912835	2.7699487	1.6643163
30.532275637713795	2.7749586	1.6658207
30.55044386245946	2.7731328	1.6652726
30.56861287392416	2.7563753	1.6602335
30.586782672666956	2.742848	1.6561545
30.604953259247047	2.7897515	1.670255
30.623124634223885	2.7803116	1.6674266
30.641296798157075	2.7648506	1.662784
30.659469751606462	2.7398963	1.6552632
30.677643495132074	2.7231474	1.6501962
30.695818029294152	2.717118	1.6483682
30.713993354653116	2.7002873	1.6432551
30.73216947176962	2.708421	1.6457281
30.75034638120448	2.707952	1.6455857
30.768524083518756	2.6621416	1.631607
30.786702579273673	2.6499355	1.6278622
30.80488186903069	2.7363935	1.6542047
30.82306195335144	2.907561	1.7051572
30.841242832797782	3.1518297	1.7753394
30.85942450793176	3.3876865	1.8405669
30.877606979315637	3.6729443	1.9164927
30.895790247511883	4.0191393	2.004779
30.913974313083134	4.2919583	2.0717041
30.932159176592283	4.542296	2.1312664
30.95034483860237	4.6425033	2.1546469
30.968531299676698	4.4744577	2.1152914
30.98671856037873	4.194179	2.0479696
31.00490662127215	3.8390276	1.9593437
31.023095482920848	3.402699	1.8446406
31.04128514588892	3.0311916	1.7410318
31.059475610740662	2.7845066	1.6686841
31.07766687804056	2.641697	1.6253297
31.09585894835335	2.5329397	1.5915211
31.11405182224393	2.4657185	1.5702606
31.132245500277417	2.438592	1.5615991
31.15043998301914	2.4765482	1.5737052
31.168635271034628	2.447247	1.5643679
31.18683136488964	2.5458198	1.5955626
31.20502826515008	2.5519547	1.5974839
31.223225972382135	2.4318302	1.5594326
31.241424487152155	2.286123	1.511993
31.259623810026692	2.3282838	1.5258715
31.27782394157253	2.4143498	1.5538179
31.296024882356644	2.4113164	1.5528414
31.314226632946237	2.3314974	1.5269241
31.332429193908684	2.2769856	1.5089684
31.350632565811598	2.3392553	1.5294625
31.368836749222787	2.3947017	1.5474824
31.387041744710295	2.4262266	1.557635
31.40524755284232	2.468005	1.5709885
31.423454174187317	2.513656	1.5854514
31.441661609313922	2.4834797	1.575906
31.459869858791002	2.4394612	1.5618775
31.478078923187628	2.362366	1.536999
31.496288803073064	2.3444202	1.53115
31.514499499016807	2.3314054	1.5268941
31.532711011588546	2.3132539	1.5209385
31.550923341358178	2.3536313	1.5341549
31.56913648889584	2.3401911	1.5297683
31.587350454771844	2.324107	1.5245022
31.605565239556732	2.2494516	1.4998173
31.62378084382127	2.2308962	1.4936185
31.641997268136382	2.2320964	1.4940202
31.660214513073274	2.2646563	1.5048774
31.67843257920331	2.2413905	1.4971274
31.6966514670981	2.2053244	1.4850335
31.71487117732944	2.236416	1.4954652
31.733091710469346	2.3066685	1.518772
31.751313067090052	2.3634765	1.5373602
31.769535247764008	2.2686324	1.506198
31.787758253063878	2.2302268	1.4933944
31.805982083562526	2.2485538	1.4995178
31.824206739833024	2.2212493	1.4903857
31.84243222244869	2.1868932	1.4788148
31.860658531983013	2.199058	1.4829221
31.878885669009737	2.2811542	1.510349
31.897113634102784	2.3416266	1.5302374
31.91534242783632	2.3990414	1.5488839
31.933572050784694	2.3403115	1.5298077
31.951802503522508	2.2322812	1.4940821
31.970033786624548	2.1432545	1.4639858
31.988265900665834	2.159114	1.4693923
32.006498846221575	2.219727	1.4898748
32.02473262386724	2.2250135	1.491648
32.04296723417845	2.1910286	1.4802123
32.0612026777311	2.1705768	1.4732877
32.07943895510129	2.1392555	1.4626194
32.097676066865304	2.162504	1.4705454
32.115914013599685	2.2198021	1.4899
32.13415279588115	2.2252204	1.4917173
32.152392414286666	2.2102728	1.4866986
32.1706328693934	2.1834962	1.4776658
32.18887416177875	2.147719	1.4655098
32.20711629202032	2.1250658	1.4577606
32.225359260695924	2.1028154	1.4501088
32.243603068383614	2.1517122	1.4668716
32.26184771566166	2.2470787	1.499026
32.28009320310852	2.2294197	1.4931241
32.2983395313029	2.1429975	1.4638981
32.31658670082372	2.1885288	1.4793677
32.33483471225012	2.179885	1.4764433
32.35308356616143	2.0934796	1.4468862
32.371333263137245	1.9934283	1.4118882
32.38958380375734	2.0183003	1.420669
32.407835188601744	2.114109	1.4539976
32.42608741825067	2.0815406	1.4427545
32.444340493284585	1.989535	1.4105088
32.46259441428416	2.05022	1.4318589
32.48084918183028	2.1523855	1.4671011
32.49910479650405	2.0971978	1.4481705
32.51736125888683	1.9893135	1.4104302
32.53561856956014	1.9570609	1.39895
32.5538767291058	1.9857353	1.4091612
32.572135738105764	1.9940588	1.4121115
32.59039559714228	2.0103726	1.4178761
32.608656306797776	1.9867673	1.4095273
32.62691786765491	1.983035	1.4082028
32.645180280296586	1.9666458	1.4023715
32.663443545305896	1.9824187	1.4079839
32.68170766326619	2.022358	1.4220964
32.69997263476099	2.087742	1.4449021
32.7182384603741	2.0496929	1.4316748
32.7365051406895	1.9679462	1.402835
32.75477267629144	1.9546156	1.3980757
32.77304106776434	2.0069585	1.4166716
32.79131031569289	2.050244	1.4318674
32.809580420661966	2.0975366	1.4482875
32.827851383256714	2.1095464	1.4524277
32.84612320406245	2.0392828	1.4280345
32.86439588366476	1.9759408	1.4056816
32.88266942264945	1.9311676	1.3896645
32.9009438216025	1.8922142	1.3755778
32.9192190811102	1.8942485	1.376317
32.937495201758985	1.9272428	1.3882517
32.95577218413556	1.9801629	1.4071826
32.974050028826866	1.940281	1.3929397
32.992328736420035	1.8499435	1.3601263
33.010608307502444	1.8562083	1.3624274
33.02888874266169	1.9983984	1.4136472
33.047170042485604	1.9851674	1.4089596
33.06545220756225	1.9296261	1.3891098
33.083735238479896	1.9452494	1.394722
33.10201913582707	2.0190122	1.4209195
33.12030390019248	1.9837288	1.408449
33.138589532165135	1.9096686	1.3819076
33.15687603233419	1.8469557	1.3590275
33.17516340128909	1.832417	1.353668
33.19345163961947	1.8594389	1.3636124
33.211740747915215	1.9526	1.3973546
33.23003072676643	1.8929093	1.3758304
33.248321576763466	1.8390456	1.3561141
33.266613298496885	1.8890421	1.3744243
33.28490589255747	1.9951274	1.4124898
33.30319935953626	2.0011551	1.414622
33.32149370002451	1.9248313	1.3873829
33.339788914613706	1.9453855	1.3947707
33.358085003895575	1.9668431	1.4024419
33.376381968462034	1.892431	1.3756566
33.39467980890529	1.8948933	1.3765513
33.41297852581774	1.9395149	1.3926647
33.43127811979204	1.9451392	1.3946824
33.44957859142105	1.9760329	1.4057144
33.467879941297866	1.9993467	1.4139826
33.486182170015844	1.9372133	1.3918381
33.50448527816853	1.913117	1.3831547
33.522789266349754	1.9197836	1.3855625
33.541094135153514	1.8835889	1.372439
33.55939988517411	1.8660402	1.3660308
33.57770651700602	1.8811347	1.3715446
33.59601403124398	1.806011	1.3438791
33.61432242848296	1.8323996	1.3536615
33.632631709318154	1.8749322	1.3692816
33.650941874344994	1.8673352	1.3665048
33.66925292415916	1.9368176	1.391696
33.68756485935654	1.9220855	1.386393
33.70587768053328	1.9377478	1.3920301
33.724191388285746	1.9442629	1.3943683
33.74250598321054	1.9424082	1.3937031
33.760821465904506	1.7960249	1.3401586
33.77913783696474	1.7711143	1.3308322
33.79745509698852	1.8251443	1.350979
33.815773246573414	1.9303257	1.3893616
33.8340922863172	1.964941	1.4017636
33.852412216817896	1.9190965	1.3853146
33.87073303867377	1.9022046	1.3792044
33.889054752483304	1.9042423	1.3799429
33.907377358845245	1.85761	1.3629416
33.92570085835853	1.8351042	1.3546602
33.94402525162239	1.9050808	1.3802466
33.96235053923627	1.8437574	1.3578503
33.980676721799824	1.7620753	1.3274318
33.999003799912984	1.8460077	1.3586787
34.01733177417592	2.0034297	1.4154257
34.03566064518901	2.0152397	1.4195914
34.0539904135529	1.976028	1.4057126
34.07232107986846	1.9900068	1.410676
34.090652644736785	2.001852	1.4148682
34.108985108759235	1.8777841	1.3703226
34.12731847253742	1.7864469	1.3365803
34.14565273667313	1.8567936	1.3626422
34.16398790176847	1.9875873	1.4098182
34.18232396842574	1.9278957	1.3884869
34.20066093724749	1.8628684	1.3648694
34.21899880883651	1.7777652	1.3333286
34.23733758379583	1.9122396	1.3828375
34.25567726272874	2.113437	1.4537665
34.27401784623872	2.0503883	1.4319177
34.29235933492957	1.8212183	1.3495252
34.31070172940526	1.8006284	1.341875
34.32904503027003	1.8775768	1.370247
34.347389238128386	1.9202113	1.3857169
34.36573435358502	1.9296607	1.3891222
34.38408037724492	2.0242898	1.4227754
34.402427309713296	2.0194504	1.4210737
34.42077515159559	1.9052771	1.3803178
34.43912390349752	2.0501041	1.4318185
34.45747356602499	2.1491497	1.4659978
34.47582413978423	2.0660653	1.4373814
34.49417562538163	1.9600555	1.4000198
34.51252802342388	2.0155482	1.4197
34.53088133451789	2.0196056	1.4211283
34.54923555927084	2.1162179	1.4547226
34.567590698290104	2.0509799	1.4321243
34.58594675218336	1.8086224	1.3448503
34.6043037215585	1.8129038	1.3464411
34.62266160702365	1.9099623	1.3820138
34.641020409187234	2.0904603	1.4458424
34.65938012865785	2.0086432	1.4172661
34.677740766044394	2.0434055	1.4294773
34.69610232195598	2.0399346	1.4282628
34.714464797002016	2.0726027	1.4396536
34.73282819179208	1.9143094	1.3835857
34.751192506936064	1.8486712	1.3596585
34.76955774304408	1.808624	1.3448509
34.7879239007265	1.7627691	1.3276931
34.80629098059391	1.9580535	1.3993046
34.824658983257194	2.0819793	1.4429065
34.843027909327446	2.1290727	1.4591342
34.86139775941603	2.1834416	1.4776473
34.879768534134534	1.93287	1.3902769
34.89814023409483	1.8225267	1.3500099
34.91651285990901	1.9788334	1.4067101
34.93488641218944	2.0241442	1.4227242
34.95326089154871	1.9753097	1.4054571
34.97163629859967	1.853958	1.3616012
34.99001263395542	1.8169831	1.3479551
35.00838989822934	1.8871565	1.3737382
35.02676809203499	2.012449	1.4186082
35.04514721598624	2.1220338	1.4567202
35.063527270697215	2.0971184	1.4481431
35.081908256782256	2.0454552	1.4301941
35.10029017485597	1.8687551	1.3670242
35.11867302553321	1.9639227	1.4014003
35.137056809429104	2.038871	1.4278904
35.155441527159006	2.2797778	1.5098933
35.173827179338524	2.3438313	1.5309577
35.19221376658354	2.1689918	1.4727497
35.21060128951017	2.0514154	1.4322764
35.2289897487348	2.110654	1.4528091
35.24737914487405	1.8773012	1.3701464
35.26576947854479	1.6731324	1.2934963
35.28416075036418	1.8797551	1.3710417
35.30255296094958	1.9712554	1.404014
35.32094611091867	2.0180025	1.4205642
35.33934020088932	2.0264754	1.4235432
35.35773523147969	2.1049562	1.4508467
35.3761312033082	1.8758577	1.3696196
35.394528116993506	1.7419965	1.3198471
35.41292597315452	2.1522326	1.467049
35.431324772410434	2.389023	1.5456464
35.449724515380666	2.0582378	1.434656
35.46812520268491	2.2975743	1.5157751
35.486526834943106	2.5096047	1.5841732
35.504929412775454	2.5317943	1.5911613
35.52333293680242	2.0951056	1.447448
35.54173740764471	1.8322318	1.3535995
35.560142825923286	1.7942148	1.339483
35.5785491922594	1.4485017	1.2035371
35.59695650727454	1.3645909	1.1681571
35.61536477159042	1.4327071	1.1969575
