0.008763373481513119	0.0	0.0
0.026290120649546365	0.0	0.0
0.043816868432600686	0.0	0.0
0.06134361724069026	0.0	0.0
0.07887036748382949	0.026025042	0.16132279
0.0963971195720331	0.08837574	0.29728058
0.11392387391531617	0.1210346	0.34790027
0.1314506309236943	0.19009405	0.43599775
0.1489773910071836	0.22104098	0.47014996
0.16650415457580078	0.20092218	0.44824344
0.18403092203956356	0.21648726	0.4652819
0.20155769380849	0.18146619	0.4259885
0.2190844702925996	0.19109458	0.43714365
0.2366112519019124	0.18847288	0.43413463
0.2541380390464497	0.1871583	0.43261796
0.27166483213623416	0.16791052	0.40976885
0.28919163158128947	0.11310558	0.33631173
0.3067184377916406	0.1326702	0.3642392
0.324245251177314	0.17158319	0.41422603
0.34177207214833777	0.18597582	0.43124914
0.3592989011147415	0.19532892	0.4419603
0.37682573848655654	0.16119714	0.40149364
0.39435258467381573	0.116237976	0.3409369
0.41187944008655414	0.16285251	0.40354988
0.42940630513480854	0.13055867	0.36132902
0.446933180228618	0.14902024	0.3860314
0.4644600657780234	0.12801698	0.3577946
0.48198696219306775	0.1386177	0.37231398
0.49951386988379676	0.15566632	0.3945457
0.5170407892602581	0.14709531	0.38353005
0.5345677207325025	0.15393439	0.39234474
0.5520946647105822	0.17017472	0.41252238
0.5696216216045534	0.18504314	0.43016642
0.5871485918244737	0.16706155	0.40873164
0.6046755757804043	0.13484411	0.36721125
0.6222025738824094	0.14295527	0.37809426
0.6397295865405557	0.1321167	0.36347863
0.6572566141649129	0.13473842	0.3670673
0.6747836571655547	0.12395046	0.35206598
0.6923107159525568	0.0913653	0.30226693
0.7098377909359992	0.10833183	0.329138
0.7273648825259653	0.15604095	0.3950202
0.7448919911325411	0.18191601	0.42651615
0.762419117165817	0.17512667	0.41848138
0.7799462610358868	0.18517458	0.43031916
0.7974734231528482	0.20035745	0.44761306
0.8150006039268024	0.20010866	0.44733506
0.8325278037678551	0.1912828	0.4373589
0.8500550230861152	0.14278501	0.37786904
0.8675822622916969	0.15175751	0.38956067
0.8851095217947171	0.15129818	0.38897067
0.9026368020052984	0.18800938	0.4336005
0.9201641033335665	0.19856806	0.44560975
0.9376914261896523	0.18548827	0.4306835
0.9552187709836915	0.16443993	0.40551195
0.9727461381258234	0.16820064	0.41012272
0.990273528026193	0.21624435	0.4650208
1.0078009410949496	0.25934035	0.5092547
1.0253283777422473	0.28933868	0.5379021
1.0428558383782454	0.28769162	0.5363689
1.0603833234131086	0.28200197	0.5310386
1.0779108332570058	0.26407313	0.5138805
1.0954383683201119	0.28695282	0.53567976
1.112965929012607	0.35494167	0.5957698
1.1304935157446763	0.49854952	0.7060804
1.1480211289265108	0.50522685	0.71079314
1.1655487689683062	1.3050613	1.1423928
1.1830764362802655	1.5639946	1.2505977
1.200604131272596	2.0572317	1.4343053
1.2181318543555117	2.3218312	1.5237557
1.235659605939232	2.3569722	1.5352434
1.253187386433982	3.7145357	1.9273131
1.270715196249994	6.1352763	2.476949
1.2882430357975057	11.18444	3.3443146
1.3057709054867608	15.6404505	3.9548008
1.3232988057280106	21.044558	4.587435
1.3408267369315112	25.621016	5.061721
1.358354699507526	29.151657	5.3992276
1.3758826938663256	33.507874	5.7885985
1.3934107204181858	35.40108	5.9498806
1.410938779573391	35.9026	5.9918776
1.4284668717422309	36.053013	6.004416
1.4459949973350033	35.576977	5.964644
1.4635231567620117	35.461456	5.9549522
1.4810513504335687	34.79573	5.898791
1.4985795787599925	34.129295	5.842028
1.5161078421516088	33.676624	5.8031564
1.5336361410187505	33.15799	5.7582974
1.5511644757717598	33.100567	5.7533092
1.5686928468209842	33.769176	5.8111253
1.58622125457678	34.4601	5.8702726
1.6037496994495108	35.449673	5.953963
1.621278181849548	35.152607	5.928963
1.6388067021872719	35.603863	5.966897
1.6563352608730693	34.8676	5.904879
1.673863858317336	34.448677	5.8692994
1.6913924949304753	33.938786	5.8257003
1.7089211711228998	33.299065	5.770534
1.7264498873050296	32.586544	5.7084627
1.7439786438872935	31.671974	5.6277857
1.7615074412801288	30.428806	5.516231
1.779036279893981	29.321365	5.414921
1.796565160139305	28.151678	5.3058157
1.814094082426564	27.625717	5.256017
1.8316230471662298	26.84079	5.18081
1.849152054768784	26.396828	5.1377845
1.8666811056447168	26.107227	5.1095233
1.8842102002045273	25.894667	5.0886803
1.901739338858724	25.273266	5.027252
1.9192685220178245	24.689135	4.9688163
1.9367977500923557	23.900082	4.888771
1.9543270234928547	23.384893	4.835793
1.971856342629867	22.789536	4.7738385
1.9893857079139496	22.430653	4.736101
2.006915119755667	22.103624	4.7014494
2.0244445785655945	21.50409	4.6372504
2.0419740847543175	20.876738	4.569107
2.0595036387324317	20.10525	4.4838877
2.0770332409105414	19.672846	4.435408
2.094562891699263	19.275326	4.3903675
2.1120925915092217	19.001608	4.359083
2.129622340751053	18.768972	4.3323174
2.1471521398354043	187.02838	13.675832
2.1646819891729323	443.4707	21.058744
2.182211889174303	439.7596	20.970446
2.1997418402501974	451.9746	21.259695
2.2172718428113023	431.9235	20.782768
2.234801897268317	319.83914	17.884047
2.2523320040319548	16.32056	4.039871
2.269862163512935	15.908308	3.988522
2.287392376121992	15.57002	3.9458864
2.304922642269869	15.302263	3.9118106
2.322452962367322	15.030197	3.87688
2.3399833368251164	14.914241	3.861896
2.357513766054032	14.874129	3.8566992
2.3750442504648586	14.63724	3.8258646
2.3925747904683963	14.326755	3.78507
2.410105386475459	13.980249	3.7390172
2.4276360388968707	13.563529	3.6828697
2.445166748143469	13.284192	3.6447484
2.4626975146261025	13.154435	3.6269042
2.4802283387556323	12.845253	3.5840275
2.4977592209429305	12.554146	3.543183
2.5152901615988825	12.183096	3.4904292
2.5328211611343865	12.124111	3.4819694
2.5503522199603523	12.0526905	3.4716985
2.5678833384877024	11.939481	3.4553554
2.5854145171273712	11.672411	3.416491
2.6029457562903064	11.34034	3.367542
2.620477056387469	11.357273	3.3700554
2.6380084178298326	11.231246	3.351305
2.655539841028383	10.996157	3.3160453
2.673071326394119	10.648157	3.2631514
2.6906028743380523	10.400221	3.2249374
2.708134485271211	10.379031	3.2216504
2.7256661596046325	10.198983	3.1935847
2.743197897749369	9.903193	3.146934
2.760729700116486	9.880173	3.1432743
2.778261567117063	9.841646	3.1371398
2.795793499162193	9.773665	3.1262863
2.8133254966629817	9.60362	3.0989707
2.830857560030551	9.350384	3.0578396
2.8483896896760337	9.202526	3.0335665
2.865921886010578	9.045425	3.0075614
2.883454149445347	9.099166	3.0164824
2.9009864803915177	9.051665	3.0085986
2.91851887926028	9.003666	3.0006108
2.9360513464628384	8.893476	2.982193
2.953583882410413	8.639167	2.939246
2.9711164875142373	8.451401	2.9071293
2.9886491621855606	8.289375	2.8791275
3.0061819068356455	8.145403	2.854015
3.023714721875769	8.27336	2.876345
3.041247607717225	8.112898	2.848315
3.0587805647713213	7.9499784	2.8195705
3.0763135934493806	7.7117076	2.7769961
3.0938466941627407	7.6105843	2.7587287
3.1113798673227544	7.6584406	2.7673888
3.1289131133407904	7.4891663	2.736634
3.1464464326282315	7.355107	2.71203
3.1639798255964786	7.316468	2.704897
3.1815132926569443	7.337107	2.7087095
3.1990468342210603	7.3636956	2.713613
3.216580450700272	7.3735	2.7154188
3.2341141425060416	7.2275257	2.6884058
3.251647910049847	7.174599	2.6785443
3.2691817537431813	6.95118	2.636509
3.286715673997555	6.860624	2.6192791
3.3042496712244938	6.6731777	2.5832493
3.32178374583554	6.6356244	2.5759706
3.339317898242251	6.521387	2.5537007
3.3568521288562034	6.440636	2.5378408
3.3743864380889876	6.429988	2.535742
3.3919208263522127	6.2973056	2.5094433
3.4094552940575023	6.179812	2.4859228
3.4269898416164972	6.1377563	2.4774497
3.444524469440858	6.1323934	2.476367
3.4620591779422587	6.1099353	2.4718282
3.479593967532391	6.0342	2.456461
3.4971288386229658	6.0311394	2.4558377
3.5146637916257086	6.0594316	2.4615912
3.5321988269523628	6.045468	2.4587533
3.5497339450146903	5.9979897	2.4490793
3.5672691462244708	6.0946684	2.4687383
3.5848044309934988	6.0712514	2.463991
3.60233979973359	6.0447636	2.45861
3.619875252856575	5.995611	2.4485936
3.6374107907743034	6.015783	2.4527092
3.6549464138986427	5.9907265	2.447596
3.6724821226414788	6.002028	2.4499037
3.690017917414714	6.0179496	2.453151
3.7075537986302702	5.999493	2.4493864
3.7250897667000857	6.0119634	2.4519305
3.7426258220361235	6.1460314	2.479119
3.7601619650503553	6.4880834	2.5471716
3.777698196154779	7.04233	2.6537387
3.7952345157614067	8.096545	2.8454428
3.8127709242822716	8.934629	2.989085
3.830307422129425	11.467247	3.3863323
3.847844009714936	30.362759	5.510241
3.8653806874508954	97.61893	9.880229
3.882917455749409	96.72158	9.834713
3.900454315022606	96.24267	9.810335
3.917991265682631	40.85533	6.3918176
3.9355283081416506	10.472693	3.236154
3.9530654428118495	8.26131	2.8742495
3.970602670105433	7.08327	2.6614413
3.9881399904346244	6.1484404	2.479605
4.005677404211669	6.1216826	2.4742033
4.023214911848827	6.1249695	2.4748676
4.0407525137583855	6.186919	2.487352
4.058290210352644	6.248845	2.499769
4.075828002043927	6.1072073	2.4712765
4.0933658892445814	6.0217633	2.4539282
4.110903872366966	5.972787	2.4439285
4.128441951823468	5.9753346	2.4444497
4.145980128026488	5.9519396	2.4396598
4.163518401388452	5.9378204	2.4367642
4.181056772321807	5.8668466	2.4221575
4.1985952412390155	5.7955256	2.4073899
4.216133808552567	5.77413	2.402942
4.233672474674966	5.915297	2.4321384
4.251211240018741	6.1087914	2.471597
4.268750104996445	6.301074	2.510194
4.286289070020643	7.1485896	2.6736846
4.303828135503928	8.678386	2.94591
4.3213673018589125	29.016434	5.3866906
4.3389065694982305	90.25976	9.500514
4.356445938834537	165.65308	12.870628
4.3739854102805085	170.44289	13.055378
4.391524984248844	171.26665	13.086888
4.409064661152262	135.2274	11.628732
4.426604441403504	95.38427	9.766487
4.444144325415337	74.491425	8.630841
4.461684313600543	20.3468	4.5107427
4.47922440637193	21.225784	4.607145
4.496764604142329	19.78441	4.447967
4.5143049073245916	17.917452	4.232901
4.531845316331589	15.760717	3.969977
4.5493858315762195	12.75937	3.572026
4.566926453471405	10.682773	3.2684512
4.584467182430081	8.602013	2.9329188
4.602008018865218	7.647547	2.7654197
4.619548963189798	7.0441976	2.6540906
4.637090015816834	6.6113358	2.5712519
4.654631177159353	6.3377504	2.517489
4.672172447630417	6.027043	2.4550037
4.689713827643102	5.8325324	2.4150636
4.7072553176105085	5.6778483	2.3828237
4.724796917945764	5.5761147	2.3613799
4.742338629062015	5.4815392	2.3412688
4.759880451372434	5.383005	2.3201303
4.777422385290215	5.3837423	2.3202894
4.794964431228581	5.3738337	2.3181531
4.812506589600768	5.3298793	2.308653
4.830048860820047	5.2626114	2.2940383
4.847591245299709	5.2870884	2.299367
4.8651337434530655	5.3709226	2.3175251
4.882676355693457	5.4183235	2.3277292
4.900219082434242	5.3428817	2.3114674
4.917761924088813	5.2815833	2.2981696
4.935304881070575	5.2582784	2.2930937
4.952847953792969	5.2975755	2.3016462
4.970391142669449	5.2462564	2.2904708
4.9879344481135055	5.189106	2.277961
5.005477870538642	5.1374664	2.266598
5.023021410358394	5.134124	2.2658606
5.040565067986324	5.1979094	2.2798924
5.05810884383601	5.220498	2.2848408
5.075652738321066	5.1621037	2.2720263
5.09319675185512	5.0687175	2.2513812
5.110740884851836	5.023996	2.2414272
5.128285137724894	5.014149	2.2392297
5.145829510888007	5.0023556	2.2365947
5.163374004754908	4.9652243	2.2282784
5.1809186197393595	4.9322557	2.2208683
5.198463356255145	5.0264883	2.2419832
5.216008214716077	5.061795	2.2498434
5.233553195535998	5.040036	2.2450025
5.251098299128764	4.9422584	2.223119
5.268643525908272	4.928909	2.2201147
5.286188876288432	5.006486	2.2375178
5.3037343506831895	5.0432715	2.245723
5.32127994950651	5.0034943	2.236849
5.3388256731723915	4.938409	2.222253
5.356371522094851	4.9290895	2.2201552
5.373917496687938	4.9991846	2.2358856
5.391463597365729	5.0101733	2.2383416
5.40900982454232	4.9527473	2.225477
5.426556178631843	4.9245396	2.2191303
5.444102660048449	4.883191	2.2097943
5.4616492692063225	4.8817925	2.209478
5.479196006519669	4.8780003	2.2086196
5.496742872402727	4.9326224	2.2209508
5.514289867269756	4.9778624	2.2311122
5.531836991535049	4.9581976	2.226701
5.549384245612924	4.8538523	2.203146
5.566931629917724	4.8081713	2.1927543
5.584479144863822	4.8351474	2.198897
5.6020267908656205	4.8735123	2.2076032
5.619574568337545	4.8259892	2.1968133
5.637122477694054	4.82081	2.1956344
5.654670519349629	4.7901044	2.1886308
5.672218693718784	4.796303	2.1900463
5.689767001216059	4.8183713	2.1950788
5.707315442256021	4.8145766	2.1942143
5.724864017253266	4.877774	2.2085683
5.7424127266224225	4.9711823	2.2296147
5.75996157077814	4.968153	2.2289355
5.777510550135105	4.931485	2.2206948
5.795059665108022	4.856922	2.2038426
5.812608916111639	4.8167825	2.194717
5.830158303560715	4.925229	2.2192857
5.847707827870055	4.964971	2.2282214
5.86525748945448	5.13091	2.2651513
5.8828072887288485	5.331765	2.3090615
5.900357226108044	5.434941	2.331296
5.917907302006979	5.5270076	2.3509588
5.9354575168406	6.124385	2.4747496
5.9530078710238765	6.8851056	2.6239486
5.970558364971812	7.4534655	2.7301035
5.988108999099438	7.784537	2.7900784
6.005659773821818	8.32509	2.8853233
6.023210689554039	8.069348	2.8406599
6.040761746711227	8.528636	2.9203827
6.058312945708531	7.8486624	2.8015463
6.075864286961132	7.207168	2.684617
6.093415770884244	6.412103	2.5322132
6.1109673978931065	5.800636	2.4084508
6.128519168402993	5.218055	2.2843063
6.146071082829204	5.1649113	2.272644
6.163623141587075	5.023249	2.2412605
6.181175345091969	4.9685655	2.229028
6.198727693759281	4.886959	2.2106469
6.216280188004435	4.9621973	2.227599
6.233832828242885	4.988173	2.2334218
6.251385614890126	4.9878936	2.2333593
6.268938548361669	4.954096	2.2257798
6.286491629073067	4.8770084	2.208395
6.304044857439898	4.834568	2.198765
6.321598233877777	4.742938	2.1778288
6.339151758802344	4.7460265	2.1785376
6.356705432629277	4.7589555	2.181503
6.37425925577428	4.7385335	2.1768172
6.391813228653095	4.824678	2.1965148
6.409367351681486	4.796394	2.190067
6.426921625275259	4.806736	2.192427
6.44447604985025	4.7236032	2.1733851
6.46203062582232	4.675433	2.162275
6.47958535360737	4.731386	2.175175
6.497140233621328	4.796153	2.1900122
6.514695266280161	4.759485	2.1816244
6.532250451999859	4.766585	2.183251
6.549805791196454	4.7614098	2.1820655
6.567361284286002	4.9150705	2.2169957
6.584916931684597	4.9659905	2.2284503
6.602472733808367	4.8873315	2.210731
6.6200286910734665	4.7461557	2.1785674
6.637584803896092	4.629855	2.1517098
6.655141072692462	4.660531	2.1588264
6.672697497878842	4.699933	2.167933
6.690254079871514	4.7549686	2.180589
6.707810819086808	4.772294	2.1845582
6.725367715941078	4.728778	2.1745753
6.742924770850719	4.752112	2.179934
6.760481984232151	4.809248	2.1929998
6.778039356501836	4.8247485	2.196531
6.795596888076266	4.77249	2.184603
6.813154579371963	4.736173	2.176275
6.830712430805492	4.747237	2.1788156
6.84827044279344	4.7761407	2.1854384
6.865828615752445	4.770171	2.1840723
6.883386950099159	4.797164	2.190243
6.900945446250287	4.78561	2.1876037
6.918504104622553	4.81027	2.1932328
6.936062925632727	4.790641	2.1887534
6.953621909697607	4.811948	2.1936152
6.971181057234028	4.833537	2.1985307
6.988740368658859	4.9138007	2.2167094
7.006299844389007	4.925296	2.2193007
7.023859484841407	4.9276834	2.2198386
7.041419290433036	4.9412217	2.2228858
7.058979261580902	5.0967836	2.2576058
7.0765393987020495	5.334239	2.3095973
7.094099702213559	5.6900616	2.385385
7.111660172532549	6.04056	2.457755
7.129220810076164	6.3682675	2.5235426
7.146781615261595	6.8373427	2.6148312
7.16434258850606	7.085227	2.661809
7.181903730226821	7.3903117	2.7185128
7.1994650408411704	7.608847	2.7584138
7.217026520766437	7.7912974	2.7912896
7.234588170419983	7.9906573	2.826775
7.252149990219215	8.001282	2.8286538
7.269711980581568	7.8729	2.8058689
7.2872741419245175	7.6646166	2.7685044
7.304836474665574	7.37456	2.715614
7.322398979222286	7.110356	2.6665251
7.339961656012233	6.939218	2.6342397
7.357524505453039	6.66777	2.5822024
7.375087527962357	6.310326	2.5120363
7.392650723957886	5.9742756	2.4442332
7.410214093857353	5.6311474	2.373004
7.427777638078528	5.444842	2.3334186
7.445341357039213	5.2825212	2.2983737
7.4629052511572525	5.1486473	2.269063
7.480469320850524	5.045984	2.2463267
7.498033566536948	4.972824	2.229983
7.5155979886344735	4.890537	2.2114558
7.5331625875610975	4.8547845	2.2033575
7.550727363734844	4.900113	2.21362
7.568292317573788	4.878765	2.2087927
7.585857449496025	4.9067583	2.2151203
7.603422759919705	4.892267	2.211847
7.620988249263007	4.95803	2.2266636
7.638553917944147	5.0288672	2.2425137
7.656119766381391	5.01384	2.2391605
7.673685794993023	4.996585	2.235304
7.691252004197388	4.933876	2.221233
7.70881839441285	4.9347615	2.2214322
7.726384966057826	4.9391317	2.2224157
7.743951719550762	4.91637	2.217289
7.761518655310149	4.9051805	2.214764
7.779085773754511	4.958028	2.2266629
7.796653075302419	4.9885745	2.2335117
7.814220560372475	5.0144725	2.2393017
7.831788229383323	5.0191627	2.2403488
7.8493560827536495	5.0540957	2.2481315
7.866924120902174	5.0801883	2.2539272
7.884492344247663	5.059345	2.2492988
7.9020607532089135	5.042129	2.2454686
7.919629348204771	5.044408	2.245976
7.937198129654115	5.0822506	2.2543848
7.954767097975865	5.081155	2.2541418
7.972336253588986	5.0609775	2.2496617
7.989905596912472	5.122312	2.2632525
8.007475128365371	5.1303167	2.2650201
8.025044848366756	5.167958	2.2733142
8.042614757335754	5.246163	2.2904503
8.060184855691523	5.3304706	2.3087811
8.07775514385327	5.459449	2.3365464
8.095325622240228	5.504696	2.3462088
8.112896291271687	5.497047	2.3445783
8.130467151366968	5.547724	2.3553607
8.148038202945436	5.5526605	2.3564084
8.165609446426497	5.538145	2.3533263
8.183180882229594	5.5591516	2.3577852
8.200752510774217	5.558419	2.35763
8.218324332479893	5.635261	2.3738704
8.235896347766193	5.677756	2.3828042
8.253468557052724	5.724381	2.3925679
8.27104096075914	5.726111	2.3929293
8.288613559305137	5.7524176	2.3984199
8.306186353110448	5.7392597	2.3956752
8.32375934259485	5.870156	2.4228404
8.341332528178162	5.911482	2.4313538
8.358905910280246	6.0152445	2.4525995
8.376479489321003	5.9205675	2.4332216
8.394053265720377	5.999456	2.4493787
8.411627239898356	5.9402385	2.4372604
8.42920141227497	5.974595	2.4442985
8.44677578327029	5.9691496	2.4431844
8.464350353304427	5.9963474	2.448744
8.48192512279754	6.0151606	2.4525824
8.499500092169827	5.938924	2.4369907
8.51707526184153	5.9048047	2.4299803
8.534650632232934	5.882478	2.4253821
8.552226203764365	5.8412976	2.4168777
8.569801976856192	5.8264084	2.4137955
8.587377951928834	5.920753	2.4332597
8.60495412940274	6.0244503	2.4544756
8.622530509698416	6.0726213	2.464269
8.6401070932364	6.123795	2.4746304
8.657683880437283	6.169244	2.4837964
8.675260871721695	6.359842	2.5218728
8.692838067510303	6.515841	2.5526145
8.710415468223834	6.6576962	2.5802512
8.727993074283043	6.7961655	2.6069455
8.745570886108737	6.75836	2.5996845
8.763148904121765	6.7615848	2.6003048
8.78072712874302	6.752594	2.5985754
8.798305560393441	6.997824	2.6453402
8.815884199494006	7.166585	2.6770477
8.833463046465745	7.387433	2.7179832
8.851042101729728	7.5036707	2.7392828
8.86862136570707	7.794788	2.7919147
8.886200838818924	7.9700136	2.8231213
8.903780521486505	8.017053	2.83144
8.921360414131055	8.03124	2.8339443
8.938940517173874	8.155492	2.8557823
8.956520831036297	8.292147	2.8796089
8.97410135613971	8.53608	2.921657
8.99168209290554	8.74332	2.9569106
9.009263041755265	9.030696	3.0051117
9.026844203110405	9.264649	3.0437887
9.044425577392525	9.446775	3.0735607
9.062007165023239	9.528713	3.0868614
9.079588966424197	9.757696	3.1237311
9.097170982017108	9.795052	3.1297047
9.11475321222372	10.990401	3.3151774
9.132335657465825	11.953504	3.4573839
9.149918318165264	12.077253	3.4752343
9.167501194743924	12.690002	3.562303
9.18508428762374	12.244908	3.4992726
9.202667597226693	12.239297	3.4984705
9.220251123974803	11.987009	3.462226
9.237834868290143	11.683941	3.418178
9.255418830594836	11.472047	3.387041
9.273003011311046	10.91332	3.3035314
9.290587410860985	10.666862	3.2660162
9.308172029666911	10.130307	3.1828144
9.32575686815113	9.795443	3.1297672
9.343341926735997	8.523071	2.91943
9.360927205843916	8.283643	2.8781319
9.378512705897327	8.12714	2.8508139
9.396098427318728	7.854427	2.802575
9.413684370530664	7.6807036	2.7714083
9.431270535955722	7.544654	2.7467535
9.448856924016539	7.468764	2.732904
9.466443535135806	7.3430567	2.7098074
9.484030369736251	7.340608	2.7093556
9.501617428240658	7.335021	2.7083244
9.519204711071852	7.3696647	2.7147126
9.536792218652714	7.4208198	2.7241182
9.55437995140617	7.464926	2.7322016
9.571967909755191	7.544688	2.7467597
9.589556094122802	7.5491343	2.7475688
9.60714450493207	7.54847	2.747448
9.624733142606116	7.5041466	2.7393696
9.642322007568108	7.6462355	2.7651827
9.659911100241267	7.684451	2.7720842
9.677500421048851	7.7115026	2.7769592
9.695089970414175	7.658034	2.7673154
9.712679748760609	7.7059875	2.775966
9.730269756511557	7.7571945	2.7851741
9.747859994090492	7.760527	2.7857723
9.765450461920915	7.773103	2.7880285
9.78304116042639	7.9064765	2.8118458
9.800632090030527	7.978734	2.8246653
9.81822325115699	7.977427	2.824434
9.835814644229481	7.94346	2.8184144
9.853406269671762	7.849567	2.8017077
9.870998127907646	7.849899	2.801767
9.888590219360985	7.882345	2.8075514
9.906182544455698	7.971608	2.8234036
9.923775103615734	8.005491	2.8293977
9.941367897265108	7.9163165	2.813595
9.958960925827878	7.7905836	2.7911618
9.97655418972816	7.718311	2.778185
9.994147689390106	7.752008	2.7842429
10.011741425237934	7.737639	2.7816613
10.029335397695904	7.7065034	2.776059
10.04692960718833	7.789313	2.790934
10.06452405413958	7.8900642	2.8089259
10.082118738974064	7.9425287	2.8182492
10.099713662116246	7.854152	2.802526
10.117308823990651	7.815608	2.795641
10.134904225021844	7.8279233	2.7978425
10.152499865634445	7.883647	2.8077834
10.170095746253125	7.874156	2.8060927
10.18769186730261	7.877085	2.8066146
10.205288229207675	7.806483	2.7940083
10.222884832393145	7.78036	2.7893298
10.2404816772839	7.6962333	2.7742085
10.258078764304868	7.7401643	2.782115
10.275676093881035	7.7274685	2.7798324
10.293273666437438	7.690258	2.7731314
10.310871482399158	7.7655106	2.7866666
10.32846954219134	7.802878	2.793363
10.346067846239173	7.8209767	2.7966008
10.363666394967908	7.7387233	2.781856
10.38126518880283	7.752418	2.7843165
10.398864228169298	7.7309513	2.780459
10.416463513492713	7.7218227	2.7788167
10.434063045198531	7.683756	2.7719588
10.451662823712262	7.777546	2.7888253
10.469262849459467	7.823277	2.797012
10.486863122865758	7.794157	2.7918017
10.504463644356806	7.7236204	2.7791402
10.522064414358338	7.6064	2.7579703
10.539665433296118	7.5729246	2.7518947
10.557266701595987	7.4793267	2.7348359
10.574868219683818	7.4130564	2.722693
10.592469987985552	7.339061	2.7090702
10.610072006927185	7.3076234	2.7032616
10.627674276934751	7.2117295	2.6854663
10.64527679843435	7.0713577	2.6592026
10.662879571852143	6.98978	2.643819
10.680482597614331	6.9358582	2.6336017
10.698085876147173	6.8747015	2.6219652
10.715689407876988	6.7470245	2.5975034
10.733293193230146	6.64889	2.5785441
10.750897232633072	6.520918	2.553609
10.76850152651225	6.4919176	2.5479243
10.786106075294207	6.371857	2.5242538
10.803710879405534	6.318433	2.5136492
10.821315939272877	6.1643734	2.4828155
10.83892125532294	6.0713787	2.4640167
10.856526827982472	5.9856715	2.4465632
10.874132657678285	5.94127	2.437472
10.891738744837243	5.88003	2.4248774
10.909345089886271	5.8254147	2.4135895
10.926951693252343	5.792932	2.406851
10.944558555362494	5.795147	2.4073112
10.96216567664381	5.7207003	2.3917985
10.979773057523436	5.6491575	2.3767955
10.997380698428573	5.527812	2.35113
11.014988599786477	5.506406	2.346573
11.032596762024461	5.453043	2.335175
11.050205185569892	5.409446	2.3258216
11.067813870850198	5.373549	2.3180916
11.085422818292859	5.317672	2.3060079
11.10303202832541	5.2478952	2.2908285
11.120641501375454	5.1772385	2.2753546
11.138251237870636	5.091574	2.2564516
11.155861238238671	5.0659037	2.2507563
11.173471502907317	5.0089192	2.2380614
11.191082032304402	4.9947934	2.2349033
11.208692826857805	4.873503	2.2076013
11.226303886995465	4.7537756	2.1803155
11.243915213145371	4.721248	2.1728432
11.261526805735578	4.671871	2.161451
11.279138665194196	4.6481185	2.1559496
11.296750791949393	4.5899925	2.1424267
11.314363186429393	4.5191917	2.125839
11.331975849062479	4.4648223	2.1130126
11.34958878027699	4.4182806	2.1019707
11.36720198050133	4.4576902	2.1113243
11.384815450163948	4.358483	2.087698
11.402429189693366	4.323901	2.0793993
11.420043199518153	4.2418942	2.059586
11.437657480066942	63.211037	7.9505367
11.455272031768422	84.93353	9.2159395
11.472886855051353	107.333626	10.360194
11.490501950344528	98.9354	9.946628
11.508117318076819	84.247894	9.178665
11.52573295867715	45.6459	6.756175
11.543348872574514	3.9950116	1.9987525
11.560965060197946	3.9558103	1.9889219
11.57858152197655	3.9179208	1.9793738
11.59619825833949	3.8517272	1.9625818
11.613815269715985	3.78698	1.9460164
11.631432556535323	38.286316	6.187594
11.649050119226837	82.8047	9.099709
11.666667958219929	93.23198	9.655671
11.68428607394406	107.487175	10.367602
11.701904466828756	82.31641	9.072839
11.719523137303586	65.17661	8.073203
11.737142085798196	4.428188	2.104326
11.754761312742286	3.54249	1.8821504
11.772380818565619	3.5487802	1.8838207
11.790000603698015	3.53881	1.8811725
11.80762066856935	3.4851017	1.8668427
11.825241013609572	3.404238	1.8450577
11.842861639248683	3.326407	1.823844
11.860482545916748	3.2739007	1.8093923
11.878103734043883	3.2765567	1.8101262
11.895725204060282	3.281101	1.811381
11.91334695639619	3.2995255	1.8164597
11.930968991481919	3.2921894	1.8144392
11.948591309747824	3.2582235	1.805055
11.966213911624347	3.2123983	1.7923164
11.98383679754198	3.182848	1.7840538
12.001459967931268	3.1333568	1.7701291
12.019083423222835	3.0738025	1.7532263
12.036707163847352	3.027685	1.7400244
12.05433119023556	3.0174484	1.7370805
12.071955502818259	3.0571766	1.7484784
12.089580102026313	3.0696962	1.7520548
12.107204988290643	3.060351	1.7493858
12.12483016204224	3.0591996	1.7490568
12.142455623712152	3.0468826	1.7455322
12.16008137373149	3.0214858	1.7382421
12.177707412531431	2.9639874	1.7216234
12.19533374054321	2.8867986	1.6990582
12.212960358198126	2.819354	1.6790932
12.230587265927545	2.7882693	1.6698111
12.248214464162889	2.7886426	1.669923
12.265841953335649	2.8244143	1.6805993
12.283469733877375	2.8278284	1.6816149
12.301097806219685	2.8455107	1.6868641
12.31872617079425	2.8381417	1.6846786
12.336354828032825	2.787862	1.6696892
12.353983778367205	2.747418	1.6575336
12.371613022229262	2.743934	1.6564823
12.389242560050928	2.7658207	1.6630757
12.406872392264201	2.766247	1.6632038
12.424502519301143	2.757889	1.6606894
12.442132941593874	2.7439277	1.6564806
12.459763659574586	2.7172503	1.6484084
12.477394673675532	2.7023249	1.643875
12.49502598432903	2.7020688	1.643797
12.51265759196746	2.731826	1.6528237
12.530289497023267	2.7392325	1.6550627
12.547921699928967	2.7323048	1.6529685
12.565554201117134	2.708231	1.6456704
12.583187001020404	2.710281	1.646293
12.600820100071486	2.709148	1.6459489
12.618453498703152	2.6810658	1.6373961
12.636087197348235	2.6190171	1.6183378
12.65372119643964	2.6035244	1.6135441
12.671355496410326	2.6493912	1.6276951
12.68899009769333	2.695802	1.6418898
12.706625000721749	2.7663937	1.663248
12.724260205928752	2.8025458	1.6740806
12.741895713747551	2.8109417	1.6765863
12.759531524611454	2.8068063	1.6753526
12.777167638953818	2.7913184	1.6707239
12.794804057208072	2.8187232	1.6789054
12.812440779807702	2.892801	1.7008237
12.830077807186271	3.0995982	1.7605675
12.847715139777405	3.1294932	1.7690374
12.865352778014795	3.331167	1.8251485
12.882990722332197	3.444263	1.8558725
12.90062897316344	3.562446	1.8874444
12.918267530942412	3.6782782	1.9178838
12.935906396103071	3.5403063	1.8815702
12.953545569079449	3.6789198	1.918051
12.971185050305628	3.4646838	1.8613662
12.988824840215775	3.481789	1.8659552
13.006464939244115	3.514167	1.8746111
13.024105347824943	3.3467388	1.8294094
13.041746066392617	3.4243007	1.8504866
13.05938709538157	3.214832	1.7929953
13.077028435226296	3.2515666	1.8032101
13.094670086361363	3.179391	1.7830846
13.112312049221401	3.1382437	1.7715088
13.129954324241112	3.050539	1.7465793
13.147596911855258	2.8241756	1.6805284
13.165239812498685	2.7859783	1.669125
13.182883026606293	2.7057834	1.6449265
13.200526554613058	2.6258526	1.6204482
13.218170396954017	2.54922	1.5966277
13.235814554064284	2.5421083	1.5943991
13.253459026379034	2.589493	1.6091902
13.271103814333523	2.6093142	1.6153371
13.288748918363058	2.5821674	1.6069124
13.306394338903031	2.5573194	1.5991621
13.32404007638889	2.5222306	1.5881532
13.341686131256164	2.5161154	1.5862268
13.359332503940449	2.4989874	1.5808187
13.376979194877402	2.5094576	1.5841267
13.394626204502751	2.5472279	1.5960038
13.412273533252307	2.5491502	1.5966059
13.429921181561937	2.5419362	1.5943451
13.447569149867581	2.5262506	1.5894183
13.465217438605247	2.5523794	1.5976168
13.482866048211022	2.5441508	1.5950395
13.500514979121052	2.5391164	1.5934606
13.518164231771568	2.4887643	1.5775818
13.535813806598844	2.4858196	1.5766482
13.553463704039254	2.4600365	1.5684503
13.571113924529229	2.4987485	1.5807431
13.588764468505275	2.523777	1.58864
13.606415336403956	2.584533	1.6076483
13.624066528661917	2.628371	1.6212251
13.641718045715882	2.7092962	1.645994
13.659369888002635	2.7575068	1.6605742
13.67702205595903	2.817832	1.6786399
13.694674550021993	2.8696523	1.6940048
13.712327370628532	2.9369876	1.7137642
13.729980518215713	3.0041122	1.7332375
13.747633993220681	3.0253894	1.7393646
13.765287796080647	3.0727794	1.7529346
13.7829419272329	3.0861435	1.7567422
13.800596387114801	3.1360621	1.770893
13.818251176163775	3.1692944	1.7802513
13.835906294817324	3.2442095	1.8011689
13.853561743513023	3.2864377	1.8128535
13.871217522688525	3.3234298	1.8230276
13.888873632781538	3.3412867	1.8279186
13.906530074229858	3.3620343	1.8335851
13.92418684747135	3.336118	1.8265043
13.941843952943948	3.3299701	1.8248205
13.959501391085665	3.302072	1.8171605
13.977159162334578	3.274756	1.8096287
13.994817267128846	3.2250724	1.7958486
14.012475705906693	3.1486642	1.7744476
14.030134479106424	3.0893958	1.7576677
14.047793587166414	3.0341096	1.7418696
14.065453030525108	3.013417	1.7359196
14.083112809621026	2.945881	1.7163569
14.100772924892766	2.8419406	1.6858057
14.118433376778997	2.7820034	1.6679338
14.136094165718458	2.7090104	1.6459072
14.153755292149969	2.6701155	1.6340488
14.171416756512416	2.5695	1.602966
14.189078559244768	2.4827027	1.5756595
14.20674070078606	2.433513	1.559972
14.224403181575408	2.4210615	1.555976
14.242066002051999	2.4170337	1.5546812
14.259729162655093	2.3483567	1.5324349
14.277392663824022	2.3040211	1.5179002
14.295056505998208	2.2615225	1.5038359
14.312720689617128	2.2514758	1.5004919
14.330385215120348	2.2554061	1.501801
14.348050082947497	2.2541912	1.5013964
14.3657152935383	2.2770038	1.5089744
14.383380847332528	2.2909737	1.5135963
14.401046744770051	2.3059	1.518519
14.418712986290798	2.2831748	1.5110178
14.436379572334793	2.245894	1.4986306
14.454046503342123	2.2395794	1.4965224
14.471713779752946	2.2580318	1.5026749
14.489381402007504	2.296349	1.515371
14.507049370546113	2.304284	1.5179869
14.524717685809168	2.3098888	1.5198319
14.542386348237134	2.2914865	1.5137657
14.560055358270553	2.2929122	1.5142366
14.577724716350051	2.3402398	1.5297842
14.595394422916325	2.3253067	1.5248957
14.61306447841015	2.3486218	1.5325214
14.63073488327237	2.3448625	1.5312943
14.648405637943917	2.3664596	1.5383301
14.6660767428658	2.3246841	1.5246915
14.683748198479094	2.3605933	1.5364223
14.701420005224954	2.429063	1.5585452
14.719092163544628	2.4899123	1.5779456
14.73676467387942	2.5002282	1.581211
14.754437536670727	2.4954984	1.5797147
14.772110752360014	2.5363638	1.5925965
14.78978432138882	2.5587003	1.5995938
14.807458244198777	2.575931	1.6049707
14.82513252123159	2.5255342	1.5891929
14.842807152929028	2.544185	1.5950501
14.860482139732962	2.5169897	1.5865023
14.87815748208531	2.546382	1.5957386
14.8958331804281	2.5768201	1.6052477
14.91350923520342	2.5954614	1.6110436
14.931185646853438	2.6261399	1.6205369
14.948862415820408	2.5702362	1.6031957
14.966539542546656	2.552786	1.5977441
14.98421702747459	2.5618849	1.6005889
15.001894871046696	2.5828676	1.6071303
15.019573073705542	2.5707996	1.6033713
15.037251635893766	2.538442	1.5932488
15.054930558054092	2.559426	1.5998206
15.072609840629323	2.6370885	1.6239115
15.090289484062351	2.7500951	1.658341
15.107969488796124	2.9719663	1.7239392
15.125649855273691	3.291911	1.8143624
15.14333058393817	3.7634687	1.9399662
15.161011675232768	4.6557784	2.1577253
15.17869312960076	5.8950047	2.427963
15.196374947485506	7.634852	2.7631235
15.214057129330447	10.55461	3.248786
15.231739675579114	15.27465	3.9082797
15.249422586675102	20.543596	4.5325046
15.267105863062092	24.14188	4.913439
15.284789505183847	24.984688	4.9984684
15.302473513484218	23.3729	4.834553
15.320157888407127	19.823215	4.452327
15.337842630396578	15.364112	3.9197083
15.355527739896656	11.860304	3.4438791
15.37321321735153	9.10745	3.0178552
15.39089906320545	6.462071	2.5420604
15.408585277902748	4.7143745	2.171261
15.42627186188783	3.5879855	1.8941978
15.443958815605198	3.0612187	1.7496339
15.461646139499424	2.7817688	1.6678635
15.479333834015168	2.6334357	1.6227864
15.497021899597165	2.5841563	1.6075311
15.514710336690234	2.5335712	1.5917196
15.53239914573928	2.4546292	1.5667256
15.550088327189297	2.418761	1.5552367
15.567777881485336	2.4277542	1.5581253
15.58546780907256	2.422245	1.5563563
15.6031581103962	2.393057	1.5469509
15.620848785901568	2.345047	1.5313547
15.638539836034063	2.3380334	1.529063
15.656231261239173	2.359223	1.5359762
15.673923061962451	2.3692393	1.5392333
15.691615238649552	2.3652842	1.537948
15.709307791746202	2.335707	1.528302
15.727000721698221	2.3068864	1.5188438
15.744694028951498	2.2856734	1.5118444
15.76238771395202	2.2378857	1.4959564
15.780081777145844	2.2352645	1.4950801
15.797776218979125	2.2209563	1.4902873
15.815471039898094	2.2296064	1.4931867
15.833166240349064	2.2710006	1.506984
15.850861820778437	2.305531	1.5183976
15.868557781632699	2.3143694	1.5213052
15.886254123358412	2.2597158	1.5032351
15.903950846402232	2.2563484	1.5021147
15.921647951210897	2.260766	1.5035844
15.939345438231225	2.2426662	1.4975535
15.957043307910133	2.248588	1.4995292
15.974741560694602	2.2886872	1.5128407
15.992440197031714	2.3521988	1.533688
16.01013921736862	2.3656118	1.5380546
16.02783862215259	2.3682477	1.5389112
16.045538411830933	2.3342793	1.5278349
16.06323858685107	2.3400772	1.529731
16.080939147660512	2.334981	1.5280645
16.09864009470684	2.319306	1.5229268
16.11634142843774	2.2892272	1.5130192
16.134043149300954	2.2807856	1.510227
16.15174525774433	2.2806401	1.5101788
16.169447754215817	2.2936182	1.5144696
16.18715063916342	2.3202965	1.523252
16.204853913035244	2.3118422	1.5204743
16.222557576279478	2.30533	1.5183313
16.240261629344403	22.272198	4.7193427
16.257966072678386	42.848194	6.545853
16.275670906729868	37.937492	6.159342
16.293376131947387	2.3501709	1.5330267
16.31108174877957	2.3783178	1.5421796
16.328787757675133	2.4658618	1.5703063
16.34649415908287	2.4665003	1.5705096
16.364200953451657	2.5149353	1.5858548
16.38190814123048	2.5254812	1.5891763
16.39961572286839	2.5437994	1.5949292
16.41732369881455	2.5274596	1.5897986
16.43503206951817	2.5656583	1.6017673
16.45274083542859	2.6534917	1.6289542
16.47044999699522	2.6891024	1.6398482
16.488159554667558	2.7103956	1.6463279
16.505869508895184	2.730837	1.6525245
16.523579860127786	2.7594132	1.6611482
16.541290608815117	2.8420868	1.685849
16.559001755407035	2.888464	1.6995481
16.57671330035348	2.9327884	1.7125386
16.59442524410448	2.946742	1.7166077
16.61213758711015	3.0313623	1.7410808
16.629850329820705	3.099671	1.7605882
16.647563472686436	3.1888995	1.785749
16.665277016157724	3.242467	1.8006852
16.682990960685053	3.269691	1.8082287
16.70070530671898	3.2549067	1.804136
16.718420054710155	3.2970772	1.8157855
16.736135205109335	3.330949	1.8250887
16.753850758367335	3.3424957	1.8282493
16.771566714935087	3.3488786	1.8299942
16.789283075263597	3.4685216	1.8623967
16.80699983980398	3.6124246	1.900638
16.82471700900741	3.7152545	1.9274995
16.84243458332518	3.734354	1.9324477
16.860152563208665	3.7145426	1.9273149
16.87787094910932	3.7723188	1.9422458
16.89558974147871	3.8533149	1.9629862
16.913308940768466	3.9671922	1.9917811
16.931028547430333	4.059571	2.0148377
16.94874856191613	4.075138	2.018697
16.966468984677785	4.1312532	2.0325484
16.98418981616729	4.2044706	2.0504806
17.00191105683676	4.294467	2.0723095
17.019632707138374	4.353999	2.086624
17.03735476752442	4.3379927	2.082785
17.05507723844728	4.3515706	2.086042
17.072800120359403	4.384093	2.0938225
17.090523413713353	4.3708534	2.0906587
17.108247118961785	4.3574357	2.0874472
17.125971236557437	4.3787017	2.0925348
17.143695766953133	4.4597874	2.111821
17.161420710601806	4.5188065	2.1257484
17.179146067956477	4.535345	2.1296349
17.19687183947025	4.534867	2.1295226
17.21459802559634	4.5162716	2.125152
17.232324626788028	4.4592514	2.1116939
17.25005164349871	4.4451475	2.108352
17.267779076181863	4.427625	2.1041923
17.285506925291074	4.3945985	2.0963297
17.30323519127999	4.3806453	2.0929992
17.320963874602384	4.388493	2.094873
17.33869297571211	4.322257	2.0790038
17.356422495063114	4.3259287	2.0798867
17.37415243310944	4.3469667	2.084938
17.391882790305218	4.399823	2.0975757
17.40961356710468	4.415523	2.1013145
17.42734476396215	4.357107	2.0873685
17.445076381332044	4.2785974	2.0684772
17.462808419668868	4.3394804	2.083142
17.48054087942723	4.4556346	2.1108375
17.498273761061835	4.7535434	2.1802623
17.51600706502747	5.197717	2.2798502
17.533740791779024	5.836927	2.4159732
17.551474941771485	7.197743	2.6828609
17.56920951545993	8.203187	2.8641207
17.586944513299528	10.572177	3.2514884
17.60467993574556	12.43387	3.5261693
17.622415783253373	14.483341	3.8056986
17.64015205627843	16.094303	4.0117707
17.657888755276293	17.359102	4.1664257
17.675625880702604	17.911076	4.2321477
17.69336343301311	17.797573	4.218717
17.71110141266366	16.84047	4.103714
17.728839820110178	15.6750345	3.959171
17.746578655808705	14.391609	3.7936275
17.764317920215372	12.665908	3.5589194
17.7820576137864	10.975559	3.3129382
17.79979773697811	8.954799	2.992457
17.81753829024692	7.068691	2.658701
17.835279274049356	5.509258	2.3471808
17.85302068884201	4.501609	2.1216996
17.870762535081607	3.8944	1.9734234
17.888504813224934	3.6384308	1.9074671
17.90624752372891	3.528345	1.878389
17.923990667050536	3.4303305	1.8521152
17.941734243646895	3.3381898	1.8270714
17.959478253975185	3.299165	1.8163604
17.9772226984927	3.278201	1.8105804
17.994967577656833	3.2587438	1.8051991
18.01271289192506	3.239292	1.7998033
18.030458641754965	3.2257357	1.7960333
18.04820482760425	3.215374	1.7931464
18.06595144993067	3.1921012	1.7866453
18.083698509192125	3.223588	1.7954353
18.101446005846576	3.198313	1.7883828
18.119193940352105	3.2046597	1.7901564
18.136942313166887	3.144127	1.7731686
18.1546911247492	3.0869358	1.7569678
18.1724403755574	3.0314176	1.7410966
18.19019006604997	3.0193198	1.737619
18.207940196685467	2.9933622	1.7301335
18.225690767922575	2.9996881	1.7319608
18.243441780220046	2.9862828	1.7280865
18.261193234036764	2.9649494	1.7219028
18.278945129831676	2.9527452	1.7183554
18.29669746806386	2.9212008	1.7091521
18.314450249192483	2.908982	1.7055738
18.3322034736768	2.8982391	1.7024215
18.349957141976184	2.8863728	1.6989329
18.3677112545501	2.8974664	1.7021946
18.385465811858108	2.9284844	1.7112815
18.403220814359884	2.9340239	1.7128992
18.420976262515172	2.9841454	1.7274679
18.43873215678387	3.019824	1.7377641
18.456488497625923	3.0427675	1.744353
18.474245285501407	3.0791087	1.7547389
18.492002520870486	3.1125398	1.7642392
18.50976020419343	3.1782725	1.782771
18.527518335930615	3.4242828	1.8504817
18.545276916542516	3.940143	1.9849794
18.563035946489688	4.096498	2.0239806
18.580795426232832	4.5675282	2.1371777
18.598555356232698	4.475175	2.1154609
18.616315736950185	4.7232995	2.1733153
18.63407656884626	4.3866167	2.0944252
18.65183785238201	4.5340557	2.1293323
18.669599588018617	4.3540597	2.0866385
18.68736177621737	4.3448753	2.0844364
18.705124417439652	4.327765	2.080328
18.72288751214696	4.118848	2.0294945
18.740651060800886	4.2452173	2.0603926
18.758415063863115	4.041	2.0102239
18.77617952179546	4.2156634	2.053208
18.793944435059814	4.002772	2.0006928
18.811709804118184	4.0286603	2.0071523
18.829475629432675	3.9949174	1.998729
18.8472419114655	3.810335	1.9520079
18.86500865067897	3.8646517	1.9658717
18.88277584753551	3.556637	1.8859048
18.90054350249763	3.547622	1.8835132
18.918311616027957	3.2431479	1.8008742
18.936080188589226	3.1510506	1.7751199
18.953849220644265	2.9078748	1.7052492
18.971618712656007	2.7599657	1.6613145
18.9893886650875	2.7336636	1.6533794
19.007159078401887	7.9049373	2.811572
19.024929953062408	32.774815	5.7249293
19.042701289532435	32.70367	5.7187123
19.060473088275405	25.231611	5.0231075
19.07824534975489	2.5037885	1.5823364
19.096018074434568	2.4933608	1.5790379
19.113791262778197	2.4728415	1.572527
19.13156491524966	2.4475327	1.5644592
19.149339032312945	2.4743836	1.5730174
19.167113614432136	2.479421	1.5746177
19.184888662071433	2.451815	1.5658273
19.202664175695123	2.4293215	1.5586281
19.220440155767623	2.4320798	1.5595127
19.238216602753447	2.421916	1.5562506
19.2559935171172	2.4741066	1.5729293
19.27377089932361	2.467338	1.5707762
19.291548749837514	2.4462986	1.5640647
19.309327069123835	2.4259865	1.5575578
19.32710585764763	2.442691	1.5629112
19.344885115874032	2.421308	1.5560553
19.362664844268313	2.410483	1.552573
19.380445043295822	2.386172	1.544724
19.39822571342203	2.3704772	1.5396354
19.41600685511252	2.3755305	1.5412756
19.43378846883297	2.3620458	1.5368948
19.451570555049173	2.3860662	1.5446897
19.469353114227037	2.4138887	1.5536695
19.48713614683254	2.4252188	1.5573114
19.50491965333182	2.392661	1.5468229
19.52270363419109	2.358507	1.5357431
19.540488089876686	2.372893	1.5404198
19.55827302085503	2.3901372	1.5460068
19.576058427592674	2.379085	1.5424283
19.593844310556282	2.3266244	1.5253277
19.611630670212598	2.3020413	1.5172479
19.629417507028506	2.3237073	1.5243711
19.64720482147098	2.3715396	1.5399804
19.6649926140071	2.4032714	1.5502489
19.682780885104084	2.4084208	1.5519087
19.70056963522921	2.379757	1.542646
19.718358864849908	2.3765988	1.5416222
19.7361485744337	2.37012	1.5395194
19.753938764448215	2.3847578	1.5442661
19.771729435361202	2.38583	1.5446132
19.789520587640506	2.3726938	1.5403551
19.807312221754092	2.3856208	1.5445455
19.825104338170043	2.430093	1.5588756
19.842896937356517	2.463088	1.5694228
19.860690019781824	2.433176	1.5598642
19.87848358591436	2.389151	1.5456879
19.896277636222635	2.4029136	1.5501333
19.914072171175278	2.4495494	1.5651037
19.931867191241015	2.4306197	1.5590445
19.94966269688869	2.3917925	1.5465422
19.967458688587264	2.3688393	1.5391034
19.985255166805807	2.3775632	1.5419348
20.00305213201348	2.3573873	1.5353786
20.020849584679578	2.3133266	1.5209624
20.038647525273507	2.3133802	1.52098
20.05644595426477	2.350046	1.5329859
20.07424487212299	2.3820086	1.5433757
20.092044279317903	2.378687	1.5422993
20.109844176319353	2.3300445	1.5264484
20.127644563597304	2.299126	1.5162868
20.145445441621817	2.3102775	1.5199597
20.16324681086307	2.2897346	1.5131869
20.181048671791373	2.3025663	1.5174209
20.198851024877122	2.2994833	1.5164047
20.216653870590836	2.296693	1.5154845
20.234457209403146	2.249313	1.499771
20.252261041784802	2.2202637	1.490055
20.270065368206662	2.2123175	1.4873861
20.287870189139685	2.2107422	1.4868565
20.305675505054968	2.248987	1.4996623
20.323481316423702	2.2662387	1.5054032
20.341287623717207	2.2850635	1.5116427
20.359094427406884	2.2599225	1.5033039
20.376901727964288	2.2288256	1.4929252
20.39470952586107	2.2430727	1.4976891
20.41251782156899	2.2564716	1.5021557
20.430326615559935	2.22609	1.4920087
20.448135908305886	2.1776643	1.4756911
20.465945700278965	2.198105	1.4826008
20.483755991951384	2.212559	1.4874673
20.50156678379548	2.219212	1.489702
20.519378076283708	2.2195432	1.4898131
20.537189869888635	2.199719	1.483145
20.55500216508294	2.218473	1.4894539
20.572814962339415	2.2405055	1.4968318
20.59062826213098	2.264355	1.5047774
20.60844206493066	2.2694113	1.5064565
20.626256371211593	2.2786548	1.5095214
20.644071181447032	2.255512	1.5018362
20.66188649611036	2.2128253	1.4875568
20.67970231567506	2.189202	1.4795952
20.697518640614742	2.1691616	1.4728074
20.715335471403122	2.1746979	1.4746857
20.73315280851404	2.1847348	1.4780848
20.750970652421447	2.191468	1.4803607
20.768789003599412	2.176302	1.4752295
20.786607862522136	2.1692646	1.4728423
20.8044272296639	2.1794848	1.4763079
20.82224710549913	2.2114935	1.4871091
20.84006749050237	2.2119327	1.4872568
20.857888385148268	3.7569392	1.9382825
20.8757097899116	45.84189	6.7706637
20.893531705267254	64.64769	8.040379
20.911354131690224	83.65401	9.146256
20.92917706965566	68.9585	8.304126
20.94700051963877	50.06568	7.075711
20.96482448211493	29.327993	5.4155326
20.982648957559622	4.062839	2.0156486
21.00047394644843	2.1589632	1.469341
21.01829944925707	2.1436772	1.4641302
21.036125466461375	2.118092	1.4553666
21.053951998537297	2.1291556	1.4591626
21.071779045960906	2.1116765	1.4531609
21.089606609208378	2.0825322	1.4430981
21.10743468875603	2.1121957	1.4533395
21.12526328508028	2.1055558	1.4510534
21.143092398657675	2.0850306	1.4439635
21.16092202996488	2.0915148	1.446207
21.17875217947867	2.1089761	1.4522314
21.19658284767596	2.1209924	1.4563627
21.21441403503377	2.079123	1.4419165
21.232245742029225	2.026938	1.4237057
21.2500779691396	2.0357435	1.4267948
21.26791071684227	2.0864966	1.444471
21.28574398561475	2.1424837	1.4637226
21.30357777593465	2.1181135	1.455374
21.321412088279704	2.0822587	1.4430034
21.339246923127792	2.0301473	1.4248323
21.357082280956888	2.0058646	1.4162855
21.3749181622451	2.0004714	1.4143802
21.392754567470647	2.0259786	1.4233687
21.41059149711187	2.023462	1.4224845
21.42842895164726	2.004369	1.4157574
21.446266931555378	2.0020187	1.4149271
21.464105437314945	2.0275545	1.4239222
21.481944469404798	2.0420504	1.4290032
21.49978402830388	2.0333502	1.4259559
21.51762411449127	1.9984925	1.4136804
21.53546472844617	1.9657375	1.4020476
21.553305870647876	2.0007944	1.4144944
21.571147541575865	2.0054557	1.4161412
21.58898974170967	1.9791162	1.4068106
21.60683247152899	1.9339318	1.3906587
21.62467573151363	1.9385682	1.3923248
21.642519522143523	1.9485722	1.3959126
21.660363843898722	1.9449421	1.3946118
21.6782086972594	1.9413073	1.393308
21.696054082705864	1.954069	1.3978802
21.713900000718535	1.9647243	1.4016862
21.73174645177795	1.9551177	1.3982552
21.749593436364794	1.9385452	1.3923165
21.767440954959845	1.9659904	1.4021378
21.785289008044032	1.9874667	1.4097754
21.803137596098388	2.0090525	1.4174105
21.820986719604086	1.9580574	1.399306
21.838836379042412	1.9165311	1.3843883
21.85668657489478	1.915028	1.3838453
21.87453730764273	1.9362528	1.3914931
21.892388577767914	1.9475392	1.3955426
21.91024038575213	1.9463292	1.395109
21.928092732077285	1.93268	1.3902086
21.945945617225426	1.9093176	1.3817806
21.963799041678694	1.8707976	1.367771
21.981653005919398	31.196575	5.5853896
21.999507510429943	78.014915	8.832605
22.01736255569286	73.026566	8.545558
22.035218142190818	4.11878	2.0294778
22.05307427040661	1.9484905	1.3958834
22.07093094082315	1.9102083	1.3821028
22.088788153923474	1.8953543	1.3767186
22.106645910190746	1.9058307	1.3805183
22.12450421010827	1.9348528	1.3909899
22.142363054159464	1.9281561	1.3885806
22.16022244282787	1.8967	1.3772073
22.178082376597164	1.8767422	1.3699424
22.195942855951145	1.8968072	1.3772463
22.213803881373742	1.8967233	1.3772157
22.231665453349002	1.9030732	1.3795192
22.24952757236111	1.910742	1.382296
22.26739023889438	1.9225646	1.3865658
22.28525345343323	1.8884593	1.3742123
22.30311721646225	1.8525546	1.3610858
22.320981528466113	1.8343426	1.354379
22.33884638992964	1.8411344	1.3568841
22.356711801337788	1.814615	1.3470764
22.37457776317561	1.7744721	1.3320931
22.392444275928337	1.7743564	1.3320497
22.410311340081282	1.8203405	1.3492
22.428178956119904	1.866249	1.3661072
22.446047124529805	1.90918	1.3817308
22.46391584579669	1.9175876	1.3847699
22.481785120406414	1.8884513	1.3742094
22.49965494884496	1.8848604	1.3729022
22.51752533159841	1.9089882	1.3816614
22.53539626915302	1.9287659	1.3888001
22.553267761995137	1.884981	1.3729461
22.571139810611264	1.8606826	1.3640684
22.589012415488025	1.8469925	1.359041
22.60688557711216	1.8612072	1.3642607
22.624759295970566	1.879137	1.3708162
22.642633572550263	1.8791744	1.3708298
22.660508407338362	1.9054892	1.3803946
22.67838380082217	1.8772917	1.3701429
22.696259753489077	1.8978926	1.3776402
22.714136265826614	1.8981295	1.3777262
22.73201333832246	1.8704824	1.3676559
22.74989097146439	1.8250312	1.3509371
22.76776916574035	1.8274049	1.3518153
22.785647921638393	1.840461	1.3566359
22.803527239646712	1.8947406	1.3764957
22.82140712025363	1.8618153	1.3644836
22.839287563947593	1.8723596	1.3683419
22.85716857121719	1.8186274	1.348565
22.875050142551135	1.8286082	1.3522604
22.892932278438277	1.8196473	1.348943
22.910814979367604	1.8358344	1.3549297
22.928698245828222	1.8170645	1.3479854
22.946582078309387	1.8023821	1.3425282
22.96446647730047	1.7707002	1.3306766
22.98235144329098	1.7588115	1.3262019
23.000236976770562	1.7625344	1.3276048
23.018123078229	1.785306	1.3361534
23.03600974815619	1.7940497	1.3394214
23.053896987042194	1.8162432	1.3476807
23.071784795377173	1.8076649	1.3444942
23.08967317365145	1.8227006	1.3500743
23.10756212235546	1.8168172	1.3478936
23.125451641979787	1.8106495	1.3456038
23.143341733015134	1.7898622	1.3378572
23.161232395952357	1.7930984	1.3390663
23.179123631282426	1.820345	1.3492017
23.197015439496468	1.8270129	1.3516704
23.214907821085717	1.8806372	1.3713633
23.23280077654157	1.8813927	1.3716387
23.250694306355538	1.9185793	1.3851279
23.268588411019277	1.878493	1.3705813
23.28648309102458	1.9036933	1.3797439
23.304378346863356	1.9013035	1.3788776
23.322274179027676	1.8825157	1.372048
23.340170588009723	1.8357406	1.354895
23.358067574301852	1.8131748	1.3465418
23.37596513839651	1.8278853	1.3519931
23.39386328078629	1.8131526	1.3465335
23.411762001963947	1.8443431	1.358066
23.429661302422353	1.8460265	1.3586856
23.4475611826545	1.8564299	1.3625087
23.46546164315356	1.832471	1.3536879
23.48336268441279	1.8166451	1.3478298
23.501264306925638	1.7750207	1.332299
23.51916651118564	1.7613765	1.3271686
23.537069297686497	1.7694651	1.3302125
23.554972666922037	1.7664196	1.3290672
23.57287661938623	1.7977759	1.3408116
23.59078115557318	1.8187546	1.3486121
23.608686275977128	1.8000342	1.3416535
23.62659198109246	1.8145852	1.3470654
23.6444982714137	1.8231801	1.3502519
23.66240514743549	1.8776251	1.3702646
23.68031260965263	1.8665752	1.3662267
23.698220658560068	1.8459548	1.3586591
23.716129294652845	1.8521497	1.3609371
23.7340385184262	1.8646431	1.3655194
23.75194833037546	1.8367664	1.3552735
23.769858730996123	1.7974123	1.3406761
23.78776972078382	1.7691174	1.3300817
23.80568130023431	1.7840242	1.3356737
23.823593469843495	1.7986802	1.3411489
23.841506230107424	1.8465925	1.3588939
23.859419581522275	1.8418798	1.3571588
23.87733352458438	1.8474469	1.3592082
23.89524805979019	1.8558899	1.3623105
23.913163187636318	1.876099	1.3697076
23.931078908619508	1.8739418	1.36892
23.948995223236633	1.8946257	1.376454
23.966912131984735	1.8982117	1.377756
23.98482963536096	1.8790233	1.3707747
24.002747733862616	1.8800843	1.3711617
24.020666427987155	1.8893058	1.3745202
24.038585718232156	1.9105542	1.382228
24.056505605095353	1.9257771	1.3877237
24.074426089074617	2.000323	1.4143277
24.092347170667946	2.0127997	1.4187317
24.110268850373515	2.0006595	1.4144467
24.128191128689586	1.975407	1.4054917
24.146114006114626	1.9716241	1.4041454
24.164037483147187	1.9310642	1.3896273
24.181961560286005	1.9499241	1.3963969
24.199886238029926	1.9453115	1.3947443
24.21781151687797	1.9289011	1.3888488
24.235737397329274	1.9177468	1.3848274
24.253663879883135	1.9229454	1.386703
24.271590965038975	1.9585279	1.3994741
24.289518653296376	1.9864405	1.4094114
24.30744694515505	2.0409045	1.4286023
24.32537584111486	2.0312552	1.4252211
24.34330534167581	2.0255685	1.4232247
24.361235447338046	1.9959062	1.4127655
24.379166158601876	1.9777668	1.406331
24.39709747596772	1.9144974	1.3836536
24.41502939993615	1.8704046	1.3676274
24.432961931007917	1.8722305	1.3682947
24.450895069683856	1.9295911	1.3890972
24.468828816465	1.9085585	1.3815058
24.4867631718525	1.8734758	1.3687497
24.504698136347656	1.8499986	1.3601465
24.52263371045192	1.9005138	1.3785912
24.540569894666874	1.9198327	1.3855803
24.558506689494266	1.9026774	1.3793757
24.57644409543597	1.8953587	1.3767203
24.594382112994012	1.8938029	1.3761551
24.61232074267057	1.8640598	1.3653058
24.630259984967953	1.8497276	1.3600469
24.64819984038863	1.8840771	1.3726169
24.66614030943522	1.9128563	1.3830605
24.684081392610462	1.8739448	1.368921
24.702023090417274	1.8609892	1.3641808
24.7199654033587	1.881221	1.3715761
24.737908331937927	1.8798944	1.3710924
24.755851876658305	1.9224198	1.3865136
24.773796038023324	1.9916277	1.4112504
24.79174081653661	2.0650594	1.4370315
24.809686212701962	2.059139	1.43497
24.827632227023294	2.0433686	1.4294645
24.8455788600047	2.0451396	1.4300838
24.8635261121504	2.0505881	1.4319875
24.88147398396475	2.0246487	1.4229015
24.899422475952303	2.0103261	1.4178597
24.917371588617698	2.0031784	1.4153368
24.935321322465768	2.0562437	1.4339608
24.953271678001478	2.1884406	1.4793379
24.97122265572994	2.3938086	1.5471938
24.989174256156414	2.68557	1.6387709
25.00712647978632	3.1620471	1.7782146
25.02507932712521	3.755521	1.9379166
25.043032798678798	4.4045205	2.098695
25.060986894952933	5.1389737	2.2669303
25.078941616453637	5.9747257	2.4443252
25.096896963687055	7.04776	2.6547618
25.114852937159508	8.241568	2.8708131
25.132809537377444	8.652296	2.9414785
25.150766764847468	8.6137295	2.9349155
25.168724620076347	8.016983	2.8314278
25.186683103570985	6.8612585	2.6194005
25.204642215838426	5.5656586	2.3591647
25.222601957385894	4.1077847	2.026767
25.24056232872074	3.073224	1.7530613
25.25852333035048	2.5078201	1.5836098
25.276484962782778	2.1495934	1.4661492
25.294447226525435	2.0264094	1.4235201
25.312410122086423	1.9821632	1.4078932
25.330373649973843	1.949751	1.3963349
25.348337810695988	1.8899683	1.3747612
25.366302604761245	1.8411652	1.3568954
25.384268032678207	1.8171825	1.3480291
25.40223409495558	1.8086643	1.3448659
25.420200792102257	1.7939999	1.3394028
25.438168124627246	1.797576	1.3407371
25.45613609303974	1.7690032	1.3300388
25.474104697849057	1.7540873	1.3244196
25.492073939564698	1.7618458	1.3273454
25.510043818696285	1.7561598	1.3252017
25.528014335753614	1.7661724	1.3289742
25.54598549124664	1.775704	1.3325554
25.56395728568544	1.7792387	1.333881
25.58192971958028	1.7675112	1.3294778
25.59990279344156	1.775933	1.3326414
25.617876507779833	1.7802963	1.3342775
25.635850863105826	1.7695259	1.3302352
25.653825859930386	1.7441137	1.3206489
25.671801498764548	1.7170534	1.3103639
25.68977778011949	1.7314371	1.3158408
25.707754704506524	1.791592	1.3385036
25.725732272437153	1.8105652	1.3455725
25.743710484423012	1.7726061	1.3313925
25.761689340975888	1.7268802	1.3141081
25.77966884260774	1.7320021	1.3160555
25.797648989830662	1.7478787	1.3220736
25.815629783156922	1.771879	1.3311194
25.83361122309895	1.7993238	1.3413887
25.85159331016929	1.8348806	1.3545777
25.869576044880695	1.850351	1.3602761
25.887559427746034	1.7650801	1.3285632
25.90554345927836	1.7239225	1.3129823
25.92352813999086	1.7219676	1.3122376
25.94151347039689	1.7533854	1.3241546
25.959499451009965	1.7978249	1.34083
25.97748608234374	1.7791389	1.3338437
25.995473364912062	1.7542167	1.3244685
26.013461299228904	1.745405	1.3211378
26.03144988580839	1.7418323	1.3197849
26.04943912516483	1.7459112	1.3213294
26.067429017812675	1.744442	1.3207732
26.085419564266537	1.7519345	1.3236066
26.103410765041186	1.7292321	1.3150027
26.12140262065155	1.70056	1.3040552
26.139395131612723	1.7378191	1.3182636
26.157388298439948	1.7536278	1.3242462
26.17538212164861	1.7594842	1.3264555
26.193376601754295	1.7431127	1.32027
26.211371739272714	1.7245672	1.3132278
26.229367534719746	1.7503233	1.3229978
26.247363988611433	1.8076015	1.3444707
26.26536110146397	1.8102162	1.3454428
26.283358873793727	1.7243742	1.3131543
26.301357306117204	1.7215713	1.3120866
26.319356398951104	1.7495598	1.3227092
26.33735615281224	1.7602576	1.326747
26.35535656821762	1.7492855	1.3226056
26.373357645684404	1.7581621	1.3259571
26.39135938572991	1.7844547	1.3358349
26.409361788871614	1.7893243	1.3376563
26.427364855627165	1.7742536	1.3320111
26.445368586514352	1.8012055	1.34209
26.46337298205115	1.8147018	1.3471087
26.48137804275568	1.78037	1.334305
26.499383769146217	1.7275064	1.3143464
26.517390161741215	1.7386589	1.3185822
26.53539722105928	1.7250943	1.3134284
26.553404947619182	1.6950136	1.3019269
26.571413341939856	1.7211194	1.3119144
26.589422404540397	1.7731043	1.3315797
26.60743213594006	1.7538066	1.3243136
26.62544253665827	1.6547831	1.2863837
26.64345360721459	1.6394174	1.2803974
26.66146534812879	1.6882291	1.2993187
26.679477759920758	1.7312104	1.3157547
26.69749084311057	1.7264588	1.3139478
26.71550459821847	1.6847022	1.2979608
26.733519025764842	1.6444658	1.2823672
26.751534126270258	1.6312102	1.2771884
26.769549900255434	1.6922652	1.3008709
26.787566348241267	1.7504561	1.323048
26.80558347074881	1.7144867	1.3093841
26.823601268299267	1.6648335	1.2902843
26.841619741414036	1.7067153	1.3064132
26.85963889061465	1.7853869	1.3361837
26.877658716422832	1.7951202	1.339821
26.89567921936045	1.8108841	1.345691
26.913700399949544	1.8251984	1.350999
26.93172225871233	1.8001889	1.3417112
26.949744796171174	1.7367674	1.3178648
26.967768012848605	1.6987149	1.3033476
26.98579190926733	1.7233229	1.3127539
27.003816485950225	1.7133284	1.3089417
27.021841743420318	1.7014844	1.3044096
27.039867682200814	1.7127768	1.308731
27.057894302815072	1.7380801	1.3183627
27.07592160578664	1.7195177	1.3113039
27.0939495916392	1.6991594	1.303518
27.111978260896635	1.6937488	1.3014411
27.13000761408296	1.702501	1.3047992
27.148037651722397	1.6910857	1.3004175
27.166068374339304	1.6633279	1.2897007
27.184099782458215	1.7061659	1.3062029
27.20213187660384	1.7446786	1.3208629
27.22016465730105	1.7702782	1.330518
27.23819812507487	1.7318552	1.3159996
27.256232280450533	1.701795	1.3045286
27.274267123953383	1.7199091	1.311453
27.292302656108987	1.7712983	1.3309013
27.31033887744306	1.7497718	1.3227894
27.32837578848146	1.7133466	1.3089486
27.34641338975026	1.7235894	1.3128555
27.364451681775673	1.7467189	1.3216349
27.382490665084074	1.7412505	1.3195645
27.400530340202046	1.7240331	1.3130244
27.41857070765629	1.7168094	1.3102708
27.436611767973726	1.7501694	1.3229396
27.454653521681404	1.795645	1.3400168
27.472695969306564	1.806201	1.3439498
27.490739111376627	1.7335497	1.3166434
27.508782948419153	1.7021583	1.304668
27.526827480961902	1.7093406	1.3074175
27.54487270953279	1.7222522	1.3123461
27.562918634659898	1.7033622	1.3051292
27.580965256871508	1.7460983	1.3214002
27.599012576696026	1.7296288	1.3151535
27.617060594662068	1.7656791	1.3287886
27.63510931129842	1.7446488	1.3208516
27.65315872713401	1.7267123	1.3140442
27.67120884269797	1.6943097	1.3016565
27.68925965851958	1.6884563	1.2994062
27.707311175128307	1.695774	1.3022189
27.725363393053787	1.7397927	1.319012
27.74341631282583	1.7650696	1.3285593
27.7614699349744	1.7846557	1.3359101
27.77952426002968	1.9252018	1.3875164
27.797579288521973	2.0131314	1.4188486
27.815635020981784	2.2457983	1.4985988
27.83369145793979	2.2589324	1.5029745
27.85174859992682	2.1971412	1.4822757
27.869806447473923	2.0846703	1.4438387
27.887865001112267	1.868978	1.3671057
27.905924261373233	1.8345375	1.354451
27.92398422878836	1.8558412	1.3622926
27.94204490388936	1.8791693	1.370828
27.96010628720813	1.8714373	1.3680049
27.978168379276728	1.8445437	1.3581398
27.9962311806274	1.818862	1.3486519
28.014294691792568	1.8061509	1.3439312
28.0323589133048	1.7621852	1.3274733
28.050423845696887	1.7784708	1.3335931
28.068489489501758	1.8206341	1.3493087
28.086555845252523	1.8291707	1.3524684
28.104622913482487	1.8260564	1.3513166
28.122690694725115	1.8436577	1.3578136
28.14075918951405	1.8734328	1.368734
28.15882839838312	1.8524916	1.3610626
28.176898321866304	1.8246346	1.3507904
28.1949689604978	1.8420757	1.3572309
28.213040314811945	1.8837353	1.3724923
28.23111238534327	1.8808872	1.3714544
28.249185172626493	1.8139465	1.3468283
28.267258677196473	1.79313	1.3390781
28.285332899588294	1.8076161	1.3444761
28.303407840337172	1.8262161	1.3513756
28.321483499978545	1.8122553	1.3462003
28.33955987904799	1.8388118	1.356028
28.357636978081285	1.8927811	1.3757838
28.37571479761439	1.9469717	1.3953393
28.393793338183425	1.9200729	1.385667
28.41187260032469	1.8890299	1.3744198
28.429952584574686	1.8692487	1.3672047
28.448033291470065	1.8903838	1.3749123
28.46611472154769	1.9293504	1.3890105
28.484196875344566	1.9255594	1.3876452
28.502279753397914	1.8938065	1.3761564
28.52036335624511	1.8867896	1.3736045
28.538447684423716	1.8909587	1.3751214
28.556532738471482	1.9476132	1.3955691
28.574618518926325	1.9703918	1.4037064
28.59270502632635	1.9392959	1.392586
28.61079226120985	1.9107628	1.3823035
28.628880224115274	1.934221	1.3907628
28.646968915581287	2.0079293	1.4170142
28.66505833614671	2.0724306	1.4395939
28.68314848635055	2.1017678	1.4497474
28.701239366732004	2.0331655	1.4258912
28.71933097783044	2.0023942	1.4150598
28.737423320185403	2.0302262	1.4248601
28.75551639433665	2.0850828	1.4439815
28.773610200824074	2.1122556	1.4533601
28.791704740187793	2.1389852	1.4625269
28.80980001296809	2.1260579	1.4581008
28.827896019705413	2.1199555	1.4560068
28.845992760940433	2.0820694	1.4429377
28.86409023721397	2.119722	1.4559264
28.88218844906704	2.1344833	1.4609871
28.900287397040845	2.1533194	1.4674193
28.918387081676755	2.1691895	1.4728168
28.936487503516343	2.18409	1.4778666
28.954588663101365	2.2103848	1.4867363
28.97269056097374	2.2041736	1.484646
28.990793197675597	2.1874747	1.4790114
29.00889657374923	2.2383246	1.4961032
29.027000689737125	2.263814	1.5045977
29.04510554618196	2.301872	1.5171921
29.06321114362659	2.3317716	1.5270139
29.08131748261405	2.3233693	1.5242603
29.099424563687567	2.3208716	1.5234407
29.11753238739057	2.3902957	1.5460582
29.13564095426663	2.4600425	1.5684522
29.15375026485954	2.478277	1.5742544
29.171860319713275	2.5182683	1.5869052
29.18997111937199	2.5911636	1.6097091
29.20808266438002	2.6537101	1.6290212
29.226194955281898	2.698612	1.6427453
29.244307992622335	2.7349324	1.653763
29.26242177694624	2.7187464	1.6488621
29.2805363087987	2.7219012	1.6498185
29.29865158872498	2.7664719	1.6632714
29.316767617270557	2.8074355	1.6755403
29.334884394981064	2.8170424	1.6784047
29.353001922402367	2.855065	1.6896938
29.37112020008047	2.927928	1.7111189
29.389239228561596	3.0244184	1.7390854
29.407359008392152	3.1668284	1.7795585
29.42547954011872	3.5239503	1.8772187
29.44360082428809	4.155621	2.038534
29.46172286144722	5.192859	2.2787845
29.479845652143283	6.775324	2.6029453
29.497969196923606	9.069448	3.0115526
29.516093496335728	11.914878	3.4517934
29.5342185509274	15.18327	3.8965716
29.55234436124651	17.855291	4.225552
29.570470927841175	19.476492	4.413218
29.588598251259686	19.360731	4.400083
29.60672633205055	17.98414	4.2407713
29.624855170762405	15.517261	3.9391954
29.642984767944146	12.468322	3.5310512
29.66111512414481	9.319523	3.0527894
29.67924623991366	6.6946893	2.5874097
29.697378115800138	4.949707	2.2247937
29.71551075235387	4.008624	2.0021548
29.733644150124675	3.6026225	1.8980576
29.751778309662576	3.387069	1.8403991
29.769913231517766	3.3594174	1.8328713
29.78804891624066	3.242911	1.8008084
29.806185364381818	3.206681	1.7907208
29.82432257649206	3.2152474	1.7931111
29.842460553122333	3.2324216	1.7978936
29.86059929482382	3.2139106	1.7927383
29.878738802147872	3.1535897	1.7758349
29.896879075646048	3.1390405	1.7717338
29.915020115870114	3.2245426	1.7957011
29.933161923371976	3.2414677	1.8004076
29.951304498703777	3.2174113	1.7937144
29.969447842417857	3.1439812	1.7731276
29.987591955066733	3.0959268	1.7595246
30.005736837203123	3.0451791	1.7450441
30.023882489379943	3.072578	1.752877
30.04202891215028	3.1040187	1.7618226
30.060176106067455	3.1179729	1.7657783
30.078324071684946	3.1227112	1.7671194
30.09647280955646	3.1141534	1.7646964
30.114622320235863	3.0657058	1.7509156
30.132772604277257	3.0625072	1.750002
30.1509236622349	3.0574372	1.7485529
30.16907549466328	3.0883656	1.7573746
30.18722810211705	3.0655954	1.7508842
30.205381485151097	3.0242298	1.7390313
30.22353564432045	2.9870944	1.7283213
30.241690580180403	2.9096875	1.7057806
30.25984629328638	2.8840466	1.698248
30.278002784194037	2.9041395	1.7041537
30.296160053459246	2.9295864	1.7116034
30.314318101638033	2.9319007	1.7122794
30.332476929286646	2.875466	1.69572
30.35063653696153	2.8189938	1.678986
30.368796925219307	2.8198478	1.6792402
30.386958094616844	2.8484337	1.6877303
30.40512004571115	2.7985656	1.6728914
30.423282779059463	2.7277372	1.6515863
30.441446295219233	2.716853	1.6482879
30.459610594748067	2.6978915	1.6425259
30.47777567820382	2.622652	1.6194605
30.495941546144504	2.6025407	1.6132392
30.51410819912835	2.680185	1.637127
30.532275637713795	2.676032	1.6358582
30.55044386245946	2.7001915	1.6432259
30.56861287392416	2.7520201	1.6589214
30.586782672666956	2.746217	1.6571714
30.604953259247047	2.7166116	1.6482147
30.623124634223885	2.7509074	1.658586
30.641296798157075	2.718639	1.6488296
30.659469751606462	2.7075715	1.64547
30.677643495132074	2.697235	1.6423261
30.695818029294152	2.6509778	1.6281824
30.713993354653116	2.6345313	1.6231239
30.73216947176962	2.6974506	1.6423918
30.75034638120448	2.6567895	1.6299661
30.768524083518756	2.6402516	1.6248851
30.786702579273673	2.6793246	1.6368643
30.80488186903069	2.7508125	1.6585574
30.82306195335144	2.7702599	1.6644098
30.841242832797782	2.9152148	1.7074
30.85942450793176	3.2645621	1.8068099
30.877606979315637	3.6425283	1.9085408
30.895790247511883	4.104709	2.0260081
30.913974313083134	4.5354815	2.129667
30.932159176592283	4.8443065	2.2009785
30.95034483860237	4.8835406	2.2098734
30.968531299676698	4.7014832	2.1682904
30.98671856037873	4.316126	2.0775287
31.00490662127215	3.8776503	1.969175
31.023095482920848	3.486401	1.8671907
31.04128514588892	3.1111064	1.7638329
31.059475610740662	2.725225	1.6508255
31.07766687804056	2.5211747	1.5878208
31.09585894835335	2.4292753	1.5586133
31.11405182224393	2.3991032	1.5489038
31.132245500277417	2.4063692	1.5512476
31.15043998301914	2.4002366	1.5492697
31.168635271034628	2.323	1.524139
31.18683136488964	2.280601	1.5101659
31.20502826515008	2.3005624	1.5167605
31.223225972382135	2.3659058	1.5381501
31.241424487152155	2.3820286	1.5433822
31.259623810026692	2.3731103	1.5404903
31.27782394157253	2.3233323	1.5242481
31.296024882356644	2.282497	1.5107934
31.314226632946237	2.281061	1.5103182
31.332429193908684	2.3060923	1.5185823
31.350632565811598	2.3165617	1.5220255
31.368836749222787	2.3288498	1.5260569
31.387041744710295	2.3580525	1.5355952
31.40524755284232	2.42472	1.5571513
31.423454174187317	2.4742396	1.5729716
31.441661609313922	2.46687	1.5706273
31.459869858791002	2.3581228	1.5356181
31.478078923187628	2.3277912	1.5257101
31.496288803073064	2.3131957	1.5209193
31.514499499016807	2.2584586	1.5028169
31.532711011588546	2.1838927	1.4778
31.550923341358178	2.2415555	1.4971825
31.56913648889584	2.3019104	1.5172048
31.587350454771844	2.2891588	1.5129967
31.605565239556732	2.2225358	1.4908172
31.62378084382127	2.2186701	1.4895201
31.641997268136382	2.247195	1.4990647
31.660214513073274	2.260941	1.5036426
31.67843257920331	2.1905658	1.480056
31.6966514670981	2.156936	1.468651
31.71487117732944	2.2139995	1.4879514
31.733091710469346	2.2707	1.5068842
31.751313067090052	2.264614	1.5048635
31.769535247764008	2.2304919	1.4934832
31.787758253063878	2.27525	1.5083932
31.805982083562526	2.2487078	1.4995692
31.824206739833024	2.215811	1.4885601
31.84243222244869	2.1131217	1.4536581
31.860658531983013	2.1126158	1.453484
31.878885669009737	2.1288323	1.4590518
31.897113634102784	2.16153	1.4702142
31.91534242783632	2.1279745	1.4587579
31.933572050784694	2.1416273	1.4634299
31.951802503522508	2.092592	1.4465795
31.970033786624548	2.124269	1.4574872
31.988265900665834	2.176441	1.4752766
32.006498846221575	2.1686618	1.4726377
32.02473262386724	2.0509927	1.4321288
32.04296723417845	2.034234	1.4262657
32.0612026777311	2.1124718	1.4534345
32.07943895510129	2.1333025	1.460583
32.097676066865304	2.1191616	1.455734
32.115914013599685	2.0770302	1.4411906
32.13415279588115	2.0575645	1.4344213
32.152392414286666	2.080187	1.4422854
32.1706328693934	2.1243513	1.4575155
32.18887416177875	2.1823895	1.4772912
32.20711629202032	2.1677284	1.4723208
32.225359260695924	2.1241293	1.4574393
32.243603068383614	2.07295	1.4397743
32.26184771566166	1.9871258	1.4096545
32.28009320310852	1.9819711	1.407825
32.2983395313029	2.0961435	1.4478065
32.31658670082372	2.142842	1.463845
32.33483471225012	2.150835	1.4665725
32.35308356616143	2.1264088	1.4582211
32.371333263137245	2.1169832	1.4549856
32.38958380375734	2.0575984	1.4344331
32.407835188601744	2.0178993	1.4205278
32.42608741825067	1.9050652	1.380241
32.444340493284585	1.9295903	1.389097
32.46259441428416	1.9749821	1.4053406
32.48084918183028	1.9512011	1.396854
32.49910479650405	1.9183218	1.3850349
32.51736125888683	1.9267995	1.388092
32.53561856956014	1.9783181	1.4065269
32.5538767291058	2.0010731	1.4145929
32.572135738105764	2.0490263	1.431442
32.59039559714228	2.1269217	1.4583969
32.608656306797776	2.048254	1.4311723
32.62691786765491	1.8855252	1.3731443
32.645180280296586	1.8209623	1.3494303
32.663443545305896	1.8618114	1.364482
32.68170766326619	1.9340891	1.3907154
32.69997263476099	2.0284863	1.4242494
32.7182384603741	2.0385814	1.427789
32.7365051406895	1.9369196	1.3917326
32.75477267629144	1.8712149	1.3679236
32.77304106776434	1.8623306	1.3646723
32.79131031569289	1.8367974	1.3552849
32.809580420661966	1.7891479	1.3375903
32.827851383256714	1.8126631	1.3463517
32.84612320406245	1.871372	1.367981
32.86439588366476	1.9590843	1.3996729
32.88266942264945	1.979814	1.4070586
32.9009438216025	1.9766452	1.4059322
32.9192190811102	1.9328837	1.3902819
32.937495201758985	1.9024937	1.3793092
32.95577218413556	1.9057102	1.3804747
32.974050028826866	1.9004604	1.3785719
32.992328736420035	1.9236367	1.3869523
33.010608307502444	1.8874714	1.3738527
33.02888874266169	1.8300158	1.3527807
33.047170042485604	1.8053687	1.3436401
33.06545220756225	1.8282592	1.3521314
33.083735238479896	1.901376	1.3789039
33.10201913582707	1.9688787	1.4031674
33.12030390019248	1.9071269	1.3809876
33.138589532165135	1.9342167	1.3907613
33.15687603233419	1.9163984	1.3843404
33.17516340128909	1.8253871	1.3510689
33.19345163961947	1.7247313	1.3132902
33.211740747915215	1.775089	1.3323246
33.23003072676643	1.9328157	1.3902574
33.248321576763466	1.9674435	1.4026558
33.266613298496885	1.9190215	1.3852875
33.28490589255747	1.7786087	1.3336449
33.30319935953626	1.7183052	1.3108414
33.32149370002451	1.8112715	1.3458349
33.339788914613706	1.918268	1.3850155
33.358085003895575	1.8757834	1.3695924
33.376381968462034	1.8497442	1.3600531
33.39467980890529	1.8235028	1.3503714
33.41297852581774	1.7904133	1.3380632
33.43127811979204	1.8197622	1.3489857
33.44957859142105	1.9026717	1.3793737
33.467879941297866	1.8851833	1.3730198
33.486182170015844	1.8481721	1.3594749
33.50448527816853	1.8915347	1.3753308
33.522789266349754	1.9559568	1.3985553
33.541094135153514	1.9673585	1.4026256
33.55939988517411	1.9527093	1.3973937
33.57770651700602	1.9625541	1.4009119
33.59601403124398	1.9399374	1.3928163
33.61432242848296	1.8379346	1.3557044
33.632631709318154	1.7706842	1.3306706
33.650941874344994	1.7675283	1.3294842
33.66925292415916	1.7839134	1.3356322
33.68756485935654	1.7718492	1.3311082
33.70587768053328	1.7807629	1.3344523
33.724191388285746	1.8851879	1.3730215
33.74250598321054	1.9283996	1.3886683
33.760821465904506	1.8411287	1.356882
33.77913783696474	1.7472816	1.3218478
33.79745509698852	1.8171065	1.3480009
33.815773246573414	1.9664385	1.4022976
33.8340922863172	2.0167089	1.4201088
33.852412216817896	1.9829544	1.4081742
33.87073303867377	2.0004754	1.4143816
33.889054752483304	1.8607619	1.3640975
33.907377358845245	1.7654402	1.3286988
33.92570085835853	1.8426056	1.357426
33.94402525162239	2.0149899	1.4195033
33.96235053923627	2.0775654	1.4413762
33.980676721799824	1.9886078	1.4101801
33.999003799912984	1.8250902	1.350959
34.01733177417592	1.8578249	1.3630205
34.03566064518901	1.9869716	1.4095998
34.0539904135529	1.9961895	1.4128656
34.07232107986846	1.9506966	1.3966734
34.090652644736785	1.8730146	1.3685812
34.108985108759235	1.9420182	1.3935632
34.12731847253742	1.9709817	1.4039166
34.14565273667313	1.910237	1.3821132
34.16398790176847	1.844537	1.3581374
34.18232396842574	1.7184708	1.3109046
34.20066093724749	1.7320203	1.3160625
34.21899880883651	1.8026521	1.3426288
34.23733758379583	1.8434489	1.3577367
34.25567726272874	1.8973218	1.3774331
34.27401784623872	2.0037763	1.4155481
34.29235933492957	1.9984599	1.413669
34.31070172940526	1.8810095	1.371499
34.32904503027003	1.9188682	1.3852322
34.347389238128386	2.0552878	1.4336275
34.36573435358502	1.9914168	1.4111757
34.38408037724492	1.8957531	1.3768635
34.402427309713296	1.9997302	1.4141182
34.42077515159559	2.0951765	1.4474725
34.43912390349752	2.0944915	1.4472358
34.45747356602499	2.0567071	1.4341224
34.47582413978423	2.0282826	1.4241779
34.49417562538163	2.0055075	1.4161594
34.51252802342388	1.8788295	1.370704
34.53088133451789	1.8013684	1.3421507
34.54923555927084	1.8287023	1.3522952
34.567590698290104	1.7527792	1.3239257
34.58594675218336	1.6707273	1.2925662
34.6043037215585	1.5912141	1.2614334
34.62266160702365	1.7254213	1.313553
34.641020409187234	1.8293499	1.3525347
34.65938012865785	1.7672465	1.3293782
34.677740766044394	1.8538017	1.3615439
34.69610232195598	1.9191431	1.3853314
34.714464797002016	1.8522228	1.360964
34.73282819179208	1.7504362	1.3230405
34.751192506936064	1.746279	1.3214685
34.76955774304408	1.7718787	1.3311193
34.7879239007265	1.8722245	1.3682926
34.80629098059391	1.9519835	1.3971341
34.824658983257194	1.9735351	1.4048257
34.843027909327446	2.0190456	1.4209312
34.86139775941603	1.9455968	1.3948466
34.879768534134534	1.8618431	1.3644937
34.89814023409483	2.0467026	1.4306302
34.91651285990901	2.2042067	1.484657
34.93488641218944	1.9736445	1.4048645
34.95326089154871	1.6891508	1.2996733
34.97163629859967	1.6254629	1.2749364
34.99001263395542	1.8178226	1.3482665
35.00838989822934	1.8926599	1.3757398
35.02676809203499	1.8455592	1.3585136
35.04514721598624	1.9210378	1.386015
35.063527270697215	1.9898816	1.4106317
35.081908256782256	1.9285114	1.3887085
35.10029017485597	2.0074894	1.416859
35.11867302553321	1.9285129	1.3887091
35.137056809429104	2.0260365	1.4233891
35.155441527159006	1.9663932	1.4022814
35.173827179338524	1.885163	1.3730123
35.19221376658354	1.8079746	1.3446095
35.21060128951017	1.9141036	1.3835113
35.2289897487348	2.1124346	1.4534217
35.24737914487405	2.1798892	1.4764448
35.26576947854479	2.1275415	1.4586095
35.28416075036418	2.1286864	1.4590019
35.30255296094958	2.300513	1.5167443
35.32094611091867	2.4377766	1.5613381
35.33934020088932	2.4207942	1.5558902
35.35773523147969	2.2423756	1.4974564
35.3761312033082	2.1999028	1.4832069
35.394528116993506	2.0123775	1.4185829
35.41292597315452	2.1208045	1.4562982
35.431324772410434	2.0609093	1.4355867
35.449724515380666	2.1492543	1.4660336
35.46812520268491	2.4954612	1.5797029
35.486526834943106	2.1408477	1.4631636
35.504929412775454	1.9315615	1.3898063
35.52333293680242	1.8701886	1.3675483
35.54173740764471	1.5854435	1.259144
35.560142825923286	1.3046902	1.1422304
35.5785491922594	1.282238	1.1323595
35.59695650727454	1.6587374	1.2879198
35.61536477159042	2.5249293	1.5890026
