0.008763373481513119	0.56609195	0.7523908
0.026290120649546365	0.18888974	0.43461448
0.043816868432600686	0.14562035	0.38160235
0.06134361724069026	0.17028639	0.4126577
0.07887036748382949	0.27097774	0.5205552
0.0963971195720331	0.21048477	0.4587862
0.11392387391531617	0.16488087	0.40605527
0.1314506309236943	0.15162122	0.3893857
0.1489773910071836	0.18069658	0.4250842
0.16650415457580078	0.24753456	0.49752846
0.18403092203956356	0.23652631	0.48633972
0.20155769380849	0.19122536	0.43729323
0.2190844702925996	0.120784715	0.34754094
0.2366112519019124	0.124978416	0.35352287
0.2541380390464497	0.17057054	0.41300187
0.27166483213623416	0.15494451	0.3936299
0.28919163158128947	0.12241543	0.34987918
0.3067184377916406	0.09493514	0.30811548
0.324245251177314	0.09604241	0.3099071
0.34177207214833777	0.09766146	0.31250834
0.3592989011147415	0.113836996	0.3373974
0.37682573848655654	0.12918572	0.35942414
0.39435258467381573	0.118814774	0.34469518
0.41187944008655414	0.11972682	0.34601563
0.42940630513480854	0.12326144	0.35108608
0.446933180228618	0.19464357	0.44118428
0.4644600657780234	0.23584372	0.48563743
0.48198696219306775	0.25019577	0.50019574
0.49951386988379676	0.20091528	0.44823575
0.5170407892602581	0.18526106	0.43041962
0.5345677207325025	0.18664588	0.4320253
0.5520946647105822	0.19474518	0.44129944
0.5696216216045534	0.1853679	0.43054372
0.5871485918244737	0.16963473	0.41186738
0.6046755757804043	0.12572499	0.35457718
0.6222025738824094	0.14170213	0.37643343
0.6397295865405557	0.17544861	0.41886586
0.6572566141649129	0.17842296	0.42240143
0.6747836571655547	0.16631295	0.40781483
0.6923107159525568	0.15227242	0.390221
0.7098377909359992	0.19161695	0.43774074
0.7273648825259653	0.23957194	0.4894609
0.7448919911325411	0.2535624	0.5035498
0.762419117165817	0.21005554	0.45831817
0.7799462610358868	0.18035744	0.42468512
0.7974734231528482	0.14889807	0.3858731
0.8150006039268024	0.1639378	0.40489233
0.8325278037678551	0.18054086	0.424901
0.8500550230861152	0.18868384	0.43437752
0.8675822622916969	0.18816917	0.4337847
0.8851095217947171	0.196529	0.44331592
0.9026368020052984	0.22601552	0.4754109
0.9201641033335665	0.23912719	0.48900634
0.9376914261896523	0.26320994	0.5130399
0.9552187709836915	0.27298582	0.5224804
0.9727461381258234	0.2768154	0.5261325
0.990273528026193	0.2758792	0.52524203
1.0078009410949496	0.23532456	0.48510262
1.0253283777422473	0.25014418	0.5001442
1.0428558383782454	0.26833782	0.51801336
1.0603833234131086	0.29885343	0.5466749
1.0779108332570058	0.30412868	0.5514786
1.0954383683201119	0.32580945	0.5707972
1.112965929012607	0.40077752	0.63306993
1.1304935157446763	0.51092076	0.71478724
1.1480211289265108	0.51430225	0.7171487
1.1655487689683062	1.2985878	1.1395559
1.1830764362802655	1.6338917	1.2782377
1.200604131272596	2.0600603	1.435291
1.2181318543555117	2.4295094	1.5586884
1.235659605939232	2.3357208	1.5283065
1.253187386433982	3.7411382	1.9342022
1.270715196249994	6.2219048	2.4943745
1.2882430357975057	11.661192	3.4148488
1.3057709054867608	16.651834	4.080666
1.3232988057280106	22.36214	4.7288623
1.3408267369315112	27.20105	5.2154627
1.358354699507526	30.672321	5.53826
1.3758826938663256	34.668617	5.888006
1.3934107204181858	36.84096	6.0696754
1.410938779573391	37.378876	6.1138268
1.4284668717422309	37.95315	6.160613
1.4459949973350033	37.414772	6.1167617
1.4635231567620117	37.40106	6.1156406
1.4810513504335687	37.118355	6.0924835
1.4985795787599925	36.39546	6.032865
1.5161078421516088	35.862896	5.9885635
1.5336361410187505	34.83923	5.902477
1.5511644757717598	34.923954	5.9096494
1.5686928468209842	35.36979	5.9472504
1.58622125457678	36.013634	6.001136
1.6037496994495108	36.95951	6.0794334
1.621278181849548	36.91434	6.0757174
1.6388067021872719	37.604603	6.1322594
1.6563352608730693	37.208427	6.099871
1.673863858317336	36.49269	6.040918
1.6913924949304753	35.89224	5.991013
1.7089211711228998	34.584663	5.8808727
1.7264498873050296	33.349293	5.7748847
1.7439786438872935	32.386257	5.6908927
1.7615074412801288	31.632685	5.6242943
1.779036279893981	31.39361	5.603
1.796565160139305	31.02871	5.570342
1.814094082426564	30.222807	5.497527
1.8316230471662298	29.39476	5.4216933
1.849152054768784	28.321781	5.321821
1.8666811056447168	27.571428	5.25085
1.8842102002045273	26.515749	5.1493444
1.901739338858724	25.919413	5.091111
1.9192685220178245	25.413439	5.0411744
1.9367977500923557	24.73258	4.973186
1.9543270234928547	24.385502	4.938168
1.971856342629867	23.567562	4.8546433
1.9893857079139496	23.159088	4.812389
2.006915119755667	22.759518	4.770694
2.0244445785655945	22.436972	4.7367682
2.0419740847543175	22.026894	4.6932817
2.0595036387324317	21.58028	4.645458
2.0770332409105414	21.05015	4.588044
2.094562891699263	20.57159	4.5355916
2.1120925915092217	20.092377	4.482452
2.129622340751053	19.840107	4.4542236
2.1471521398354043	188.12183	13.715751
2.1646819891729323	444.54388	21.08421
2.182211889174303	440.61618	20.99086
2.1997418402501974	452.6174	21.274807
2.2172718428113023	432.45758	20.795614
2.234801897268317	320.5564	17.904089
2.2523320040319548	17.063335	4.1307793
2.269862163512935	16.808311	4.099794
2.287392376121992	16.497404	4.0617
2.304922642269869	16.254616	4.0317016
2.322452962367322	16.249128	4.0310206
2.3399833368251164	15.90456	3.9880521
2.357513766054032	15.436536	3.9289358
2.3750442504648586	14.944388	3.8657973
2.3925747904683963	14.661154	3.8289886
2.410105386475459	14.45813	3.8023849
2.4276360388968707	14.078122	3.7520823
2.445166748143469	13.733955	3.7059352
2.4626975146261025	13.673152	3.6977224
2.4802283387556323	13.730433	3.70546
2.4977592209429305	13.722022	3.7043247
2.5152901615988825	13.412032	3.662244
2.5328211611343865	13.0947075	3.618661
2.5503522199603523	12.666159	3.5589547
2.5678833384877024	12.401539	3.521582
2.5854145171273712	12.202315	3.4931812
2.6029457562903064	12.035977	3.4692905
2.620477056387469	11.942867	3.4558454
2.6380084178298326	11.766237	3.4301949
2.655539841028383	11.734834	3.4256144
2.673071326394119	11.675918	3.417004
2.6906028743380523	11.519201	3.3939948
2.708134485271211	11.187869	3.3448272
2.7256661596046325	10.80242	3.2867033
2.743197897749369	10.549005	3.2479231
2.760729700116486	10.414335	3.227125
2.778261567117063	10.305363	3.2101967
2.795793499162193	10.240337	3.2000527
2.8133254966629817	10.105261	3.1788774
2.830857560030551	9.888414	3.144585
2.8483896896760337	9.787264	3.1284604
2.865921886010578	9.583432	3.095712
2.883454149445347	9.561294	3.0921342
2.9009864803915177	9.43126	3.0710356
2.91851887926028	9.330994	3.0546675
2.9360513464628384	9.0891485	3.0148215
2.953583882410413	8.882319	2.9803221
2.9711164875142373	8.736611	2.955776
2.9886491621855606	8.812375	2.9685645
3.0061819068356455	8.690255	2.947924
3.023714721875769	8.616169	2.935331
3.041247607717225	8.435724	2.9044318
3.0587805647713213	8.344288	2.888648
3.0763135934493806	8.1132145	2.8483706
3.0938466941627407	8.019381	2.831851
3.1113798673227544	7.917639	2.81383
3.1289131133407904	7.86049	2.8036566
3.1464464326282315	7.815554	2.7956312
3.1639798255964786	7.7429533	2.7826164
3.1815132926569443	7.6053405	2.7577782
3.1990468342210603	7.5408816	2.7460666
3.216580450700272	7.403559	2.7209482
3.2341141425060416	7.3006406	2.7019699
3.251647910049847	7.212574	2.6856236
3.2691817537431813	7.137306	2.6715736
3.286715673997555	7.062898	2.6576114
3.3042496712244938	7.0208826	2.649695
3.32178374583554	6.9331045	2.6330788
3.339317898242251	6.9126596	2.6291938
3.3568521288562034	6.9025745	2.6272752
3.3743864380889876	6.881504	2.6232622
3.3919208263522127	6.744063	2.5969334
3.4094552940575023	6.646217	2.5780258
3.4269898416164972	6.572685	2.5637248
3.444524469440858	6.4728456	2.5441787
3.4620591779422587	6.4238777	2.534537
3.479593967532391	6.44879	2.5394468
3.4971288386229658	6.4271774	2.535188
3.5146637916257086	6.5360193	2.5565639
3.5321988269523628	6.553659	2.5600116
3.5497339450146903	6.4236517	2.5344925
3.5672691462244708	6.3156953	2.5131047
3.5848044309934988	6.124143	2.4747007
3.60233979973359	6.150054	2.4799302
3.619875252856575	6.2337847	2.496755
3.6374107907743034	6.2387457	2.4977481
3.6549464138986427	6.282985	2.5065885
3.6724821226414788	6.355047	2.520922
3.690017917414714	6.4455867	2.538816
3.7075537986302702	6.3812494	2.5261135
3.7250897667000857	6.3234324	2.5146437
3.7426258220361235	6.3971167	2.5292523
3.7601619650503553	6.779573	2.6037612
3.777698196154779	7.2612023	2.6946619
3.7952345157614067	8.279373	2.87739
3.8127709242822716	9.10002	3.016624
3.830307422129425	11.193305	3.3456397
3.847844009714936	30.047882	5.481595
3.8653806874508954	97.47288	9.872835
3.882917455749409	96.82335	9.839886
3.900454315022606	96.86315	9.8419075
3.917991265682631	41.547558	6.4457397
3.9355283081416506	11.150346	3.3392134
3.9530654428118495	8.92523	2.9875124
3.970602670105433	7.6215	2.7607064
3.9881399904346244	6.636519	2.5761442
4.005677404211669	6.529114	2.555213
4.023214911848827	6.467225	2.543074
4.0407525137583855	6.466654	2.5429616
4.058290210352644	6.3828025	2.5264208
4.075828002043927	6.2506685	2.5001338
4.0933658892445814	6.228781	2.4957526
4.110903872366966	6.330858	2.5161197
4.128441951823468	6.3544273	2.520799
4.145980128026488	6.2690506	2.5038073
4.163518401388452	6.165258	2.4829938
4.181056772321807	6.0428095	2.4582126
4.1985952412390155	6.0351014	2.4566443
4.216133808552567	6.135003	2.476894
4.233672474674966	6.286287	2.507247
4.251211240018741	6.5417686	2.5576882
4.268750104996445	6.7772923	2.6033232
4.286289070020643	7.6412387	2.7642791
4.303828135503928	9.327904	3.0541618
4.3213673018589125	29.564987	5.4373693
4.3389065694982305	90.65524	9.521305
4.356445938834537	165.79913	12.876301
4.3739854102805085	171.60712	13.09989
4.391524984248844	172.5357	13.135284
4.409064661152262	136.67168	11.690666
4.426604441403504	96.7608	9.836707
4.444144325415337	75.668816	8.698782
4.461684313600543	21.754503	4.664172
4.47922440637193	21.980469	4.688333
4.496764604142329	20.271173	4.5023518
4.5143049073245916	18.428345	4.2928247
4.531845316331589	16.30724	4.0382223
4.5493858315762195	13.620104	3.6905425
4.566926453471405	11.392875	3.3753333
4.584467182430081	9.510095	3.0838442
4.602008018865218	8.280175	2.8775294
4.619548963189798	7.534205	2.7448506
4.637090015816834	7.05007	2.6551967
4.654631177159353	6.837232	2.6148102
4.672172447630417	6.5193396	2.5532997
4.689713827643102	6.2479987	2.4995997
4.7072553176105085	5.9571366	2.4407246
4.724796917945764	5.8015203	2.4086344
4.742338629062015	5.7105937	2.389685
4.759880451372434	5.701329	2.3877456
4.777422385290215	5.5662656	2.3592935
4.794964431228581	5.5403886	2.353803
4.812506589600768	5.5394464	2.353603
4.830048860820047	5.655081	2.3780413
4.847591245299709	5.7216945	2.3920064
4.8651337434530655	5.68779	2.3849087
4.882676355693457	5.6376824	2.3743804
4.900219082434242	5.6142635	2.3694437
4.917761924088813	5.578827	2.361954
4.935304881070575	5.634729	2.3737583
4.952847953792969	5.579063	2.362004
4.970391142669449	5.4518943	2.3349292
4.9879344481135055	5.346101	2.3121636
5.005477870538642	5.355625	2.3142223
5.023021410358394	5.3706512	2.3174665
5.040565067986324	5.357826	2.314698
5.05810884383601	5.373565	2.3180952
5.075652738321066	5.353272	2.3137138
5.09319675185512	5.359759	2.3151152
5.110740884851836	5.3551474	2.314119
5.128285137724894	5.376732	2.318778
5.145829510888007	5.4151173	2.3270404
5.163374004754908	5.4026165	2.324353
5.1809186197393595	5.3624225	2.3156905
5.198463356255145	5.3840203	2.3203492
5.216008214716077	5.3680325	2.3169014
5.233553195535998	5.3515744	2.313347
5.251098299128764	5.320312	2.30658
5.268643525908272	5.2683306	2.2952845
5.286188876288432	5.194065	2.2790492
5.3037343506831895	5.104444	2.2593017
5.32127994950651	5.1392956	2.2670014
5.3388256731723915	5.1789575	2.2757323
5.356371522094851	5.2144814	2.2835238
5.373917496687938	5.198056	2.2799246
5.391463597365729	5.1982975	2.2799776
5.40900982454232	5.2112613	2.2828188
5.426556178631843	5.1949663	2.2792468
5.444102660048449	5.112213	2.2610204
5.4616492692063225	5.1407356	2.267319
5.479196006519669	5.124161	2.263661
5.496742872402727	5.1543493	2.2703192
5.514289867269756	5.219276	2.2845736
5.531836991535049	5.222444	2.2852666
5.549384245612924	5.2292795	2.2867618
5.566931629917724	5.0635667	2.250237
5.584479144863822	4.970868	2.2295444
5.6020267908656205	4.924815	2.2191925
5.619574568337545	4.9412675	2.222896
5.637122477694054	5.0058517	2.237376
5.654670519349629	5.0554714	2.2484376
5.672218693718784	5.095052	2.2572222
5.689767001216059	5.113226	2.2612443
5.707315442256021	5.172443	2.2743006
5.724864017253266	5.217891	2.2842703
5.7424127266224225	5.2271914	2.2863052
5.75996157077814	5.224463	2.2857084
5.777510550135105	5.2378364	2.288632
5.795059665108022	5.265775	2.2947278
5.812608916111639	5.2203593	2.2848105
5.830158303560715	5.2581983	2.293076
5.847707827870055	5.186785	2.2774515
5.86525748945448	5.2569346	2.2928007
5.8828072887288485	5.3771124	2.31886
5.900357226108044	5.484239	2.3418453
5.917907302006979	5.5779915	2.3617773
5.9354575168406	6.178477	2.485654
5.9530078710238765	6.778997	2.6036508
5.970558364971812	7.3157964	2.704773
5.988108999099438	7.6247616	2.761297
6.005659773821818	8.04749	2.8368099
6.023210689554039	7.8030972	2.7934024
6.040761746711227	8.173127	2.8588681
6.058312945708531	7.595364	2.7559688
6.075864286961132	7.157011	2.675259
6.093415770884244	6.5637627	2.561984
6.1109673978931065	6.108755	2.4715896
6.128519168402993	5.6202645	2.3707097
6.146071082829204	5.4557376	2.335752
6.163623141587075	5.3058963	2.3034532
6.181175345091969	5.1832714	2.27668
6.198727693759281	5.101262	2.2585974
6.216280188004435	5.0707307	2.2518282
6.233832828242885	5.068235	2.251274
6.251385614890126	5.1189637	2.2625127
6.268938548361669	5.1568346	2.2708664
6.286491629073067	5.1128225	2.2611551
6.304044857439898	5.118585	2.262429
6.321598233877777	4.9663076	2.2285213
6.339151758802344	4.906633	2.2150922
6.356705432629277	4.9037423	2.2144394
6.37425925577428	4.9970784	2.2354145
6.391813228653095	5.069503	2.2515557
6.409367351681486	5.091409	2.2564151
6.426921625275259	5.059166	2.249259
6.44447604985025	4.9856524	2.2328575
6.46203062582232	4.9706516	2.2294958
6.47958535360737	5.014471	2.2393014
6.497140233621328	4.9871006	2.2331817
6.514695266280161	4.9595933	2.2270145
6.532250451999859	4.964313	2.2280738
6.549805791196454	5.0326643	2.24336
6.567361284286002	4.997905	2.2355995
6.584916931684597	4.9762335	2.2307472
6.602472733808367	4.9540925	2.225779
6.6200286910734665	4.9261003	2.219482
6.637584803896092	4.945801	2.2239156
6.655141072692462	4.9576483	2.2265778
6.672697497878842	5.002539	2.2366357
6.690254079871514	4.9981523	2.2356548
6.707810819086808	4.9483223	2.2244825
6.725367715941078	4.9646525	2.2281501
6.742924770850719	4.922045	2.2185683
6.760481984232151	4.9243803	2.2190945
6.778039356501836	4.913639	2.216673
6.795596888076266	4.9867687	2.2331073
6.813154579371963	5.0696297	2.2515838
6.830712430805492	5.1345944	2.2659643
6.84827044279344	5.1269665	2.2642806
6.865828615752445	5.0790453	2.2536738
6.883386950099159	5.118497	2.2624094
6.900945446250287	5.121587	2.2630923
6.918504104622553	5.075712	2.2529342
6.936062925632727	5.0350804	2.2438984
6.953621909697607	4.9981213	2.235648
6.971181057234028	5.0044265	2.2370574
6.988740368658859	5.073764	2.2525017
7.006299844389007	5.1235094	2.2635171
7.023859484841407	5.259043	2.2932603
7.041419290433036	5.347773	2.3125253
7.058979261580902	5.4933143	2.343782
7.0765393987020495	5.6652	2.3801682
7.094099702213559	6.068368	2.4634058
7.111660172532549	6.4427323	2.5382538
7.129220810076164	6.7745614	2.6027987
7.146781615261595	7.4525104	2.7299287
7.16434258850606	7.7026706	2.7753685
7.181903730226821	8.159556	2.8564937
7.1994650408411704	8.13201	2.8516681
7.217026520766437	8.199593	2.863493
7.234588170419983	8.4307575	2.9035766
7.252149990219215	8.3699875	2.893093
7.269711980581568	8.291659	2.8795242
7.2872741419245175	8.093894	2.844977
7.304836474665574	7.749421	2.7837782
7.322398979222286	7.4785404	2.734692
7.339961656012233	7.23201	2.6892397
7.357524505453039	6.883242	2.6235933
7.375087527962357	6.611025	2.5711913
7.392650723957886	6.3420453	2.5183418
7.410214093857353	5.95443	2.44017
7.427777638078528	5.714858	2.3905768
7.445341357039213	5.5040107	2.346063
7.4629052511572525	5.337545	2.3103127
7.480469320850524	5.2021804	2.280829
7.498033566536948	5.1439314	2.2680237
7.5155979886344735	5.152635	2.2699416
7.5331625875610975	5.190963	2.2783685
7.550727363734844	5.234692	2.287945
7.568292317573788	5.233629	2.2877126
7.585857449496025	5.2325273	2.2874718
7.603422759919705	5.2288165	2.2866607
7.620988249263007	5.1935787	2.2789423
7.638553917944147	5.160074	2.2715797
7.656119766381391	5.14649	2.2685876
7.673685794993023	5.124284	2.263688
7.691252004197388	5.171289	2.274047
7.70881839441285	5.29473	2.301028
7.726384966057826	5.2960663	2.3013184
7.743951719550762	5.2591305	2.2932794
7.761518655310149	5.1935716	2.278941
7.779085773754511	5.229948	2.286908
7.796653075302419	5.313519	2.305107
7.814220560372475	5.345843	2.3121078
7.831788229383323	5.2869005	2.2993262
7.8493560827536495	5.3348265	2.3097243
7.866924120902174	5.397756	2.323307
7.884492344247663	5.4653444	2.3378077
7.9020607532089135	5.4600363	2.336672
7.919629348204771	5.382084	2.319932
7.937198129654115	5.3665323	2.3165777
7.954767097975865	5.3138366	2.305176
7.972336253588986	5.322702	2.3070982
7.989905596912472	5.3023567	2.3026848
8.007475128365371	5.3217463	2.306891
8.025044848366756	5.35295	2.3136444
8.042614757335754	5.51637	2.3486953
8.060184855691523	5.680972	2.3834789
8.07775514385327	5.8923583	2.427418
8.095325622240228	5.99039	2.4475272
8.112896291271687	6.0566316	2.4610224
8.130467151366968	6.1184816	2.4735565
8.148038202945436	6.1605005	2.4820356
8.165609446426497	6.1260777	2.4750915
8.183180882229594	6.085728	2.4669268
8.200752510774217	6.018357	2.453234
8.218324332479893	5.9572024	2.4407382
8.235896347766193	5.958908	2.4410875
8.253468557052724	5.952153	2.4397035
8.27104096075914	6.0319705	2.456007
8.288613559305137	6.0845237	2.4666827
8.306186353110448	6.185386	2.4870436
8.32375934259485	6.236393	2.497277
8.341332528178162	6.2240353	2.4948018
8.358905910280246	6.2874055	2.50747
8.376479489321003	6.2531185	2.5006237
8.394053265720377	6.324837	2.5149229
8.411627239898356	6.3549767	2.5209079
8.42920141227497	6.348523	2.5196276
8.44677578327029	6.3169823	2.5133607
8.464350353304427	6.255174	2.5010347
8.48192512279754	6.2681003	2.5036175
8.499500092169827	6.257465	2.5014925
8.51707526184153	6.2001157	2.490003
8.534650632232934	6.1090584	2.4716508
8.552226203764365	5.994584	2.448384
8.569801976856192	6.028847	2.4553711
8.587377951928834	6.164993	2.4829404
8.60495412940274	6.305592	2.5110939
8.622530509698416	6.374293	2.5247362
8.6401070932364	6.48356	2.5462835
8.657683880437283	6.538241	2.5569985
8.675260871721695	6.6611953	2.580929
8.692838067510303	6.80239	2.6081393
8.710415468223834	6.9107265	2.6288261
8.727993074283043	7.0701203	2.6589699
8.745570886108737	7.1198688	2.6683083
8.763148904121765	7.2431884	2.6913173
8.78072712874302	7.2500834	2.6925979
8.798305560393441	7.5107536	2.7405753
8.815884199494006	7.6242075	2.7611969
8.833463046465745	7.7722926	2.7878833
8.851042101729728	7.8699636	2.8053455
8.86862136570707	8.172029	2.858676
8.886200838818924	8.286578	2.8786416
8.903780521486505	8.391045	2.89673
8.921360414131055	8.485492	2.9129868
8.938940517173874	8.626612	2.9371095
8.956520831036297	8.776769	2.9625611
8.97410135613971	8.97801	2.996333
8.99168209290554	9.17375	3.0288198
9.009263041755265	9.37194	3.0613625
9.026844203110405	9.61472	3.1007612
9.044425577392525	9.775509	3.126581
9.062007165023239	9.932708	3.15162
9.079588966424197	10.239195	3.1998742
9.097170982017108	10.463617	3.2347515
9.11475321222372	11.405619	3.3772206
9.132335657465825	12.338986	3.5126894
9.149918318165264	12.333637	3.5119278
9.167501194743924	12.837535	3.5829506
9.18508428762374	12.442984	3.5274613
9.202667597226693	12.456476	3.5293734
9.220251123974803	12.142199	3.4845657
9.237834868290143	11.839702	3.4408867
9.255418830594836	11.638606	3.41154
9.273003011311046	11.003397	3.3171368
9.290587410860985	10.8884535	3.2997656
9.308172029666911	10.243319	3.2005184
9.32575686815113	10.012099	3.16419
9.343341926735997	8.81925	2.9697223
9.360927205843916	8.522791	2.9193819
9.378512705897327	8.365823	2.8923733
9.396098427318728	8.140492	2.853155
9.413684370530664	8.036947	2.834951
9.431270535955722	7.914092	2.8131995
9.448856924016539	7.8565593	2.8029554
9.466443535135806	7.7617893	2.7859988
9.484030369736251	7.7819376	2.7896125
9.501617428240658	7.8338532	2.798902
9.519204711071852	7.846512	2.8011625
9.536792218652714	7.7525644	2.7843428
9.55437995140617	7.7429104	2.7826085
9.571967909755191	7.8012805	2.7930772
9.589556094122802	7.897384	2.8102286
9.60714450493207	7.971256	2.8233411
9.624733142606116	7.9752173	2.8240428
9.642322007568108	7.972769	2.823609
9.659911100241267	7.9739976	2.8238268
9.677500421048851	7.915919	2.8135242
9.695089970414175	7.918525	2.8139875
9.712679748760609	7.9640884	2.8220716
9.730269756511557	8.043533	2.8361123
9.747859994090492	8.079021	2.842362
9.765450461920915	8.150247	2.8548636
9.78304116042639	8.1724205	2.8587446
9.800632090030527	8.192477	2.8622503
9.81822325115699	8.198521	2.8633058
9.835814644229481	8.15798	2.8562179
9.853406269671762	8.16804	2.8579783
9.870998127907646	8.151457	2.8550756
9.888590219360985	8.169503	2.8582342
9.906182544455698	8.2222805	2.867452
9.923775103615734	8.218572	2.866805
9.941367897265108	8.262913	2.8745282
9.958960925827878	8.282311	2.8779006
9.97655418972816	8.287725	2.878841
9.994147689390106	8.258717	2.8737984
10.011741425237934	8.192171	2.862197
10.029335397695904	8.188117	2.8614886
10.04692960718833	8.260982	2.8741922
10.06452405413958	8.2536745	2.872921
10.082118738974064	8.292532	2.8796756
10.099713662116246	8.234817	2.869637
10.117308823990651	8.280181	2.8775303
10.134904225021844	8.256154	2.8733523
10.152499865634445	8.215239	2.8662238
10.170095746253125	8.230695	2.8689187
10.18769186730261	8.178952	2.8598866
10.205288229207675	8.211978	2.865655
10.222884832393145	8.165835	2.8575926
10.2404816772839	8.128619	2.8510733
10.258078764304868	8.190171	2.8618476
10.275676093881035	8.239872	2.8705177
10.293273666437438	8.250389	2.872349
10.310871482399158	8.151992	2.8551693
10.32846954219134	8.133242	2.851884
10.346067846239173	8.126713	2.850739
10.363666394967908	8.150628	2.8549304
10.38126518880283	8.163628	2.8572063
10.398864228169298	8.133867	2.8519936
10.416463513492713	8.122049	2.849921
10.434063045198531	8.112259	2.8482027
10.451662823712262	8.162898	2.8570786
10.469262849459467	8.201503	2.8638265
10.486863122865758	8.139906	2.8530521
10.504463644356806	8.098516	2.8457892
10.522064414358338	8.029069	2.8335612
10.539665433296118	7.9593287	2.8212283
10.557266701595987	7.802055	2.7932158
10.574868219683818	7.7213345	2.778729
10.592469987985552	7.6237025	2.7611053
10.610072006927185	7.5886855	2.754757
10.627674276934751	7.506832	2.7398598
10.64527679843435	7.409666	2.7220702
10.662879571852143	7.3299775	2.7073932
10.680482597614331	7.213966	2.6858828
10.698085876147173	7.0904865	2.6627967
10.715689407876988	6.982614	2.6424637
10.733293193230146	6.833511	2.6140985
10.750897232633072	6.7856345	2.6049252
10.76850152651225	6.7213316	2.5925531
10.786106075294207	6.6526823	2.5792794
10.803710879405534	6.5553265	2.560337
10.821315939272877	6.453822	2.5404375
10.83892125532294	6.3904834	2.5279405
10.856526827982472	6.336664	2.5172732
10.874132657678285	6.3070145	2.511377
10.891738744837243	6.265375	2.5030732
10.909345089886271	6.189235	2.4878173
10.926951693252343	6.1397495	2.4778519
10.944558555362494	6.097821	2.4693768
10.96216567664381	6.0279984	2.4551983
10.979773057523436	5.9400163	2.4372149
10.997380698428573	5.857504	2.420228
11.014988599786477	5.801979	2.4087298
11.032596762024461	5.746912	2.3972719
11.050205185569892	5.7165427	2.3909292
11.067813870850198	5.678581	2.3829775
11.085422818292859	5.637443	2.37433
11.10303202832541	5.511759	2.3477135
11.120641501375454	5.415275	2.3270743
11.138251237870636	5.365937	2.3164492
11.155861238238671	5.270882	2.2958403
11.173471502907317	5.139005	2.2669375
11.191082032304402	5.0925455	2.256667
11.208692826857805	5.050074	2.247237
11.226303886995465	4.98197	2.2320328
11.243915213145371	4.89004	2.2113435
11.261526805735578	4.9188566	2.2178495
11.279138665194196	4.8987904	2.2133212
11.296750791949393	4.884978	2.2101986
11.314363186429393	4.802463	2.1914523
11.331975849062479	4.7110634	2.1704984
11.34958878027699	4.6735682	2.1618438
11.36720198050133	4.593156	2.1431649
11.384815450163948	4.5344505	2.129425
11.402429189693366	4.4882956	2.1185598
11.420043199518153	4.456607	2.1110678
11.437657480066942	63.44093	7.9649816
11.455272031768422	85.15815	9.228117
11.472886855051353	107.557816	10.371009
11.490501950344528	99.192184	9.959527
11.508117318076819	84.544655	9.194817
11.52573295867715	45.929073	6.777099
11.543348872574514	4.2217283	2.0546844
11.560965060197946	4.154206	2.0381868
11.57858152197655	4.1204677	2.0298934
11.59619825833949	4.047119	2.0117452
11.613815269715985	4.070936	2.017656
11.631432556535323	38.565815	6.210138
11.649050119226837	83.10089	9.115969
11.666667958219929	93.49729	9.6694
11.68428607394406	107.735954	10.379593
11.701904466828756	82.54381	9.085362
11.719523137303586	65.36492	8.084858
11.737142085798196	4.553988	2.1340075
11.754761312742286	3.709514	1.9260099
11.772380818565619	3.709838	1.9260939
11.790000603698015	3.7040424	1.9245889
11.80762066856935	3.6407208	1.9080673
11.825241013609572	3.562315	1.8874096
11.842861639248683	3.5380554	1.8809719
11.860482545916748	3.5036943	1.8718158
11.878103734043883	3.5005	1.8709623
11.895725204060282	3.4492233	1.8572085
11.91334695639619	3.4042594	1.8450636
11.930968991481919	3.3445163	1.8288019
11.948591309747824	3.3381608	1.8270634
11.966213911624347	3.333967	1.8259153
11.98383679754198	3.3552387	1.8317311
12.001459967931268	3.3204563	1.8222119
12.019083423222835	3.2678442	1.8077179
12.036707163847352	3.2081866	1.7911412
12.05433119023556	3.184018	1.7843816
12.071955502818259	3.1490502	1.7745564
12.089580102026313	3.175168	1.7819002
12.107204988290643	3.1524386	1.7755108
12.12483016204224	3.1200209	1.7663581
12.142455623712152	3.041468	1.7439805
12.16008137373149	3.0389874	1.7432692
12.177707412531431	3.032086	1.7412885
12.19533374054321	3.0414777	1.7439833
12.212960358198126	3.026482	1.7396787
12.230587265927545	2.997202	1.7312429
12.248214464162889	2.9656308	1.7221007
12.265841953335649	2.9928916	1.7299975
12.283469733877375	2.9902449	1.7292324
12.301097806219685	2.9995065	1.7319083
12.31872617079425	3.0050912	1.7335199
12.336354828032825	3.013034	1.7358093
12.353983778367205	2.9554276	1.7191358
12.371613022229262	2.8920088	1.7005907
12.389242560050928	2.852078	1.6888096
12.406872392264201	2.8591247	1.6908946
12.424502519301143	2.869818	1.6940538
12.442132941593874	2.8438888	1.6863834
12.459763659574586	2.791493	1.6707761
12.477394673675532	2.7869046	1.6694025
12.49502598432903	2.8176734	1.6785927
12.51265759196746	2.8215506	1.6797472
12.530289497023267	2.838233	1.6847056
12.547921699928967	2.8044517	1.6746497
12.565554201117134	2.8075213	1.675566
12.583187001020404	2.7757127	1.6660471
12.600820100071486	2.7829883	1.6682291
12.618453498703152	2.7707489	1.6645566
12.636087197348235	2.7548919	1.6597867
12.65372119643964	2.7548506	1.6597743
12.671355496410326	2.7316177	1.6527606
12.68899009769333	2.790217	1.6703942
12.706625000721749	2.8412516	1.6856012
12.724260205928752	2.9397764	1.7145777
12.741895713747551	2.9396749	1.714548
12.759531524611454	2.9847946	1.7276558
12.777167638953818	2.9839003	1.727397
12.794804057208072	3.0388377	1.7432262
12.812440779807702	3.080576	1.755157
12.830077807186271	3.246416	1.8017814
12.847715139777405	3.2877066	1.8132035
12.865352778014795	3.4898787	1.8681217
12.882990722332197	3.5838275	1.8931
12.90062897316344	3.6593928	1.912954
12.918267530942412	3.7119074	1.9266311
12.935906396103071	3.5820773	1.8926376
12.953545569079449	3.7190907	1.9284945
12.971185050305628	3.5362186	1.8804836
12.988824840215775	3.5588808	1.8864996
13.006464939244115	3.5771825	1.8913441
13.024105347824943	3.45411	1.8585236
13.041746066392617	3.5460303	1.8830906
13.05938709538157	3.3449278	1.8289144
13.077028435226296	3.3902478	1.8412626
13.094670086361363	3.274508	1.8095602
13.112312049221401	3.1224797	1.767054
13.129954324241112	3.0048215	1.7334421
13.147596911855258	2.8268628	1.6813277
13.165239812498685	2.8466964	1.6872156
13.182883026606293	2.7867146	1.6693455
13.200526554613058	2.7479439	1.6576923
13.218170396954017	2.7347422	1.6537056
13.235814554064284	2.702307	1.6438695
13.253459026379034	2.6873825	1.6393238
13.271103814333523	2.6413732	1.6252302
13.288748918363058	2.6274533	1.6209421
13.306394338903031	2.6584737	1.6304827
13.32404007638889	2.6616342	1.6314516
13.341686131256164	2.694961	1.6416336
13.359332503940449	2.6427605	1.625657
13.376979194877402	2.666543	1.6329553
13.394626204502751	2.693002	1.6410369
13.412273533252307	2.71133	1.6466117
13.429921181561937	2.6893663	1.6399288
13.447569149867581	2.6943836	1.6414578
13.465217438605247	2.7098236	1.6461542
13.482866048211022	2.692738	1.6409564
13.500514979121052	2.7132683	1.6472001
13.518164231771568	2.6933527	1.6411437
13.535813806598844	2.7220473	1.6498628
13.553463704039254	2.7148116	1.6476685
13.571113924529229	2.7334564	1.6533167
13.588764468505275	2.7306411	1.6524652
13.606415336403956	2.7723188	1.6650282
13.624066528661917	2.7996628	1.6732193
13.641718045715882	2.8461607	1.6870568
13.659369888002635	2.872865	1.6949528
13.67702205595903	2.90133	1.7033291
13.694674550021993	2.96276	1.721267
13.712327370628532	3.0024412	1.7327554
13.729980518215713	3.0731244	1.7530329
13.747633993220681	3.1575189	1.7769408
13.765287796080647	3.2059507	1.7905169
13.7829419272329	3.2642894	1.8067344
13.800596387114801	3.2754166	1.8098112
13.818251176163775	3.349221	1.8300877
13.835906294817324	3.401583	1.844338
13.853561743513023	3.4229138	1.8501118
13.871217522688525	3.3893223	1.8410112
13.888873632781538	3.4236019	1.8502978
13.906530074229858	3.4604135	1.8602186
13.92418684747135	3.522785	1.8769083
13.941843952943948	3.5135705	1.8744521
13.959501391085665	3.4295263	1.8518981
13.977159162334578	3.364538	1.8342677
13.994817267128846	3.3050895	1.8179905
14.012475705906693	3.2399595	1.7999887
14.030134479106424	3.1595767	1.7775198
14.047793587166414	3.1325598	1.7699039
14.065453030525108	3.1009243	1.7609441
14.083112809621026	3.065122	1.750749
14.100772924892766	2.9794774	1.7261163
14.118433376778997	2.8923066	1.7006782
14.136094165718458	2.809548	1.6761706
14.153755292149969	2.7641902	1.6625854
14.171416756512416	2.7118678	1.646775
14.189078559244768	2.653784	1.6290439
14.20674070078606	2.5507984	1.597122
14.224403181575408	2.5080287	1.5836757
14.242066002051999	2.482866	1.5757113
14.259729162655093	2.4981964	1.5805683
14.277392663824022	2.4687624	1.5712296
14.295056505998208	2.4257526	1.5574828
14.312720689617128	2.4231052	1.5566326
14.330385215120348	2.4214945	1.5561152
14.348050082947497	2.3990839	1.5488976
14.3657152935383	2.3926575	1.5468217
14.383380847332528	2.3894484	1.5457841
14.401046744770051	2.369403	1.5392865
14.418712986290798	2.3783019	1.5421743
14.436379572334793	2.3670797	1.5385317
14.454046503342123	2.4031549	1.5502112
14.471713779752946	2.3909872	1.5462817
14.489381402007504	2.397468	1.548376
14.507049370546113	2.425211	1.5573089
14.524717685809168	2.4599264	1.5684153
14.542386348237134	2.4768746	1.5738089
14.560055358270553	2.4601595	1.5684896
14.577724716350051	2.4615169	1.5689222
14.595394422916325	2.4386115	1.5616055
14.61306447841015	2.4193282	1.555419
14.63073488327237	2.4275749	1.5580677
14.648405637943917	2.450353	1.5653603
14.6660767428658	2.4310257	1.5591747
14.683748198479094	2.4423854	1.5628133
14.701420005224954	2.487536	1.5771924
14.719092163544628	2.5899172	1.609322
14.73676467387942	2.6646295	1.6323693
14.754437536670727	2.675482	1.6356901
14.772110752360014	2.7060459	1.6450063
14.78978432138882	2.7144198	1.6475496
14.807458244198777	2.7514098	1.6587374
14.82513252123159	2.6965342	1.6421127
14.842807152929028	2.6996448	1.6430596
14.860482139732962	2.6917982	1.6406701
14.87815748208531	2.7132246	1.6471869
14.8958331804281	2.7072945	1.6453859
14.91350923520342	2.6380048	1.6241935
14.931185646853438	2.6199427	1.6186237
14.948862415820408	2.5837948	1.6074187
14.966539542546656	2.6102839	1.6156373
14.98421702747459	2.6166031	1.6175917
15.001894871046696	2.6362536	1.6236544
15.019573073705542	2.6464326	1.626786
15.037251635893766	2.6441057	1.6260706
15.054930558054092	2.706122	1.6450294
15.072609840629323	2.7835562	1.6683993
15.090289484062351	2.9289181	1.7114083
15.107969488796124	3.1962261	1.7877992
15.125649855273691	3.5895512	1.8946111
15.14333058393817	4.0749187	2.018643
15.161011675232768	5.126155	2.2641013
15.17869312960076	6.560654	2.5613773
15.196374947485506	8.367604	2.8926811
15.214057129330447	11.328624	3.365802
15.231739675579114	15.915477	3.9894207
15.249422586675102	20.877363	4.5691752
15.267105863062092	23.974266	4.8963523
15.284789505183847	24.177818	4.9170947
15.302473513484218	22.043205	4.6950192
15.320157888407127	18.484713	4.299385
15.337842630396578	14.410067	3.7960594
15.355527739896656	11.207646	3.3477824
15.37321321735153	8.718867	2.9527729
15.39089906320545	6.3818846	2.5262392
15.408585277902748	4.8386455	2.199692
15.42627186188783	3.7481554	1.9360154
15.443958815605198	3.294028	1.8149457
15.461646139499424	3.0028334	1.7328686
15.479333834015168	2.8179655	1.6786797
15.497021899597165	2.704626	1.6445748
15.514710336690234	2.6422548	1.6255014
15.53239914573928	2.6011403	1.6128051
15.550088327189297	2.554503	1.5982813
15.567777881485336	2.5125923	1.5851159
15.58546780907256	2.4802809	1.5748907
15.6031581103962	2.4623742	1.5691954
15.620848785901568	2.4482322	1.5646827
15.638539836034063	2.4048333	1.5507525
15.656231261239173	2.410093	1.5524474
15.673923061962451	2.3882675	1.545402
15.691615238649552	2.375371	1.5412239
15.709307791746202	2.3366618	1.5286144
15.727000721698221	2.3531096	1.5339849
15.744694028951498	2.3598156	1.5361692
15.76238771395202	2.3828766	1.543657
15.780081777145844	2.391298	1.5463822
15.797776218979125	2.4029355	1.5501405
15.815471039898094	2.4177966	1.5549265
15.833166240349064	2.4042554	1.5505662
15.850861820778437	2.380372	1.5428455
15.868557781632699	2.369797	1.5394145
15.886254123358412	2.362325	1.5369856
15.903950846402232	2.3570523	1.5352695
15.921647951210897	2.349551	1.5328245
15.939345438231225	2.3408384	1.5299798
15.957043307910133	2.336824	1.5286673
15.974741560694602	2.3376637	1.528942
15.992440197031714	2.3371694	1.5287803
16.01013921736862	2.374652	1.5409906
16.02783862215259	2.4022763	1.5499278
16.045538411830933	2.4376023	1.5612823
16.06323858685107	2.4351661	1.5605019
16.080939147660512	2.4298341	1.5587925
16.09864009470684	2.4169898	1.5546671
16.11634142843774	2.37966	1.5426146
16.134043149300954	2.3829696	1.543687
16.15174525774433	2.3759396	1.5414083
16.169447754215817	2.3613591	1.5366714
16.18715063916342	2.360063	1.5362496
16.204853913035244	2.3863964	1.5447966
16.222557576279478	2.3936973	1.5471578
16.240261629344403	22.392012	4.73202
16.257966072678386	42.94624	6.553338
16.275670906729868	38.062912	6.1695147
16.293376131947387	2.485725	1.5766182
16.31108174877957	2.5187564	1.587059
16.328787757675133	2.5513434	1.5972925
16.34649415908287	2.5527658	1.5977377
16.364200953451657	2.5534418	1.5979493
16.38190814123048	2.5785282	1.6057796
16.39961572286839	2.6287227	1.6213336
16.41732369881455	2.6737506	1.6351607
16.43503206951817	2.6797907	1.6370066
16.45274083542859	2.6999552	1.643154
16.47044999699522	2.7450943	1.6568326
16.488159554667558	2.799657	1.6732175
16.505869508895184	2.8834593	1.6980752
16.523579860127786	2.9387453	1.7142769
16.541290608815117	3.0017157	1.732546
16.559001755407035	3.0604792	1.7494226
16.57671330035348	3.1245506	1.7676399
16.59442524410448	3.2033274	1.7897842
16.61213758711015	3.2468634	1.8019055
16.629850329820705	3.257366	1.8048174
16.647563472686436	3.30118	1.8169149
16.665277016157724	3.3470292	1.8294888
16.682990960685053	3.385723	1.8400334
16.70070530671898	3.401618	1.8443476
16.718420054710155	3.4626198	1.8608116
16.736135205109335	3.5456486	1.8829893
16.753850758367335	3.5793054	1.8919052
16.771566714935087	3.5970805	1.896597
16.789283075263597	3.6555142	1.9119399
16.80699983980398	3.7395244	1.933785
16.82471700900741	3.7992423	1.9491645
16.84243458332518	3.9024248	1.9754556
16.860152563208665	3.9703066	1.9925629
16.87787094910932	4.0507007	2.0126352
16.89558974147871	4.1408453	2.0349066
16.913308940768466	4.2207236	2.05444
16.931028547430333	4.27716	2.0681295
16.94874856191613	4.300883	2.073857
16.966468984677785	4.355488	2.0869806
16.98418981616729	4.3467393	2.0848835
17.00191105683676	4.3742313	2.0914664
17.019632707138374	4.421063	2.1026323
17.03735476752442	4.5222225	2.1265519
17.05507723844728	4.5717955	2.1381757
17.072800120359403	4.5958037	2.1437826
17.090523413713353	4.5736613	2.138612
17.108247118961785	4.6005144	2.144881
17.125971236557437	4.604211	2.1457424
17.143695766953133	4.63495	2.1528935
17.161420710601806	4.655097	2.1575675
17.179146067956477	4.658802	2.1584258
17.19687183947025	4.6598554	2.1586697
17.21459802559634	4.6120687	2.1475728
17.232324626788028	4.6192703	2.1492488
17.25005164349871	4.559878	2.135387
17.267779076181863	4.5270443	2.1276853
17.285506925291074	4.479602	2.116507
17.30323519127999	4.481904	2.117051
17.320963874602384	4.5336065	2.1292267
17.33869297571211	4.538978	2.1304877
17.356422495063114	4.5135474	2.124511
17.37415243310944	4.506434	2.1228364
17.391882790305218	4.5015364	2.1216824
17.40961356710468	4.5103927	2.1237686
17.42734476396215	4.5441003	2.1316895
17.445076381332044	4.602481	2.1453393
17.462808419668868	4.6197996	2.1493719
17.48054087942723	4.671927	2.161464
17.498273761061835	4.9364243	2.2218065
17.51600706502747	5.4316163	2.3305829
17.533740791779024	6.243829	2.4987655
17.551474941771485	7.7009306	2.7750552
17.56920951545993	8.786599	2.9642198
17.586944513299528	10.823987	3.2899828
17.60467993574556	12.357915	3.5153825
17.622415783253373	13.939155	3.7335176
17.64015205627843	15.2479	3.904856
17.657888755276293	16.289911	4.036076
17.675625880702604	16.740751	4.0915465
17.69336343301311	16.609573	4.0754843
17.71110141266366	15.868581	3.9835386
17.728839820110178	15.016136	3.875066
17.746578655808705	14.236052	3.7730691
17.764317920215372	12.935441	3.5965874
17.7820576137864	11.52162	3.3943512
17.79979773697811	9.516927	3.0849516
17.81753829024692	7.543721	2.7465835
17.835279274049356	5.87797	2.4244525
17.85302068884201	4.830013	2.197729
17.870762535081607	4.1488857	2.0368814
17.888504813224934	3.815457	1.9533195
17.90624752372891	3.650089	1.9105207
17.923990667050536	3.6313903	1.9056207
17.941734243646895	3.55475	1.8854045
17.959478253975185	3.519461	1.8760226
17.9772226984927	3.4289227	1.851735
17.994967577656833	3.397597	1.8432572
18.01271289192506	3.3707645	1.8359642
18.030458641754965	3.3546188	1.8315618
18.04820482760425	3.338364	1.827119
18.06595144993067	3.3348546	1.8261584
18.083698509192125	3.3061755	1.8182892
18.101446005846576	3.2677956	1.8077044
18.119193940352105	3.236407	1.7990017
18.136942313166887	3.23098	1.7974926
18.1546911247492	3.2354875	1.7987461
18.1724403755574	3.204288	1.7900525
18.19019006604997	3.1565444	1.7766666
18.207940196685467	3.1466222	1.7738721
18.225690767922575	3.144693	1.7733282
18.243441780220046	3.1015387	1.7611185
18.261193234036764	3.0465958	1.74545
18.278945129831676	3.0250728	1.7392737
18.29669746806386	3.0369656	1.7426891
18.314450249192483	3.036932	1.7426796
18.3322034736768	3.0406241	1.7437385
18.349957141976184	3.0451763	1.7450434
18.3677112545501	3.050571	1.7465883
18.385465811858108	3.0186963	1.7374396
18.403220814359884	2.9731107	1.724271
18.420976262515172	2.9733598	1.7243433
18.43873215678387	3.0384436	1.7431132
18.456488497625923	3.116273	1.7652968
18.474245285501407	3.1973598	1.7881162
18.492002520870486	3.2569542	1.8047034
18.50976020419343	3.3033686	1.8175172
18.527518335930615	3.6269448	1.9044539
18.545276916542516	4.2218695	2.0547187
18.563035946489688	4.4314895	2.1051104
18.580795426232832	4.9139113	2.2167344
18.598555356232698	4.7696934	2.1839628
18.616315736950185	5.098402	2.2579641
18.63407656884626	4.7249613	2.1736977
18.65183785238201	4.9338803	2.221234
18.669599588018617	4.667461	2.1604307
18.68736177621737	4.6311417	2.1520088
18.705124417439652	4.652131	2.15688
18.72288751214696	4.4809628	2.1168284
18.740651060800886	4.6106334	2.1472385
18.758415063863115	4.2899446	2.0712183
18.77617952179546	4.4532547	2.1102736
18.793944435059814	4.229345	2.0565372
18.811709804118184	4.2596097	2.063882
18.829475629432675	4.193878	2.0478961
18.8472419114655	3.9871478	1.9967843
18.86500865067897	4.0908813	2.0225928
18.88277584753551	3.7316198	1.9317402
18.90054350249763	3.7498872	1.9364625
18.918311616027957	3.3988595	1.8435996
18.936080188589226	3.3222992	1.8227175
18.953849220644265	3.0445523	1.7448646
18.971618712656007	2.9173207	1.7080166
18.9893886650875	2.8509226	1.6884675
19.007159078401887	8.026168	2.8330493
19.024929953062408	32.885277	5.7345686
19.042701289532435	32.80881	5.7278976
19.060473088275405	25.348791	5.034758
19.07824534975489	2.6184545	1.618164
19.096018074434568	2.6255176	1.6203449
19.113791262778197	2.612916	1.6164516
19.13156491524966	2.5675519	1.6023582
19.149339032312945	2.5572104	1.599128
19.167113614432136	2.541747	1.5942857
19.184888662071433	2.522298	1.5881745
19.202664175695123	2.5063097	1.5831329
19.220440155767623	2.5369527	1.5927814
19.238216602753447	2.5559325	1.5987284
19.2559935171172	2.5424943	1.5945201
19.27377089932361	2.5156424	1.5860777
19.291548749837514	2.5144277	1.5856947
19.309327069123835	2.5204616	1.5875962
19.32710585764763	2.5239265	1.5886871
19.344885115874032	2.4626284	1.5692763
19.362664844268313	2.448302	1.5647051
19.380445043295822	2.4524267	1.5660225
19.39822571342203	2.46067	1.5686523
19.41600685511252	2.4511857	1.5656263
19.43378846883297	2.4843986	1.5761975
19.451570555049173	2.5095963	1.5841706
19.469353114227037	2.4970667	1.5802109
19.48713614683254	2.4560776	1.5671878
19.50491965333182	2.4856017	1.5765791
19.52270363419109	2.5461142	1.5956548
19.540488089876686	2.5557787	1.5986803
19.55827302085503	2.5348167	1.5921108
19.576058427592674	2.5350225	1.5921754
19.593844310556282	2.5364828	1.592634
19.611630670212598	2.5243998	1.588836
19.629417507028506	2.5334158	1.5916708
19.64720482147098	2.5530343	1.5978217
19.6649926140071	2.5578692	1.599334
19.682780885104084	2.5166574	1.5863976
19.70056963522921	2.482521	1.5756018
19.718358864849908	2.5016615	1.5816642
19.7361485744337	2.503263	1.5821704
19.753938764448215	2.493648	1.5791289
19.771729435361202	2.4693964	1.5714313
19.789520587640506	2.4612591	1.56884
19.807312221754092	2.4542208	1.5665953
19.825104338170043	2.4715915	1.5721296
19.842896937356517	2.4949672	1.5795466
19.860690019781824	2.5039573	1.5823897
19.87848358591436	2.504848	1.5826712
19.896277636222635	2.480911	1.5750908
19.914072171175278	2.501224	1.5815258
19.931867191241015	2.4893658	1.5777724
19.94966269688869	2.513413	1.5853747
19.967458688587264	2.5106604	1.5845064
19.985255166805807	2.4877884	1.5772724
20.00305213201348	2.492293	1.5786997
20.020849584679578	2.4970384	1.580202
20.038647525273507	2.4983957	1.5806314
20.05644595426477	2.472765	1.5725027
20.07424487212299	2.4541862	1.5665842
20.092044279317903	2.4410284	1.5623791
20.109844176319353	2.420859	1.5559111
20.127644563597304	2.4277399	1.5581206
20.145445441621817	2.4203355	1.5557427
20.16324681086307	2.3709705	1.5397956
20.181048671791373	2.3524992	1.5337859
20.198851024877122	2.3811781	1.5431067
20.216653870590836	2.3648238	1.5377984
20.234457209403146	2.365095	1.5378865
20.252261041784802	2.3821218	1.5434124
20.270065368206662	2.4071312	1.5514932
20.287870189139685	2.400449	1.5493382
20.305675505054968	2.3753593	1.5412201
20.323481316423702	2.3455324	1.5315131
20.341287623717207	2.3408618	1.5299876
20.359094427406884	2.3393507	1.5294936
20.376901727964288	2.3444517	1.5311602
20.39470952586107	2.3599305	1.5362065
20.41251782156899	2.3535626	1.5341325
20.430326615559935	2.3025768	1.5174243
20.448135908305886	2.2984114	1.5160513
20.465945700278965	2.3360066	1.5284001
20.483755991951384	2.3622267	1.5369537
20.50156678379548	2.3428667	1.5306425
20.519378076283708	2.3167992	1.5221035
20.537189869888635	2.3349082	1.5280406
20.55500216508294	2.330953	1.5267458
20.572814962339415	2.307033	1.518892
20.59062826213098	2.3080766	1.5192355
20.60844206493066	2.3083198	1.5193156
20.626256371211593	2.3254943	1.5249572
20.644071181447032	2.3069942	1.5188793
20.66188649611036	2.2977111	1.5158203
20.67970231567506	2.2885618	1.5127994
20.697518640614742	2.2835457	1.5111406
20.715335471403122	2.2784503	1.5094537
20.73315280851404	2.2811697	1.5103542
20.750970652421447	2.297916	1.5158879
20.768789003599412	2.2791529	1.5096864
20.786607862522136	2.2528245	1.5009413
20.8044272296639	2.2583778	1.50279
20.82224710549913	2.285128	1.511664
20.84006749050237	2.2675726	1.5058461
20.857888385148268	3.809915	1.9519004
20.8757097899116	45.91484	6.776049
20.893531705267254	64.778145	8.048487
20.911354131690224	83.80961	9.154758
20.92917706965566	69.0678	8.310704
20.94700051963877	50.147064	7.081459
20.96482448211493	29.415773	5.423631
20.982648957559622	4.12621	2.0313075
21.00047394644843	2.2439487	1.4979815
21.01829944925707	2.255857	1.5019511
21.036125466461375	2.2600343	1.5033411
21.053951998537297	2.2257288	1.4918877
21.071779045960906	2.2031298	1.4842944
21.089606609208378	2.1882453	1.4792719
21.10743468875603	2.1753867	1.4749192
21.12526328508028	2.1817403	1.4770715
21.143092398657675	2.1937013	1.4811149
21.16092202996488	2.1877298	1.4790976
21.17875217947867	2.1765766	1.4753226
21.19658284767596	2.19281	1.480814
21.21441403503377	2.1711295	1.4734753
21.232245742029225	2.20227	1.4840047
21.2500779691396	2.1770945	1.4754981
21.26791071684227	2.1773245	1.475576
21.28574398561475	2.1504765	1.4664503
21.30357777593465	2.1410885	1.4632459
21.321412088279704	2.1435723	1.4640944
21.339246923127792	2.1386929	1.462427
21.357082280956888	2.1156564	1.4545296
21.3749181622451	2.105715	1.4511082
21.392754567470647	2.1661744	1.4717929
21.41059149711187	2.1672783	1.4721678
21.42842895164726	2.1543906	1.4677843
21.446266931555378	2.1708195	1.4733701
21.464105437314945	2.1854143	1.4783146
21.481944469404798	2.1543663	1.467776
21.49978402830388	2.1235917	1.4572549
21.51762411449127	2.105282	1.450959
21.53546472844617	2.1253812	1.4578687
21.553305870647876	2.074648	1.4403638
21.571147541575865	2.036113	1.4269243
21.58898974170967	2.032946	1.4258142
21.60683247152899	2.0995378	1.4489782
21.62467573151363	2.1038227	1.450456
21.642519522143523	2.0393875	1.4280713
21.660363843898722	2.014567	1.4193544
21.6782086972594	2.0282621	1.4241707
21.696054082705864	2.0731585	1.4398466
21.713900000718535	2.0853958	1.44409
21.73174645177795	2.078711	1.4417735
21.749593436364794	2.0474203	1.4308809
21.767440954959845	2.0543067	1.4332854
21.785289008044032	2.0617692	1.4358863
21.803137596098388	2.0373917	1.4273723
21.820986719604086	2.0151553	1.4195616
21.838836379042412	2.003375	1.4154063
21.85668657489478	2.0252252	1.423104
21.87453730764273	2.0111537	1.4181515
21.892388577767914	2.0134568	1.4189633
21.91024038575213	2.0091712	1.4174523
21.928092732077285	2.0330381	1.4258465
21.945945617225426	2.039121	1.4279779
21.963799041678694	2.0553825	1.4336605
21.981653005919398	31.35842	5.5998588
21.999507510429943	78.10211	8.83754
22.01736255569286	73.02879	8.545689
22.035218142190818	4.137826	2.0341647
22.05307427040661	1.9789438	1.4067494
22.07093094082315	1.9661565	1.402197
22.088788153923474	1.9649272	1.4017586
22.106645910190746	1.9917663	1.4112995
22.12450421010827	2.005831	1.4162736
22.142363054159464	1.9813944	1.4076201
22.16022244282787	1.9859209	1.409227
22.178082376597164	1.9970801	1.4131808
22.195942855951145	2.0083883	1.4171761
22.213803881373742	1.9849081	1.4088677
22.231665453349002	1.9533952	1.3976392
22.24952757236111	1.9383543	1.3922479
22.26739023889438	1.9553976	1.3983554
22.28525345343323	1.9633673	1.4012021
22.30311721646225	1.9556726	1.3984537
22.320981528466113	1.8991737	1.3781052
22.33884638992964	1.894844	1.3765334
22.356711801337788	1.9073855	1.3810812
22.37457776317561	1.9383883	1.3922602
22.392444275928337	1.9428079	1.3938464
22.410311340081282	1.9267097	1.3880596
22.428178956119904	1.9300766	1.389272
22.446047124529805	1.9354564	1.3912069
22.46391584579669	1.9371694	1.3918223
22.481785120406414	1.9776735	1.4062978
22.49965494884496	1.982302	1.4079424
22.51752533159841	1.9748107	1.4052796
22.53539626915302	1.9291768	1.3889481
22.553267761995137	1.9044944	1.3800342
22.571139810611264	1.9109821	1.3823828
22.589012415488025	1.8987963	1.3779682
22.60688557711216	1.8749046	1.3692715
22.624759295970566	1.8476129	1.3592693
22.642633572550263	1.863867	1.3652352
22.660508407338362	1.890582	1.3749844
22.67838380082217	1.8931062	1.3759019
22.696259753489077	1.9068677	1.3808938
22.714136265826614	1.9480934	1.3957412
22.73201333832246	1.929124	1.3889291
22.74989097146439	1.8647542	1.36556
22.76776916574035	1.8212765	1.3495468
22.785647921638393	1.8563131	1.3624659
22.803527239646712	1.8794839	1.3709427
22.82140712025363	1.8981872	1.3777472
22.839287563947593	1.8917545	1.3754107
22.85716857121719	1.9037653	1.37977
22.875050142551135	1.9184382	1.385077
22.892932278438277	1.9705645	1.403768
22.910814979367604	1.9651457	1.4018365
22.928698245828222	1.9517803	1.3970613
22.946582078309387	1.9281373	1.3885739
22.96446647730047	1.9331603	1.3903813
22.98235144329098	1.9493352	1.396186
23.000236976770562	1.9355646	1.3912457
23.018123078229	1.9151424	1.3838867
23.03600974815619	1.8863932	1.3734603
23.053896987042194	1.8835156	1.3724123
23.071784795377173	1.9021579	1.3791875
23.08967317365145	1.9374759	1.3919325
23.10756212235546	1.9518664	1.3970921
23.125451641979787	1.9627421	1.4009789
23.143341733015134	1.9775023	1.4062369
23.161232395952357	1.9803196	1.4072382
23.179123631282426	1.9625356	1.4009053
23.197015439496468	1.9346151	1.3909044
23.214907821085717	1.891295	1.3752435
23.23280077654157	1.8803318	1.371252
23.250694306355538	1.9126768	1.3829956
23.268588411019277	1.9352136	1.3911195
23.28648309102458	1.916464	1.3843641
23.304378346863356	1.9292496	1.3889743
23.322274179027676	1.9432071	1.3939897
23.340170588009723	1.9635034	1.4012506
23.358067574301852	1.9481269	1.3957531
23.37596513839651	1.9417026	1.3934499
23.39386328078629	1.9374282	1.3919153
23.411762001963947	1.9395623	1.3926817
23.429661302422353	1.9496443	1.3962966
23.4475611826545	1.9337603	1.3905971
23.46546164315356	1.9021583	1.3791876
23.48336268441279	1.9061629	1.3806386
23.501264306925638	1.9132322	1.3831964
23.51916651118564	1.8996783	1.3782881
23.537069297686497	1.86641	1.3661662
23.554972666922037	1.8873582	1.3738116
23.57287661938623	1.8774171	1.3701887
23.59078115557318	1.8887457	1.3743165
23.608686275977128	1.8723644	1.3683437
23.62659198109246	1.9217945	1.386288
23.6444982714137	1.9320829	1.3899938
23.66240514743549	1.924926	1.3874171
23.68031260965263	1.911011	1.3823932
23.698220658560068	1.8999751	1.3783958
23.716129294652845	1.9125774	1.3829596
23.7340385184262	1.9171915	1.3846269
23.75194833037546	1.9027035	1.3793852
23.769858730996123	1.9058064	1.3805095
23.78776972078382	1.9172449	1.3846462
23.80568130023431	1.9103656	1.3821597
23.823593469843495	1.8786228	1.3706286
23.841506230107424	1.8615937	1.3644023
23.859419581522275	1.8567473	1.3626251
23.87733352458438	1.8401313	1.3565143
23.89524805979019	1.8742377	1.369028
23.913163187636318	1.906353	1.3807074
23.931078908619508	1.9452972	1.3947392
23.948995223236633	1.9508932	1.3967438
23.966912131984735	1.9911041	1.4110649
23.98482963536096	2.0308921	1.4250938
24.002747733862616	2.0365992	1.4270947
24.020666427987155	2.0454552	1.4301941
24.038585718232156	2.0474162	1.4308795
24.056505605095353	2.0424573	1.4291457
24.074426089074617	2.0616214	1.4358348
24.092347170667946	2.0844066	1.4437474
24.110268850373515	2.1131625	1.453672
24.128191128689586	2.0981066	1.4484843
24.146114006114626	2.0273018	1.4238335
24.164037483147187	1.9818258	1.4077734
24.181961560286005	1.9951055	1.412482
24.199886238029926	2.0012162	1.4146435
24.21781151687797	2.004379	1.415761
24.235737397329274	1.9676629	1.402734
24.253663879883135	1.9801114	1.4071643
24.271590965038975	1.979214	1.4068453
24.289518653296376	1.9777116	1.4063113
24.30744694515505	2.0023413	1.4150411
24.32537584111486	2.0329444	1.4258136
24.34330534167581	2.0130398	1.4188163
24.361235447338046	2.0004692	1.4143795
24.379166158601876	2.0538735	1.4331342
24.39709747596772	2.0553236	1.43364
24.41502939993615	2.0255928	1.4232333
24.432961931007917	1.9891204	1.4103618
24.450895069683856	1.9873756	1.4097431
24.468828816465	1.999234	1.4139427
24.4867631718525	2.0273166	1.4238386
24.504698136347656	2.0229404	1.422301
24.52263371045192	1.9941517	1.4121444
24.540569894666874	1.9549876	1.3982087
24.558506689494266	1.9352684	1.3911393
24.57644409543597	1.935476	1.3912139
24.594382112994012	1.991818	1.4113178
24.61232074267057	1.9978113	1.4134395
24.630259984967953	1.9995714	1.414062
24.64819984038863	1.9959629	1.4127855
24.66614030943522	2.0084405	1.4171946
24.684081392610462	1.9808323	1.4074204
24.702023090417274	1.9679899	1.4028506
24.7199654033587	1.9922156	1.4114587
24.737908331937927	2.0131316	1.4188488
24.755851876658305	2.010013	1.4177493
24.773796038023324	2.0516737	1.4323665
24.79174081653661	2.060164	1.4353272
24.809686212701962	2.030189	1.424847
24.827632227023294	2.0455408	1.4302241
24.8455788600047	2.073604	1.4400014
24.8635261121504	2.074692	1.4403791
24.88147398396475	2.08641	1.4444411
24.899422475952303	2.1141734	1.4540198
24.917371588617698	2.136093	1.4615378
24.935321322465768	2.182711	1.4774001
24.953271678001478	2.2644424	1.5048064
24.97122265572994	2.4151847	1.5540864
24.989174256156414	2.707165	1.6453465
25.00712647978632	3.1386304	1.771618
25.02507932712521	3.736895	1.933105
25.043032798678798	4.3062177	2.0751429
25.060986894952933	4.9752026	2.2305162
25.078941616453637	5.6381226	2.374473
25.096896963687055	6.56666	2.5625496
25.114852937159508	7.6341376	2.7629943
25.132809537377444	8.037337	2.8350198
25.150766764847468	7.9793463	2.8247736
25.168724620076347	7.448425	2.7291803
25.186683103570985	6.57311	2.5638077
25.204642215838426	5.5080156	2.3469162
25.222601957385894	4.2403784	2.059218
25.24056232872074	3.2501757	1.8028244
25.25852333035048	2.6478326	1.6272162
25.276484962782778	2.2991433	1.5162926
25.294447226525435	2.1123972	1.4534088
25.312410122086423	2.0315347	1.4253192
25.330373649973843	1.9582217	1.3993647
25.348337810695988	1.9480762	1.395735
25.366302604761245	1.9371586	1.3918184
25.384268032678207	1.9352399	1.391129
25.40223409495558	1.9256606	1.3876817
25.420200792102257	1.9115933	1.3826038
25.438168124627246	1.8921617	1.3755587
25.45613609303974	1.8904743	1.3749452
25.474104697849057	1.8803015	1.3712409
25.492073939564698	1.892291	1.3756057
25.510043818696285	1.875954	1.3696547
25.528014335753614	1.8284907	1.352217
25.54598549124664	1.8390754	1.3561251
25.56395728568544	1.8645378	1.3654808
25.58192971958028	1.9057186	1.3804777
25.59990279344156	1.8843489	1.3727158
25.617876507779833	1.8916807	1.3753839
25.635850863105826	1.9038713	1.3798084
25.653825859930386	1.9112352	1.3824743
25.671801498764548	1.8727255	1.3684756
25.68977778011949	1.8630576	1.3649387
25.707754704506524	1.8082752	1.3447212
25.725732272437153	1.7946557	1.3396477
25.743710484423012	1.795249	1.339869
25.761689340975888	1.8160375	1.3476044
25.77966884260774	1.8408258	1.3567704
25.797648989830662	1.8877383	1.3739499
25.815629783156922	1.8963819	1.3770918
25.83361122309895	1.8760128	1.3696761
25.85159331016929	1.8492999	1.3598896
25.869576044880695	1.8319204	1.3534845
25.887559427746034	1.8225302	1.3500111
25.90554345927836	1.8156575	1.3474634
25.92352813999086	1.8069249	1.3442191
25.94151347039689	1.8017408	1.3422893
25.959499451009965	1.7889156	1.3375036
25.97748608234374	1.8070396	1.3442618
25.995473364912062	1.8221859	1.3498837
26.013461299228904	1.8468658	1.3589944
26.03144988580839	1.8305852	1.3529912
26.04943912516483	1.8045858	1.3433487
26.067429017812675	1.772542	1.3313684
26.085419564266537	1.7782466	1.3335091
26.103410765041186	1.7954817	1.3399558
26.12140262065155	1.793595	1.3392516
26.139395131612723	1.8149457	1.3471992
26.157388298439948	1.8014657	1.3421869
26.17538212164861	1.8054688	1.3436773
26.193376601754295	1.8394154	1.3562505
26.211371739272714	1.8323921	1.3536588
26.229367534719746	1.8446743	1.3581879
26.247363988611433	1.834739	1.3545253
26.26536110146397	1.8103545	1.3454942
26.283358873793727	1.8445597	1.3581457
26.301357306117204	1.8000865	1.341673
26.319356398951104	1.7848485	1.3359822
26.33735615281224	1.783183	1.3353587
26.35535656821762	1.7972763	1.3406253
26.373357645684404	1.8073475	1.3443762
26.39135938572991	1.8372159	1.3554394
26.409361788871614	1.8629582	1.3649023
26.427364855627165	1.8398962	1.3564278
26.445368586514352	1.8241975	1.3506286
26.46337298205115	1.7879729	1.337151
26.48137804275568	1.7804267	1.3343263
26.499383769146217	1.8009052	1.3419781
26.517390161741215	1.8253598	1.3510587
26.53539722105928	1.8225107	1.350004
26.553404947619182	1.8112055	1.3458103
26.571413341939856	1.8166795	1.3478426
26.589422404540397	1.7843415	1.3357924
26.60743213594006	1.812454	1.3462741
26.62544253665827	1.8266934	1.3515522
26.64345360721459	1.8146666	1.3470956
26.66146534812879	1.7420994	1.3198861
26.679477759920758	1.7086207	1.3071421
26.69749084311057	1.7020946	1.3046435
26.71550459821847	1.7399377	1.319067
26.733519025764842	1.803413	1.3429122
26.751534126270258	1.8351547	1.3546788
26.769549900255434	1.8591468	1.3635054
26.787566348241267	1.8363667	1.355126
26.80558347074881	1.8013455	1.3421421
26.823601268299267	1.7819561	1.3348993
26.841619741414036	1.8014463	1.3421797
26.85963889061465	1.8204443	1.3492384
26.877658716422832	1.8369629	1.3553461
26.89567921936045	1.8415369	1.3570324
26.913700399949544	1.8575547	1.3629214
26.93172225871233	1.8605952	1.3640363
26.949744796171174	1.807994	1.3446167
26.967768012848605	1.7567108	1.3254097
26.98579190926733	1.7794334	1.333954
27.003816485950225	1.8346328	1.3544861
27.021841743420318	1.8177755	1.3482491
27.039867682200814	1.8083535	1.3447504
27.057894302815072	1.8012033	1.3420892
27.07592160578664	1.8253188	1.3510436
27.0939495916392	1.7990538	1.3412881
27.111978260896635	1.8092906	1.3450987
27.13000761408296	1.8144631	1.3470201
27.148037651722397	1.7572541	1.3256146
27.166068374339304	1.7884103	1.3373146
27.184099782458215	1.8134899	1.3466588
27.20213187660384	1.823973	1.3505454
27.22016465730105	1.7848685	1.3359897
27.23819812507487	1.7676363	1.3295249
27.256232280450533	1.7735108	1.3317323
27.274267123953383	1.7739041	1.3318799
27.292302656108987	1.800097	1.341677
27.31033887744306	1.8335869	1.3541
27.32837578848146	1.821257	1.3495395
27.34641338975026	1.7895155	1.3377278
27.364451681775673	1.7728183	1.3314723
27.382490665084074	1.7321337	1.3161055
27.400530340202046	1.7606786	1.3269056
27.41857070765629	1.806233	1.3439617
27.436611767973726	1.811031	1.3457456
27.454653521681404	1.753665	1.3242601
27.472695969306564	1.7692288	1.3301237
27.490739111376627	1.7928131	1.3389597
27.508782948419153	1.7612709	1.3271288
27.526827480961902	1.7473915	1.3218894
27.54487270953279	1.7815633	1.3347522
27.562918634659898	1.8363514	1.3551204
27.580965256871508	1.865132	1.3656983
27.599012576696026	1.8493989	1.3599261
27.617060594662068	1.828305	1.3521483
27.63510931129842	1.8260701	1.3513216
27.65315872713401	1.7684698	1.3298383
27.67120884269797	1.7232287	1.312718
27.68925965851958	1.713346	1.3089484
27.707311175128307	1.7629179	1.3277491
27.725363393053787	1.8461053	1.3587146
27.74341631282583	1.9412131	1.3932743
27.7614699349744	1.9457351	1.394896
27.77952426002968	2.101051	1.4495003
27.797579288521973	2.172863	1.4740634
27.815635020981784	2.625531	1.620349
27.83369145793979	2.6641166	1.6322122
27.85174859992682	2.4813087	1.575217
27.869806447473923	2.3385463	1.5292306
27.887865001112267	1.9911945	1.4110969
27.905924261373233	1.8844063	1.3727368
27.92398422878836	1.8452723	1.358408
27.94204490388936	1.8358655	1.3549411
27.96010628720813	1.8664285	1.3661729
27.978168379276728	1.8898953	1.3747346
27.9962311806274	1.887886	1.3740036
28.014294691792568	1.8988605	1.3779914
28.0323589133048	1.920668	1.3858817
28.050423845696887	1.9048305	1.3801559
28.068489489501758	1.8961667	1.3770137
28.086555845252523	1.9193846	1.3854185
28.104622913482487	1.9020036	1.3791314
28.122690694725115	1.8834912	1.3724034
28.14075918951405	1.8717153	1.3681065
28.15882839838312	1.8452978	1.3584174
28.176898321866304	1.8840625	1.3726115
28.1949689604978	1.8818998	1.3718235
28.213040314811945	1.8775113	1.370223
28.23111238534327	1.8824587	1.3720272
28.249185172626493	1.9084995	1.3814845
28.267258677196473	1.9108156	1.3823225
28.285332899588294	1.9208472	1.3859463
28.303407840337172	1.8877867	1.3739675
28.321483499978545	1.9271241	1.388209
28.33955987904799	1.9631674	1.4011308
28.357636978081285	1.987535	1.4097996
28.37571479761439	1.9459856	1.3949859
28.393793338183425	1.9318367	1.3899053
28.41187260032469	1.938827	1.3924177
28.429952584574686	1.970054	1.4035861
28.448033291470065	1.987773	1.409884
28.46611472154769	2.0091128	1.4174318
28.484196875344566	2.0369198	1.427207
28.502279753397914	2.0269618	1.423714
28.52036335624511	2.0040555	1.4156467
28.538447684423716	1.9362817	1.3915033
28.556532738471482	1.9893323	1.4104369
28.574618518926325	1.9980583	1.4135269
28.59270502632635	1.9842275	1.4086261
28.61079226120985	1.9529554	1.3974818
28.628880224115274	1.991195	1.411097
28.646968915581287	2.0628867	1.4362752
28.66505833614671	2.0879638	1.4449788
28.68314848635055	2.0626764	1.436202
28.701239366732004	2.0377607	1.4275016
28.71933097783044	2.0417044	1.4288822
28.737423320185403	2.1040056	1.4505191
28.75551639433665	2.0857313	1.4442061
28.773610200824074	2.0952597	1.4475012
28.791704740187793	2.1336627	1.4607062
28.80980001296809	2.111907	1.4532402
28.827896019705413	2.1298795	1.4594107
28.845992760940433	2.161909	1.4703432
28.86409023721397	2.1500185	1.4662942
28.88218844906704	2.140805	1.463149
28.900287397040845	2.1791904	1.4762081
28.918387081676755	2.2230346	1.4909844
28.936487503516343	2.2969062	1.5155548
28.954588663101365	2.3273473	1.5255646
28.97269056097374	2.3255239	1.5249668
28.990793197675597	2.2612712	1.5037524
29.00889657374923	2.2323318	1.494099
29.027000689737125	2.2725108	1.5074849
29.04510554618196	2.393499	1.5470937
29.06321114362659	2.427206	1.5579493
29.08131748261405	2.4271939	1.5579454
29.099424563687567	2.440911	1.5623416
29.11753238739057	2.4620423	1.5690897
29.13564095426663	2.4941154	1.5792768
29.15375026485954	2.567438	1.6023227
29.171860319713275	2.5929234	1.6102557
29.18997111937199	2.5725636	1.6039213
29.20808266438002	2.6339488	1.6229445
29.226194955281898	2.6990623	1.6428823
29.244307992622335	2.7689006	1.6640013
29.26242177694624	2.8734941	1.6951383
29.2805363087987	2.8751285	1.6956204
29.29865158872498	2.8569145	1.690241
29.316767617270557	2.8034372	1.6743468
29.334884394981064	2.9263582	1.7106602
29.353001922402367	3.0436256	1.744599
29.37112020008047	3.06222	1.74992
29.389239228561596	3.1458724	1.7736608
29.407359008392152	3.2961714	1.8155361
29.42547954011872	3.6909275	1.9211787
29.44360082428809	4.3530765	2.0864027
29.46172286144722	5.409723	2.325881
29.479845652143283	6.910751	2.6288307
29.497969196923606	8.800704	2.966598
29.516093496335728	11.18657	3.344633
29.5342185509274	13.859896	3.722888
29.55234436124651	16.112429	4.014029
29.570470927841175	17.428118	4.1747
29.588598251259686	17.268438	4.155531
29.60672633205055	15.890543	3.9862945
29.624855170762405	13.855855	3.7223454
29.642984767944146	11.409612	3.3778117
29.66111512414481	8.70427	2.9503
29.67924623991366	6.3825307	2.5263672
29.697378115800138	4.9346676	2.2214112
29.71551075235387	4.1803155	2.044582
29.733644150124675	3.772848	1.942382
29.751778309662576	3.541258	1.8818231
29.769913231517766	3.4220648	1.8498824
29.78804891624066	3.472868	1.8635633
29.806185364381818	3.4456913	1.8562573
29.82432257649206	3.2748153	1.809645
29.842460553122333	3.1766126	1.7823055
29.86059929482382	3.1809514	1.7835221
29.878738802147872	3.2143404	1.7928581
29.896879075646048	3.2110097	1.791929
29.915020115870114	3.3246083	1.8233509
29.933161923371976	3.301345	1.8169605
29.951304498703777	3.2331138	1.7980862
29.969447842417857	3.1973045	1.7881008
29.987591955066733	3.269673	1.8082237
30.005736837203123	3.231623	1.7976716
30.023882489379943	3.1580744	1.7770972
30.04202891215028	3.1331398	1.7700678
30.060176106067455	3.1235852	1.7673668
30.078324071684946	3.0684552	1.7517006
30.09647280955646	3.0634525	1.7502722
30.114622320235863	3.0579896	1.7487109
30.132772604277257	3.0725458	1.7528678
30.1509236622349	3.0825655	1.7557236
30.16907549466328	3.1086447	1.763135
30.18722810211705	3.1215234	1.7667834
30.205381485151097	3.053695	1.7474824
30.22353564432045	3.031418	1.7410969
30.241690580180403	3.0025735	1.7327936
30.25984629328638	2.9788516	1.725935
30.278002784194037	2.9839501	1.7274114
30.296160053459246	2.9614468	1.7208855
30.314318101638033	2.9683027	1.7228763
30.332476929286646	2.960842	1.7207097
30.35063653696153	2.9663637	1.7223135
30.368796925219307	2.9356904	1.7133857
30.386958094616844	2.8502197	1.6882594
30.40512004571115	2.8302028	1.6823207
30.423282779059463	2.8769555	1.696159
30.441446295219233	2.8411815	1.6855805
30.459610594748067	2.8082073	1.6757706
30.47777567820382	2.8346572	1.683644
30.495941546144504	2.8847377	1.6984515
30.51410819912835	2.8974977	1.7022038
30.532275637713795	2.895135	1.7015096
30.55044386245946	2.8699362	1.6940886
30.56861287392416	2.82702	1.6813744
30.586782672666956	2.7341516	1.653527
30.604953259247047	2.7370467	1.6544023
30.623124634223885	2.7819831	1.6679277
30.641296798157075	2.7832165	1.6682975
30.659469751606462	2.7809253	1.6676106
30.677643495132074	2.730237	1.6523429
30.695818029294152	2.6660492	1.6328042
30.713993354653116	2.6544514	1.6292487
30.73216947176962	2.7382865	1.6547769
30.75034638120448	2.7285595	1.6518352
30.768524083518756	2.7348537	1.6537393
30.786702579273673	2.79222	1.6709938
30.80488186903069	2.809096	1.6760359
30.82306195335144	2.8699422	1.6940904
30.841242832797782	3.0101278	1.734972
30.85942450793176	3.2801354	1.8111144
30.877606979315637	3.6131403	1.9008262
30.895790247511883	4.0263405	2.0065744
30.913974313083134	4.340587	2.0834076
30.932159176592283	4.508762	2.1233845
30.95034483860237	4.649683	2.1563125
30.968531299676698	4.585496	2.1413772
30.98671856037873	4.3489075	2.0854034
31.00490662127215	3.9960673	1.9990165
31.023095482920848	3.578542	1.8917035
31.04128514588892	3.2336352	1.7982311
31.059475610740662	2.9414036	1.7150521
31.07766687804056	2.7084134	1.6457257
31.09585894835335	2.577458	1.6054463
31.11405182224393	2.5123568	1.5850415
31.132245500277417	2.452044	1.5659003
31.15043998301914	2.4307725	1.5590935
31.168635271034628	2.4793801	1.5746047
31.18683136488964	2.425831	1.557508
31.20502826515008	2.3882353	1.5453917
31.223225972382135	2.338375	1.5291747
31.241424487152155	2.3545687	1.5344604
31.259623810026692	2.3393893	1.5295062
31.27782394157253	2.3597445	1.536146
31.296024882356644	2.351246	1.5333774
31.314226632946237	2.360895	1.5365204
31.332429193908684	2.4236147	1.5567963
31.350632565811598	2.4837682	1.5759976
31.368836749222787	2.534567	1.5920324
31.387041744710295	2.5975292	1.6116852
31.40524755284232	2.6197426	1.6185619
31.423454174187317	2.620216	1.6187081
31.441661609313922	2.5518143	1.5974399
31.459869858791002	2.501748	1.5816915
31.478078923187628	2.415362	1.5541434
31.496288803073064	2.3533278	1.534056
31.514499499016807	2.347471	1.5321459
31.532711011588546	2.3550777	1.5346262
31.550923341358178	2.3039937	1.5178912
31.56913648889584	2.259677	1.5032222
31.587350454771844	2.2716842	1.5072107
31.605565239556732	2.3047466	1.5181392
31.62378084382127	2.2449822	1.4983265
31.641997268136382	2.1662624	1.4718229
31.660214513073274	2.190379	1.4799929
31.67843257920331	2.2418332	1.4972752
31.6966514670981	2.2993288	1.5163537
31.71487117732944	2.310695	1.520097
31.733091710469346	2.2907643	1.5135272
31.751313067090052	2.259291	1.5030938
31.769535247764008	2.248583	1.4995276
31.787758253063878	2.2937274	1.5145056
31.805982083562526	2.3007638	1.5168269
31.824206739833024	2.2386231	1.496203
31.84243222244869	2.2671964	1.5057212
31.860658531983013	2.3186076	1.5226974
31.878885669009737	2.306984	1.5188758
31.897113634102784	2.3127851	1.5207844
31.91534242783632	2.2260776	1.4920045
31.933572050784694	2.075105	1.4405224
31.951802503522508	2.0645256	1.4368457
31.970033786624548	2.1204185	1.4561657
31.988265900665834	2.171558	1.4736207
32.006498846221575	2.18059	1.4766821
32.02473262386724	2.1477742	1.4655286
32.04296723417845	2.1550975	1.468025
32.0612026777311	2.1729183	1.4740822
32.07943895510129	2.2193248	1.4897399
32.097676066865304	2.2230997	1.4910063
32.115914013599685	2.1756513	1.475009
32.13415279588115	2.184593	1.4780369
32.152392414286666	2.1905138	1.4800384
32.1706328693934	2.1132264	1.4536941
32.18887416177875	2.1050677	1.4508852
32.20711629202032	2.1064475	1.4513606
32.225359260695924	2.1071076	1.4515879
32.243603068383614	2.130403	1.4595901
32.26184771566166	2.148733	1.4658557
32.28009320310852	2.1600807	1.4697213
32.2983395313029	2.0986428	1.4486693
32.31658670082372	2.1048498	1.4508101
32.33483471225012	2.1062224	1.451283
32.35308356616143	2.1359754	1.4614977
32.371333263137245	2.1756437	1.4750063
32.38958380375734	2.1348484	1.461112
32.407835188601744	2.0489125	1.4314023
32.42608741825067	2.015379	1.4196404
32.444340493284585	2.051254	1.43222
32.46259441428416	2.1496716	1.4661758
32.48084918183028	2.057044	1.4342399
32.49910479650405	2.0098746	1.4177004
32.51736125888683	2.0695727	1.4386009
32.53561856956014	2.1140952	1.4539928
32.5538767291058	2.0661647	1.437416
32.572135738105764	2.0165544	1.4200543
32.59039559714228	2.0065465	1.4165262
32.608656306797776	2.0094314	1.4175441
32.62691786765491	2.0214515	1.4217776
32.645180280296586	2.0411572	1.4286908
32.663443545305896	2.0793993	1.4420123
32.68170766326619	2.0579824	1.434567
32.69997263476099	1.9983997	1.4136477
32.7182384603741	2.027939	1.4240572
32.7365051406895	1.9956812	1.4126858
32.75477267629144	1.9109416	1.3823681
32.77304106776434	1.8645098	1.3654705
32.79131031569289	1.9460922	1.3950241
32.809580420661966	2.0159125	1.4198283
32.827851383256714	2.082379	1.4430451
32.84612320406245	2.116334	1.4547625
32.86439588366476	2.156864	1.4686265
32.88266942264945	2.1053712	1.4509897
32.9009438216025	2.0374575	1.4273953
32.9192190811102	2.011484	1.418268
32.937495201758985	1.9809812	1.4074733
32.95577218413556	1.9879938	1.4099623
32.974050028826866	1.9403915	1.3929794
32.992328736420035	1.8252884	1.3510324
33.010608307502444	1.8599855	1.3638128
33.02888874266169	1.9092911	1.381771
33.047170042485604	1.9569843	1.3989226
33.06545220756225	1.9801501	1.407178
33.083735238479896	2.0679238	1.4380277
33.10201913582707	2.0719962	1.439443
33.12030390019248	2.0339189	1.4261553
33.138589532165135	1.9942255	1.4121705
33.15687603233419	1.9710652	1.4039463
33.17516340128909	1.9635302	1.4012603
33.19345163961947	1.9276899	1.3884127
33.211740747915215	1.9195023	1.385461
33.23003072676643	2.0130942	1.4188355
33.248321576763466	2.0757618	1.4407505
33.266613298496885	1.9865417	1.4094473
33.28490589255747	1.8730997	1.3686123
33.30319935953626	1.8959292	1.3769275
33.32149370002451	1.9251071	1.3874823
33.339788914613706	1.8564707	1.3625237
33.358085003895575	1.8505425	1.3603464
33.376381968462034	1.920791	1.385926
33.39467980890529	1.9787589	1.4066837
33.41297852581774	1.9184152	1.3850687
33.43127811979204	1.8523494	1.3610104
33.44957859142105	1.8113743	1.3458731
33.467879941297866	1.7470244	1.3217505
33.486182170015844	1.7607392	1.3269285
33.50448527816853	1.8093052	1.3451041
33.522789266349754	1.8850569	1.3729737
33.541094135153514	1.9844854	1.4087176
33.55939988517411	2.008586	1.4172459
33.57770651700602	1.9175032	1.3847394
33.59601403124398	1.844329	1.3580607
33.61432242848296	1.8280632	1.3520589
33.632631709318154	1.914406	1.3836206
33.650941874344994	1.9586313	1.3995111
33.66925292415916	2.0030403	1.4152881
33.68756485935654	2.0542653	1.4332708
33.70587768053328	2.0712948	1.4391993
33.724191388285746	2.0341036	1.42622
33.74250598321054	2.0184796	1.420732
33.760821465904506	1.9975884	1.4133607
33.77913783696474	1.9442899	1.394378
33.79745509698852	1.9646409	1.4016565
33.815773246573414	1.9646393	1.4016559
33.8340922863172	2.0120866	1.4184804
33.852412216817896	2.031537	1.42532
33.87073303867377	2.003073	1.4152997
33.889054752483304	2.039154	1.4279895
33.907377358845245	1.9846188	1.408765
33.92570085835853	1.8348309	1.3545593
33.94402525162239	1.8413565	1.3569659
33.96235053923627	1.8591466	1.3635052
33.980676721799824	1.971054	1.4039423
33.999003799912984	2.1074865	1.4517184
34.01733177417592	2.057617	1.4344395
34.03566064518901	1.8890526	1.3744282
34.0539904135529	1.8387529	1.3560063
34.07232107986846	1.9741182	1.4050332
34.090652644736785	2.0347428	1.4264442
34.108985108759235	1.9353826	1.3911803
34.12731847253742	1.9228784	1.3866789
34.14565273667313	1.8367658	1.3552734
34.16398790176847	1.79936	1.3414023
34.18232396842574	1.8465737	1.358887
34.20066093724749	1.9388845	1.3924383
34.21899880883651	1.9720676	1.4043032
34.23733758379583	1.8496077	1.3600029
34.25567726272874	1.8050482	1.3435209
34.27401784623872	1.9205774	1.385849
34.29235933492957	1.8826017	1.3720794
34.31070172940526	1.7980917	1.3409294
34.32904503027003	1.8988397	1.3779839
34.347389238128386	2.046208	1.4304572
34.36573435358502	1.934718	1.3909414
34.38408037724492	1.9507918	1.3967075
34.402427309713296	1.8881189	1.3740884
34.42077515159559	1.8250846	1.3509569
34.43912390349752	1.9063067	1.3806907
34.45747356602499	1.922083	1.3863921
34.47582413978423	1.9706656	1.403804
34.49417562538163	2.0808892	1.4425287
34.51252802342388	2.0993874	1.4489263
34.53088133451789	2.0532963	1.4329327
34.54923555927084	1.9571234	1.3989723
34.567590698290104	1.9417452	1.3934652
34.58594675218336	1.9713595	1.4040511
34.6043037215585	1.8954834	1.3767655
34.62266160702365	1.8489996	1.3597792
34.641020409187234	1.9062529	1.3806711
34.65938012865785	1.8947728	1.3765074
34.677740766044394	1.9551529	1.3982679
34.69610232195598	2.0057468	1.4162439
34.714464797002016	2.0501544	1.431836
34.73282819179208	2.0942938	1.4471675
34.751192506936064	2.0798383	1.4421644
34.76955774304408	1.9092704	1.3817635
34.7879239007265	1.8195004	1.3488886
34.80629098059391	1.8248032	1.3508527
34.824658983257194	1.8861643	1.373377
34.843027909327446	1.8620007	1.3645514
34.86139775941603	1.8967696	1.3772326
34.879768534134534	2.0572536	1.4343129
34.89814023409483	2.0575278	1.4344085
34.91651285990901	2.0114312	1.4182494
34.93488641218944	2.1596332	1.4695691
34.95326089154871	2.0910733	1.4460543
34.97163629859967	2.0192187	1.4209921
34.99001263395542	2.069542	1.4385903
35.00838989822934	1.9833829	1.4083263
35.02676809203499	1.9732955	1.4047403
35.04514721598624	2.0870097	1.4446486
35.063527270697215	2.080899	1.4425322
35.081908256782256	2.0361044	1.4269214
35.10029017485597	1.9720765	1.4043064
35.11867302553321	1.7242891	1.3131219
35.137056809429104	1.4754688	1.2146888
35.155441527159006	1.7089657	1.3072741
35.173827179338524	2.0728152	1.4397274
35.19221376658354	1.9233974	1.3868661
35.21060128951017	1.9038781	1.3798109
35.2289897487348	1.994462	1.4122542
35.24737914487405	2.0007243	1.4144696
35.26576947854479	2.0696404	1.4386245
35.28416075036418	1.7991881	1.3413382
35.30255296094958	1.616433	1.2713902
35.32094611091867	2.155646	1.4682119
35.33934020088932	2.347295	1.5320885
35.35773523147969	2.2258406	1.4919251
35.3761312033082	2.2101986	1.4866737
35.394528116993506	2.1494837	1.4661118
35.41292597315452	2.0573242	1.4343375
35.431324772410434	1.9516923	1.3970299
35.449724515380666	2.4969378	1.5801702
35.46812520268491	2.8773274	1.6962687
35.486526834943106	2.2701209	1.506692
35.504929412775454	1.7217067	1.3121382
35.52333293680242	1.5144972	1.2306491
35.54173740764471	1.8588774	1.3634065
35.560142825923286	1.772161	1.3312254
35.5785491922594	1.1059909	1.051661
35.59695650727454	0.9051077	0.9513715
35.61536477159042	1.1140177	1.0554703
