0.008763373481513119	0.0	0.0
0.026290120649546365	0.11242709	0.3353015
0.043816868432600686	0.121336736	0.34833422
0.06134361724069026	0.2523421	0.5023366
0.07887036748382949	0.26626733	0.516011
0.0963971195720331	0.20690092	0.45486364
0.11392387391531617	0.20101982	0.44835234
0.1314506309236943	0.16149054	0.40185887
0.1489773910071836	0.1315149	0.36264983
0.16650415457580078	0.082078464	0.2864934
0.18403092203956356	0.03450605	0.18575804
0.20155769380849	0.07741026	0.278227
0.2190844702925996	0.18331239	0.42814997
0.2366112519019124	0.2065284	0.45445395
0.2541380390464497	0.22797094	0.47746304
0.27166483213623416	0.17993207	0.424184
0.28919163158128947	0.14183575	0.37661088
0.3067184377916406	0.15193392	0.38978702
0.324245251177314	0.12751867	0.35709757
0.34177207214833777	0.14025961	0.3745125
0.3592989011147415	0.11679798	0.3417572
0.37682573848655654	0.16052228	0.40065232
0.39435258467381573	0.20010616	0.44733226
0.41187944008655414	0.22223203	0.47141492
0.42940630513480854	0.2147752	0.46343845
0.446933180228618	0.2097692	0.45800567
0.4644600657780234	0.22660547	0.47603095
0.48198696219306775	0.22423398	0.4735335
0.49951386988379676	0.19150679	0.4376149
0.5170407892602581	0.16873844	0.41077784
0.5345677207325025	0.13957225	0.3735937
0.5520946647105822	0.17109248	0.41363326
0.5696216216045534	0.17993836	0.42419142
0.5871485918244737	0.25081334	0.50081265
0.6046755757804043	0.2696031	0.51923317
0.6222025738824094	0.22899158	0.47853065
0.6397295865405557	0.175943	0.4194556
0.6572566141649129	0.13959213	0.3736203
0.6747836571655547	0.14578472	0.38181767
0.6923107159525568	0.16173252	0.4021598
0.7098377909359992	0.1846375	0.42969465
0.7273648825259653	0.19916995	0.4462846
0.7448919911325411	0.22020987	0.46926525
0.762419117165817	0.21918271	0.46816954
0.7799462610358868	0.22069749	0.46978453
0.7974734231528482	0.20740011	0.45541203
0.8150006039268024	0.17041664	0.4128155
0.8325278037678551	0.21391994	0.4625148
0.8500550230861152	0.20459026	0.45231655
0.8675822622916969	0.20262173	0.45013523
0.8851095217947171	0.19591613	0.44262415
0.9026368020052984	0.19560827	0.44227624
0.9201641033335665	0.22403304	0.4733213
0.9376914261896523	0.26074106	0.5106281
0.9552187709836915	0.26614794	0.5158953
0.9727461381258234	0.2769965	0.52630454
0.990273528026193	0.26220965	0.5120641
1.0078009410949496	0.2630838	0.5129169
1.0253283777422473	0.2543325	0.5043139
1.0428558383782454	0.24095328	0.4908699
1.0603833234131086	0.24777588	0.4977709
1.0779108332570058	0.2983207	0.54618746
1.0954383683201119	0.31016245	0.5569223
1.112965929012607	0.3888728	0.62359667
1.1304935157446763	0.4959389	0.7042293
1.1480211289265108	0.55124015	0.7424555
1.1655487689683062	1.4082758	1.186708
1.1830764362802655	1.649543	1.2843454
1.200604131272596	2.0342364	1.4262666
1.2181318543555117	2.3484757	1.5324737
1.235659605939232	2.3672137	1.5385752
1.253187386433982	3.983131	1.9957783
1.270715196249994	6.2553754	2.5010748
1.2882430357975057	11.7614	3.4294899
1.3057709054867608	16.44839	4.055661
1.3232988057280106	22.279955	4.720165
1.3408267369315112	27.096645	5.205444
1.358354699507526	30.880997	5.5570674
1.3758826938663256	34.814148	5.9003515
1.3934107204181858	36.72055	6.059748
1.410938779573391	37.116444	6.0923266
1.4284668717422309	37.58409	6.1305866
1.4459949973350033	36.94903	6.0785713
1.4635231567620117	36.92946	6.0769615
1.4810513504335687	36.358753	6.029822
1.4985795787599925	35.7845	5.9820147
1.5161078421516088	35.262383	5.938214
1.5336361410187505	33.9404	5.825839
1.5511644757717598	33.985634	5.82972
1.5686928468209842	34.89987	5.9076114
1.58622125457678	35.784424	5.9820085
1.6037496994495108	37.53931	6.126933
1.621278181849548	37.711464	6.140966
1.6388067021872719	37.998272	6.1642737
1.6563352608730693	37.004807	6.0831575
1.673863858317336	35.966663	5.9972215
1.6913924949304753	35.5566	5.9629354
1.7089211711228998	34.401833	5.8653073
1.7264498873050296	33.80967	5.814608
1.7439786438872935	32.930046	5.7384706
1.7615074412801288	31.998203	5.6566954
1.779036279893981	31.334126	5.597689
1.796565160139305	30.22093	5.4973564
1.814094082426564	29.764608	5.455695
1.8316230471662298	28.788834	5.365523
1.849152054768784	27.826906	5.275121
1.8666811056447168	27.313072	5.226191
1.8842102002045273	26.622019	5.159653
1.901739338858724	26.15115	5.1138196
1.9192685220178245	25.730711	5.072545
1.9367977500923557	25.250912	5.0250287
1.9543270234928547	24.758183	4.9757595
1.971856342629867	24.207573	4.9201193
1.9893857079139496	23.540255	4.85183
2.006915119755667	22.865496	4.781788
2.0244445785655945	22.11782	4.7029586
2.0419740847543175	21.681957	4.6563888
2.0595036387324317	21.355274	4.6211767
2.0770332409105414	20.772009	4.557632
2.094562891699263	20.340078	4.5099974
2.1120925915092217	19.53131	4.419424
2.129622340751053	19.37319	4.401499
2.1471521398354043	187.52483	13.693971
2.1646819891729323	443.94977	21.070116
2.182211889174303	440.38538	20.985361
2.1997418402501974	452.71472	21.277094
2.2172718428113023	432.77567	20.80326
2.234801897268317	321.0732	17.918516
2.2523320040319548	17.579197	4.192755
2.269862163512935	17.270603	4.1557918
2.287392376121992	16.775537	4.095795
2.304922642269869	16.486437	4.0603495
2.322452962367322	16.294342	4.036625
2.3399833368251164	15.791569	3.9738607
2.357513766054032	15.197861	3.8984435
2.3750442504648586	14.780951	3.8446002
2.3925747904683963	14.4912	3.806731
2.410105386475459	14.561182	3.8159118
2.4276360388968707	14.474859	3.804584
2.445166748143469	14.327559	3.7851763
2.4626975146261025	13.93534	3.7330067
2.4802283387556323	13.614781	3.6898212
2.4977592209429305	13.301947	3.6471834
2.5152901615988825	12.93356	3.5963259
2.5328211611343865	12.7742815	3.5741127
2.5503522199603523	12.612555	3.551416
2.5678833384877024	12.44684	3.528008
2.5854145171273712	12.192433	3.4917665
2.6029457562903064	11.889032	3.4480476
2.620477056387469	11.613332	3.4078338
2.6380084178298326	11.536285	3.3965108
2.655539841028383	11.366877	3.37148
2.673071326394119	11.406651	3.3773732
2.6906028743380523	10.997569	3.3162582
2.708134485271211	10.745389	3.278016
2.7256661596046325	10.534447	3.2456813
2.743197897749369	10.519814	3.243426
2.760729700116486	10.569648	3.2510996
2.778261567117063	10.311362	3.211131
2.795793499162193	10.056418	3.1711857
2.8133254966629817	9.854091	3.1391225
2.830857560030551	9.710401	3.1161516
2.8483896896760337	9.686903	3.112379
2.865921886010578	9.5360985	3.0880573
2.883454149445347	9.525968	3.0864167
2.9009864803915177	9.408843	3.0673838
2.91851887926028	9.257052	3.0425406
2.9360513464628384	8.984833	2.997471
2.953583882410413	8.770319	2.9614725
2.9711164875142373	8.693469	2.948469
2.9886491621855606	8.693888	2.94854
3.0061819068356455	8.644293	2.9401178
3.023714721875769	8.519676	2.9188485
3.041247607717225	8.374788	2.8939226
3.0587805647713213	8.24332	2.8711183
3.0763135934493806	8.173297	2.858898
3.0938466941627407	8.077536	2.8421006
3.1113798673227544	8.06629	2.8401215
3.1289131133407904	7.9387403	2.8175771
3.1464464326282315	7.8405356	2.8000956
3.1639798255964786	7.6703863	2.7695463
3.1815132926569443	7.5354824	2.7450833
3.1990468342210603	7.451201	2.729689
3.216580450700272	7.4571605	2.7307801
3.2341141425060416	7.3207426	2.705687
3.251647910049847	7.2117877	2.6854773
3.2691817537431813	7.096637	2.6639514
3.286715673997555	7.079516	2.660736
3.3042496712244938	6.9986067	2.645488
3.32178374583554	6.959183	2.6380265
3.339317898242251	6.9006495	2.6269088
3.3568521288562034	6.828563	2.613152
3.3743864380889876	6.7340765	2.5950098
3.3919208263522127	6.6424994	2.5773046
3.4094552940575023	6.6305914	2.5749934
3.4269898416164972	6.575433	2.5642607
3.444524469440858	6.6005125	2.5691462
3.4620591779422587	6.5440683	2.5581377
3.479593967532391	6.4441447	2.538532
3.4971288386229658	6.310883	2.5121472
3.5146637916257086	6.2455707	2.499114
3.5321988269523628	6.2713294	2.5042622
3.5497339450146903	6.341026	2.5181394
3.5672691462244708	6.3433867	2.518608
3.5848044309934988	6.2058177	2.4911478
3.60233979973359	6.0972333	2.4692576
3.619875252856575	5.969753	2.4433076
3.6374107907743034	6.0489664	2.4594646
3.6549464138986427	6.1030197	2.470429
3.6724821226414788	6.226661	2.495328
3.690017917414714	6.1630216	2.4825435
3.7075537986302702	6.283566	2.506704
3.7250897667000857	6.354833	2.5208795
3.7426258220361235	6.5145254	2.5523567
3.7601619650503553	6.7957935	2.6068742
3.777698196154779	7.301242	2.702081
3.7952345157614067	8.608321	2.933994
3.8127709242822716	9.511705	3.0841053
3.830307422129425	11.880953	3.4468758
3.847844009714936	30.701616	5.540904
3.8653806874508954	98.11803	9.905455
3.882917455749409	97.200356	9.859024
3.900454315022606	96.89653	9.843603
3.917991265682631	41.511772	6.442963
3.9355283081416506	11.1485195	3.33894
3.9530654428118495	8.819792	2.9698133
3.970602670105433	7.451255	2.7296987
3.9881399904346244	6.4599376	2.5416408
4.005677404211669	6.3941483	2.5286653
4.023214911848827	6.355733	2.5210578
4.0407525137583855	6.3368597	2.517312
4.058290210352644	6.3082223	2.5116174
4.075828002043927	6.2177396	2.4935396
4.0933658892445814	6.109905	2.4718223
4.110903872366966	6.088182	2.4674242
4.128441951823468	6.0772257	2.465203
4.145980128026488	6.0962677	2.469062
4.163518401388452	6.072438	2.4642317
4.181056772321807	6.0297904	2.455563
4.1985952412390155	6.115156	2.4728842
4.216133808552567	6.2019815	2.490378
4.233672474674966	6.291493	2.5082848
4.251211240018741	6.499823	2.549475
4.268750104996445	6.606738	2.5703576
4.286289070020643	7.37868	2.7163727
4.303828135503928	8.908127	2.9846485
4.3213673018589125	29.386707	5.420951
4.3389065694982305	90.7058	9.523959
4.356445938834537	166.08562	12.887421
4.3739854102805085	171.33328	13.089434
4.391524984248844	172.11035	13.119083
4.409064661152262	136.03625	11.663458
4.426604441403504	96.308136	9.813671
4.444144325415337	75.66815	8.698744
4.461684313600543	21.776377	4.666517
4.47922440637193	22.271292	4.719247
4.496764604142329	20.540396	4.532151
4.5143049073245916	18.536392	4.305391
4.531845316331589	16.356834	4.0443583
4.5493858315762195	13.510551	3.6756701
4.566926453471405	11.303301	3.3620381
4.584467182430081	9.176965	3.0293505
4.602008018865218	7.9877415	2.8262594
4.619548963189798	7.2894673	2.6999013
4.637090015816834	6.794281	2.606584
4.654631177159353	6.592714	2.5676281
4.672172447630417	6.345093	2.5189466
4.689713827643102	6.29514	2.5090117
4.7072553176105085	6.0506124	2.4597993
4.724796917945764	5.814149	2.4112546
4.742338629062015	5.674411	2.3821023
4.759880451372434	5.6592054	2.3789084
4.777422385290215	5.689709	2.3853111
4.794964431228581	5.66756	2.3806639
4.812506589600768	5.6570377	2.3784528
4.830048860820047	5.7024302	2.3879762
4.847591245299709	5.67368	2.3819487
4.8651337434530655	5.5868874	2.3636596
4.882676355693457	5.4947457	2.3440874
4.900219082434242	5.5336967	2.352381
4.917761924088813	5.603109	2.3670888
4.935304881070575	5.62302	2.371291
4.952847953792969	5.5945463	2.3652794
4.970391142669449	5.5282593	2.3512251
4.9879344481135055	5.5021944	2.3456757
5.005477870538642	5.449747	2.3344693
5.023021410358394	5.4702673	2.3388603
5.040565067986324	5.4413238	2.3326645
5.05810884383601	5.41741	2.327533
5.075652738321066	5.419283	2.3279352
5.09319675185512	5.3636937	2.315965
5.110740884851836	5.3267756	2.3079808
5.128285137724894	5.324538	2.307496
5.145829510888007	5.3305964	2.3088086
5.163374004754908	5.391954	2.3220582
5.1809186197393595	5.3404408	2.3109393
5.198463356255145	5.372686	2.3179054
5.216008214716077	5.336824	2.3101566
5.233553195535998	5.340621	2.3109784
5.251098299128764	5.237949	2.2886565
5.268643525908272	5.242572	2.2896664
5.286188876288432	5.2306895	2.28707
5.3037343506831895	5.2382536	2.2887232
5.32127994950651	5.232988	2.2875724
5.3388256731723915	5.174667	2.2747893
5.356371522094851	5.1329436	2.2656
5.373917496687938	5.106063	2.25966
5.391463597365729	5.1109257	2.2607358
5.40900982454232	5.155028	2.2704687
5.426556178631843	5.2792196	2.2976553
5.444102660048449	5.297446	2.301618
5.4616492692063225	5.289587	2.2999103
5.479196006519669	5.2551227	2.2924054
5.496742872402727	5.09995	2.2583067
5.514289867269756	5.0976725	2.2578025
5.531836991535049	5.052601	2.2477992
5.549384245612924	5.076411	2.2530892
5.566931629917724	5.0586605	2.2491467
5.584479144863822	5.0856986	2.2551494
5.6020267908656205	5.128818	2.2646894
5.619574568337545	5.2253184	2.2858956
5.637122477694054	5.2290163	2.2867043
5.654670519349629	5.200751	2.2805154
5.672218693718784	5.1776137	2.275437
5.689767001216059	5.1229053	2.2633836
5.707315442256021	5.125934	2.2640526
5.724864017253266	5.1160264	2.2618635
5.7424127266224225	5.104416	2.2592955
5.75996157077814	5.079886	2.2538602
5.777510550135105	5.020235	2.2405882
5.795059665108022	4.964653	2.2281501
5.812608916111639	4.948469	2.2245154
5.830158303560715	5.083258	2.2546082
5.847707827870055	5.207519	2.2819989
5.86525748945448	5.3430586	2.3115058
5.8828072887288485	5.4598126	2.3366241
5.900357226108044	5.5392427	2.3535595
5.917907302006979	5.672595	2.381721
5.9354575168406	6.340829	2.5181003
5.9530078710238765	7.0140247	2.6484003
5.970558364971812	7.492887	2.7373137
5.988108999099438	7.830951	2.7983837
6.005659773821818	8.4269705	2.9029245
6.023210689554039	8.101265	2.8462722
6.040761746711227	8.507204	2.916711
6.058312945708531	7.7879906	2.790697
6.075864286961132	7.4042244	2.7210705
6.093415770884244	6.810287	2.6096528
6.1109673978931065	6.234282	2.4968543
6.128519168402993	5.5388412	2.3534744
6.146071082829204	5.3590827	2.3149693
6.163623141587075	5.3548656	2.3140583
6.181175345091969	5.3213954	2.306815
6.198727693759281	5.2135334	2.2833164
6.216280188004435	5.1799693	2.2759545
6.233832828242885	5.109175	2.2603486
6.251385614890126	5.177907	2.2755015
6.268938548361669	5.0859175	2.2551978
6.286491629073067	4.9956417	2.235093
6.304044857439898	4.978948	2.2313557
6.321598233877777	4.961452	2.2274318
6.339151758802344	4.9084077	2.2154927
6.356705432629277	4.8684006	2.2064452
6.37425925577428	4.855078	2.2034242
6.391813228653095	4.8988767	2.2133405
6.409367351681486	4.9771304	2.2309482
6.426921625275259	4.9474354	2.2242832
6.44447604985025	4.9436073	2.2234225
6.46203062582232	4.9930024	2.2345028
6.47958535360737	4.9886928	2.2335382
6.497140233621328	5.000304	2.236136
6.514695266280161	5.0094786	2.2381864
6.532250451999859	5.0016465	2.2364361
6.549805791196454	4.9539165	2.2257395
6.567361284286002	4.9505644	2.2249863
6.584916931684597	4.9840856	2.2325065
6.602472733808367	4.9639015	2.2279816
6.6200286910734665	4.9471207	2.2242124
6.637584803896092	4.9194765	2.2179892
6.655141072692462	4.908625	2.2155418
6.672697497878842	4.9218864	2.2185326
6.690254079871514	4.906007	2.2149508
6.707810819086808	5.0015097	2.2364056
6.725367715941078	5.0328293	2.2433968
6.742924770850719	5.0403504	2.2450724
6.760481984232151	4.971605	2.2297096
6.778039356501836	4.949243	2.2246895
6.795596888076266	4.8992395	2.2134225
6.813154579371963	4.922287	2.2186227
6.830712430805492	4.9477124	2.2243454
6.84827044279344	4.9633183	2.2278507
6.865828615752445	4.9320145	2.220814
6.883386950099159	4.9522457	2.2253642
6.900945446250287	4.933999	2.2212608
6.918504104622553	5.0050693	2.2372012
6.936062925632727	4.9965086	2.2352872
6.953621909697607	5.0046167	2.2371001
6.971181057234028	5.0731096	2.2523565
6.988740368658859	5.147853	2.268888
7.006299844389007	5.263381	2.294206
7.023859484841407	5.3757424	2.3185647
7.041419290433036	5.4503126	2.3345904
7.058979261580902	5.5577235	2.3574824
7.0765393987020495	5.691925	2.3857756
7.094099702213559	6.0119495	2.4519277
7.111660172532549	6.3309584	2.5161395
7.129220810076164	6.636584	2.5761569
7.146781615261595	7.1987605	2.6830506
7.16434258850606	7.4474077	2.728994
7.181903730226821	7.871938	2.8056974
7.1994650408411704	8.024883	2.8328226
7.217026520766437	8.166269	2.8576684
7.234588170419983	8.350696	2.889757
7.252149990219215	8.337114	2.887406
7.269711980581568	8.280588	2.8776011
7.2872741419245175	8.097144	2.8455482
7.304836474665574	7.7043495	2.775671
7.322398979222286	7.432495	2.7262602
7.339961656012233	7.1540165	2.6746993
7.357524505453039	6.838531	2.6150584
7.375087527962357	6.4593315	2.5415215
7.392650723957886	6.089362	2.4676633
7.410214093857353	5.7607365	2.4001534
7.427777638078528	5.6056085	2.3676167
7.445341357039213	5.4529095	2.3351467
7.4629052511572525	5.365555	2.3163667
7.480469320850524	5.2700744	2.2956643
7.498033566536948	5.310378	2.3044257
7.5155979886344735	5.215019	2.2836416
7.5331625875610975	5.1801724	2.2759993
7.550727363734844	5.198199	2.2799559
7.568292317573788	5.151057	2.269594
7.585857449496025	5.146903	2.2686787
7.603422759919705	5.16113	2.271812
7.620988249263007	5.161932	2.2719886
7.638553917944147	5.1772985	2.2753677
7.656119766381391	5.114703	2.261571
7.673685794993023	5.133648	2.2657554
7.691252004197388	5.1039376	2.2591896
7.70881839441285	5.1771894	2.275344
7.726384966057826	5.28269	2.2984104
7.743951719550762	5.2612433	2.29374
7.761518655310149	5.2030964	2.2810297
7.779085773754511	5.171725	2.2741427
7.796653075302419	5.236837	2.2884135
7.814220560372475	5.273464	2.2964025
7.831788229383323	5.281288	2.2981052
7.8493560827536495	5.2423763	2.2896237
7.866924120902174	5.2535496	2.2920623
7.884492344247663	5.3061304	2.303504
7.9020607532089135	5.3100657	2.304358
7.919629348204771	5.351848	2.3134062
7.937198129654115	5.350093	2.3130267
7.954767097975865	5.3744617	2.3182886
7.972336253588986	5.350902	2.3132017
7.989905596912472	5.3913407	2.321926
8.007475128365371	5.410689	2.3260887
8.025044848366756	5.4258857	2.329353
8.042614757335754	5.421696	2.3284535
8.060184855691523	5.4183464	2.3277342
8.07775514385327	5.599797	2.366389
8.095325622240228	5.7179484	2.3912232
8.112896291271687	5.7672663	2.4015133
8.130467151366968	5.8557673	2.4198692
8.148038202945436	5.855912	2.4198992
8.165609446426497	5.884604	2.4258204
8.183180882229594	5.94229	2.4376812
8.200752510774217	5.960766	2.441468
8.218324332479893	5.982971	2.4460113
8.235896347766193	5.9339576	2.4359715
8.253468557052724	5.980104	2.445425
8.27104096075914	5.9996805	2.4494245
8.288613559305137	6.127373	2.4753532
8.306186353110448	6.1779494	2.485548
8.32375934259485	6.1660175	2.4831467
8.341332528178162	6.063907	2.4625
8.358905910280246	6.0504637	2.459769
8.376479489321003	6.1289396	2.4756696
8.394053265720377	6.2407455	2.4981484
8.411627239898356	6.274238	2.504843
8.42920141227497	6.348926	2.5197074
8.44677578327029	6.326372	2.515228
8.464350353304427	6.300558	2.5100913
8.48192512279754	6.1726427	2.4844804
8.499500092169827	6.1202474	2.4739134
8.51707526184153	6.1310787	2.4761014
8.534650632232934	6.149111	2.4797401
8.552226203764365	6.1341486	2.4767213
8.569801976856192	6.0885253	2.4674938
8.587377951928834	6.11397	2.4726443
8.60495412940274	6.187414	2.4874513
8.622530509698416	6.2675276	2.503503
8.6401070932364	6.406009	2.5310094
8.657683880437283	6.485236	2.5466127
8.675260871721695	6.606741	2.570358
8.692838067510303	6.7298265	2.5941908
8.710415468223834	6.906316	2.627987
8.727993074283043	7.089657	2.662641
8.745570886108737	7.1376495	2.671638
8.763148904121765	7.1314254	2.6704729
8.78072712874302	7.1726847	2.678187
8.798305560393441	7.4138455	2.7228377
8.815884199494006	7.558887	2.749343
8.833463046465745	7.6511245	2.7660666
8.851042101729728	7.779216	2.7891245
8.86862136570707	8.168057	2.8579814
8.886200838818924	8.372301	2.893493
8.903780521486505	8.423444	2.902317
8.921360414131055	8.457488	2.9081762
8.938940517173874	8.472278	2.9107177
8.956520831036297	8.608279	2.933987
8.97410135613971	8.870789	2.9783869
8.99168209290554	9.000743	3.0001237
9.009263041755265	9.293484	3.0485215
9.026844203110405	9.509712	3.0837822
9.044425577392525	9.831007	3.1354437
9.062007165023239	10.0046	3.1630049
9.079588966424197	10.322823	3.212915
9.097170982017108	10.416483	3.2274578
9.11475321222372	11.4501095	3.383801
9.132335657465825	12.257176	3.501025
9.149918318165264	12.379445	3.5184436
9.167501194743924	12.945659	3.5980077
9.18508428762374	12.615671	3.5518546
9.202667597226693	12.583507	3.547324
9.220251123974803	12.210019	3.4942837
9.237834868290143	11.9602995	3.4583666
9.255418830594836	11.835605	3.4402914
9.273003011311046	11.31928	3.3644137
9.290587410860985	11.170241	3.3421912
9.308172029666911	10.480556	3.2373686
9.32575686815113	10.126731	3.1822524
9.343341926735997	8.742814	2.956825
9.360927205843916	8.558491	2.92549
9.378512705897327	8.391234	2.8967628
9.396098427318728	8.160129	2.8565938
9.413684370530664	8.090289	2.8443434
9.431270535955722	8.023428	2.8325655
9.448856924016539	7.985644	2.8258882
9.466443535135806	7.8306174	2.798324
9.484030369736251	7.778208	2.7889438
9.501617428240658	7.756827	2.785108
9.519204711071852	7.79199	2.7914135
9.536792218652714	7.8591666	2.8034205
9.55437995140617	7.898906	2.8104992
9.571967909755191	7.8880067	2.8085597
9.589556094122802	7.8829837	2.807665
9.60714450493207	7.893378	2.8095155
9.624733142606116	7.9189568	2.814064
9.642322007568108	7.8926873	2.8093927
9.659911100241267	7.919598	2.814178
9.677500421048851	7.9444385	2.818588
9.695089970414175	7.9747024	2.8239515
9.712679748760609	8.032514	2.834169
9.730269756511557	8.05059	2.837356
9.747859994090492	8.05645	2.8383887
9.765450461920915	8.08267	2.8430037
9.78304116042639	8.169546	2.8582418
9.800632090030527	8.145659	2.8540602
9.81822325115699	8.193482	2.862426
9.835814644229481	8.204688	2.8643827
9.853406269671762	8.286131	2.8785641
9.870998127907646	8.337823	2.887529
9.888590219360985	8.379163	2.8946784
9.906182544455698	8.371564	2.8933654
9.923775103615734	8.384725	2.895639
9.941367897265108	8.346074	2.8889573
9.958960925827878	8.301371	2.8812099
9.97655418972816	8.247141	2.8717835
9.994147689390106	8.235635	2.8697796
10.011741425237934	8.269031	2.8755922
10.029335397695904	8.25721	2.873536
10.04692960718833	8.203811	2.8642294
10.06452405413958	8.136044	2.852375
10.082118738974064	8.181065	2.860256
10.099713662116246	8.146748	2.854251
10.117308823990651	8.203936	2.8642514
10.134904225021844	8.156465	2.8559525
10.152499865634445	8.164138	2.8572955
10.170095746253125	8.109696	2.8477528
10.18769186730261	8.10899	2.8476288
10.205288229207675	8.182325	2.8604765
10.222884832393145	8.1706505	2.858435
10.2404816772839	8.066882	2.8402257
10.258078764304868	7.933992	2.8167343
10.275676093881035	7.973338	2.82371
10.293273666437438	8.019454	2.831864
10.310871482399158	8.10394	2.846742
10.32846954219134	8.0691595	2.8406267
10.346067846239173	8.105829	2.8470738
10.363666394967908	8.164245	2.8573143
10.38126518880283	8.145084	2.8539593
10.398864228169298	8.184408	2.8608406
10.416463513492713	8.214116	2.8660278
10.434063045198531	8.211058	2.8654943
10.451662823712262	8.177736	2.8596742
10.469262849459467	8.08079	2.842673
10.486863122865758	8.005582	2.8294137
10.504463644356806	8.044379	2.8362615
10.522064414358338	7.996383	2.8277876
10.539665433296118	7.915654	2.8134773
10.557266701595987	7.826153	2.7975261
10.574868219683818	7.770817	2.7876184
10.592469987985552	7.715706	2.777716
10.610072006927185	7.6305466	2.7623444
10.627674276934751	7.570482	2.7514508
10.64527679843435	7.342251	2.7096589
10.662879571852143	7.1727343	2.6781962
10.680482597614331	7.0514774	2.6554618
10.698085876147173	7.0217376	2.649856
10.715689407876988	6.9980717	2.645387
10.733293193230146	6.887557	2.6244156
10.750897232633072	6.74176	2.59649
10.76850152651225	6.6454096	2.5778692
10.786106075294207	6.655716	2.5798674
10.803710879405534	6.651648	2.579079
10.821315939272877	6.529527	2.555294
10.83892125532294	6.315974	2.5131602
10.856526827982472	6.1236115	2.4745932
10.874132657678285	6.104842	2.4707978
10.891738744837243	6.0870175	2.4671881
10.909345089886271	6.080031	2.465772
10.926951693252343	6.030841	2.455777
10.944558555362494	5.998558	2.4491954
10.96216567664381	5.930347	2.4352303
10.979773057523436	5.8943224	2.4278226
10.997380698428573	5.801181	2.408564
11.014988599786477	5.744595	2.3967886
11.032596762024461	5.68921	2.3852065
11.050205185569892	5.66436	2.3799915
11.067813870850198	5.5939975	2.3651633
11.085422818292859	5.4813995	2.341239
11.10303202832541	5.4245725	2.329071
11.120641501375454	5.3205457	2.3066308
11.138251237870636	5.2734284	2.2963946
11.155861238238671	5.2383347	2.2887409
11.173471502907317	5.223484	2.2854943
11.191082032304402	5.174234	2.2746942
11.208692826857805	5.0781975	2.2534857
11.226303886995465	4.982731	2.2322032
11.243915213145371	4.9219246	2.2185411
11.261526805735578	4.909653	2.2157738
11.279138665194196	4.846879	2.201563
11.296750791949393	4.8264475	2.1969178
11.314363186429393	4.774802	2.185132
11.331975849062479	4.732053	2.1753283
11.34958878027699	4.71133	2.17056
11.36720198050133	4.6800804	2.1633494
11.384815450163948	4.5841665	2.1410668
11.402429189693366	4.5234094	2.1268308
11.420043199518153	4.4499907	2.1095002
11.437657480066942	63.453648	7.96578
11.455272031768422	85.13844	9.22705
11.472886855051353	107.54148	10.370221
11.490501950344528	99.1147	9.955637
11.508117318076819	84.46798	9.190646
11.52573295867715	45.79464	6.767174
11.543348872574514	4.098974	2.0245924
11.560965060197946	4.113551	2.0281892
11.57858152197655	4.0993943	2.024696
11.59619825833949	4.0774703	2.0192747
11.613815269715985	4.04484	2.0111787
11.631432556535323	38.515514	6.206087
11.649050119226837	83.04987	9.113171
11.666667958219929	93.42614	9.66572
11.68428607394406	107.72072	10.3788595
11.701904466828756	82.550896	9.0857525
11.719523137303586	65.40014	8.087035
11.737142085798196	4.5857058	2.141426
11.754761312742286	3.6745083	1.9169008
11.772380818565619	3.6343453	1.9063959
11.790000603698015	3.6333349	1.9061309
11.80762066856935	3.575079	1.890788
11.825241013609572	3.5089133	1.8732094
11.842861639248683	3.4380388	1.8541949
11.860482545916748	3.3992949	1.8437177
11.878103734043883	3.405277	1.8453393
11.895725204060282	3.3874252	1.840496
11.91334695639619	3.397856	1.8433274
11.930968991481919	3.3932834	1.8420867
11.948591309747824	3.3740437	1.836857
11.966213911624347	3.3407323	1.827767
11.98383679754198	3.2616107	1.805993
12.001459967931268	3.1973383	1.7881103
12.019083423222835	3.2061284	1.7905664
12.036707163847352	3.2532232	1.8036693
12.05433119023556	3.315053	1.8207287
12.071955502818259	3.2710302	1.808599
12.089580102026313	3.2303317	1.7973124
12.107204988290643	3.2015393	1.7892846
12.12483016204224	3.175541	1.7820047
12.142455623712152	3.14325	1.7729213
12.16008137373149	3.0777912	1.7543635
12.177707412531431	3.0639577	1.7504164
12.19533374054321	3.061077	1.7495934
12.212960358198126	3.0753477	1.7536669
12.230587265927545	3.0619333	1.7498381
12.248214464162889	2.9913046	1.7295388
12.265841953335649	2.9223382	1.7094848
12.283469733877375	2.9381087	1.7140912
12.301097806219685	2.9708936	1.723628
12.31872617079425	3.0117874	1.7354501
12.336354828032825	3.01271	1.735716
12.353983778367205	2.9909434	1.7294344
12.371613022229262	2.9590213	1.7201806
12.389242560050928	2.8792903	1.6968472
12.406872392264201	2.8428907	1.6860874
12.424502519301143	2.8413713	1.6856368
12.442132941593874	2.8409543	1.685513
12.459763659574586	2.811115	1.676638
12.477394673675532	2.7993011	1.6731112
12.49502598432903	2.8147519	1.6777222
12.51265759196746	2.814995	1.6777947
12.530289497023267	2.8117545	1.6768287
12.547921699928967	2.820997	1.6795824
12.565554201117134	2.8307369	1.6824794
12.583187001020404	2.783467	1.6683726
12.600820100071486	2.70758	1.6454726
12.618453498703152	2.643485	1.6258798
12.636087197348235	2.6396048	1.6246861
12.65372119643964	2.6650796	1.6325072
12.671355496410326	2.756998	1.660421
12.68899009769333	2.8229961	1.6801775
12.706625000721749	2.865424	1.6927563
12.724260205928752	2.866099	1.6929557
12.741895713747551	2.8788667	1.6967224
12.759531524611454	2.924083	1.709995
12.777167638953818	2.955395	1.7191262
12.794804057208072	2.978416	1.7258087
12.812440779807702	3.0199127	1.7377896
12.830077807186271	3.207596	1.7909763
12.847715139777405	3.2728074	1.8090903
12.865352778014795	3.5006638	1.8710061
12.882990722332197	3.618235	1.9021659
12.90062897316344	3.7024949	1.9241868
12.918267530942412	3.776251	1.9432578
12.935906396103071	3.6406975	1.9080611
12.953545569079449	3.8231003	1.955275
12.971185050305628	3.6349354	1.9065506
12.988824840215775	3.5825412	1.8927602
13.006464939244115	3.560179	1.8868437
13.024105347824943	3.3868234	1.8403324
13.041746066392617	3.5087807	1.873174
13.05938709538157	3.3334947	1.825786
13.077028435226296	3.3701572	1.8357989
13.094670086361363	3.2861075	1.8127624
13.112312049221401	3.182944	1.7840807
13.129954324241112	3.0904777	1.7579755
13.147596911855258	2.9049146	1.704381
13.165239812498685	2.8973286	1.7021542
13.182883026606293	2.8256044	1.6809534
13.200526554613058	2.7889686	1.6700206
13.218170396954017	2.7177894	1.648572
13.235814554064284	2.660321	1.631049
13.253459026379034	2.664473	1.6323214
13.271103814333523	2.656844	1.6299828
13.288748918363058	2.6487548	1.6274996
13.306394338903031	2.6633434	1.6319753
13.32404007638889	2.6776047	1.6363388
13.341686131256164	2.70955	1.6460711
13.359332503940449	2.6816335	1.6375694
13.376979194877402	2.6887913	1.6397535
13.394626204502751	2.6981864	1.6426157
13.412273533252307	2.6994274	1.6429935
13.429921181561937	2.7037292	1.644302
13.447569149867581	2.7072144	1.6453614
13.465217438605247	2.710874	1.6464732
13.482866048211022	2.7258403	1.651012
13.500514979121052	2.7508643	1.6585729
13.518164231771568	2.7222044	1.6499104
13.535813806598844	2.7042682	1.6444659
13.553463704039254	2.672184	1.6346816
13.571113924529229	2.6808968	1.6373445
13.588764468505275	2.6354861	1.6234181
13.606415336403956	2.6659896	1.6327858
13.624066528661917	2.6748781	1.6355054
13.641718045715882	2.7174177	1.6484592
13.659369888002635	2.7811558	1.6676798
13.67702205595903	2.854532	1.689536
13.694674550021993	2.9171727	1.7079732
13.712327370628532	3.0014808	1.7324783
13.729980518215713	3.1285453	1.7687694
13.747633993220681	3.218453	1.7940047
13.765287796080647	3.253911	1.8038601
13.7829419272329	3.2879007	1.813257
13.800596387114801	3.302961	1.8174051
13.818251176163775	3.3656163	1.8345616
13.835906294817324	3.3891127	1.8409543
13.853561743513023	3.3859847	1.8401046
13.871217522688525	3.3936183	1.8421776
13.888873632781538	3.3840895	1.8395895
13.906530074229858	3.401019	1.8441852
13.92418684747135	3.4389515	1.854441
13.941843952943948	3.4885292	1.8677604
13.959501391085665	3.5176516	1.8755404
13.977159162334578	3.4450924	1.856096
13.994817267128846	3.3802052	1.8385334
14.012475705906693	3.2805822	1.8112377
14.030134479106424	3.223142	1.7953111
14.047793587166414	3.1584616	1.7772061
14.065453030525108	3.0589535	1.7489865
14.083112809621026	2.9664152	1.7223284
14.100772924892766	2.9004161	1.7030609
14.118433376778997	2.8758276	1.6958265
14.136094165718458	2.8235738	1.6803493
14.153755292149969	2.7797067	1.6672453
14.171416756512416	2.7226715	1.650052
14.189078559244768	2.6422956	1.6255139
14.20674070078606	2.580106	1.6062708
14.224403181575408	2.529111	1.5903178
14.242066002051999	2.4646618	1.5699241
14.259729162655093	2.4173791	1.5547923
14.277392663824022	2.4012437	1.5495946
14.295056505998208	2.450558	1.5654258
14.312720689617128	2.4877653	1.5772651
14.330385215120348	2.4577634	1.5677255
14.348050082947497	2.3753357	1.5412124
14.3657152935383	2.3532627	1.5340347
14.383380847332528	2.3360176	1.5284036
14.401046744770051	2.332948	1.5273991
14.418712986290798	2.3328614	1.5273708
14.436379572334793	2.319152	1.5228763
14.454046503342123	2.3529053	1.5339183
14.471713779752946	2.3750234	1.5411111
14.489381402007504	2.3859804	1.5446619
14.507049370546113	2.376364	1.541546
14.524717685809168	2.4000688	1.5492156
14.542386348237134	2.4001007	1.5492258
14.560055358270553	2.378451	1.5422227
14.577724716350051	2.3971741	1.5482811
14.595394422916325	2.4075115	1.5516157
14.61306447841015	2.4445827	1.5635161
14.63073488327237	2.4566886	1.5673827
14.648405637943917	2.4930742	1.5789472
14.6660767428658	2.5018182	1.5817137
14.683748198479094	2.4901524	1.5780216
14.701420005224954	2.5077486	1.5835873
14.719092163544628	2.5492334	1.5966319
14.73676467387942	2.6496658	1.6277794
14.754437536670727	2.720976	1.6495382
14.772110752360014	2.7158432	1.6479815
14.78978432138882	2.7020538	1.6437925
14.807458244198777	2.6861055	1.6389343
14.82513252123159	2.6953924	1.641765
14.842807152929028	2.7185576	1.6488049
14.860482139732962	2.7133582	1.6472274
14.87815748208531	2.7052448	1.6447629
14.8958331804281	2.7091858	1.6459605
14.91350923520342	2.6693764	1.6338227
14.931185646853438	2.6656942	1.6326954
14.948862415820408	2.6742122	1.6353018
14.966539542546656	2.7144556	1.6475605
14.98421702747459	2.6953948	1.6417657
15.001894871046696	2.6889117	1.6397902
15.019573073705542	2.685815	1.6388457
15.037251635893766	2.6761346	1.6358895
15.054930558054092	2.686812	1.6391498
15.072609840629323	2.7389674	1.6549826
15.090289484062351	2.8728979	1.6949625
15.107969488796124	3.1314352	1.7695862
15.125649855273691	3.4820185	1.8660167
15.14333058393817	3.9566686	1.9891376
15.161011675232768	4.9176745	2.217583
15.17869312960076	6.2882853	2.5076454
15.196374947485506	8.103632	2.8466878
15.214057129330447	11.217275	3.34922
15.231739675579114	15.9313	3.9914033
15.249422586675102	21.126896	4.5964003
15.267105863062092	24.470722	4.9467893
15.284789505183847	24.984512	4.9984508
15.302473513484218	23.166714	4.8131814
15.320157888407127	19.518513	4.417976
15.337842630396578	15.120154	3.8884642
15.355527739896656	11.63343	3.4107814
15.37321321735153	8.997461	2.9995768
15.39089906320545	6.5637507	2.561982
15.408585277902748	4.912578	2.2164338
15.42627186188783	3.7871	1.9460473
15.443958815605198	3.2122536	1.7922761
15.461646139499424	2.9007037	1.7031453
15.479333834015168	2.7091444	1.6459478
15.497021899597165	2.6383672	1.6243051
15.514710336690234	2.6032767	1.6134673
15.53239914573928	2.5694344	1.6029456
15.550088327189297	2.549343	1.5966662
15.567777881485336	2.5574884	1.5992149
15.58546780907256	2.562282	1.600713
15.6031581103962	2.5708828	1.6033973
15.620848785901568	2.50115	1.5815024
15.638539836034063	2.4394603	1.5618771
15.656231261239173	2.4204047	1.555765
15.673923061962451	2.395325	1.5476837
15.691615238649552	2.424954	1.5572264
15.709307791746202	2.3936274	1.5471352
15.727000721698221	2.4179947	1.5549903
15.744694028951498	2.4051073	1.5508409
15.76238771395202	2.4230423	1.5566125
15.780081777145844	2.4045818	1.5506713
15.797776218979125	2.3750846	1.541131
15.815471039898094	2.3451867	1.5314002
15.833166240349064	2.3148756	1.5214715
15.850861820778437	2.3168678	1.5221261
15.868557781632699	2.3550906	1.5346304
15.886254123358412	2.3924208	1.5467452
15.903950846402232	2.377988	1.5420727
15.921647951210897	2.329633	1.5263135
15.939345438231225	2.3555787	1.5347894
15.957043307910133	2.385402	1.5444746
15.974741560694602	2.3995266	1.5490406
15.992440197031714	2.3650758	1.5378803
16.01013921736862	2.401826	1.5497825
16.02783862215259	2.4280593	1.5582231
16.045538411830933	2.4040864	1.5505116
16.06323858685107	2.3874407	1.5451345
16.080939147660512	2.3956976	1.5478041
16.09864009470684	2.4180396	1.5550047
16.11634142843774	2.3974247	1.5483619
16.134043149300954	2.380047	1.5427401
16.15174525774433	2.3970008	1.548225
16.169447754215817	2.4110856	1.552767
16.18715063916342	2.4190392	1.5553261
16.204853913035244	2.411892	1.5530267
16.222557576279478	2.3716607	1.5400198
16.240261629344403	22.35531	4.7281404
16.257966072678386	42.89001	6.5490465
16.275670906729868	38.020832	6.1661034
16.293376131947387	2.4460716	1.5639923
16.31108174877957	2.4721313	1.5723013
16.328787757675133	2.511958	1.5849158
16.34649415908287	2.5405476	1.5939095
16.364200953451657	2.5872998	1.6085086
16.38190814123048	2.6494036	1.6276989
16.39961572286839	2.6580744	1.6303602
16.41732369881455	2.6462138	1.6267188
16.43503206951817	2.679149	1.6368105
16.45274083542859	2.7208505	1.6495
16.47044999699522	2.7846968	1.6687411
16.488159554667558	2.820004	1.6792867
16.505869508895184	2.84477	1.6866446
16.523579860127786	2.8530245	1.6890899
16.541290608815117	2.8834336	1.6980675
16.559001755407035	2.944989	1.716097
16.57671330035348	3.0300264	1.7406971
16.59442524410448	3.1574326	1.7769166
16.61213758711015	3.2264502	1.7962322
16.629850329820705	3.2740748	1.8094405
16.647563472686436	3.3607507	1.833235
16.665277016157724	3.4259768	1.8509394
16.682990960685053	3.4545064	1.8586303
16.70070530671898	3.4480186	1.8568841
16.718420054710155	3.45824	1.8596344
16.736135205109335	3.5251718	1.877544
16.753850758367335	3.5845993	1.8933038
16.771566714935087	3.6516047	1.9109173
16.789283075263597	3.7329774	1.9320915
16.80699983980398	3.8165755	1.9536058
16.82471700900741	3.844196	1.9606621
16.84243458332518	3.9085643	1.9770089
16.860152563208665	3.9915073	1.9978757
16.87787094910932	4.056352	2.0140388
16.89558974147871	4.0933313	2.0231984
16.913308940768466	4.1669884	2.0413203
16.931028547430333	4.23843	2.0587447
16.94874856191613	4.2906756	2.0713947
16.966468984677785	4.328896	2.0806
16.98418981616729	4.365908	2.0894756
17.00191105683676	4.468603	2.113907
17.019632707138374	4.561693	2.135812
17.03735476752442	4.586782	2.1416774
17.05507723844728	4.5924873	2.143009
17.072800120359403	4.5987816	2.144477
17.090523413713353	4.6450076	2.155228
17.108247118961785	4.5945563	2.1434915
17.125971236557437	4.607724	2.146561
17.143695766953133	4.6208434	2.1496148
17.161420710601806	4.71239	2.170804
17.179146067956477	4.720658	2.1727076
17.19687183947025	4.7302747	2.1749194
17.21459802559634	4.7519927	2.1799066
17.232324626788028	4.719065	2.1723409
17.25005164349871	4.677958	2.1628587
17.267779076181863	4.629797	2.1516962
17.285506925291074	4.6195354	2.1493104
17.30323519127999	4.5990734	2.144545
17.320963874602384	4.5582213	2.134999
17.33869297571211	4.51255	2.1242764
17.356422495063114	4.5002375	2.1213763
17.37415243310944	4.4978523	2.120814
17.391882790305218	4.489031	2.1187334
17.40961356710468	4.5263977	2.1275332
17.42734476396215	4.567206	2.1371021
17.445076381332044	4.5778365	2.1395879
17.462808419668868	4.548727	2.1327746
17.48054087942723	4.624258	2.1504087
17.498273761061835	4.9000535	2.2136064
17.51600706502747	5.3965974	2.3230577
17.533740791779024	6.0499525	2.459665
17.551474941771485	7.3959236	2.7195446
17.56920951545993	8.543686	2.9229584
17.586944513299528	10.888057	3.2997055
17.60467993574556	12.734146	3.5684936
17.622415783253373	14.669117	3.8300283
17.64015205627843	16.229033	4.0285273
17.657888755276293	17.45113	4.177455
17.675625880702604	17.939001	4.235446
17.69336343301311	17.799873	4.21899
17.71110141266366	16.88894	4.109616
17.728839820110178	15.917641	3.9896917
17.746578655808705	14.8368225	3.8518596
17.764317920215372	13.229084	3.6371808
17.7820576137864	11.546388	3.3979976
17.79979773697811	9.406827	3.067055
17.81753829024692	7.383829	2.7173202
17.835279274049356	5.699325	2.387326
17.85302068884201	4.7270093	2.1741686
17.870762535081607	4.13503	2.0334773
17.888504813224934	3.808819	1.9516196
17.90624752372891	3.661956	1.9136238
17.923990667050536	3.6354346	1.9066815
17.941734243646895	3.5699983	1.8894439
17.959478253975185	3.5228264	1.8769194
17.9772226984927	3.4578607	1.8595324
17.994967577656833	3.3878758	1.8406184
18.01271289192506	3.3428094	1.8283352
18.030458641754965	3.3498573	1.8302616
18.04820482760425	3.3395972	1.8274565
18.06595144993067	3.3362007	1.826527
18.083698509192125	3.2830918	1.8119304
18.101446005846576	3.2627249	1.8063015
18.119193940352105	3.2405074	1.800141
18.136942313166887	3.2014058	1.7892473
18.1546911247492	3.1918898	1.786586
18.1724403755574	3.1923788	1.7867229
18.19019006604997	3.194154	1.7872196
18.207940196685467	3.1748223	1.7818031
18.225690767922575	3.1362371	1.7709424
18.243441780220046	3.1567788	1.7767326
18.261193234036764	3.1535378	1.7758203
18.278945129831676	3.130553	1.7693369
18.29669746806386	3.1066153	1.7625593
18.314450249192483	3.1098025	1.7634633
18.3322034736768	3.0947123	1.7591795
18.349957141976184	3.0759065	1.7538263
18.3677112545501	3.054971	1.7478476
18.385465811858108	3.045711	1.7451966
18.403220814359884	3.048025	1.7458594
18.420976262515172	3.0650218	1.7507204
18.43873215678387	3.1027749	1.7614695
18.456488497625923	3.1650338	1.7790542
18.474245285501407	3.3093016	1.8191485
18.492002520870486	3.3710127	1.8360318
18.50976020419343	3.382878	1.8392602
18.527518335930615	3.6147044	1.9012376
18.545276916542516	4.146313	2.0362499
18.563035946489688	4.300348	2.073728
18.580795426232832	4.724508	2.1735933
18.598555356232698	4.6572328	2.1580622
18.616315736950185	4.9237056	2.2189424
18.63407656884626	4.588525	2.1420841
18.65183785238201	4.735178	2.1760464
18.669599588018617	4.553703	2.1339407
18.68736177621737	4.5335236	2.1292074
18.705124417439652	4.5292983	2.1282148
18.72288751214696	4.3757095	2.0918198
18.740651060800886	4.5262265	2.127493
18.758415063863115	4.2435427	2.059986
18.77617952179546	4.383753	2.0937414
18.793944435059814	4.1113377	2.0276434
18.811709804118184	4.1599603	2.039598
18.829475629432675	4.140205	2.0347493
18.8472419114655	3.9163806	1.9789847
18.86500865067897	3.9548678	1.988685
18.88277584753551	3.6395564	1.9077622
18.90054350249763	3.672793	1.9164532
18.918311616027957	3.3705704	1.8359113
18.936080188589226	3.2620108	1.8061037
18.953849220644265	2.9909804	1.7294451
18.971618712656007	2.8309145	1.6825322
18.9893886650875	2.836005	1.6840442
19.007159078401887	8.021511	2.8322272
19.024929953062408	32.87875	5.7339993
19.042701289532435	32.80964	5.7279696
19.060473088275405	25.360329	5.035904
19.07824534975489	2.615599	1.6172813
19.096018074434568	2.6254435	1.620322
19.113791262778197	2.6289666	1.6214088
19.13156491524966	2.652888	1.6287689
19.149339032312945	2.6608706	1.6312175
19.167113614432136	2.6278892	1.6210766
19.184888662071433	2.6266003	1.6206789
19.202664175695123	2.6070337	1.6146312
19.220440155767623	2.5867932	1.6083511
19.238216602753447	2.5344288	1.5919889
19.2559935171172	2.5379174	1.5930842
19.27377089932361	2.5406678	1.5939472
19.291548749837514	2.5290098	1.5902861
19.309327069123835	2.5245154	1.5888723
19.32710585764763	2.5048754	1.5826799
19.344885115874032	2.5380106	1.5931135
19.362664844268313	2.4973435	1.5802985
19.380445043295822	2.4771504	1.5738965
19.39822571342203	2.4438794	1.5632912
19.41600685511252	2.4594717	1.5682703
19.43378846883297	2.4939098	1.5792118
19.451570555049173	2.4881468	1.577386
19.469353114227037	2.4966526	1.5800799
19.48713614683254	2.4958446	1.5798242
19.50491965333182	2.5029783	1.5820804
19.52270363419109	2.4855235	1.5765543
19.540488089876686	2.5184963	1.5869771
19.55827302085503	2.5080583	1.583685
19.576058427592674	2.531073	1.5909346
19.593844310556282	2.5288062	1.5902221
19.611630670212598	2.5174928	1.5866609
19.629417507028506	2.475297	1.5733076
19.64720482147098	2.4538865	1.5664886
19.6649926140071	2.4419618	1.5626777
19.682780885104084	2.409867	1.5523746
19.70056963522921	2.437542	1.561263
19.718358864849908	2.452054	1.5659035
19.7361485744337	2.4995818	1.5810065
19.753938764448215	2.4738252	1.5728399
19.771729435361202	2.4577465	1.5677202
19.789520587640506	2.4641802	1.5697708
19.807312221754092	2.462218	1.5691457
19.825104338170043	2.4664354	1.5704889
19.842896937356517	2.4680514	1.5710033
19.860690019781824	2.4411855	1.5624293
19.87848358591436	2.4301813	1.5589038
19.896277636222635	2.4644976	1.5698718
19.914072171175278	2.5109541	1.584599
19.931867191241015	2.506074	1.5830585
19.94966269688869	2.4721448	1.5723056
19.967458688587264	2.429288	1.5586174
19.985255166805807	2.467139	1.5707129
20.00305213201348	2.4640841	1.5697402
20.020849584679578	2.4517505	1.5658066
20.038647525273507	2.4462435	1.5640472
20.05644595426477	2.4320476	1.5595024
20.07424487212299	2.433818	1.5600699
20.092044279317903	2.4448442	1.5635998
20.109844176319353	2.4361029	1.560802
20.127644563597304	2.4152155	1.5540963
20.145445441621817	2.3674564	1.5386541
20.16324681086307	2.379988	1.5427209
20.181048671791373	2.396226	1.5479748
20.198851024877122	2.3873787	1.5451145
20.216653870590836	2.3745189	1.5409474
20.234457209403146	2.3786256	1.5422794
20.252261041784802	2.3717954	1.5400635
20.270065368206662	2.3843782	1.5441432
20.287870189139685	2.381884	1.5433354
20.305675505054968	2.3877923	1.5452483
20.323481316423702	2.351024	1.5333049
20.341287623717207	2.3315046	1.5269265
20.359094427406884	2.338725	1.5292891
20.376901727964288	2.3601701	1.5362846
20.39470952586107	2.3540452	1.5342898
20.41251782156899	2.3321445	1.5271361
20.430326615559935	2.3177295	1.5224091
20.448135908305886	2.2997885	1.5165054
20.465945700278965	2.3114974	1.520361
20.483755991951384	2.3268907	1.525415
20.50156678379548	2.3328319	1.527361
20.519378076283708	2.3428822	1.5306476
20.537189869888635	2.3464007	1.5317966
20.55500216508294	2.3441782	1.531071
20.572814962339415	2.3566651	1.5351434
20.59062826213098	2.3136978	1.5210844
20.60844206493066	2.2948859	1.514888
20.626256371211593	2.3103426	1.5199811
20.644071181447032	2.3405302	1.5298791
20.66188649611036	2.312921	1.5208291
20.67970231567506	2.257162	1.5023855
20.697518640614742	2.2870557	1.5123014
20.715335471403122	2.3503888	1.5330977
20.73315280851404	2.3655283	1.5380274
20.750970652421447	2.3107815	1.5201255
20.768789003599412	2.2961147	1.5152936
20.786607862522136	2.2822087	1.5106981
20.8044272296639	2.294467	1.5147498
20.82224710549913	2.3024368	1.5173783
20.84006749050237	2.315465	1.5216652
20.857888385148268	3.8619576	1.9651864
20.8757097899116	45.935047	6.7775397
20.893531705267254	64.75146	8.046829
20.911354131690224	83.77049	9.152622
20.92917706965566	69.058655	8.310154
20.94700051963877	50.149704	7.0816455
20.96482448211493	29.38804	5.421074
20.982648957559622	4.149707	2.037083
21.00047394644843	2.287767	1.5125366
21.01829944925707	2.3003113	1.5166777
21.036125466461375	2.278613	1.5095075
21.053951998537297	2.2437482	1.4979147
21.071779045960906	2.2510717	1.5003572
21.089606609208378	2.2498488	1.4999496
21.10743468875603	2.251347	1.500449
21.12526328508028	2.2184205	1.4894363
21.143092398657675	2.1901357	1.4799107
21.16092202996488	2.1646624	1.4712791
21.17875217947867	2.1441977	1.4643079
21.19658284767596	2.147431	1.4654115
21.21441403503377	2.1368499	1.4617968
21.232245742029225	2.1697142	1.4729949
21.2500779691396	2.1941326	1.4812604
21.26791071684227	2.170858	1.4733832
21.28574398561475	2.1433623	1.4640226
21.30357777593465	2.1391678	1.4625894
21.321412088279704	2.1630454	1.4707296
21.339246923127792	2.1435184	1.4640759
21.357082280956888	2.130393	1.4595866
21.3749181622451	2.1108844	1.4528883
21.392754567470647	2.10254	1.4500138
21.41059149711187	2.1204169	1.4561651
21.42842895164726	2.136054	1.4615246
21.446266931555378	2.124482	1.4575603
21.464105437314945	2.104248	1.4506027
21.481944469404798	2.0883496	1.4451123
21.49978402830388	2.0720122	1.4394486
21.51762411449127	2.094683	1.447302
21.53546472844617	2.0952027	1.4474815
21.553305870647876	2.106479	1.4513714
21.571147541575865	2.0953088	1.4475181
21.58898974170967	2.104795	1.4507911
21.60683247152899	2.1105292	1.4527661
21.62467573151363	2.10006	1.4491584
21.642519522143523	2.0571907	1.434291
21.660363843898722	2.0355103	1.4267131
21.6782086972594	2.0168314	1.420152
21.696054082705864	2.0356693	1.4267689
21.713900000718535	2.030062	1.4248024
21.73174645177795	2.047893	1.4310461
21.749593436364794	2.0279977	1.4240779
21.767440954959845	2.027339	1.4238466
21.785289008044032	2.0147505	1.419419
21.803137596098388	2.0101202	1.4177871
21.820986719604086	2.0062149	1.4164091
21.838836379042412	2.0126734	1.4186872
21.85668657489478	1.9978973	1.4134699
21.87453730764273	2.0137067	1.4190513
21.892388577767914	2.0047512	1.4158924
21.91024038575213	2.0063095	1.4164425
21.928092732077285	1.981425	1.407631
21.945945617225426	1.9669245	1.4024708
21.963799041678694	1.9502232	1.3965039
21.981653005919398	31.32982	5.597305
21.999507510429943	78.1364	8.839479
22.01736255569286	73.074905	8.548387
22.035218142190818	4.119432	2.0296383
22.05307427040661	1.9389617	1.3924661
22.07093094082315	1.983597	1.4084023
22.088788153923474	1.9785157	1.4065973
22.106645910190746	1.9658772	1.4020975
22.12450421010827	1.968618	1.4030745
22.142363054159464	1.989084	1.4103489
22.16022244282787	2.0019374	1.4148984
22.178082376597164	2.0064776	1.4165019
22.195942855951145	2.0214386	1.4217731
22.213803881373742	2.00702	1.4166933
22.231665453349002	2.0031452	1.4153252
22.24952757236111	1.9936999	1.4119844
22.26739023889438	1.9777836	1.4063369
22.28525345343323	1.9514939	1.3969588
22.30311721646225	1.9727186	1.404535
22.320981528466113	1.9618887	1.4006743
22.33884638992964	1.9359293	1.3913767
22.356711801337788	1.9429272	1.3938893
22.37457776317561	1.9576515	1.399161
22.392444275928337	1.9599769	1.3999918
22.410311340081282	1.9291142	1.3889256
22.428178956119904	1.9111598	1.382447
22.446047124529805	1.9243718	1.3872173
22.46391584579669	1.9299884	1.3892403
22.481785120406414	1.9272211	1.3882439
22.49965494884496	1.9229068	1.3866892
22.51752533159841	1.9480361	1.3957206
22.53539626915302	1.9165242	1.3843858
22.553267761995137	1.8955446	1.3767878
22.571139810611264	1.8639319	1.3652589
22.589012415488025	1.8616368	1.3644181
22.60688557711216	1.893553	1.3760643
22.624759295970566	1.9335334	1.3905156
22.642633572550263	1.935423	1.3911948
22.660508407338362	1.9194818	1.3854536
22.67838380082217	1.918733	1.3851833
22.696259753489077	1.9192418	1.385367
22.714136265826614	1.8888905	1.3743691
22.73201333832246	1.8639833	1.3652778
22.74989097146439	1.8716329	1.3680763
22.76776916574035	1.8847549	1.3728638
22.785647921638393	1.8959074	1.3769195
22.803527239646712	1.8745303	1.3691349
22.82140712025363	1.8606161	1.3640441
22.839287563947593	1.8532943	1.3613575
22.85716857121719	1.8780751	1.3704288
22.875050142551135	1.8971424	1.377368
22.892932278438277	1.8769424	1.3700155
22.910814979367604	1.8810779	1.371524
22.928698245828222	1.8511424	1.360567
22.946582078309387	1.8634523	1.3650832
22.96446647730047	1.9010111	1.3787715
22.98235144329098	1.9237258	1.3869845
23.000236976770562	1.9019204	1.3791013
23.018123078229	1.8834903	1.3724031
23.03600974815619	1.8808343	1.3714352
23.053896987042194	1.8791294	1.3708134
23.071784795377173	1.822432	1.3499749
23.08967317365145	1.8362315	1.3550762
23.10756212235546	1.8951932	1.3766602
23.125451641979787	1.914148	1.3835274
23.143341733015134	1.896226	1.3770353
23.161232395952357	1.8913393	1.3752598
23.179123631282426	1.951879	1.3970966
23.197015439496468	1.9443208	1.394389
23.214907821085717	1.9547685	1.3981304
23.23280077654157	1.9276166	1.3883864
23.250694306355538	1.9340367	1.3906965
23.268588411019277	1.8977673	1.3775947
23.28648309102458	1.9038574	1.3798034
23.304378346863356	1.8963823	1.377092
23.322274179027676	1.9050589	1.3802387
23.340170588009723	1.9584012	1.3994288
23.358067574301852	2.0054183	1.4161279
23.37596513839651	1.9867026	1.4095044
23.39386328078629	1.890515	1.37496
23.411762001963947	1.8784139	1.3705524
23.429661302422353	1.8878163	1.3739783
23.4475611826545	1.8660705	1.3660419
23.46546164315356	1.8550906	1.3620172
23.48336268441279	1.8704809	1.3676553
23.501264306925638	1.8824805	1.3720351
23.51916651118564	1.919714	1.3855374
23.537069297686497	1.936601	1.3916181
23.554972666922037	1.8870945	1.3737156
23.57287661938623	1.8380831	1.3557593
23.59078115557318	1.8476381	1.3592786
23.608686275977128	1.8664316	1.3661741
23.62659198109246	1.8157208	1.3474869
23.6444982714137	1.7853334	1.3361636
23.66240514743549	1.8196872	1.3489579
23.68031260965263	1.8504988	1.3603303
23.698220658560068	1.8559266	1.362324
23.716129294652845	1.8672959	1.3664904
23.7340385184262	1.8819225	1.3718318
23.75194833037546	1.9071218	1.3809859
23.769858730996123	1.9369572	1.3917462
23.78776972078382	1.9095373	1.3818601
23.80568130023431	1.9236265	1.3869486
23.823593469843495	1.8935461	1.3760618
23.841506230107424	1.8771595	1.3700947
23.859419581522275	1.8373297	1.3554814
23.87733352458438	1.8377713	1.3556442
23.89524805979019	1.832229	1.3535986
23.913163187636318	1.8927562	1.3757747
23.931078908619508	1.9740195	1.4049981
23.948995223236633	1.9929843	1.411731
23.966912131984735	2.0127904	1.4187285
23.98482963536096	2.0338514	1.4261316
24.002747733862616	2.0097764	1.4176658
24.020666427987155	1.9997997	1.4141427
24.038585718232156	2.043331	1.4294512
24.056505605095353	2.1007676	1.4494025
24.074426089074617	2.1432464	1.463983
24.092347170667946	2.163292	1.4708134
24.110268850373515	2.1275287	1.458605
24.128191128689586	2.090705	1.445927
24.146114006114626	2.0627797	1.436238
24.164037483147187	2.0024838	1.4150915
24.181961560286005	1.9590887	1.3996745
24.199886238029926	1.978956	1.4067537
24.21781151687797	2.0616333	1.4358389
24.235737397329274	2.0801678	1.4422786
24.253663879883135	2.0716162	1.439311
24.271590965038975	2.0966623	1.4479856
24.289518653296376	2.067573	1.4379058
24.30744694515505	2.0601761	1.4353313
24.32537584111486	2.0524466	1.4326363
24.34330534167581	2.0258353	1.4233184
24.361235447338046	2.0184338	1.4207159
24.379166158601876	1.9990696	1.4138845
24.39709747596772	1.9966302	1.4130217
24.41502939993615	1.9765195	1.4058875
24.432961931007917	1.9781975	1.4064841
24.450895069683856	1.9856044	1.4091147
24.468828816465	1.9750689	1.4053714
24.4867631718525	1.9407089	1.3930932
24.504698136347656	1.9113362	1.3825108
24.52263371045192	1.937932	1.3920963
24.540569894666874	1.9403627	1.392969
24.558506689494266	1.9506758	1.3966659
24.57644409543597	1.9620638	1.4007369
24.594382112994012	1.9625399	1.4009068
24.61232074267057	1.9705803	1.4037737
24.630259984967953	2.0121667	1.4185086
24.64819984038863	2.03491	1.4265027
24.66614030943522	1.9857754	1.4091754
24.684081392610462	1.9742627	1.4050846
24.702023090417274	2.0053484	1.4161032
24.7199654033587	2.0075314	1.4168738
24.737908331937927	2.0309951	1.4251299
24.755851876658305	2.0674999	1.4378804
24.773796038023324	2.1146574	1.4541862
24.79174081653661	2.137086	1.4618776
24.809686212701962	2.1181874	1.4553994
24.827632227023294	2.1017482	1.4497408
24.8455788600047	2.0963764	1.4478868
24.8635261121504	2.1000593	1.4491581
24.88147398396475	2.073964	1.4401264
24.899422475952303	2.058404	1.4347138
24.917371588617698	2.0674458	1.4378616
24.935321322465768	2.136316	1.4616143
24.953271678001478	2.28037	1.5100894
24.97122265572994	2.4762542	1.5736119
24.989174256156414	2.8080466	1.6757227
25.00712647978632	3.25818	1.8050429
25.02507932712521	3.7786255	1.9438686
25.043032798678798	4.362991	2.0887773
25.060986894952933	5.0795956	2.2537959
25.078941616453637	5.904619	2.4299421
25.096896963687055	6.8946238	2.6257615
25.114852937159508	8.109182	2.8476627
25.132809537377444	8.570592	2.9275572
25.150766764847468	8.585578	2.9301157
25.168724620076347	7.881428	2.807388
25.186683103570985	6.767359	2.6014147
25.204642215838426	5.570594	2.3602107
25.222601957385894	4.188254	2.0465224
25.24056232872074	3.1925776	1.7867786
25.25852333035048	2.5987585	1.6120665
25.276484962782778	2.2738533	1.5079302
25.294447226525435	2.079013	1.4418783
25.312410122086423	1.9489185	1.3960367
25.330373649973843	1.8993804	1.3781801
25.348337810695988	1.900095	1.3784393
25.366302604761245	1.8962214	1.3770336
25.384268032678207	1.8539914	1.3616135
25.40223409495558	1.8494433	1.3599424
25.420200792102257	1.8386923	1.3559839
25.438168124627246	1.8521082	1.3609219
25.45613609303974	1.9064033	1.3807256
25.474104697849057	1.921297	1.3861085
25.492073939564698	1.9151212	1.3838791
25.510043818696285	1.8629475	1.3648983
25.528014335753614	1.8697577	1.3673909
25.54598549124664	1.8749886	1.3693023
25.56395728568544	1.8529071	1.3612152
25.58192971958028	1.8153436	1.3473469
25.59990279344156	1.8348832	1.3545786
25.617876507779833	1.8514915	1.3606952
25.635850863105826	1.8570672	1.3627425
25.653825859930386	1.8778284	1.3703388
25.671801498764548	1.9055724	1.3804247
25.68977778011949	1.8999214	1.3783764
25.707754704506524	1.886709	1.3735752
25.725732272437153	1.8994188	1.3781941
25.743710484423012	1.8565105	1.3625382
25.761689340975888	1.8507417	1.3604198
25.77966884260774	1.8517339	1.3607843
25.797648989830662	1.8653342	1.3657724
25.815629783156922	1.8492991	1.3598894
25.83361122309895	1.803897	1.3430923
25.85159331016929	1.8090996	1.3450277
25.869576044880695	1.829015	1.3524108
25.887559427746034	1.846837	1.3589839
25.90554345927836	1.818013	1.348337
25.92352813999086	1.8194476	1.348869
25.94151347039689	1.819492	1.3488854
25.959499451009965	1.8235248	1.3503795
25.97748608234374	1.7924969	1.3388417
25.995473364912062	1.7778809	1.333372
26.013461299228904	1.8267493	1.3515729
26.03144988580839	1.8528143	1.3611813
26.04943912516483	1.7952166	1.3398569
26.067429017812675	1.7594713	1.3264506
26.085419564266537	1.7719712	1.3311541
26.103410765041186	1.8059031	1.3438389
26.12140262065155	1.7865121	1.3366047
26.139395131612723	1.786889	1.3367456
26.157388298439948	1.8125572	1.3463124
26.17538212164861	1.8065118	1.3440654
26.193376601754295	1.8258321	1.3512336
26.211371739272714	1.8664944	1.3661971
26.229367534719746	1.8994746	1.3782142
26.247363988611433	1.8675134	1.36657
26.26536110146397	1.8399967	1.3564647
26.283358873793727	1.83066	1.3530189
26.301357306117204	1.8472497	1.3591356
26.319356398951104	1.9092407	1.3817527
26.33735615281224	1.9450935	1.3946661
26.35535656821762	1.8832611	1.3723196
26.373357645684404	1.8078943	1.3445796
26.39135938572991	1.8159356	1.3475666
26.409361788871614	1.8387855	1.3560183
26.427364855627165	1.8762366	1.3697579
26.445368586514352	1.8696321	1.367345
26.46337298205115	1.85129	1.3606212
26.48137804275568	1.8116053	1.345959
26.499383769146217	1.7602283	1.326736
26.517390161741215	1.7557164	1.3250345
26.53539722105928	1.7698126	1.330343
26.553404947619182	1.7795372	1.333993
26.571413341939856	1.7685347	1.3298626
26.589422404540397	1.8014414	1.3421779
26.60743213594006	1.8358096	1.3549205
26.62544253665827	1.7810463	1.3345585
26.64345360721459	1.7737948	1.3318388
26.66146534812879	1.8075105	1.3444369
26.679477759920758	1.8290796	1.3524348
26.69749084311057	1.8473684	1.3591793
26.71550459821847	1.8182878	1.3484391
26.733519025764842	1.7987643	1.3411802
26.751534126270258	1.7895448	1.3377388
26.769549900255434	1.7853587	1.3361732
26.787566348241267	1.7477285	1.3220168
26.80558347074881	1.7360001	1.3175735
26.823601268299267	1.7472299	1.3218282
26.841619741414036	1.7564734	1.3253201
26.85963889061465	1.8018581	1.3423331
26.877658716422832	1.8277103	1.3519284
26.89567921936045	1.8193874	1.3488467
26.913700399949544	1.7838478	1.3356076
26.93172225871233	1.7578187	1.3258276
26.949744796171174	1.7612513	1.3271215
26.967768012848605	1.7920672	1.3386811
26.98579190926733	1.8061492	1.3439305
27.003816485950225	1.7566146	1.3253734
27.021841743420318	1.712253	1.3085308
27.039867682200814	1.7044706	1.3055538
27.057894302815072	1.7607815	1.3269445
27.07592160578664	1.7898744	1.3378619
27.0939495916392	1.758479	1.3260765
27.111978260896635	1.7313113	1.315793
27.13000761408296	1.763134	1.3278306
27.148037651722397	1.7833934	1.3354375
27.166068374339304	1.815238	1.3473077
27.184099782458215	1.8327506	1.3537912
27.20213187660384	1.8408461	1.3567778
27.22016465730105	1.8216441	1.3496829
27.23819812507487	1.8512958	1.3606234
27.256232280450533	1.8271458	1.3517196
27.274267123953383	1.819997	1.3490726
27.292302656108987	1.8244183	1.3507103
27.31033887744306	1.8339511	1.3542345
27.32837578848146	1.8359723	1.3549806
27.34641338975026	1.7985818	1.3411121
27.364451681775673	1.7784255	1.3335762
27.382490665084074	1.768923	1.3300086
27.400530340202046	1.7470349	1.3217545
27.41857070765629	1.7669096	1.3292515
27.436611767973726	1.7867564	1.336696
27.454653521681404	1.7770218	1.3330498
27.472695969306564	1.780895	1.3345017
27.490739111376627	1.7938572	1.3393495
27.508782948419153	1.7845103	1.3358556
27.526827480961902	1.799061	1.3412908
27.54487270953279	1.8811697	1.3715574
27.562918634659898	1.8894094	1.3745579
27.580965256871508	1.868131	1.3667959
27.599012576696026	1.8399398	1.3564438
27.617060594662068	1.8383209	1.3558469
27.63510931129842	1.8528134	1.3611809
27.65315872713401	1.819196	1.3487757
27.67120884269797	1.7711198	1.3308343
27.68925965851958	1.8157434	1.3474952
27.707311175128307	1.8551526	1.3620399
27.725363393053787	1.8541584	1.3616749
27.74341631282583	1.8225871	1.3500323
27.7614699349744	1.8271604	1.351725
27.77952426002968	1.973152	1.4046893
27.797579288521973	2.0480185	1.43109
27.815635020981784	2.4301844	1.5589049
27.83369145793979	2.4783304	1.5742713
27.85174859992682	2.3061392	1.5185978
27.869806447473923	2.1745203	1.4746255
27.887865001112267	1.973814	1.4049249
27.905924261373233	1.8657181	1.3659129
27.92398422878836	1.806412	1.3440282
27.94204490388936	1.8352224	1.3547038
27.96010628720813	1.8224533	1.3499827
27.978168379276728	1.8015363	1.3422133
27.9962311806274	1.8524791	1.3610581
28.014294691792568	1.8814853	1.3716725
28.0323589133048	1.8452958	1.3584167
28.050423845696887	1.8499088	1.3601135
28.068489489501758	1.8994218	1.3781952
28.086555845252523	1.9091457	1.3817184
28.104622913482487	1.8752156	1.3693851
28.122690694725115	1.8944871	1.3764037
28.14075918951405	1.9081306	1.381351
28.15882839838312	1.9305371	1.3894377
28.176898321866304	1.8955044	1.3767731
28.1949689604978	1.8833567	1.3723544
28.213040314811945	1.8882426	1.3741333
28.23111238534327	1.899135	1.3780911
28.249185172626493	1.8476144	1.3592699
28.267258677196473	1.8702986	1.3675886
28.285332899588294	1.8926792	1.3757467
28.303407840337172	1.9371434	1.391813
28.321483499978545	1.9685758	1.4030595
28.33955987904799	1.9621849	1.4007801
28.357636978081285	1.9546647	1.3980932
28.37571479761439	1.949607	1.3962833
28.393793338183425	1.9949883	1.4124405
28.41187260032469	1.9984208	1.4136552
28.429952584574686	1.9573202	1.3990426
28.448033291470065	1.9530263	1.3975072
28.46611472154769	1.9381758	1.3921838
28.484196875344566	1.9634807	1.4012426
28.502279753397914	1.956574	1.3987759
28.52036335624511	1.9899299	1.4106487
28.538447684423716	2.018003	1.4205643
28.556532738471482	1.9687037	1.403105
28.574618518926325	1.952418	1.3972895
28.59270502632635	2.0157661	1.4197768
28.61079226120985	2.088929	1.4453127
28.628880224115274	2.1085916	1.452099
28.646968915581287	2.0681663	1.438112
28.66505833614671	2.0348785	1.4264916
28.68314848635055	2.0494585	1.431593
28.701239366732004	2.066525	1.4375412
28.71933097783044	2.0824087	1.4430553
28.737423320185403	2.1008034	1.4494148
28.75551639433665	2.127595	1.4586278
28.773610200824074	2.1106822	1.4528188
28.791704740187793	2.142268	1.4636488
28.80980001296809	2.1625152	1.4705492
28.827896019705413	2.1491895	1.4660114
28.845992760940433	2.1593032	1.4694568
28.86409023721397	2.1807253	1.476728
28.88218844906704	2.2253358	1.491756
28.900287397040845	2.274721	1.5082178
28.918387081676755	2.294778	1.5148525
28.936487503516343	2.3314688	1.5269148
28.954588663101365	2.3241389	1.5245126
28.97269056097374	2.316667	1.5220602
28.990793197675597	2.351841	1.5335714
29.00889657374923	2.3956861	1.5478004
29.027000689737125	2.4082422	1.5518513
29.04510554618196	2.37803	1.5420862
29.06321114362659	2.3520536	1.5336406
29.08131748261405	2.3793852	1.5425256
29.099424563687567	2.4519866	1.5658821
29.11753238739057	2.5434344	1.5948149
29.13564095426663	2.6238585	1.6198329
29.15375026485954	2.6511216	1.6282265
29.171860319713275	2.6503134	1.6279783
29.18997111937199	2.6804936	1.6372213
29.20808266438002	2.7074597	1.645436
29.226194955281898	2.7228508	1.6501063
29.244307992622335	2.834378	1.6835611
29.26242177694624	2.8683608	1.6936235
29.2805363087987	2.8659163	1.6929017
29.29865158872498	2.865763	1.6928564
29.316767617270557	2.804162	1.6745633
29.334884394981064	2.8041685	1.6745652
29.353001922402367	2.9218812	1.7093511
29.37112020008047	3.0540528	1.7475848
29.389239228561596	3.1763604	1.7822347
29.407359008392152	3.3370383	1.8267562
29.42547954011872	3.653509	1.9114155
29.44360082428809	4.3237486	2.0793626
29.46172286144722	5.4474354	2.3339741
29.479845652143283	7.128885	2.6699972
29.497969196923606	9.400712	3.0660582
29.516093496335728	12.195167	3.492158
29.5342185509274	15.142702	3.8913624
29.55234436124651	17.736015	4.211415
29.570470927841175	19.251787	4.387686
29.588598251259686	18.97897	4.356486
29.60672633205055	17.56261	4.190777
29.624855170762405	15.310714	3.9128907
29.642984767944146	12.4385195	3.5268285
29.66111512414481	9.252459	3.0417855
29.67924623991366	6.7041674	2.5892408
29.697378115800138	5.0675964	2.2511322
29.71551075235387	4.1187387	2.0294676
29.733644150124675	3.6981757	1.9230641
29.751778309662576	3.5018702	1.8713285
29.769913231517766	3.4260197	1.8509511
29.78804891624066	3.4298584	1.8519877
29.806185364381818	3.4545698	1.8586473
29.82432257649206	3.4516172	1.8578528
29.842460553122333	3.4267585	1.8511506
29.86059929482382	3.3887498	1.8408557
29.878738802147872	3.3371847	1.8267963
29.896879075646048	3.3275871	1.8241675
29.915020115870114	3.3504589	1.8304259
29.933161923371976	3.272274	1.8089428
29.951304498703777	3.2414184	1.8003939
29.969447842417857	3.2877557	1.8132169
29.987591955066733	3.2803867	1.8111838
30.005736837203123	3.2224689	1.7951236
30.023882489379943	3.2454946	1.8015256
30.04202891215028	3.273786	1.8093606
30.060176106067455	3.231396	1.7976084
30.078324071684946	3.2240183	1.7955551
30.09647280955646	3.2350466	1.7986236
30.114622320235863	3.2356458	1.7987901
30.132772604277257	3.1688254	1.7801195
30.1509236622349	3.0938995	1.7589484
30.16907549466328	3.0150895	1.7364013
30.18722810211705	3.0206084	1.7379898
30.205381485151097	3.0914493	1.7582518
30.22353564432045	3.0899518	1.7578259
30.241690580180403	3.0222766	1.7384696
30.25984629328638	2.945451	1.7162316
30.278002784194037	2.9365742	1.7136436
30.296160053459246	2.9467628	1.7166138
30.314318101638033	2.9078987	1.7052562
30.332476929286646	2.950798	1.7177887
30.35063653696153	2.954687	1.7189204
30.368796925219307	2.9544346	1.7188469
30.386958094616844	2.9667325	1.7224206
30.40512004571115	2.907494	1.7051376
30.423282779059463	2.8827915	1.6978785
30.441446295219233	2.8836648	1.6981357
30.459610594748067	2.9156375	1.7075238
30.47777567820382	2.8542962	1.6894662
30.495941546144504	2.8527834	1.6890185
30.51410819912835	2.8072917	1.6754974
30.532275637713795	2.7420948	1.6559272
30.55044386245946	2.780786	1.6675689
30.56861287392416	2.9175959	1.7080971
30.586782672666956	2.9341924	1.7129484
30.604953259247047	2.8313603	1.6826646
30.623124634223885	2.7937057	1.6714382
30.641296798157075	2.7738347	1.6654834
30.659469751606462	2.7393403	1.6550952
30.677643495132074	2.729662	1.6521689
30.695818029294152	2.726357	1.6511683
30.713993354653116	2.7239025	1.650425
30.73216947176962	2.731839	1.6528275
30.75034638120448	2.6954715	1.6417891
30.768524083518756	2.7046773	1.6445904
30.786702579273673	2.8161392	1.6781356
30.80488186903069	2.9291205	1.7114674
30.82306195335144	2.9546885	1.7189207
30.841242832797782	3.029829	1.7406404
30.85942450793176	3.3898883	1.841165
30.877606979315637	3.7940955	1.9478438
30.895790247511883	4.2693243	2.0662344
30.913974313083134	4.6573668	2.1580932
30.932159176592283	4.9409842	2.2228324
30.95034483860237	4.9610543	2.2273424
30.968531299676698	4.8191924	2.195266
30.98671856037873	4.458876	2.1116052
31.00490662127215	3.9890642	1.9972641
31.023095482920848	3.567919	1.8888936
31.04128514588892	3.1603765	1.7777448
31.059475610740662	2.8432496	1.6861938
31.07766687804056	2.627531	1.6209661
31.09585894835335	2.5140874	1.5855874
31.11405182224393	2.500549	1.5813124
31.132245500277417	2.4775877	1.5740355
31.15043998301914	2.4431314	1.5630519
31.168635271034628	2.4413238	1.5624737
31.18683136488964	2.3985767	1.548734
31.20502826515008	2.367433	1.5386465
31.223225972382135	2.3952122	1.5476474
31.241424487152155	2.4979446	1.5804887
31.259623810026692	2.522549	1.5882534
31.27782394157253	2.4956665	1.5797678
31.296024882356644	2.5092509	1.5840615
31.314226632946237	2.4495718	1.5651108
31.332429193908684	2.3246543	1.5246817
31.350632565811598	2.3783538	1.5421913
31.368836749222787	2.4382272	1.5614823
31.387041744710295	2.4706953	1.5718446
31.40524755284232	2.491806	1.5785456
31.423454174187317	2.524312	1.5888084
31.441661609313922	2.509849	1.5842503
31.459869858791002	2.504755	1.5826418
31.478078923187628	2.4762216	1.5736015
31.496288803073064	2.5024028	1.5818985
31.514499499016807	2.4683638	1.5711027
31.532711011588546	2.406497	1.5512888
31.550923341358178	2.3493721	1.5327662
31.56913648889584	2.273761	1.5078995
31.587350454771844	2.2631614	1.5043807
31.605565239556732	2.270323	1.5067592
31.62378084382127	2.268998	1.5063193
31.641997268136382	2.2681096	1.5060245
31.660214513073274	2.2944498	1.5147442
31.67843257920331	2.3371265	1.5287663
31.6966514670981	2.3242657	1.5245543
31.71487117732944	2.3317964	1.5270221
31.733091710469346	2.302342	1.517347
31.751313067090052	2.2798803	1.5099273
31.769535247764008	2.2866433	1.5121651
31.787758253063878	2.2356355	1.4952042
31.805982083562526	2.1370811	1.4618759
31.824206739833024	2.1334958	1.4606491
31.84243222244869	2.2377906	1.4959247
31.860658531983013	2.2723346	1.5074265
31.878885669009737	2.2056465	1.4851419
31.897113634102784	2.1258898	1.4580431
31.91534242783632	2.1391668	1.4625891
31.933572050784694	2.1664114	1.4718734
31.951802503522508	2.1751347	1.4748337
31.970033786624548	2.20287	1.4842068
31.988265900665834	2.1801639	1.4765378
32.006498846221575	2.1553378	1.4681069
32.02473262386724	2.2129922	1.487613
32.04296723417845	2.2695727	1.5065101
32.0612026777311	2.2790926	1.5096663
32.07943895510129	2.296809	1.5155227
32.097676066865304	2.192725	1.4807853
32.115914013599685	2.0187554	1.4208292
32.13415279588115	1.9991492	1.4139128
32.152392414286666	2.1314046	1.459933
32.1706328693934	2.1812398	1.4769021
32.18887416177875	2.1063437	1.4513248
32.20711629202032	2.119714	1.4559238
32.225359260695924	2.1093693	1.4523668
32.243603068383614	2.060285	1.4353694
32.26184771566166	2.0371437	1.4272854
32.28009320310852	2.0376487	1.4274623
32.2983395313029	2.0628343	1.436257
32.31658670082372	2.1580973	1.4690464
32.33483471225012	2.1531157	1.4673499
32.35308356616143	2.0528553	1.4327788
32.371333263137245	2.0913115	1.4461367
32.38958380375734	2.1776998	1.4757031
32.407835188601744	2.1742148	1.4745219
32.42608741825067	2.0812232	1.4426445
32.444340493284585	1.9794835	1.4069412
32.46259441428416	1.9786091	1.4066304
32.48084918183028	2.0222085	1.4220438
32.49910479650405	2.1345158	1.4609982
32.51736125888683	2.0939636	1.4470534
32.53561856956014	2.0655882	1.4372154
32.5538767291058	2.1450112	1.4645857
32.572135738105764	2.184185	1.4778988
32.59039559714228	2.1002057	1.4492086
32.608656306797776	2.023228	1.4224021
32.62691786765491	2.0332918	1.4259354
32.645180280296586	2.0658236	1.4372973
32.663443545305896	2.1156666	1.4545331
32.68170766326619	2.2008822	1.4835371
32.69997263476099	2.2270527	1.4923313
32.7182384603741	2.1363509	1.461626
32.7365051406895	1.9831502	1.4082437
32.75477267629144	1.9737891	1.404916
32.77304106776434	2.0437198	1.4295872
32.79131031569289	2.1320138	1.4601417
32.809580420661966	2.1430147	1.4639039
32.827851383256714	2.1902053	1.4799342
32.84612320406245	2.16489	1.4713565
32.86439588366476	2.1620765	1.4704001
32.88266942264945	2.071666	1.4393283
32.9009438216025	1.9088211	1.381601
32.9192190811102	1.9697857	1.4034905
32.937495201758985	1.987805	1.4098954
32.95577218413556	1.9875939	1.4098206
32.974050028826866	1.9827743	1.4081101
32.992328736420035	2.0409276	1.4286104
33.010608307502444	2.0801067	1.4422575
33.02888874266169	2.0865872	1.4445024
33.047170042485604	2.064652	1.4368896
33.06545220756225	2.007347	1.4168087
33.083735238479896	1.930175	1.3893074
33.10201913582707	1.9889234	1.4102919
33.12030390019248	2.0909395	1.4460081
33.138589532165135	2.0799637	1.4422079
33.15687603233419	2.060508	1.435447
33.17516340128909	1.9802353	1.4072083
33.19345163961947	1.992038	1.4113958
33.211740747915215	2.0501895	1.4318483
33.23003072676643	2.0550551	1.4335463
33.248321576763466	2.0790086	1.4418768
33.266613298496885	2.1028707	1.4501278
33.28490589255747	2.0478692	1.4310378
33.30319935953626	1.9655824	1.4019923
33.32149370002451	1.9704465	1.403726
33.339788914613706	2.0540922	1.4332105
33.358085003895575	2.0433965	1.4294742
33.376381968462034	1.9132392	1.3831989
33.39467980890529	1.8779746	1.3703922
33.41297852581774	2.0779696	1.4415164
33.43127811979204	2.1183956	1.4554709
33.44957859142105	1.9779375	1.4063916
33.467879941297866	1.8456966	1.3585641
33.486182170015844	1.7407869	1.3193889
33.50448527816853	1.778795	1.3337147
33.522789266349754	1.8944885	1.3764042
33.541094135153514	1.9705191	1.4037517
33.55939988517411	1.9801561	1.4071802
33.57770651700602	1.9492338	1.3961496
33.59601403124398	1.8821502	1.3719147
33.61432242848296	1.8933414	1.3759874
33.632631709318154	1.9124188	1.3829024
33.650941874344994	1.9226836	1.3866087
33.66925292415916	1.9330109	1.3903277
33.68756485935654	1.8963526	1.3770812
33.70587768053328	1.8306456	1.3530135
33.724191388285746	1.892331	1.3756202
33.74250598321054	1.9589474	1.399624
33.760821465904506	2.0076869	1.4169286
33.77913783696474	1.877942	1.3703803
33.79745509698852	1.7791721	1.3338561
33.815773246573414	1.8526872	1.3611345
33.8340922863172	1.985109	1.408939
33.852412216817896	2.0901906	1.4457492
33.87073303867377	1.9916093	1.4112439
33.889054752483304	1.9770246	1.406067
33.907377358845245	1.9859706	1.4092447
33.92570085835853	1.9892765	1.4104172
33.94402525162239	1.9859238	1.4092281
33.96235053923627	1.9879099	1.4099326
33.980676721799824	1.896024	1.3769618
33.999003799912984	1.8593482	1.3635792
34.01733177417592	1.8227981	1.3501104
34.03566064518901	1.822606	1.3500392
34.0539904135529	1.777294	1.3331519
34.07232107986846	1.8249629	1.3509119
34.090652644736785	1.9041067	1.3798938
34.108985108759235	1.9767337	1.4059637
34.12731847253742	2.0815423	1.4427551
34.14565273667313	2.0009649	1.4145547
34.16398790176847	1.8936067	1.3760839
34.18232396842574	1.873006	1.3685781
34.20066093724749	1.9590139	1.3996478
34.21899880883651	1.9777635	1.4063298
34.23733758379583	1.9105453	1.3822248
34.25567726272874	1.875294	1.3694137
34.27401784623872	1.8988656	1.3779933
34.29235933492957	1.8587782	1.3633702
34.31070172940526	1.7974435	1.3406878
34.32904503027003	1.7961282	1.3401971
34.347389238128386	1.9296272	1.3891102
34.36573435358502	1.9870504	1.4096278
34.38408037724492	1.94199	1.393553
34.402427309713296	1.9449668	1.3946207
34.42077515159559	2.194156	1.4812684
34.43912390349752	2.1758347	1.4750711
34.45747356602499	1.9535407	1.3976912
34.47582413978423	1.8379369	1.3557053
34.49417562538163	1.959884	1.3999586
34.51252802342388	2.1240764	1.4574212
34.53088133451789	2.1317492	1.4600511
34.54923555927084	2.06208	1.4359944
34.567590698290104	1.9725435	1.4044727
34.58594675218336	1.9268978	1.3881274
34.6043037215585	1.8819376	1.3718373
34.62266160702365	1.8897343	1.3746761
34.641020409187234	1.9754719	1.4055148
34.65938012865785	1.9967052	1.4130481
34.677740766044394	2.0067093	1.4165837
34.69610232195598	2.0423107	1.4290943
34.714464797002016	2.0853686	1.4440806
34.73282819179208	2.081059	1.4425876
34.751192506936064	1.9227709	1.3866402
34.76955774304408	1.74392	1.3205756
34.7879239007265	1.6691213	1.2919447
34.80629098059391	1.6144547	1.270612
34.824658983257194	1.7479817	1.3221126
34.843027909327446	2.0776103	1.4413918
34.86139775941603	2.21534	1.4884018
34.879768534134534	2.1508584	1.4665805
34.89814023409483	2.1098087	1.4525181
34.91651285990901	1.9747803	1.4052688
34.93488641218944	1.9422885	1.3936601
34.95326089154871	2.0249734	1.4230156
34.97163629859967	1.8881506	1.3741
34.99001263395542	1.7195749	1.3113257
35.00838989822934	1.7190876	1.3111398
35.02676809203499	1.860896	1.3641466
35.04514721598624	1.9954877	1.4126173
35.063527270697215	1.996564	1.4129982
35.081908256782256	2.0286007	1.4242896
35.10029017485597	1.9339561	1.3906676
35.11867302553321	1.9793743	1.4069024
35.137056809429104	2.213037	1.487628
35.155441527159006	2.1872742	1.4789436
35.173827179338524	1.9758923	1.4056643
35.19221376658354	1.9062785	1.3806804
35.21060128951017	1.9567846	1.3988512
35.2289897487348	1.8369266	1.3553326
35.24737914487405	1.8287299	1.3523054
35.26576947854479	1.9098601	1.3819768
35.28416075036418	1.8263215	1.3514147
35.30255296094958	1.6787442	1.2956636
35.32094611091867	1.8017615	1.3422971
35.33934020088932	1.9784136	1.4065609
35.35773523147969	1.993584	1.4119433
35.3761312033082	2.1332374	1.4605607
35.394528116993506	2.20279	1.48418
35.41292597315452	2.1552436	1.4680748
35.431324772410434	2.2912855	1.5136993
35.449724515380666	2.3547509	1.5345198
35.46812520268491	2.2682042	1.5060558
35.486526834943106	2.2827249	1.5108689
35.504929412775454	2.178351	1.4759238
35.52333293680242	2.0700064	1.4387517
35.54173740764471	1.6775829	1.2952154
35.560142825923286	1.661128	1.2888476
35.5785491922594	1.6820595	1.2969424
35.59695650727454	1.4516523	1.2048453
35.61536477159042	1.2419951	1.1144483
