0.008763373481513119	0.0	0.0
0.026290120649546365	0.0	0.0
0.043816868432600686	0.059373353	0.24366648
0.06134361724069026	0.18436494	0.42937738
0.07887036748382949	0.250667	0.50066656
0.0963971195720331	0.30681723	0.55391085
0.11392387391531617	0.23238575	0.48206407
0.1314506309236943	0.23227166	0.4819457
0.1489773910071836	0.13448885	0.3667272
0.16650415457580078	0.13298795	0.36467513
0.18403092203956356	0.12442643	0.3527413
0.20155769380849	0.08812754	0.29686284
0.2190844702925996	0.070415445	0.26535907
0.2366112519019124	0.06395197	0.25288728
0.2541380390464497	0.08158089	0.2856237
0.27166483213623416	0.14255805	0.3775686
0.28919163158128947	0.18922822	0.4350037
0.3067184377916406	0.21256003	0.4610423
0.324245251177314	0.22245403	0.47165033
0.34177207214833777	0.24786124	0.49785665
0.3592989011147415	0.24143548	0.49136084
0.37682573848655654	0.21839376	0.4673262
0.39435258467381573	0.16199553	0.40248668
0.41187944008655414	0.17502038	0.41835436
0.42940630513480854	0.18489896	0.4299988
0.446933180228618	0.1929749	0.4392891
0.4644600657780234	0.15648621	0.3955834
0.48198696219306775	0.15228932	0.39024264
0.49951386988379676	0.14197037	0.37678954
0.5170407892602581	0.14900719	0.3860145
0.5345677207325025	0.15444125	0.39299014
0.5520946647105822	0.13522816	0.3677338
0.5696216216045534	0.12836221	0.35827672
0.5871485918244737	0.1250736	0.35365745
0.6046755757804043	0.13146324	0.3625786
0.6222025738824094	0.17114805	0.41370043
0.6397295865405557	0.18931164	0.43509957
0.6572566141649129	0.18772613	0.43327373
0.6747836571655547	0.20365228	0.45127848
0.6923107159525568	0.20992266	0.4581732
0.7098377909359992	0.20389532	0.45154768
0.7273648825259653	0.22434033	0.47364578
0.7448919911325411	0.21466339	0.4633178
0.762419117165817	0.20546618	0.4532838
0.7799462610358868	0.18414314	0.42911902
0.7974734231528482	0.18643631	0.43178272
0.8150006039268024	0.16990963	0.41220096
0.8325278037678551	0.17920808	0.42332977
0.8500550230861152	0.17179497	0.41448155
0.8675822622916969	0.1902452	0.43617105
0.8851095217947171	0.19119398	0.43725735
0.9026368020052984	0.24155281	0.49148023
0.9201641033335665	0.26328313	0.51311123
0.9376914261896523	0.25461817	0.504597
0.9552187709836915	0.23959443	0.48948383
0.9727461381258234	0.22618933	0.47559366
0.990273528026193	0.24971445	0.49971437
1.0078009410949496	0.24497995	0.4949545
1.0253283777422473	0.24713036	0.49712208
1.0428558383782454	0.24542707	0.49540597
1.0603833234131086	0.2512679	0.5012663
1.0779108332570058	0.26041773	0.5103114
1.0954383683201119	0.2979659	0.54586256
1.112965929012607	0.3803865	0.61675483
1.1304935157446763	0.5328546	0.7299689
1.1480211289265108	0.5643486	0.7512314
1.1655487689683062	1.4103824	1.1875952
1.1830764362802655	1.6755731	1.2944393
1.200604131272596	2.1038284	1.450458
1.2181318543555117	2.2979064	1.5158846
1.235659605939232	2.3370447	1.5287396
1.253187386433982	3.8689597	1.9669671
1.270715196249994	6.430751	2.5358925
1.2882430357975057	11.833094	3.4399264
1.3057709054867608	16.71005	4.087793
1.3232988057280106	22.615353	4.7555604
1.3408267369315112	27.340961	5.2288585
1.358354699507526	30.92165	5.560724
1.3758826938663256	34.820374	5.900879
1.3934107204181858	37.206913	6.099747
1.410938779573391	37.582867	6.1304865
1.4284668717422309	38.224087	6.1825633
1.4459949973350033	38.038918	6.1675696
1.4635231567620117	37.92015	6.157934
1.4810513504335687	37.206505	6.0997133
1.4985795787599925	36.377098	6.031343
1.5161078421516088	36.427242	6.0354986
1.5336361410187505	35.732674	5.977681
1.5511644757717598	35.84305	5.9869065
1.5686928468209842	36.100693	6.008385
1.58622125457678	36.673664	6.0558786
1.6037496994495108	37.673332	6.137861
1.621278181849548	37.50539	6.1241646
1.6388067021872719	38.37842	6.195032
1.6563352608730693	37.983814	6.163101
1.673863858317336	36.906178	6.0750456
1.6913924949304753	36.097874	6.0081506
1.7089211711228998	34.707104	5.8912735
1.7264498873050296	33.543087	5.7916393
1.7439786438872935	32.57285	5.707263
1.7615074412801288	31.696257	5.629943
1.779036279893981	31.515272	5.6138463
1.796565160139305	30.816492	5.5512605
1.814094082426564	30.182951	5.4939013
1.8316230471662298	29.195417	5.4032784
1.849152054768784	28.311716	5.3208756
1.8666811056447168	28.090473	5.3000445
1.8842102002045273	27.172592	5.2127337
1.901739338858724	26.491657	5.1470046
1.9192685220178245	25.533443	5.053063
1.9367977500923557	24.780916	4.9780436
1.9543270234928547	24.488249	4.94856
1.971856342629867	24.04209	4.903273
1.9893857079139496	23.6231	4.86036
2.006915119755667	23.237144	4.8204923
2.0244445785655945	22.603874	4.754353
2.0419740847543175	22.296143	4.721879
2.0595036387324317	21.727373	4.661263
2.0770332409105414	21.144356	4.598299
2.094562891699263	20.660488	4.545381
2.1120925915092217	20.023226	4.474732
2.129622340751053	19.6536	4.433238
2.1471521398354043	187.70607	13.700586
2.1646819891729323	444.12814	21.074348
2.182211889174303	440.56903	20.989737
2.1997418402501974	453.0854	21.285803
2.2172718428113023	433.06503	20.810215
2.234801897268317	320.84894	17.912256
2.2523320040319548	17.248417	4.1531215
2.269862163512935	16.880571	4.1085973
2.287392376121992	16.765041	4.0945134
2.304922642269869	16.569286	4.070539
2.322452962367322	16.376963	4.046846
2.3399833368251164	16.100443	4.0125356
2.357513766054032	15.749098	3.9685133
2.3750442504648586	15.426434	3.92765
2.3925747904683963	15.01114	3.8744211
2.410105386475459	14.620661	3.8236973
2.4276360388968707	14.209191	3.7695081
2.445166748143469	14.01527	3.7436974
2.4626975146261025	13.865612	3.7236557
2.4802283387556323	13.786656	3.7130387
2.4977592209429305	13.639828	3.6932137
2.5152901615988825	13.38017	3.6578915
2.5328211611343865	13.095874	3.618822
2.5503522199603523	12.724726	3.5671732
2.5678833384877024	12.441298	3.5272224
2.5854145171273712	12.154925	3.4863915
2.6029457562903064	11.95934	3.4582279
2.620477056387469	11.809571	3.4365058
2.6380084178298326	11.733724	3.4254522
2.655539841028383	11.5716505	3.401713
2.673071326394119	11.566959	3.4010234
2.6906028743380523	11.386729	3.3744228
2.708134485271211	11.162358	3.3410115
2.7256661596046325	10.837702	3.2920666
2.743197897749369	10.606178	3.256713
2.760729700116486	10.561386	3.2498286
2.778261567117063	10.463498	3.234733
2.795793499162193	10.306131	3.2103164
2.8133254966629817	10.119106	3.1810544
2.830857560030551	9.817324	3.133261
2.8483896896760337	9.614167	3.100672
2.865921886010578	9.496241	3.081597
2.883454149445347	9.3775015	3.0622706
2.9009864803915177	9.401274	3.0661497
2.91851887926028	9.4007225	3.0660598
2.9360513464628384	9.292847	3.048417
2.953583882410413	9.016916	3.002818
2.9711164875142373	8.722517	2.9533908
2.9886491621855606	8.679558	2.9461088
3.0061819068356455	8.594391	2.9316192
3.023714721875769	8.561745	2.926046
3.041247607717225	8.522868	2.9193952
3.0587805647713213	8.42949	2.9033585
3.0763135934493806	8.37716	2.8943324
3.0938466941627407	8.170927	2.8584833
3.1113798673227544	7.990361	2.8267226
3.1289131133407904	7.7766232	2.7886598
3.1464464326282315	7.769957	2.7874644
3.1639798255964786	7.834355	2.7989917
3.1815132926569443	7.916203	2.8135748
3.1990468342210603	7.850364	2.80185
3.216580450700272	7.641354	2.7642999
3.2341141425060416	7.4468775	2.7288969
3.251647910049847	7.434015	2.726539
3.2691817537431813	7.3176713	2.7051194
3.286715673997555	7.335639	2.7084384
3.3042496712244938	7.1136756	2.6671474
3.32178374583554	6.973959	2.6408255
3.339317898242251	6.782857	2.6043918
3.3568521288562034	6.755419	2.599119
3.3743864380889876	6.808844	2.6093762
3.3919208263522127	6.778072	2.603473
3.4094552940575023	6.785396	2.6048794
3.4269898416164972	6.773259	2.6025486
3.444524469440858	6.784025	2.6046162
3.4620591779422587	6.67453	2.583511
3.479593967532391	6.5381627	2.5569832
3.4971288386229658	6.3902965	2.5279036
3.5146637916257086	6.3345447	2.5168521
3.5321988269523628	6.3137197	2.5127115
3.5497339450146903	6.402437	2.5303037
3.5672691462244708	6.377705	2.5254118
3.5848044309934988	6.4051228	2.5308344
3.60233979973359	6.385873	2.5270286
3.619875252856575	6.315321	2.5130303
3.6374107907743034	6.261158	2.5022306
3.6549464138986427	6.2232623	2.4946468
3.6724821226414788	6.256451	2.5012898
3.690017917414714	6.258226	2.5016446
3.7075537986302702	6.258436	2.5016866
3.7250897667000857	6.335506	2.517043
3.7426258220361235	6.5682983	2.562869
3.7601619650503553	6.9222116	2.6310096
3.777698196154779	7.53289	2.744611
3.7952345157614067	8.643841	2.940041
3.8127709242822716	9.395355	3.0651844
3.830307422129425	11.567335	3.4010785
3.847844009714936	30.333624	5.507597
3.8653806874508954	97.7935	9.88906
3.882917455749409	97.22446	9.860247
3.900454315022606	97.16448	9.857204
3.917991265682631	41.812946	6.466293
3.9355283081416506	11.337824	3.3671684
3.9530654428118495	8.860951	2.976735
3.970602670105433	7.5511107	2.7479284
3.9881399904346244	6.588539	2.566815
4.005677404211669	6.5133634	2.5521293
4.023214911848827	6.424558	2.5346713
4.0407525137583855	6.3923817	2.528316
4.058290210352644	6.4149704	2.5327792
4.075828002043927	6.3808074	2.526026
4.0933658892445814	6.321275	2.5142148
4.110903872366966	6.216683	2.4933276
4.128441951823468	6.1843495	2.4868352
4.145980128026488	6.162712	2.482481
4.163518401388452	6.1767287	2.4853024
4.181056772321807	6.244971	2.4989939
4.1985952412390155	6.240618	2.498123
4.216133808552567	6.2150154	2.4929934
4.233672474674966	6.217604	2.4935124
4.251211240018741	6.4096413	2.5317268
4.268750104996445	6.5777254	2.5647078
4.286289070020643	7.5636334	2.750206
4.303828135503928	9.207442	3.0343769
4.3213673018589125	29.521933	5.4334087
4.3389065694982305	90.67184	9.522176
4.356445938834537	166.07872	12.887154
4.3739854102805085	171.62596	13.100609
4.391524984248844	172.57681	13.136849
4.409064661152262	136.55429	11.685645
4.426604441403504	96.78459	9.837916
4.444144325415337	75.98233	8.7167845
4.461684313600543	22.03318	4.6939516
4.47922440637193	22.686451	4.7630296
4.496764604142329	21.065668	4.589735
4.5143049073245916	19.083057	4.368416
4.531845316331589	16.75487	4.0932713
4.5493858315762195	13.601891	3.688074
4.566926453471405	11.307981	3.362734
4.584467182430081	9.347477	3.0573645
4.602008018865218	8.260461	2.8741016
4.619548963189798	7.543262	2.7465
4.637090015816834	6.946129	2.635551
4.654631177159353	6.6748714	2.5835772
4.672172447630417	6.3538303	2.5206804
4.689713827643102	6.251175	2.500235
4.7072553176105085	6.177956	2.4855494
4.724796917945764	6.0752606	2.4648044
4.742338629062015	5.973402	2.4440544
4.759880451372434	5.7890987	2.4060545
4.777422385290215	5.7007084	2.3876157
4.794964431228581	5.641647	2.375215
4.812506589600768	5.650312	2.3770385
4.830048860820047	5.6836076	2.3840318
4.847591245299709	5.6524982	2.3774984
4.8651337434530655	5.592821	2.3649147
4.882676355693457	5.5117702	2.3477159
4.900219082434242	5.53355	2.3523498
4.917761924088813	5.585352	2.363335
4.935304881070575	5.568587	2.3597853
4.952847953792969	5.5857058	2.3634098
4.970391142669449	5.517696	2.3489776
4.9879344481135055	5.5111923	2.3475928
5.005477870538642	5.5272155	2.3510032
5.023021410358394	5.641211	2.3751233
5.040565067986324	5.6951933	2.3864603
5.05810884383601	5.685879	2.3845081
5.075652738321066	5.594287	2.3652246
5.09319675185512	5.5335283	2.3523452
5.110740884851836	5.3549542	2.3140774
5.128285137724894	5.347064	2.312372
5.145829510888007	5.276878	2.2971456
5.163374004754908	5.3357134	2.3099163
5.1809186197393595	5.282052	2.2982714
5.198463356255145	5.340671	2.3109891
5.216008214716077	5.345779	2.312094
5.233553195535998	5.3809824	2.3196945
5.251098299128764	5.4249687	2.3291562
5.268643525908272	5.3964133	2.323018
5.286188876288432	5.409646	2.3258646
5.3037343506831895	5.4391217	2.3321924
5.32127994950651	5.4154167	2.3271048
5.3388256731723915	5.3912354	2.3219035
5.356371522094851	5.313293	2.3050582
5.373917496687938	5.280374	2.2979064
5.391463597365729	5.2806306	2.2979622
5.40900982454232	5.268857	2.2953992
5.426556178631843	5.212315	2.2830496
5.444102660048449	5.1790953	2.2757626
5.4616492692063225	5.17621	2.2751286
5.479196006519669	5.205858	2.281635
5.496742872402727	5.237548	2.288569
5.514289867269756	5.2273455	2.2863388
5.531836991535049	5.1688943	2.2735202
5.549384245612924	5.1266627	2.2642136
5.566931629917724	5.1387596	2.2668831
5.584479144863822	5.1842885	2.2769032
5.6020267908656205	5.1466093	2.268614
5.619574568337545	5.1171627	2.2621148
5.637122477694054	5.114214	2.2614627
5.654670519349629	5.0620046	2.2498899
5.672218693718784	5.1103506	2.2606084
5.689767001216059	5.0839477	2.2547612
5.707315442256021	5.062544	2.2500098
5.724864017253266	5.073439	2.2524295
5.7424127266224225	5.10074	2.2584817
5.75996157077814	5.186179	2.2773185
5.777510550135105	5.210481	2.2826478
5.795059665108022	5.2234097	2.2854779
5.812608916111639	5.2548556	2.2923472
5.830158303560715	5.305508	2.3033688
5.847707827870055	5.311862	2.3047478
5.86525748945448	5.4563746	2.3358884
5.8828072887288485	5.612049	2.3689764
5.900357226108044	5.7031794	2.388133
5.917907302006979	5.8008103	2.408487
5.9354575168406	6.456298	2.5409245
5.9530078710238765	7.050751	2.6553252
5.970558364971812	7.4268036	2.7252162
5.988108999099438	7.749648	2.783819
6.005659773821818	8.274476	2.876539
6.023210689554039	8.080323	2.842591
6.040761746711227	8.551287	2.9242582
6.058312945708531	7.843863	2.8006897
6.075864286961132	7.3602834	2.7129843
6.093415770884244	6.6493883	2.5786407
6.1109673978931065	6.0234723	2.4542763
6.128519168402993	5.47826	2.3405683
6.146071082829204	5.395332	2.3227854
6.163623141587075	5.351893	2.3134158
6.181175345091969	5.36626	2.316519
6.198727693759281	5.36467	2.3161757
6.216280188004435	5.321052	2.3067405
6.233832828242885	5.1746235	2.2747798
6.251385614890126	5.156852	2.2708702
6.268938548361669	5.165697	2.272817
6.286491629073067	5.171251	2.2740386
6.304044857439898	5.112543	2.2610934
6.321598233877777	5.021773	2.2409313
6.339151758802344	4.9855886	2.2328432
6.356705432629277	4.9615545	2.2274547
6.37425925577428	4.9501705	2.2248979
6.391813228653095	4.9678073	2.2288578
6.409367351681486	4.928047	2.2199206
6.426921625275259	4.947572	2.224314
6.44447604985025	4.9679604	2.228892
6.46203062582232	5.0552125	2.24838
6.47958535360737	5.1656938	2.2728162
6.497140233621328	5.1707163	2.273921
6.514695266280161	5.1161475	2.2618902
6.532250451999859	5.0580263	2.2490056
6.549805791196454	5.057621	2.2489154
6.567361284286002	5.063552	2.2502337
6.584916931684597	5.0852118	2.2550414
6.602472733808367	5.1043844	2.2592885
6.6200286910734665	5.1602764	2.271624
6.637584803896092	5.121258	2.2630196
6.655141072692462	5.14778	2.268872
6.672697497878842	5.0733566	2.2524114
6.690254079871514	5.056656	2.2487009
6.707810819086808	5.004066	2.2369769
6.725367715941078	4.96131	2.2273998
6.742924770850719	4.911466	2.2161827
6.760481984232151	4.9292192	2.2201846
6.778039356501836	4.8992324	2.2134209
6.795596888076266	4.9184484	2.2177575
6.813154579371963	4.934687	2.2214155
6.830712430805492	4.995695	2.2351053
6.84827044279344	5.014623	2.2393355
6.865828615752445	5.083496	2.254661
6.883386950099159	5.105634	2.259565
6.900945446250287	5.1039205	2.2591858
6.918504104622553	5.0696306	2.251584
6.936062925632727	5.1160297	2.2618642
6.953621909697607	5.096278	2.2574937
6.971181057234028	5.127094	2.2643087
6.988740368658859	5.1197166	2.262679
7.006299844389007	5.1781187	2.275548
7.023859484841407	5.202802	2.280965
7.041419290433036	5.2397175	2.289043
7.058979261580902	5.4302187	2.330283
7.0765393987020495	5.6840672	2.384128
7.094099702213559	6.086675	2.4671187
7.111660172532549	6.416468	2.5330749
7.129220810076164	6.8126225	2.6101
7.146781615261595	7.429578	2.7257252
7.16434258850606	7.6992497	2.7747521
7.181903730226821	8.115049	2.8486927
7.1994650408411704	8.173021	2.8588498
7.217026520766437	8.295336	2.8801625
7.234588170419983	8.457037	2.9080985
7.252149990219215	8.439008	2.904997
7.269711980581568	8.378119	2.894498
7.2872741419245175	8.265492	2.8749769
7.304836474665574	7.8938403	2.809598
7.322398979222286	7.54198	2.7462666
7.339961656012233	7.2068443	2.6845567
7.357524505453039	6.8080497	2.6092238
7.375087527962357	6.5538607	2.560051
7.392650723957886	6.32652	2.5152574
7.410214093857353	6.004709	2.4504507
7.427777638078528	5.8148494	2.4113998
7.445341357039213	5.630718	2.3729134
7.4629052511572525	5.4835963	2.341708
7.480469320850524	5.3734827	2.3180773
7.498033566536948	5.257978	2.293028
7.5155979886344735	5.2263956	2.2861311
7.5331625875610975	5.1576023	2.2710354
7.550727363734844	5.1209598	2.2629538
7.568292317573788	5.1037974	2.2591586
7.585857449496025	5.077904	2.2534206
7.603422759919705	5.076273	2.2530587
7.620988249263007	5.076808	2.2531774
7.638553917944147	5.2022963	2.2808542
7.656119766381391	5.2641435	2.294372
7.673685794993023	5.2717757	2.2960348
7.691252004197388	5.1858077	2.277237
7.70881839441285	5.160547	2.2716837
7.726384966057826	5.197762	2.27986
7.743951719550762	5.2123995	2.283068
7.761518655310149	5.2325797	2.2874832
7.779085773754511	5.2833533	2.2985547
7.796653075302419	5.348741	2.3127346
7.814220560372475	5.459729	2.3366063
7.831788229383323	5.4482493	2.3341484
7.8493560827536495	5.368747	2.3170557
7.866924120902174	5.2790117	2.29761
7.884492344247663	5.2832856	2.2985399
7.9020607532089135	5.3024106	2.3026965
7.919629348204771	5.3291574	2.3084967
7.937198129654115	5.356458	2.3144023
7.954767097975865	5.4180818	2.3276772
7.972336253588986	5.4862995	2.3422852
7.989905596912472	5.454272	2.3354383
8.007475128365371	5.414851	2.3269832
8.025044848366756	5.4675364	2.3382764
8.042614757335754	5.5891843	2.3641455
8.060184855691523	5.674785	2.3821807
8.07775514385327	5.835868	2.415754
8.095325622240228	5.895948	2.4281573
8.112896291271687	5.899926	2.4289763
8.130467151366968	5.9180813	2.4327106
8.148038202945436	5.915992	2.4322813
8.165609446426497	5.9531436	2.4399064
8.183180882229594	6.0337877	2.456377
8.200752510774217	5.9430757	2.4378424
8.218324332479893	5.9202013	2.4331465
8.235896347766193	5.940697	2.4373546
8.253468557052724	5.9728	2.443931
8.27104096075914	6.01795	2.453151
8.288613559305137	6.107999	2.4714365
8.306186353110448	6.216225	2.4932358
8.32375934259485	6.314241	2.5128152
8.341332528178162	6.3058734	2.51115
8.358905910280246	6.2935405	2.508693
8.376479489321003	6.3437657	2.5186834
8.394053265720377	6.373849	2.5246482
8.411627239898356	6.3452635	2.5189807
8.42920141227497	6.3099647	2.5119643
8.44677578327029	6.3021564	2.5104096
8.464350353304427	6.2808275	2.5061579
8.48192512279754	6.234993	2.4969969
8.499500092169827	6.1943955	2.4888542
8.51707526184153	6.1835437	2.486673
8.534650632232934	6.226701	2.4953358
8.552226203764365	6.2270923	2.4954143
8.569801976856192	6.300913	2.5101619
8.587377951928834	6.352477	2.520412
8.60495412940274	6.3892236	2.5276914
8.622530509698416	6.3433785	2.5186064
8.6401070932364	6.396644	2.5291588
8.657683880437283	6.5087004	2.5512154
8.675260871721695	6.597293	2.5685196
8.692838067510303	6.750846	2.598239
8.710415468223834	6.890437	2.6249642
8.727993074283043	7.0636144	2.657746
8.745570886108737	7.094887	2.6636229
8.763148904121765	7.243712	2.6914146
8.78072712874302	7.3188214	2.705332
8.798305560393441	7.5594306	2.7494419
8.815884199494006	7.696985	2.774344
8.833463046465745	7.8045316	2.7936592
8.851042101729728	7.9153514	2.8134234
8.86862136570707	8.16197	2.8569162
8.886200838818924	8.389918	2.8965356
8.903780521486505	8.476543	2.9114504
8.921360414131055	8.631337	2.9379137
8.938940517173874	8.785918	2.964105
8.956520831036297	8.900393	2.9833527
8.97410135613971	9.110413	3.018346
8.99168209290554	9.180946	3.0300076
9.009263041755265	9.438049	3.072141
9.026844203110405	9.700205	3.1145153
9.044425577392525	9.954443	3.1550663
9.062007165023239	10.109816	3.1795936
9.079588966424197	10.383882	3.222403
9.097170982017108	10.439103	3.2309601
9.11475321222372	11.506513	3.3921251
9.132335657465825	12.340134	3.5128527
9.149918318165264	12.4775095	3.5323517
9.167501194743924	13.146339	3.6257882
9.18508428762374	12.835426	3.5826564
9.202667597226693	12.736169	3.5687768
9.220251123974803	12.301323	3.5073242
9.237834868290143	12.045214	3.4706216
9.255418830594836	11.994136	3.4632552
9.273003011311046	11.449781	3.3837526
9.290587410860985	11.107488	3.3327897
9.308172029666911	10.385431	3.2226436
9.32575686815113	10.123704	3.1817768
9.343341926735997	8.90011	2.9833052
9.360927205843916	8.623151	2.93652
9.378512705897327	8.447227	2.9064112
9.396098427318728	8.257066	2.873511
9.413684370530664	8.14262	2.8535275
9.431270535955722	7.969778	2.8230796
9.448856924016539	7.8664756	2.8047237
9.466443535135806	7.830266	2.7982612
9.484030369736251	7.8409185	2.800164
9.501617428240658	7.7897124	2.7910056
9.519204711071852	7.798309	2.7925453
9.536792218652714	7.816159	2.7957394
9.55437995140617	7.8049655	2.793737
9.571967909755191	7.805967	2.793916
9.589556094122802	7.783961	2.7899752
9.60714450493207	7.7876306	2.7906327
9.624733142606116	7.873666	2.8060052
9.642322007568108	8.006789	2.829627
9.659911100241267	8.069837	2.8407457
9.677500421048851	8.120662	2.8496776
9.695089970414175	8.102516	2.8464918
9.712679748760609	8.1053295	2.846986
9.730269756511557	8.07963	2.842469
9.747859994090492	8.115705	2.8488076
9.765450461920915	8.115062	2.8486948
9.78304116042639	8.165001	2.8574467
9.800632090030527	8.251136	2.872479
9.81822325115699	8.328433	2.8859024
9.835814644229481	8.405542	2.8992314
9.853406269671762	8.398275	2.8979778
9.870998127907646	8.40705	2.8994913
9.888590219360985	8.38846	2.8962839
9.906182544455698	8.365638	2.8923411
9.923775103615734	8.356404	2.8907447
9.941367897265108	8.325953	2.8854728
9.958960925827878	8.296238	2.880319
9.97655418972816	8.318812	2.8842351
9.994147689390106	8.414029	2.9006946
10.011741425237934	8.459579	2.9085357
10.029335397695904	8.489328	2.9136453
10.04692960718833	8.433018	2.903966
10.06452405413958	8.362489	2.8917968
10.082118738974064	8.374703	2.893908
10.099713662116246	8.395514	2.8975012
10.117308823990651	8.392208	2.8969307
10.134904225021844	8.348715	2.8894143
10.152499865634445	8.278883	2.8773048
10.170095746253125	8.217222	2.8665698
10.18769186730261	8.182656	2.8605342
10.205288229207675	8.177595	2.8596494
10.222884832393145	8.194673	2.862634
10.2404816772839	8.161445	2.8568242
10.258078764304868	8.139965	2.8530624
10.275676093881035	8.118855	2.8493605
10.293273666437438	8.17277	2.8588057
10.310871482399158	8.255845	2.8732986
10.32846954219134	8.262914	2.8745284
10.346067846239173	8.231784	2.8691084
10.363666394967908	8.179308	2.8599489
10.38126518880283	8.095594	2.8452759
10.398864228169298	8.200575	2.8636646
10.416463513492713	8.2459135	2.8715699
10.434063045198531	8.223111	2.8675969
10.451662823712262	8.199274	2.8634374
10.469262849459467	8.176414	2.859443
10.486863122865758	8.139676	2.8530118
10.504463644356806	8.122849	2.8500614
10.522064414358338	8.131262	2.8515368
10.539665433296118	8.130531	2.8514087
10.557266701595987	8.005396	2.8293808
10.574868219683818	7.8420424	2.8003647
10.592469987985552	7.722848	2.7790012
10.610072006927185	7.6459293	2.7651274
10.627674276934751	7.6077123	2.7582083
10.64527679843435	7.4590316	2.7311227
10.662879571852143	7.3672	2.7142587
10.680482597614331	7.2492347	2.6924403
10.698085876147173	7.110752	2.6665993
10.715689407876988	7.0061746	2.6469178
10.733293193230146	6.897513	2.6263115
10.750897232633072	6.814416	2.6104436
10.76850152651225	6.754833	2.5990062
10.786106075294207	6.6151814	2.5719995
10.803710879405534	6.571383	2.5634708
10.821315939272877	6.4479566	2.5392828
10.83892125532294	6.3935137	2.52854
10.856526827982472	6.2581987	2.5016391
10.874132657678285	6.266795	2.5033567
10.891738744837243	6.3040805	2.5107927
10.909345089886271	6.294672	2.5089185
10.926951693252343	6.1894984	2.4878702
10.944558555362494	6.0384226	2.4573202
10.96216567664381	5.9336596	2.4359105
10.979773057523436	5.8727517	2.423376
10.997380698428573	5.8208227	2.4126382
11.014988599786477	5.745778	2.3970354
11.032596762024461	5.707992	2.3891404
11.050205185569892	5.665879	2.3803105
11.067813870850198	5.6328635	2.3733654
11.085422818292859	5.5152235	2.3484514
11.10303202832541	5.4887433	2.3428068
11.120641501375454	5.4242253	2.3289967
11.138251237870636	5.4051247	2.3248923
11.155861238238671	5.3376927	2.3103447
11.173471502907317	5.2741385	2.2965493
11.191082032304402	5.185695	2.2772121
11.208692826857805	5.117321	2.2621496
11.226303886995465	5.058174	2.2490385
11.243915213145371	5.04473	2.2460477
11.261526805735578	4.9953313	2.2350237
11.279138665194196	4.92967	2.220286
11.296750791949393	4.879832	2.2090342
11.314363186429393	4.82662	2.196957
11.331975849062479	4.794422	2.189617
11.34958878027699	4.7374763	2.1765745
11.36720198050133	4.7132616	2.1710048
11.384815450163948	4.6501822	2.156428
11.402429189693366	4.584478	2.1411395
11.420043199518153	4.4552975	2.1107576
11.437657480066942	63.417377	7.963503
11.455272031768422	85.14874	9.227608
11.472886855051353	107.574165	10.371797
11.490501950344528	99.134346	9.956623
11.508117318076819	84.45242	9.1898
11.52573295867715	45.88165	6.7735996
11.543348872574514	4.190344	2.0470328
11.560965060197946	4.1516037	2.0375485
11.57858152197655	4.1244383	2.0308714
11.59619825833949	4.1374655	2.034076
11.613815269715985	4.093818	2.0233185
11.631432556535323	38.581493	6.2114005
11.649050119226837	83.11715	9.11686
11.666667958219929	93.54514	9.671874
11.68428607394406	107.78271	10.381845
11.701904466828756	82.54369	9.085356
11.719523137303586	65.367294	8.085004
11.737142085798196	4.607232	2.1464465
11.754761312742286	3.7265766	1.9304343
11.772380818565619	3.6893823	1.9207765
11.790000603698015	3.6281636	1.904774
11.80762066856935	3.582083	1.8926392
11.825241013609572	3.5642207	1.8879144
11.842861639248683	3.547119	1.8833797
11.860482545916748	3.570953	1.8896965
11.878103734043883	3.5231636	1.8770092
11.895725204060282	3.48003	1.8654839
11.91334695639619	3.4578776	1.8595369
11.930968991481919	3.4478478	1.8568381
11.948591309747824	3.4365258	1.853787
11.966213911624347	3.3740256	1.8368521
11.98383679754198	3.3060482	1.8182541
12.001459967931268	3.321763	1.8225704
12.019083423222835	3.3361478	1.8265125
12.036707163847352	3.359497	1.8328931
12.05433119023556	3.3490171	1.830032
12.071955502818259	3.3209357	1.8223435
12.089580102026313	3.267781	1.8077005
12.107204988290643	3.2449818	1.8013833
12.12483016204224	3.2410364	1.8002878
12.142455623712152	3.2366087	1.7990577
12.16008137373149	3.2107644	1.7918606
12.177707412531431	3.1362681	1.7709512
12.19533374054321	3.08817	1.757319
12.212960358198126	3.0953019	1.759347
12.230587265927545	3.153859	1.7759107
12.248214464162889	3.155027	1.7762395
12.265841953335649	3.0964403	1.7596705
12.283469733877375	3.0222363	1.738458
12.301097806219685	2.957559	1.7197555
12.31872617079425	2.904074	1.7041343
12.336354828032825	2.9047272	1.704326
12.353983778367205	2.9327514	1.7125278
12.371613022229262	2.9583554	1.719987
12.389242560050928	2.981522	1.7267084
12.406872392264201	2.998974	1.7317547
12.424502519301143	2.9665215	1.7223593
12.442132941593874	2.9245758	1.7101392
12.459763659574586	2.8263035	1.6811614
12.477394673675532	2.79627	1.6722051
12.49502598432903	2.7881339	1.6697706
12.51265759196746	2.7631295	1.6622664
12.530289497023267	2.7958345	1.6720749
12.547921699928967	2.808837	1.6759585
12.565554201117134	2.8107963	1.676543
12.583187001020404	2.7910182	1.670634
12.600820100071486	2.7771752	1.6664859
12.618453498703152	2.798992	1.6730188
12.636087197348235	2.787177	1.669484
12.65372119643964	2.8008304	1.6735681
12.671355496410326	2.7883966	1.6698493
12.68899009769333	2.812986	1.6771958
12.706625000721749	2.8342464	1.683522
12.724260205928752	2.9183798	1.7083266
12.741895713747551	2.9526174	1.7183182
12.759531524611454	3.016218	1.7367262
12.777167638953818	2.9972906	1.7312685
12.794804057208072	3.0302489	1.740761
12.812440779807702	3.0778072	1.7543681
12.830077807186271	3.2193806	1.7942632
12.847715139777405	3.2484941	1.8023579
12.865352778014795	3.4768217	1.8646238
12.882990722332197	3.6178794	1.9020724
12.90062897316344	3.7051558	1.9248781
12.918267530942412	3.748103	1.9360018
12.935906396103071	3.5827866	1.892825
12.953545569079449	3.7481043	1.9360021
12.971185050305628	3.5982325	1.8969008
12.988824840215775	3.6104422	1.9001163
13.006464939244115	3.610643	1.9001691
13.024105347824943	3.4662583	1.861789
13.041746066392617	3.5726678	1.8901502
13.05938709538157	3.3773217	1.8377491
13.077028435226296	3.3787165	1.8381286
13.094670086361363	3.2590241	1.8052768
13.112312049221401	3.1620126	1.7782049
13.129954324241112	3.081958	1.7555506
13.147596911855258	2.9260316	1.7105647
13.165239812498685	2.9175682	1.708089
13.182883026606293	2.8843384	1.698334
13.200526554613058	2.8196037	1.6791675
13.218170396954017	2.780041	1.6673455
13.235814554064284	2.7065163	1.6451494
13.253459026379034	2.6919124	1.6407049
13.271103814333523	2.6913717	1.64054
13.288748918363058	2.6908588	1.6403837
13.306394338903031	2.6721935	1.6346846
13.32404007638889	2.6225057	1.6194152
13.341686131256164	2.6510584	1.6282071
13.359332503940449	2.6599112	1.6309234
13.376979194877402	2.7059128	1.6449659
13.394626204502751	2.7571826	1.6604766
13.412273533252307	2.796005	1.6721259
13.429921181561937	2.798409	1.6728445
13.447569149867581	2.8213856	1.6796981
13.465217438605247	2.7903864	1.670445
13.482866048211022	2.7675693	1.6636013
13.500514979121052	2.7333763	1.6532925
13.518164231771568	2.7141538	1.6474689
13.535813806598844	2.6962967	1.6420404
13.553463704039254	2.690253	1.6401991
13.571113924529229	2.6720085	1.6346279
13.588764468505275	2.7106993	1.6464201
13.606415336403956	2.7437193	1.6564176
13.624066528661917	2.7515366	1.6587757
13.641718045715882	2.7785196	1.6668892
13.659369888002635	2.8116107	1.6767858
13.67702205595903	2.8821871	1.6977005
13.694674550021993	2.9857981	1.7279462
13.712327370628532	3.06507	1.7507341
13.729980518215713	3.1608324	1.777873
13.747633993220681	3.2487311	1.8024237
13.765287796080647	3.257605	1.8048837
13.7829419272329	3.2861085	1.8127626
13.800596387114801	3.3164678	1.8211172
13.818251176163775	3.354126	1.8314273
13.835906294817324	3.429349	1.8518502
13.853561743513023	3.4393003	1.8545351
13.871217522688525	3.4553785	1.8588649
13.888873632781538	3.4808385	1.8657006
13.906530074229858	3.5135188	1.8744383
13.92418684747135	3.5104656	1.8736236
13.941843952943948	3.5203142	1.87625
13.959501391085665	3.519824	1.8761194
13.977159162334578	3.448844	1.8571063
13.994817267128846	3.4098525	1.8465786
14.012475705906693	3.29775	1.8159708
14.030134479106424	3.2372844	1.7992455
14.047793587166414	3.160597	1.7778069
14.065453030525108	3.0758076	1.753798
14.083112809621026	3.0418987	1.744104
14.100772924892766	2.9940019	1.7303184
14.118433376778997	2.96003	1.7204738
14.136094165718458	2.8753016	1.6956714
14.153755292149969	2.8114326	1.6767327
14.171416756512416	2.7315686	1.6527457
14.189078559244768	2.6640525	1.6321925
14.20674070078606	2.5657063	1.6017822
14.224403181575408	2.5091777	1.5840384
14.242066002051999	2.5012064	1.5815203
14.259729162655093	2.4982336	1.5805801
14.277392663824022	2.5008533	1.5814086
14.295056505998208	2.5009449	1.5814376
14.312720689617128	2.4526658	1.5660989
14.330385215120348	2.4365377	1.5609413
14.348050082947497	2.410431	1.5525563
14.3657152935383	2.4533331	1.566312
14.383380847332528	2.4375334	1.5612602
14.401046744770051	2.4515114	1.5657303
14.418712986290798	2.4184651	1.5551416
14.436379572334793	2.4362013	1.5608336
14.454046503342123	2.4295657	1.5587064
14.471713779752946	2.4472344	1.5643638
14.489381402007504	2.403758	1.5504057
14.507049370546113	2.3892012	1.5457041
14.524717685809168	2.3891428	1.5456852
14.542386348237134	2.4498763	1.5652081
14.560055358270553	2.510642	1.5845006
14.577724716350051	2.5348353	1.5921166
14.595394422916325	2.4899914	1.5779706
14.61306447841015	2.4538295	1.5664704
14.63073488327237	2.429431	1.5586632
14.648405637943917	2.4652357	1.5701069
14.6660767428658	2.5018153	1.5817127
14.683748198479094	2.5205154	1.5876131
14.701420005224954	2.59382	1.6105341
14.719092163544628	2.6705234	1.6341736
14.73676467387942	2.6732879	1.6350192
14.754437536670727	2.651395	1.6283104
14.772110752360014	2.684082	1.6383169
14.78978432138882	2.7099125	1.6461812
14.807458244198777	2.7337418	1.653403
14.82513252123159	2.6811419	1.6374192
14.842807152929028	2.6814806	1.6375227
14.860482139732962	2.6249547	1.6201712
14.87815748208531	2.645897	1.6266214
14.8958331804281	2.6508317	1.6281375
14.91350923520342	2.6680987	1.6334316
14.931185646853438	2.6856701	1.6388015
14.948862415820408	2.694147	1.6413857
14.966539542546656	2.7387223	1.6549085
14.98421702747459	2.7294593	1.6521075
15.001894871046696	2.7180796	1.64866
15.019573073705542	2.7065127	1.6451483
15.037251635893766	2.6670256	1.633103
15.054930558054092	2.6789486	1.6367494
15.072609840629323	2.712774	1.6470501
15.090289484062351	2.858285	1.6906463
15.107969488796124	3.1480265	1.7742679
15.125649855273691	3.5505786	1.8842978
15.14333058393817	4.048995	2.0122116
15.161011675232768	5.0187435	2.240255
15.17869312960076	6.375147	2.5249052
15.196374947485506	8.259659	2.8739622
15.214057129330447	11.448213	3.3835208
15.231739675579114	16.310081	4.038574
15.249422586675102	21.349281	4.620528
15.267105863062092	24.459494	4.945654
15.284789505183847	24.750679	4.9750056
15.302473513484218	22.830881	4.7781672
15.320157888407127	19.12534	4.373253
15.337842630396578	14.792339	3.846081
15.355527739896656	11.4947815	3.3903954
15.37321321735153	9.0419655	3.0069861
15.39089906320545	6.6723013	2.5830798
15.408585277902748	4.974723	2.2304087
15.42627186188783	3.77225	1.9422281
15.443958815605198	3.169738	1.7803758
15.461646139499424	2.8804526	1.6971896
15.479333834015168	2.7341702	1.6535326
15.497021899597165	2.7321072	1.6529087
15.514710336690234	2.6864424	1.639037
15.53239914573928	2.6499047	1.6278528
15.550088327189297	2.5837793	1.6074139
15.567777881485336	2.5429413	1.5946603
15.58546780907256	2.5061285	1.5830756
15.6031581103962	2.4949486	1.5795406
15.620848785901568	2.4786427	1.5743706
15.638539836034063	2.4630013	1.5693952
15.656231261239173	2.4585114	1.5679641
15.673923061962451	2.4231372	1.5566429
15.691615238649552	2.3982594	1.5486314
15.709307791746202	2.4069624	1.5514388
15.727000721698221	2.4228296	1.5565442
15.744694028951498	2.4120977	1.553093
15.76238771395202	2.3767922	1.5416849
15.780081777145844	2.3809006	1.5430167
15.797776218979125	2.4025831	1.5500268
15.815471039898094	2.4016268	1.5497183
15.833166240349064	2.3886194	1.5455159
15.850861820778437	2.4046314	1.5506874
15.868557781632699	2.4131908	1.5534449
15.886254123358412	2.4224732	1.5564296
15.903950846402232	2.4115403	1.5529134
15.921647951210897	2.427429	1.5580208
15.939345438231225	2.4295578	1.5587039
15.957043307910133	2.3589108	1.5358746
15.974741560694602	2.3426058	1.5305574
15.992440197031714	2.377337	1.5418615
16.01013921736862	2.4177725	1.5549188
16.02783862215259	2.400462	1.5493424
16.045538411830933	2.3852026	1.5444101
16.06323858685107	2.3579996	1.5355779
16.080939147660512	2.3566113	1.5351259
16.09864009470684	2.3638628	1.5374858
16.11634142843774	2.3659236	1.5381559
16.134043149300954	2.3926215	1.5468102
16.15174525774433	2.4173434	1.5547808
16.169447754215817	2.4232354	1.5566745
16.18715063916342	2.4099712	1.5524082
16.204853913035244	2.444726	1.5635619
16.222557576279478	2.4623325	1.5691822
16.240261629344403	22.434368	4.736493
16.257966072678386	42.96735	6.5549483
16.275670906729868	38.06593	6.1697593
16.293376131947387	2.5053048	1.5828155
16.31108174877957	2.51426	1.5856419
16.328787757675133	2.543649	1.5948821
16.34649415908287	2.5627334	1.6008539
16.364200953451657	2.6311302	1.6220759
16.38190814123048	2.6643593	1.6322865
16.39961572286839	2.7246203	1.6506424
16.41732369881455	2.758127	1.660761
16.43503206951817	2.7980711	1.6727436
16.45274083542859	2.8174944	1.6785394
16.47044999699522	2.8576274	1.6904519
16.488159554667558	2.871377	1.6945138
16.505869508895184	2.8790395	1.6967733
16.523579860127786	2.9090352	1.7055894
16.541290608815117	2.934634	1.7130773
16.559001755407035	3.0114365	1.735349
16.57671330035348	3.0906498	1.7580245
16.59442524410448	3.181796	1.783759
16.61213758711015	3.250133	1.8028126
16.629850329820705	3.3300104	1.8248316
16.647563472686436	3.4053771	1.8453664
16.665277016157724	3.4362373	1.8537091
16.682990960685053	3.424373	1.8505061
16.70070530671898	3.4240017	1.8504058
16.718420054710155	3.4723737	1.8634306
16.736135205109335	3.5026436	1.8715351
16.753850758367335	3.5583918	1.8863701
16.771566714935087	3.6140769	1.9010725
16.789283075263597	3.7006516	1.9237078
16.80699983980398	3.7492082	1.9362872
16.82471700900741	3.8395424	1.959475
16.84243458332518	3.8875751	1.9716935
16.860152563208665	3.9805284	1.9951261
16.87787094910932	4.081018	2.020153
16.89558974147871	4.195748	2.0483525
16.913308940768466	4.3010654	2.073901
16.931028547430333	4.3945947	2.096329
16.94874856191613	4.392174	2.0957513
16.966468984677785	4.4246287	2.10348
16.98418981616729	4.47465	2.115337
17.00191105683676	4.498666	2.1210058
17.019632707138374	4.511726	2.1240823
17.03735476752442	4.541299	2.1310322
17.05507723844728	4.591212	2.1427114
17.072800120359403	4.610179	2.1471326
17.090523413713353	4.6664734	2.1602023
17.108247118961785	4.6031194	2.1454883
17.125971236557437	4.5739474	2.1386788
17.143695766953133	4.584937	2.1412466
17.161420710601806	4.6067443	2.1463327
17.179146067956477	4.6792355	2.1631541
17.19687183947025	4.7180166	2.1720996
17.21459802559634	4.7587104	2.1814468
17.232324626788028	4.7285624	2.1745257
17.25005164349871	4.7145777	2.1713078
17.267779076181863	4.6895876	2.1655455
17.285506925291074	4.694003	2.1665647
17.30323519127999	4.6518598	2.156817
17.320963874602384	4.6091847	2.1469011
17.33869297571211	4.591148	2.1426964
17.356422495063114	4.6015077	2.1451125
17.37415243310944	4.545817	2.1320922
17.391882790305218	4.508886	2.1234138
17.40961356710468	4.528494	2.1280258
17.42734476396215	4.5428033	2.1313853
17.445076381332044	4.5769553	2.139382
17.462808419668868	4.6203737	2.1495054
17.48054087942723	4.8020043	2.1913476
17.498273761061835	5.0532923	2.247953
17.51600706502747	5.5387216	2.3534489
17.533740791779024	6.1635494	2.4826496
17.551474941771485	7.5583487	2.7492452
17.56920951545993	8.684204	2.9468973
17.586944513299528	10.904032	3.3021255
17.60467993574556	12.65128	3.5568638
17.622415783253373	14.542992	3.8135273
17.64015205627843	16.110403	4.013777
17.657888755276293	17.207561	4.1481996
17.675625880702604	17.701859	4.207358
17.69336343301311	17.461323	4.1786747
17.71110141266366	16.482426	4.0598555
17.728839820110178	15.449784	3.9306214
17.746578655808705	14.535839	3.8125896
17.764317920215372	13.137409	3.6245563
17.7820576137864	11.625441	3.40961
17.79979773697811	9.573269	3.09407
17.81753829024692	7.67766	2.770859
17.835279274049356	5.9638734	2.4421043
17.85302068884201	4.867723	2.2062917
17.870762535081607	4.2124763	2.0524318
17.888504813224934	3.9225173	1.9805346
17.90624752372891	3.7843108	1.9453305
17.923990667050536	3.6910663	1.9212148
17.941734243646895	3.5839446	1.8931309
17.959478253975185	3.5376332	1.8808597
17.9772226984927	3.460624	1.8602753
17.994967577656833	3.4413567	1.8550894
18.01271289192506	3.357586	1.8323717
18.030458641754965	3.3673124	1.8350239
18.04820482760425	3.3836632	1.8394736
18.06595144993067	3.3936048	1.8421739
18.083698509192125	3.357506	1.8323499
18.101446005846576	3.2779374	1.8105075
18.119193940352105	3.2304082	1.7973336
18.136942313166887	3.184135	1.7844144
18.1546911247492	3.132711	1.7699466
18.1724403755574	3.1487694	1.7744772
18.19019006604997	3.1642978	1.7788473
18.207940196685467	3.1751456	1.7818938
18.225690767922575	3.153334	1.7757629
18.243441780220046	3.1229193	1.7671783
18.261193234036764	3.0911624	1.7581702
18.278945129831676	3.1025019	1.761392
18.29669746806386	3.1035638	1.7616935
18.314450249192483	3.0982478	1.760184
18.3322034736768	3.0741699	1.7533311
18.349957141976184	3.0621681	1.7499052
18.3677112545501	3.0615551	1.74973
18.385465811858108	3.1117828	1.7640246
18.403220814359884	3.14199	1.772566
18.420976262515172	3.138173	1.7714889
18.43873215678387	3.127744	1.7685429
18.456488497625923	3.1869173	1.7851939
18.474245285501407	3.2939003	1.8149105
18.492002520870486	3.353916	1.83137
18.50976020419343	3.4262888	1.8510237
18.527518335930615	3.688698	1.9205984
18.545276916542516	4.273089	2.067145
18.563035946489688	4.4495354	2.1093922
18.580795426232832	4.87422	2.2077634
18.598555356232698	4.720541	2.1726806
18.616315736950185	5.0457187	2.2462678
18.63407656884626	4.735623	2.1761487
18.65183785238201	4.934617	2.2213998
18.669599588018617	4.6123013	2.1476269
18.68736177621737	4.5562067	2.1345272
18.705124417439652	4.5458946	2.1321104
18.72288751214696	4.4119883	2.1004734
18.740651060800886	4.5667467	2.1369948
18.758415063863115	4.2965217	2.0728052
18.77617952179546	4.4655623	2.1131878
18.793944435059814	4.215706	2.0532184
18.811709804118184	4.2324605	2.0572944
18.829475629432675	4.1658487	2.0410411
18.8472419114655	3.9299412	1.9824079
18.86500865067897	4.006998	2.0017488
18.88277584753551	3.6839669	1.9193662
18.90054350249763	3.7322044	1.9318914
18.918311616027957	3.4688575	1.862487
18.936080188589226	3.4172928	1.8485922
18.953849220644265	3.0874043	1.757101
18.971618712656007	2.8659966	1.6929255
18.9893886650875	2.7982457	1.6727958
19.007159078401887	8.010475	2.8302784
19.024929953062408	32.912712	5.7369604
19.042701289532435	32.848747	5.731383
19.060473088275405	25.362246	5.036094
19.07824534975489	2.6388907	1.6244663
19.096018074434568	2.616379	1.6175225
19.113791262778197	2.6210582	1.6189682
19.13156491524966	2.6125722	1.6163453
19.149339032312945	2.6219332	1.6192385
19.167113614432136	2.5899668	1.6093373
19.184888662071433	2.5618837	1.6005886
19.202664175695123	2.5386212	1.5933051
19.220440155767623	2.5173917	1.586629
19.238216602753447	2.498971	1.5808134
19.2559935171172	2.520233	1.5875242
19.27377089932361	2.5118701	1.5848881
19.291548749837514	2.5288692	1.5902419
19.309327069123835	2.4985747	1.580688
19.32710585764763	2.5442982	1.5950856
19.344885115874032	2.548167	1.5962979
19.362664844268313	2.583098	1.6072019
19.380445043295822	2.5502644	1.5969547
19.39822571342203	2.512064	1.5849493
19.41600685511252	2.498746	1.5807422
19.43378846883297	2.5240498	1.5887258
19.451570555049173	2.550585	1.5970551
19.469353114227037	2.5285947	1.5901556
19.48713614683254	2.516124	1.5862294
19.50491965333182	2.4976919	1.5804088
19.52270363419109	2.4797242	1.574714
19.540488089876686	2.4348743	1.5604084
19.55827302085503	2.43094	1.5591471
19.576058427592674	2.4859045	1.5766752
19.593844310556282	2.5103636	1.5844127
19.611630670212598	2.5259414	1.589321
19.629417507028506	2.4760501	1.573547
19.64720482147098	2.4612684	1.568843
19.6649926140071	2.4847965	1.5763237
19.682780885104084	2.5003886	1.5812618
19.70056963522921	2.5088973	1.5839499
19.718358864849908	2.5425594	1.5945405
19.7361485744337	2.55466	1.5983304
19.753938764448215	2.5449448	1.5952883
19.771729435361202	2.506242	1.5831115
19.789520587640506	2.4954472	1.5796984
19.807312221754092	2.5149393	1.585856
19.825104338170043	2.5524228	1.5976304
19.842896937356517	2.5811157	1.6065851
19.860690019781824	2.5625472	1.6007957
19.87848358591436	2.556484	1.5989009
19.896277636222635	2.5737374	1.6042871
19.914072171175278	2.5682206	1.6025668
19.931867191241015	2.5517786	1.5974287
19.94966269688869	2.5271897	1.5897137
19.967458688587264	2.4896276	1.5778553
19.985255166805807	2.4414952	1.5625285
20.00305213201348	2.4494824	1.5650822
20.020849584679578	2.4448202	1.5635921
20.038647525273507	2.4877741	1.5772679
20.05644595426477	2.4908872	1.5782545
20.07424487212299	2.5040479	1.5824183
20.092044279317903	2.4763224	1.5736336
20.109844176319353	2.4842482	1.5761498
20.127644563597304	2.4766715	1.5737444
20.145445441621817	2.475465	1.573361
20.16324681086307	2.432158	1.5595378
20.181048671791373	2.4247475	1.55716
20.198851024877122	2.4208813	1.5559181
20.216653870590836	2.4250512	1.5572577
20.234457209403146	2.3885763	1.545502
20.252261041784802	2.367945	1.5388129
20.270065368206662	2.4002984	1.5492896
20.287870189139685	2.424667	1.5571342
20.305675505054968	2.4018545	1.5497918
20.323481316423702	2.3710136	1.5398096
20.341287623717207	2.3415086	1.5301989
20.359094427406884	2.3241017	1.5245005
20.376901727964288	2.3328927	1.527381
20.39470952586107	2.368478	1.5389861
20.41251782156899	2.3804772	1.5428795
20.430326615559935	2.3653069	1.5379554
20.448135908305886	2.3344574	1.5278931
20.465945700278965	2.3469195	1.5319659
20.483755991951384	2.3618002	1.5368149
20.50156678379548	2.375897	1.5413945
20.519378076283708	2.3619928	1.5368776
20.537189869888635	2.3446784	1.5312343
20.55500216508294	2.3397946	1.5296388
20.572814962339415	2.3328972	1.5273825
20.59062826213098	2.3291333	1.5261499
20.60844206493066	2.281987	1.5106246
20.626256371211593	2.2687874	1.5062494
20.644071181447032	2.304679	1.518117
20.66188649611036	2.3846214	1.5442219
20.67970231567506	2.3923726	1.5467297
20.697518640614742	2.3480642	1.5323395
20.715335471403122	2.3112605	1.520283
20.73315280851404	2.3109095	1.5201676
20.750970652421447	2.3389406	1.5293596
20.768789003599412	2.3768713	1.5417105
20.786607862522136	2.3548393	1.5345485
20.8044272296639	2.3140702	1.5212069
20.82224710549913	2.3068326	1.518826
20.84006749050237	2.312848	1.5208051
20.857888385148268	3.870665	1.9674006
20.8757097899116	45.974598	6.780457
20.893531705267254	64.80585	8.050208
20.911354131690224	83.798096	9.15413
20.92917706965566	69.03805	8.308914
20.94700051963877	50.10583	7.0785475
20.96482448211493	29.367184	5.41915
20.982648957559622	4.0984077	2.0244524
21.00047394644843	2.2117445	1.4871935
21.01829944925707	2.2340453	1.4946723
21.036125466461375	2.258243	1.5027452
21.053951998537297	2.2596369	1.5032089
21.071779045960906	2.243668	1.4978878
21.089606609208378	2.2425933	1.497529
21.10743468875603	2.231994	1.4939859
21.12526328508028	2.2343597	1.4947774
21.143092398657675	2.2240865	1.4913372
21.16092202996488	2.2073083	1.4857013
21.17875217947867	2.2180357	1.4893072
21.19658284767596	2.2296958	1.4932166
21.21441403503377	2.211812	1.4872162
21.232245742029225	2.2363558	1.495445
21.2500779691396	2.2271492	1.4923637
21.26791071684227	2.2038202	1.484527
21.28574398561475	2.1759186	1.4750996
21.30357777593465	2.1853955	1.4783083
21.321412088279704	2.1948724	1.4815102
21.339246923127792	2.1720183	1.4737769
21.357082280956888	2.1913366	1.4803164
21.3749181622451	2.2073987	1.4857317
21.392754567470647	2.1987748	1.4828266
21.41059149711187	2.1668317	1.4720162
21.42842895164726	2.132715	1.4603817
21.446266931555378	2.1184547	1.4554912
21.464105437314945	2.1276302	1.4586399
21.481944469404798	2.1451042	1.4646174
21.49978402830388	2.1443484	1.4643594
21.51762411449127	2.1217372	1.4566184
21.53546472844617	2.1449735	1.4645728
21.553305870647876	2.145209	1.4646533
21.571147541575865	2.1448905	1.4645445
21.58898974170967	2.1247492	1.457652
21.60683247152899	2.1002576	1.4492266
21.62467573151363	2.0696046	1.4386121
21.642519522143523	2.0650516	1.4370288
21.660363843898722	2.0982707	1.4485409
21.6782086972594	2.1067648	1.4514699
21.696054082705864	2.0873082	1.444752
21.713900000718535	2.050355	1.4319061
21.73174645177795	2.06915	1.438454
21.749593436364794	2.0688794	1.43836
21.767440954959845	2.0855393	1.4441396
21.785289008044032	2.031302	1.4252375
21.803137596098388	2.0187821	1.4208385
21.820986719604086	2.0040648	1.41565
21.838836379042412	2.0209413	1.4215981
21.85668657489478	2.047346	1.430855
21.87453730764273	2.0529652	1.4328172
21.892388577767914	2.0162973	1.4199638
21.91024038575213	1.9853952	1.4090406
21.928092732077285	2.009554	1.4175874
21.945945617225426	2.0424018	1.4291263
21.963799041678694	2.0364137	1.4270296
21.981653005919398	31.368244	5.600736
21.999507510429943	78.15733	8.840664
22.01736255569286	73.07748	8.548536
22.035218142190818	4.154845	2.0383437
22.05307427040661	2.000586	1.4144207
22.07093094082315	2.0222306	1.4220515
22.088788153923474	2.040909	1.4286039
22.106645910190746	2.0217044	1.4218665
22.12450421010827	1.9842713	1.4086417
22.142363054159464	1.973572	1.4048388
22.16022244282787	1.9780973	1.4064485
22.178082376597164	2.0385528	1.427779
22.195942855951145	2.0337005	1.4260787
22.213803881373742	2.0009372	1.4145449
22.231665453349002	1.974564	1.4051918
22.24952757236111	2.0071619	1.4167434
22.26739023889438	2.0148482	1.4194535
22.28525345343323	2.014803	1.4194375
22.30311721646225	1.9707444	1.4038321
22.320981528466113	1.9566243	1.3987938
22.33884638992964	1.9505943	1.3966367
22.356711801337788	1.9751204	1.4053898
22.37457776317561	1.9822454	1.4079224
22.392444275928337	1.9507374	1.396688
22.410311340081282	1.9477384	1.395614
22.428178956119904	1.964337	1.401548
22.446047124529805	1.9970345	1.4131647
22.46391584579669	1.9640354	1.4014405
22.481785120406414	1.8909184	1.3751067
22.49965494884496	1.9009806	1.3787606
22.51752533159841	1.9146314	1.383702
22.53539626915302	1.9513	1.3968894
22.553267761995137	1.9453317	1.3947514
22.571139810611264	1.9729314	1.4046108
22.589012415488025	1.9622008	1.4007858
22.60688557711216	1.9492362	1.3961505
22.624759295970566	1.9331654	1.3903832
22.642633572550263	1.9496824	1.3963102
22.660508407338362	1.9639595	1.4014133
22.67838380082217	1.9609869	1.4003524
22.696259753489077	1.9537683	1.3977726
22.714136265826614	1.9558182	1.3985057
22.73201333832246	1.973542	1.4048281
22.74989097146439	2.0030978	1.4153084
22.76776916574035	2.002877	1.4152304
22.785647921638393	1.954183	1.397921
22.803527239646712	1.9167352	1.384462
22.82140712025363	1.8943579	1.3763567
22.839287563947593	1.8849336	1.3729289
22.85716857121719	1.9060212	1.3805873
22.875050142551135	1.9434766	1.3940862
22.892932278438277	1.969309	1.4033207
22.910814979367604	1.9489585	1.396051
22.928698245828222	1.9706601	1.403802
22.946582078309387	1.9876009	1.4098231
22.96446647730047	2.0008934	1.4145293
22.98235144329098	1.9552664	1.3983084
23.000236976770562	1.9351629	1.3911014
23.018123078229	1.9395422	1.3926744
23.03600974815619	1.9635602	1.401271
23.053896987042194	1.9460552	1.3950108
23.071784795377173	1.9045391	1.3800504
23.08967317365145	1.921341	1.3861245
23.10756212235546	1.9668013	1.402427
23.125451641979787	1.966366	1.4022717
23.143341733015134	1.94798	1.3957006
23.161232395952357	1.9402602	1.3929322
23.179123631282426	1.9601945	1.4000695
23.197015439496468	1.9800311	1.4071358
23.214907821085717	1.971313	1.4040345
23.23280077654157	1.9928168	1.4116716
23.250694306355538	1.9908757	1.4109839
23.268588411019277	1.9758452	1.4056476
23.28648309102458	1.9454522	1.3947947
23.304378346863356	1.9251237	1.3874882
23.322274179027676	1.9447823	1.3945545
23.340170588009723	1.9420561	1.3935767
23.358067574301852	1.9249095	1.3874111
23.37596513839651	1.9158715	1.3841501
23.39386328078629	1.8797902	1.3710544
23.411762001963947	1.8865706	1.3735249
23.429661302422353	1.9217861	1.386285
23.4475611826545	1.918809	1.3852109
23.46546164315356	1.9350802	1.3910716
23.48336268441279	1.9028581	1.3794413
23.501264306925638	1.921647	1.3862348
23.51916651118564	1.9257131	1.3877007
23.537069297686497	1.9704819	1.4037385
23.554972666922037	1.9901612	1.4107307
23.57287661938623	1.9778597	1.406364
23.59078115557318	1.9403083	1.3929495
23.608686275977128	1.883395	1.3723683
23.62659198109246	1.8345708	1.3544632
23.6444982714137	1.8386405	1.3559648
23.66240514743549	1.8609122	1.3641526
23.68031260965263	1.9122562	1.3828435
23.698220658560068	1.9339067	1.3906497
23.716129294652845	1.9694705	1.4033782
23.7340385184262	1.9521222	1.3971837
23.75194833037546	1.9230326	1.3867345
23.769858730996123	1.8790275	1.3707762
23.78776972078382	1.8665367	1.3662126
23.80568130023431	1.8554614	1.3621532
23.823593469843495	1.8411859	1.3569031
23.841506230107424	1.8795072	1.3709512
23.859419581522275	1.9205843	1.3858515
23.87733352458438	1.9066944	1.380831
23.89524805979019	1.8853753	1.3730897
23.913163187636318	1.8950577	1.376611
23.931078908619508	1.9101417	1.3820788
23.948995223236633	1.9919876	1.4113779
23.966912131984735	2.0503092	1.4318901
23.98482963536096	2.0805445	1.4424093
24.002747733862616	2.05733	1.4343395
24.020666427987155	2.026488	1.4235477
24.038585718232156	2.026297	1.4234806
24.056505605095353	2.0677788	1.4379773
24.074426089074617	2.0944028	1.4472052
24.092347170667946	2.0320978	1.4255167
24.110268850373515	1.9667392	1.4024048
24.128191128689586	1.9748007	1.4052761
24.146114006114626	2.0415206	1.4288179
24.164037483147187	2.04456	1.4298811
24.181961560286005	2.0048819	1.4159385
24.199886238029926	1.9888017	1.4102488
24.21781151687797	2.0093703	1.4175225
24.235737397329274	2.0272498	1.4238153
24.253663879883135	2.0282269	1.4241583
24.271590965038975	2.0481927	1.4311508
24.289518653296376	2.0209022	1.4215844
24.30744694515505	1.9950377	1.4124581
24.32537584111486	2.008803	1.4173224
24.34330534167581	2.04801	1.431087
24.361235447338046	2.0626595	1.4361962
24.379166158601876	2.0633698	1.4364434
24.39709747596772	2.055033	1.4335387
24.41502939993615	2.0352314	1.4266154
24.432961931007917	2.0101445	1.4177957
24.450895069683856	1.9842577	1.4086368
24.468828816465	1.9688005	1.4031395
24.4867631718525	1.9658732	1.402096
24.504698136347656	1.9546553	1.3980899
24.52263371045192	1.9763173	1.4058155
24.540569894666874	1.9962965	1.4129035
24.558506689494266	2.0041544	1.4156816
24.57644409543597	1.9651989	1.4018555
24.594382112994012	1.9521804	1.3972045
24.61232074267057	1.9412967	1.3933042
24.630259984967953	1.9319896	1.3899603
24.64819984038863	1.929654	1.3891199
24.66614030943522	1.946908	1.3953165
24.684081392610462	1.9570261	1.3989375
24.702023090417274	1.9661244	1.4021856
24.7199654033587	1.958002	1.3992863
24.737908331937927	1.9886183	1.4101838
24.755851876658305	2.0345166	1.4263648
24.773796038023324	2.0681286	1.4380989
24.79174081653661	2.116693	1.454886
24.809686212701962	2.1266155	1.458292
24.827632227023294	2.111957	1.4532574
24.8455788600047	2.12069	1.4562589
24.8635261121504	2.1387076	1.4624321
24.88147398396475	2.13071	1.4596951
24.899422475952303	2.0916655	1.4462591
24.917371588617698	2.0528085	1.4327625
24.935321322465768	2.14097	1.4632053
24.953271678001478	2.3089125	1.5195106
24.97122265572994	2.553816	1.5980663
24.989174256156414	2.8883238	1.6995069
25.00712647978632	3.2957969	1.815433
25.02507932712521	3.777645	1.9436165
25.043032798678798	4.290299	2.0713036
25.060986894952933	5.0097766	2.238253
25.078941616453637	5.7842326	2.4050431
25.096896963687055	6.8053	2.608697
25.114852937159508	8.001269	2.8286514
25.132809537377444	8.530452	2.9206936
25.150766764847468	8.53351	2.9212172
25.168724620076347	7.8696575	2.805291
25.186683103570985	6.836614	2.614692
25.204642215838426	5.602357	2.3669298
25.222601957385894	4.238777	2.058829
25.24056232872074	3.2427766	1.8007711
25.25852333035048	2.666789	1.6330307
25.276484962782778	2.311718	1.5204335
25.294447226525435	2.0950801	1.4474392
25.312410122086423	2.0065124	1.4165142
25.330373649973843	1.9657379	1.4020478
25.348337810695988	1.9596573	1.3998775
25.366302604761245	1.949031	1.396077
25.384268032678207	1.9766791	1.4059442
25.40223409495558	1.9447005	1.3945252
25.420200792102257	1.9382865	1.3922236
25.438168124627246	1.9229206	1.3866941
25.45613609303974	1.9848026	1.4088302
25.474104697849057	1.9895434	1.4105117
25.492073939564698	1.9683024	1.402962
25.510043818696285	1.9267426	1.3880715
25.528014335753614	1.8974749	1.3774886
25.54598549124664	1.9261063	1.3878423
25.56395728568544	1.9311091	1.3896435
25.58192971958028	1.9249434	1.3874233
25.59990279344156	1.8742703	1.3690399
25.617876507779833	1.8618451	1.3644944
25.635850863105826	1.8547046	1.3618754
25.653825859930386	1.8604094	1.3639683
25.671801498764548	1.8905997	1.3749908
25.68977778011949	1.8553641	1.3621175
25.707754704506524	1.8069266	1.3442197
25.725732272437153	1.8264886	1.3514764
25.743710484423012	1.8897171	1.3746698
25.761689340975888	1.8854073	1.3731014
25.77966884260774	1.9011996	1.37884
25.797648989830662	1.8860804	1.3733464
25.815629783156922	1.8737558	1.368852
25.83361122309895	1.8355652	1.3548304
25.85159331016929	1.8450376	1.3583215
25.869576044880695	1.9019866	1.3791254
25.887559427746034	1.9005104	1.37859
25.90554345927836	1.8163041	1.3477032
25.92352813999086	1.7864182	1.3365695
25.94151347039689	1.8090044	1.3449924
25.959499451009965	1.8368587	1.3553076
25.97748608234374	1.8352524	1.3547149
25.995473364912062	1.8700051	1.3674814
26.013461299228904	1.8782958	1.3705093
26.03144988580839	1.8556736	1.3622311
26.04943912516483	1.8200907	1.3491074
26.067429017812675	1.8174506	1.3481286
26.085419564266537	1.8119383	1.3460826
26.103410765041186	1.7926172	1.3388865
26.12140262065155	1.8060368	1.3438886
26.139395131612723	1.8279488	1.3520166
26.157388298439948	1.8474026	1.3591919
26.17538212164861	1.8586134	1.3633097
26.193376601754295	1.801036	1.3420268
26.211371739272714	1.815048	1.3472371
26.229367534719746	1.8215464	1.3496468
26.247363988611433	1.8305552	1.3529801
26.26536110146397	1.8225534	1.3500198
26.283358873793727	1.8374382	1.3555214
26.301357306117204	1.8168502	1.3479059
26.319356398951104	1.8025602	1.3425946
26.33735615281224	1.8247942	1.3508494
26.35535656821762	1.8307555	1.3530542
26.373357645684404	1.8324238	1.3536705
26.39135938572991	1.8174952	1.3481451
26.409361788871614	1.7545097	1.3245791
26.427364855627165	1.7551078	1.3248048
26.445368586514352	1.814052	1.3468674
26.46337298205115	1.8794262	1.3709217
26.48137804275568	1.8494238	1.3599352
26.499383769146217	1.8023622	1.3425208
26.517390161741215	1.7887276	1.3374332
26.53539722105928	1.7704688	1.3305897
26.553404947619182	1.7554641	1.3249393
26.571413341939856	1.7321703	1.3161194
26.589422404540397	1.748812	1.3224266
26.60743213594006	1.8013667	1.34215
26.62544253665827	1.8033034	1.3428713
26.64345360721459	1.7883265	1.3372833
26.66146534812879	1.7596878	1.3265322
26.679477759920758	1.7600856	1.3266822
26.69749084311057	1.7834172	1.3354465
26.71550459821847	1.8078246	1.3445537
26.733519025764842	1.8039895	1.3431268
26.751534126270258	1.7904923	1.3380928
26.769549900255434	1.8003776	1.3417815
26.787566348241267	1.8019366	1.3423623
26.80558347074881	1.8034805	1.3429372
26.823601268299267	1.8209175	1.3494138
26.841619741414036	1.8010788	1.3420428
26.85963889061465	1.8460898	1.3587089
26.877658716422832	1.9096582	1.3819039
26.89567921936045	1.9283975	1.3886676
26.913700399949544	1.8832546	1.3723173
26.93172225871233	1.8626479	1.3647885
26.949744796171174	1.875387	1.3694477
26.967768012848605	1.8794812	1.3709418
26.98579190926733	1.8881817	1.3741112
27.003816485950225	1.8338163	1.3541847
27.021841743420318	1.8464535	1.3588427
27.039867682200814	1.8519676	1.3608701
27.057894302815072	1.8272023	1.3517405
27.07592160578664	1.8077018	1.344508
27.0939495916392	1.8444688	1.3581122
27.111978260896635	1.8697108	1.3673737
27.13000761408296	1.8180705	1.3483585
27.148037651722397	1.7754915	1.3324757
27.166068374339304	1.816449	1.3477571
27.184099782458215	1.860718	1.3640814
27.20213187660384	1.9099879	1.3820231
27.22016465730105	1.9023421	1.3792542
27.23819812507487	1.8901329	1.3748211
27.256232280450533	1.8465605	1.3588821
27.274267123953383	1.7791822	1.3338599
27.292302656108987	1.7873828	1.3369304
27.31033887744306	1.821478	1.3496214
27.32837578848146	1.8349413	1.3546001
27.34641338975026	1.8456435	1.3585446
27.364451681775673	1.8737795	1.3688607
27.382490665084074	1.8732845	1.3686799
27.400530340202046	1.8600863	1.3638498
27.41857070765629	1.8478804	1.3593676
27.436611767973726	1.8564057	1.3624998
27.454653521681404	1.8392581	1.3561925
27.472695969306564	1.8432598	1.3576671
27.490739111376627	1.8198199	1.349007
27.508782948419153	1.8440493	1.3579578
27.526827480961902	1.8584932	1.3632656
27.54487270953279	1.8518744	1.3608359
27.562918634659898	1.7961898	1.3402201
27.580965256871508	1.8087747	1.3449069
27.599012576696026	1.8027538	1.3426666
27.617060594662068	1.7840389	1.3356792
27.63510931129842	1.795749	1.3400556
27.65315872713401	1.8253613	1.3510593
27.67120884269797	1.7970314	1.340534
27.68925965851958	1.7531064	1.3240492
27.707311175128307	1.75252	1.3238277
27.725363393053787	1.8545923	1.3618342
27.74341631282583	1.8706856	1.3677301
27.7614699349744	1.8661228	1.3660611
27.77952426002968	2.0251503	1.4230777
27.797579288521973	2.130879	1.459753
27.815635020981784	2.4997787	1.5810689
27.83369145793979	2.5564933	1.5989038
27.85174859992682	2.3845136	1.5441871
27.869806447473923	2.2979653	1.5159041
27.887865001112267	2.0589032	1.4348879
27.905924261373233	1.9809221	1.4074523
27.92398422878836	1.9043559	1.379984
27.94204490388936	1.9136249	1.3833383
27.96010628720813	1.9205245	1.3858299
27.978168379276728	1.904744	1.3801247
27.9962311806274	1.8596412	1.3636866
28.014294691792568	1.8492672	1.3598777
28.0323589133048	1.8330975	1.3539193
28.050423845696887	1.8615229	1.3643764
28.068489489501758	1.8654479	1.365814
28.086555845252523	1.8547934	1.361908
28.104622913482487	1.8465687	1.358885
28.122690694725115	1.8424256	1.3573598
28.14075918951405	1.8639816	1.3652772
28.15882839838312	1.8994461	1.378204
28.176898321866304	1.8810515	1.3715143
28.1949689604978	1.8804218	1.3712847
28.213040314811945	1.897089	1.3773485
28.23111238534327	1.8913674	1.37527
28.249185172626493	1.9125035	1.3829329
28.267258677196473	1.95287	1.3974513
28.285332899588294	1.9290444	1.3889004
28.303407840337172	1.9221401	1.3864127
28.321483499978545	1.9448957	1.3945951
28.33955987904799	1.9300121	1.3892487
28.357636978081285	1.9239215	1.3870549
28.37571479761439	1.9265369	1.3879975
28.393793338183425	1.9527465	1.397407
28.41187260032469	1.9626614	1.4009502
28.429952584574686	1.9442683	1.3943702
28.448033291470065	2.0009015	1.4145322
28.46611472154769	1.9753677	1.4054778
28.484196875344566	1.9944123	1.4122367
28.502279753397914	1.969232	1.4032933
28.52036335624511	1.946424	1.395143
28.538447684423716	1.9036542	1.3797297
28.556532738471482	1.9161587	1.3842539
28.574618518926325	2.0137749	1.4190754
28.59270502632635	2.063287	1.4364146
28.61079226120985	2.0340621	1.4262055
28.628880224115274	2.0708952	1.4390606
28.646968915581287	2.0965717	1.4479543
28.66505833614671	2.0737658	1.4400575
28.68314848635055	2.0331693	1.4258925
28.701239366732004	2.0982215	1.4485239
28.71933097783044	2.125815	1.4580175
28.737423320185403	2.0753372	1.440603
28.75551639433665	2.0724459	1.4395992
28.773610200824074	2.159836	1.4696381
28.791704740187793	2.222695	1.4908706
28.80980001296809	2.213224	1.4876908
28.827896019705413	2.182458	1.4773145
28.845992760940433	2.2095432	1.4864533
28.86409023721397	2.2250946	1.4916751
28.88218844906704	2.2594173	1.5031358
28.900287397040845	2.2541206	1.5013729
28.918387081676755	2.2247934	1.4915742
28.936487503516343	2.2501235	1.5000411
28.954588663101365	2.2844067	1.5114254
28.97269056097374	2.3529053	1.5339183
28.990793197675597	2.4380949	1.56144
29.00889657374923	2.4370418	1.5611027
29.027000689737125	2.4183733	1.555112
29.04510554618196	2.4723606	1.5723742
29.06321114362659	2.4727285	1.5724912
29.08131748261405	2.4645424	1.5698861
29.099424563687567	2.4629905	1.5693917
29.11753238739057	2.5111225	1.5846522
29.13564095426663	2.563497	1.6010925
29.15375026485954	2.592629	1.6101643
29.171860319713275	2.6088867	1.6152048
29.18997111937199	2.6563365	1.6298271
29.20808266438002	2.7457523	1.6570312
29.226194955281898	2.8227558	1.6801059
29.244307992622335	2.8714979	1.6945494
29.26242177694624	2.880029	1.6970648
29.2805363087987	2.8584116	1.6906837
29.29865158872498	2.8752737	1.6956632
29.316767617270557	3.0019305	1.732608
29.334884394981064	3.0771627	1.7541844
29.353001922402367	3.0259974	1.7395394
29.37112020008047	2.9127865	1.7066888
29.389239228561596	2.981391	1.7266705
29.407359008392152	3.2138498	1.7927214
29.42547954011872	3.5923717	1.8953553
29.44360082428809	4.2116656	2.0522344
29.46172286144722	5.2755623	2.2968593
29.479845652143283	6.978497	2.6416845
29.497969196923606	9.101974	3.0169477
29.516093496335728	11.546877	3.3980696
29.5342185509274	14.531342	3.8119998
29.55234436124651	17.320105	4.161743
29.570470927841175	18.917973	4.3494797
29.588598251259686	18.598534	4.3126016
29.60672633205055	17.071362	4.1317506
29.624855170762405	14.887815	3.8584733
29.642984767944146	12.083628	3.4761512
29.66111512414481	9.190868	3.0316446
29.67924623991366	6.8447313	2.6162438
29.697378115800138	5.145155	2.2682934
29.71551075235387	4.1868634	2.0461826
29.733644150124675	3.7555003	1.9379113
29.751778309662576	3.5262437	1.8778296
29.769913231517766	3.3787274	1.8381315
29.78804891624066	3.3462408	1.8292733
29.806185364381818	3.336793	1.8266891
29.82432257649206	3.33467	1.8261079
29.842460553122333	3.3431442	1.8284267
29.86059929482382	3.3696551	1.835662
29.878738802147872	3.3717105	1.8362218
29.896879075646048	3.3635929	1.83401
29.915020115870114	3.341418	1.8279546
29.933161923371976	3.2728972	1.809115
29.951304498703777	3.2538056	1.8038309
29.969447842417857	3.2763984	1.8100824
29.987591955066733	3.2535763	1.8037672
30.005736837203123	3.1831865	1.7841487
30.023882489379943	3.2430649	1.8008511
30.04202891215028	3.22473	1.7957534
30.060176106067455	3.205487	1.7903874
30.078324071684946	3.2041366	1.7900102
30.09647280955646	3.1894124	1.7858926
30.114622320235863	3.119057	1.7660851
30.132772604277257	3.0989308	1.760378
30.1509236622349	3.1864645	1.7850671
30.16907549466328	3.174613	1.7817444
30.18722810211705	3.1498165	1.7747723
30.205381485151097	3.120125	1.7663876
30.22353564432045	3.1250095	1.7677697
30.241690580180403	3.0887835	1.7574935
30.25984629328638	3.1212764	1.7667134
30.278002784194037	3.092394	1.7585205
30.296160053459246	3.0627303	1.7500658
30.314318101638033	3.0129566	1.735787
30.332476929286646	2.964994	1.7219157
30.35063653696153	2.9071105	1.7050251
30.368796925219307	2.8466794	1.6872106
30.386958094616844	2.8503516	1.6882985
30.40512004571115	2.873696	1.6951979
30.423282779059463	2.8835094	1.69809
30.441446295219233	2.880706	1.6972643
30.459610594748067	2.860044	1.6911665
30.47777567820382	2.8343945	1.683566
30.495941546144504	2.8619685	1.6917354
30.51410819912835	2.893488	1.7010256
30.532275637713795	2.929981	1.7117187
30.55044386245946	2.9198768	1.7087647
30.56861287392416	2.8973458	1.7021592
30.586782672666956	2.9105952	1.7060467
30.604953259247047	2.8977983	1.7022921
30.623124634223885	2.8588161	1.6908034
30.641296798157075	2.9216402	1.7092806
30.659469751606462	2.937782	1.7139959
30.677643495132074	2.832514	1.6830075
30.695818029294152	2.7361863	1.6541421
30.713993354653116	2.6932995	1.6411275
30.73216947176962	2.7277417	1.6515876
30.75034638120448	2.759844	1.6612779
30.768524083518756	2.7848349	1.6687825
30.786702579273673	2.8117092	1.6768152
30.80488186903069	2.8014917	1.6737658
30.82306195335144	2.892307	1.7006783
30.841242832797782	3.139189	1.7717757
30.85942450793176	3.4103842	1.8467226
30.877606979315637	3.7106946	1.9263163
30.895790247511883	4.0261517	2.0065272
30.913974313083134	4.536576	2.1299238
30.932159176592283	4.846276	2.2014258
30.95034483860237	4.8513927	2.2025878
30.968531299676698	4.6157503	2.1484296
30.98671856037873	4.343806	2.0841799
31.00490662127215	4.099627	2.0247536
31.023095482920848	3.6453931	1.9092913
31.04128514588892	3.1625621	1.7783594
31.059475610740662	2.7933295	1.6713257
31.07766687804056	2.6161246	1.6174438
31.09585894835335	2.4973779	1.5803094
31.11405182224393	2.4465659	1.5641502
31.132245500277417	2.404991	1.5508033
31.15043998301914	2.4405196	1.5622163
31.168635271034628	2.475723	1.573443
31.18683136488964	2.4915583	1.5784671
31.20502826515008	2.5070186	1.5833567
31.223225972382135	2.5532794	1.5978985
31.241424487152155	2.4735682	1.5727582
31.259623810026692	2.367212	1.5385747
31.27782394157253	2.3618267	1.5368235
31.296024882356644	2.402226	1.5499116
31.314226632946237	2.4015157	1.5496825
31.332429193908684	2.4478447	1.564559
31.350632565811598	2.5051813	1.5827764
31.368836749222787	2.520643	1.5876533
31.387041744710295	2.5179486	1.5868045
31.40524755284232	2.4909394	1.578271
31.423454174187317	2.5357916	1.5924169
31.441661609313922	2.525322	1.5891261
31.459869858791002	2.5084767	1.5838171
31.478078923187628	2.4658468	1.5703015
31.496288803073064	2.4401205	1.5620885
31.514499499016807	2.3982923	1.548642
31.532711011588546	2.34535	1.5314536
31.550923341358178	2.3403165	1.5298094
31.56913648889584	2.3229666	1.5241281
31.587350454771844	2.253634	1.5012108
31.605565239556732	2.1756248	1.4749999
31.62378084382127	2.2139046	1.4879196
31.641997268136382	2.3065352	1.5187281
31.660214513073274	2.380336	1.5428338
31.67843257920331	2.3596332	1.5361098
31.6966514670981	2.372625	1.5403328
31.71487117732944	2.3787296	1.5423131
31.733091710469346	2.3387134	1.5292853
31.751313067090052	2.2999375	1.5165545
31.769535247764008	2.2372792	1.4957538
31.787758253063878	2.301009	1.5169077
31.805982083562526	2.3189683	1.522816
31.824206739833024	2.3084967	1.5193738
31.84243222244869	2.2956421	1.5151377
31.860658531983013	2.3224905	1.5239719
31.878885669009737	2.3171103	1.5222057
31.897113634102784	2.2775288	1.5091484
31.91534242783632	2.2502353	1.5000784
31.933572050784694	2.2134352	1.4877619
31.951802503522508	2.2571323	1.5023756
31.970033786624548	2.2501411	1.5000471
31.988265900665834	2.217346	1.4890755
32.006498846221575	2.2228549	1.4909241
32.02473262386724	2.2153685	1.4884114
32.04296723417845	2.1926644	1.4807647
32.0612026777311	2.1549687	1.4679812
32.07943895510129	2.114401	1.454098
32.097676066865304	2.1081612	1.4519508
32.115914013599685	2.0107777	1.4180189
32.13415279588115	1.9793359	1.4068887
32.152392414286666	2.0481462	1.4311346
32.1706328693934	2.1161397	1.4546957
32.18887416177875	2.1193612	1.4558026
32.20711629202032	2.1429458	1.4638804
32.225359260695924	2.1618948	1.4703383
32.243603068383614	2.135916	1.4614773
32.26184771566166	2.12172	1.4566126
32.28009320310852	2.107091	1.4515822
32.2983395313029	2.0564015	1.4340159
32.31658670082372	2.0874584	1.444804
32.33483471225012	2.0390716	1.4279606
32.35308356616143	1.9913206	1.4111416
32.371333263137245	2.0061867	1.4163992
32.38958380375734	2.0684674	1.4382167
32.407835188601744	2.0672061	1.4377782
32.42608741825067	1.9779135	1.4063832
32.444340493284585	2.0146933	1.4193989
32.46259441428416	2.113354	1.453738
32.48084918183028	2.1845002	1.4780055
32.49910479650405	2.0974765	1.4482667
32.51736125888683	2.0723548	1.4395676
32.53561856956014	2.0184808	1.4207325
32.5538767291058	2.0291216	1.4244725
32.572135738105764	2.0226405	1.4221957
32.59039559714228	2.1528249	1.4672508
32.608656306797776	2.2119758	1.4872713
32.62691786765491	2.1824389	1.4773079
32.645180280296586	2.1273375	1.4585395
32.663443545305896	2.1405857	1.4630741
32.68170766326619	2.1516867	1.4668629
32.69997263476099	2.1824186	1.4773011
32.7182384603741	2.1535463	1.4674966
32.7365051406895	2.1004174	1.4492817
32.75477267629144	2.007415	1.4168328
32.77304106776434	1.918384	1.3850573
32.79131031569289	1.9044648	1.3800235
32.809580420661966	1.9372784	1.3918614
32.827851383256714	2.0338306	1.4261243
32.84612320406245	2.0470188	1.4307406
32.86439588366476	1.9214538	1.3861651
32.88266942264945	1.9546373	1.3980834
32.9009438216025	2.0488803	1.431391
32.9192190811102	2.000103	1.41425
32.937495201758985	1.8440603	1.3579618
32.95577218413556	1.8101752	1.3454275
32.974050028826866	1.8617204	1.3644488
32.992328736420035	1.8717793	1.3681298
33.010608307502444	1.8813393	1.3716192
33.02888874266169	2.0291443	1.4244803
33.047170042485604	1.9978819	1.4134645
33.06545220756225	1.9155271	1.3840257
33.083735238479896	1.9683892	1.402993
33.10201913582707	2.0333133	1.4259429
33.12030390019248	2.1021793	1.4498894
33.138589532165135	2.0866253	1.4445156
33.15687603233419	1.9095771	1.3818744
33.17516340128909	2.0050335	1.415992
33.19345163961947	2.0522182	1.4325565
33.211740747915215	1.9976298	1.4133753
33.23003072676643	1.940909	1.3931651
33.248321576763466	2.0304925	1.4249536
33.266613298496885	1.9846529	1.4087771
33.28490589255747	1.968699	1.4031034
33.30319935953626	1.9927897	1.4116621
33.32149370002451	1.9951608	1.4125016
33.339788914613706	1.8724554	1.3683769
33.358085003895575	1.8815165	1.3716838
33.376381968462034	1.9803714	1.4072567
33.39467980890529	2.0310597	1.4251525
33.41297852581774	2.0023441	1.415042
33.43127811979204	1.9978269	1.4134451
33.44957859142105	1.9235214	1.3869108
33.467879941297866	1.8089789	1.3449829
33.486182170015844	1.7887636	1.3374467
33.50448527816853	1.8873299	1.3738012
33.522789266349754	1.9649535	1.401768
33.541094135153514	1.975068	1.4053711
33.55939988517411	1.9733493	1.4047595
33.57770651700602	1.9986739	1.4137447
33.59601403124398	1.9930637	1.411759
33.61432242848296	1.958746	1.3995521
33.632631709318154	1.8897535	1.374683
33.650941874344994	1.8269604	1.351651
33.66925292415916	1.8468302	1.3589814
33.68756485935654	1.983146	1.4082421
33.70587768053328	1.9309801	1.389597
33.724191388285746	1.8420137	1.357208
33.74250598321054	1.8834116	1.3723744
33.760821465904506	2.0253713	1.4231554
33.77913783696474	2.0332766	1.42593
33.79745509698852	1.9649817	1.401778
33.815773246573414	1.9461256	1.3950361
33.8340922863172	1.9477323	1.3956118
33.852412216817896	1.9250944	1.3874778
33.87073303867377	2.02568	1.4232639
33.889054752483304	1.9233905	1.3868636
33.907377358845245	1.726714	1.314045
33.92570085835853	1.7428931	1.3201867
33.94402525162239	1.8188424	1.3486446
33.96235053923627	1.7525843	1.3238521
33.980676721799824	1.7286083	1.3147655
33.999003799912984	1.7458528	1.3213073
34.01733177417592	1.8639985	1.3652834
34.03566064518901	1.9606335	1.4002262
34.0539904135529	2.0708604	1.4390484
34.07232107986846	1.918728	1.3851815
34.090652644736785	1.7865783	1.3366295
34.108985108759235	1.8769562	1.3700205
34.12731847253742	1.9882528	1.4100542
34.14565273667313	1.9914315	1.4111809
34.16398790176847	1.9033055	1.3796034
34.18232396842574	1.8002039	1.3417168
34.20066093724749	1.8230273	1.3501953
34.21899880883651	2.0183852	1.4206989
34.23733758379583	2.0342152	1.4262592
34.25567726272874	1.8511766	1.3605795
34.27401784623872	1.8935032	1.3760462
34.29235933492957	1.9712579	1.404015
34.31070172940526	2.0044084	1.4157712
34.32904503027003	2.0605133	1.4354488
34.347389238128386	2.0455155	1.4302152
34.36573435358502	1.9811339	1.4075276
34.38408037724492	1.8700912	1.3675128
34.402427309713296	1.9687264	1.4031131
34.42077515159559	2.0883617	1.4451165
34.43912390349752	2.0249975	1.423024
34.45747356602499	1.831087	1.3531766
34.47582413978423	1.8355745	1.3548337
34.49417562538163	1.9508026	1.3967113
34.51252802342388	1.9893148	1.4104307
34.53088133451789	1.8749336	1.3692821
34.54923555927084	1.8053268	1.3436245
34.567590698290104	1.8224955	1.3499984
34.58594675218336	2.0109665	1.4180856
34.6043037215585	2.2079551	1.485919
34.62266160702365	2.1781561	1.4758577
34.641020409187234	2.1224399	1.4568596
34.65938012865785	2.1260986	1.4581147
34.677740766044394	2.0117002	1.4183441
34.69610232195598	1.9050097	1.3802209
34.714464797002016	1.9016935	1.379019
34.73282819179208	2.0884886	1.4451604
34.751192506936064	2.0915642	1.4462241
34.76955774304408	1.9947278	1.4123484
34.7879239007265	2.1967275	1.4821361
34.80629098059391	2.1568713	1.468629
34.824658983257194	2.0606787	1.4355065
34.843027909327446	2.0499644	1.4317697
34.86139775941603	1.9676447	1.4027276
34.879768534134534	1.7824247	1.3350748
34.89814023409483	1.6647648	1.2902577
34.91651285990901	1.8021058	1.3424253
34.93488641218944	1.985488	1.4090735
34.95326089154871	2.0873423	1.4447638
34.97163629859967	2.087856	1.4449415
34.99001263395542	1.9543072	1.3979654
35.00838989822934	2.0715692	1.4392947
35.02676809203499	2.213378	1.4877425
35.04514721598624	2.1683476	1.472531
35.063527270697215	2.1194077	1.4558185
35.081908256782256	2.1957774	1.4818156
35.10029017485597	2.2020478	1.4839299
35.11867302553321	2.2299986	1.493318
35.137056809429104	2.291581	1.5137968
35.155441527159006	2.065917	1.4373298
35.173827179338524	1.5917021	1.2616267
35.19221376658354	1.5741807	1.2546636
35.21060128951017	1.8464681	1.3588481
35.2289897487348	1.8088768	1.3449448
35.24737914487405	1.762793	1.3277022
35.26576947854479	2.0630035	1.436316
35.28416075036418	2.1528583	1.4672621
35.30255296094958	1.8778725	1.3703549
35.32094611091867	1.8238233	1.3504901
35.33934020088932	1.8903176	1.3748882
35.35773523147969	1.9698585	1.4035165
35.3761312033082	2.1306944	1.4596899
35.394528116993506	2.2177382	1.4892073
35.41292597315452	2.18127	1.4769123
35.431324772410434	2.1045198	1.4506963
35.449724515380666	1.8292198	1.3524865
35.46812520268491	2.1338255	1.460762
35.486526834943106	2.3082983	1.5193086
35.504929412775454	1.8275096	1.3518542
35.52333293680242	1.78341	1.3354437
35.54173740764471	2.3254287	1.5249356
35.560142825923286	2.1638253	1.4709947
35.5785491922594	1.6159005	1.2711807
35.59695650727454	1.6185501	1.2722225
35.61536477159042	1.1140177	1.0554703
