0.008763373481513119	0.0	0.0
0.026290120649546365	0.17179282	0.414479
0.043816868432600686	0.3065052	0.5536291
0.06134361724069026	0.35388854	0.5948853
0.07887036748382949	0.25952953	0.5094404
0.0963971195720331	0.093357496	0.30554458
0.11392387391531617	0.07754193	0.2784635
0.1314506309236943	0.08063134	0.2839566
0.1489773910071836	0.12944552	0.35978538
0.16650415457580078	0.10660017	0.3264968
0.18403092203956356	0.057378702	0.23953852
0.20155769380849	0.087543264	0.2958771
0.2190844702925996	0.16523759	0.40649426
0.2366112519019124	0.25877726	0.50870156
0.2541380390464497	0.27818868	0.52743596
0.27166483213623416	0.23019807	0.4797896
0.28919163158128947	0.119691834	0.3459651
0.3067184377916406	0.11723102	0.34239015
0.324245251177314	0.10618049	0.32585347
0.34177207214833777	0.09343863	0.30567732
0.3592989011147415	0.11323781	0.33650827
0.37682573848655654	0.1456978	0.38170382
0.39435258467381573	0.17755352	0.421371
0.41187944008655414	0.22567563	0.47505328
0.42940630513480854	0.199998	0.44721135
0.446933180228618	0.19671087	0.443521
0.4644600657780234	0.17191143	0.41462204
0.48198696219306775	0.18135364	0.42585635
0.49951386988379676	0.20570448	0.45354655
0.5170407892602581	0.19879925	0.4458691
0.5345677207325025	0.14966904	0.38687083
0.5520946647105822	0.13904066	0.37288156
0.5696216216045534	0.10948114	0.33087933
0.5871485918244737	0.11573862	0.3402038
0.6046755757804043	0.121249184	0.34820855
0.6222025738824094	0.17356008	0.41660544
0.6397295865405557	0.18762116	0.4331526
0.6572566141649129	0.18749714	0.4330094
0.6747836571655547	0.22456387	0.4738817
0.6923107159525568	0.24397524	0.4939385
0.7098377909359992	0.2606411	0.51053023
0.7273648825259653	0.21672107	0.4655331
0.7448919911325411	0.21217987	0.46062985
0.762419117165817	0.22594094	0.47533247
0.7799462610358868	0.2426503	0.49259546
0.7974734231528482	0.26898456	0.51863724
0.8150006039268024	0.25039527	0.5003951
0.8325278037678551	0.24473575	0.49470773
0.8500550230861152	0.18831019	0.43394724
0.8675822622916969	0.16366413	0.40455425
0.8851095217947171	0.1837064	0.42860985
0.9026368020052984	0.21021721	0.4584945
0.9201641033335665	0.21660888	0.4654126
0.9376914261896523	0.1959623	0.44267628
0.9552187709836915	0.22969395	0.47926396
0.9727461381258234	0.25732228	0.50726944
0.990273528026193	0.2826611	0.5316588
1.0078009410949496	0.2927744	0.5410863
1.0253283777422473	0.29543248	0.543537
1.0428558383782454	0.2853453	0.5341772
1.0603833234131086	0.26822576	0.5179052
1.0779108332570058	0.26877633	0.51843643
1.0954383683201119	0.32293883	0.56827706
1.112965929012607	0.4056108	0.6368758
1.1304935157446763	0.5198528	0.7210082
1.1480211289265108	0.52073646	0.72162074
1.1655487689683062	1.3841498	1.176499
1.1830764362802655	1.7298311	1.3152305
1.200604131272596	2.1843922	1.4779689
1.2181318543555117	2.4552248	1.5669156
1.235659605939232	2.4803166	1.574902
1.253187386433982	4.023066	2.0057583
1.270715196249994	6.3738785	2.5246542
1.2882430357975057	11.7730255	3.4311843
1.3057709054867608	16.424345	4.052696
1.3232988057280106	22.46512	4.7397385
1.3408267369315112	27.552668	5.2490635
1.358354699507526	31.51116	5.61348
1.3758826938663256	35.480885	5.9565835
1.3934107204181858	37.059315	6.087636
1.410938779573391	36.920837	6.076252
1.4284668717422309	37.358543	6.1121635
1.4459949973350033	37.187363	6.098144
1.4635231567620117	37.676983	6.138158
1.4810513504335687	36.898174	6.0743866
1.4985795787599925	36.00211	6.000176
1.5161078421516088	35.3877	5.948756
1.5336361410187505	34.63437	5.885097
1.5511644757717598	34.412678	5.866232
1.5686928468209842	34.98629	5.914921
1.58622125457678	35.582546	5.965111
1.6037496994495108	36.64865	6.053813
1.621278181849548	36.593414	6.049249
1.6388067021872719	37.3803	6.113943
1.6563352608730693	37.174488	6.0970883
1.673863858317336	36.649437	6.053878
1.6913924949304753	35.7773	5.981413
1.7089211711228998	34.528732	5.8761153
1.7264498873050296	33.402912	5.7795253
1.7439786438872935	32.321693	5.685217
1.7615074412801288	31.370209	5.6009116
1.779036279893981	30.89535	5.5583587
1.796565160139305	30.190441	5.4945827
1.814094082426564	29.750498	5.4544015
1.8316230471662298	29.027397	5.387708
1.849152054768784	28.122404	5.3030562
1.8666811056447168	27.645119	5.2578626
1.8842102002045273	26.846697	5.18138
1.901739338858724	26.126625	5.111421
1.9192685220178245	25.586885	5.058348
1.9367977500923557	24.923231	4.992317
1.9543270234928547	24.534868	4.9532685
1.971856342629867	23.767958	4.8752394
1.9893857079139496	23.361958	4.8334208
2.006915119755667	22.748905	4.7695813
2.0244445785655945	22.139198	4.7052307
2.0419740847543175	21.775642	4.666438
2.0595036387324317	21.344217	4.6199803
2.0770332409105414	20.944372	4.5765023
2.094562891699263	20.42669	4.5195894
2.1120925915092217	19.846912	4.4549875
2.129622340751053	19.391726	4.4036036
2.1471521398354043	187.55716	13.695151
2.1646819891729323	443.97107	21.070621
2.182211889174303	440.1548	20.979866
2.1997418402501974	452.58392	21.27402
2.2172718428113023	432.34717	20.79296
2.234801897268317	320.35742	17.898531
2.2523320040319548	16.957079	4.1178975
2.269862163512935	16.70649	4.0873575
2.287392376121992	16.346746	4.043111
2.304922642269869	15.967901	3.9959857
2.322452962367322	15.496067	3.9365044
2.3399833368251164	15.148501	3.8921075
2.357513766054032	15.003576	3.873445
2.3750442504648586	14.860985	3.8549948
2.3925747904683963	14.722443	3.8369834
2.410105386475459	14.43624	3.7995052
2.4276360388968707	14.199084	3.7681673
2.445166748143469	13.932161	3.7325811
2.4626975146261025	13.703819	3.701867
2.4802283387556323	13.496157	3.6737115
2.4977592209429305	13.503296	3.674683
2.5152901615988825	13.445581	3.6668217
2.5328211611343865	13.198913	3.633031
2.5503522199603523	12.831339	3.5820858
2.5678833384877024	12.654585	3.5573282
2.5854145171273712	12.497589	3.535193
2.6029457562903064	12.242165	3.4988804
2.620477056387469	11.875646	3.446106
2.6380084178298326	11.534221	3.3962069
2.655539841028383	11.356398	3.3699255
2.673071326394119	11.344694	3.3681886
2.6906028743380523	11.160744	3.34077
2.708134485271211	10.960409	3.3106508
2.7256661596046325	10.707606	3.2722478
2.743197897749369	10.587547	3.2538512
2.760729700116486	10.488973	3.2386684
2.778261567117063	10.362281	3.2190497
2.795793499162193	10.272751	3.2051132
2.8133254966629817	10.128032	3.182457
2.830857560030551	10.065156	3.172563
2.8483896896760337	9.8453	3.137722
2.865921886010578	9.547121	3.0898416
2.883454149445347	9.313596	3.0518184
2.9009864803915177	9.06115	3.0101743
2.91851887926028	8.945672	2.9909317
2.9360513464628384	8.96072	2.993446
2.953583882410413	9.006033	3.0010054
2.9711164875142373	8.91694	2.9861245
2.9886491621855606	8.813414	2.9687395
3.0061819068356455	8.556777	2.925197
3.023714721875769	8.425172	2.9026146
3.041247607717225	8.343335	2.8884833
3.0587805647713213	8.296565	2.8803759
3.0763135934493806	8.305691	2.8819594
3.0938466941627407	8.244073	2.8712494
3.1113798673227544	8.149645	2.8547583
3.1289131133407904	8.028439	2.8334498
3.1464464326282315	7.9409595	2.8179708
3.1639798255964786	7.869515	2.8052657
3.1815132926569443	7.684362	2.7720683
3.1990468342210603	7.475014	2.7340472
3.216580450700272	7.353827	2.7117941
3.2341141425060416	7.2580395	2.6940749
3.251647910049847	7.1432776	2.672691
3.2691817537431813	7.1291914	2.6700547
3.286715673997555	7.0996447	2.6645157
3.3042496712244938	7.120522	2.6684306
3.32178374583554	7.0076065	2.6471884
3.339317898242251	6.911405	2.6289551
3.3568521288562034	6.7704015	2.6019995
3.3743864380889876	6.766587	2.6012664
3.3919208263522127	6.7177696	2.591866
3.4094552940575023	6.606819	2.5703733
3.4269898416164972	6.482948	2.5461633
3.444524469440858	6.5091577	2.551305
3.4620591779422587	6.4970675	2.5489345
3.479593967532391	6.576605	2.5644891
3.4971288386229658	6.5946245	2.568
3.5146637916257086	6.497092	2.5489392
3.5321988269523628	6.390601	2.5279639
3.5497339450146903	6.317095	2.5133832
3.5672691462244708	6.411472	2.5320885
3.5848044309934988	6.38057	2.525979
3.60233979973359	6.301215	2.5102222
3.619875252856575	6.2095633	2.4918995
3.6374107907743034	6.217072	2.4934058
3.6549464138986427	6.167357	2.4834163
3.6724821226414788	6.1346874	2.47683
3.690017917414714	6.0862894	2.4670405
3.7075537986302702	6.099584	2.4697337
3.7250897667000857	6.217733	2.4935381
3.7426258220361235	6.485759	2.5467153
3.7601619650503553	6.7696733	2.6018596
3.777698196154779	7.380593	2.7167246
3.7952345157614067	8.394136	2.8972635
3.8127709242822716	9.311768	3.051519
3.830307422129425	11.5596285	3.3999453
3.847844009714936	30.381413	5.511934
3.8653806874508954	97.77533	9.888141
3.882917455749409	97.05401	9.8516
3.900454315022606	96.81688	9.839557
3.917991265682631	41.514317	6.4431605
3.9355283081416506	11.120079	3.3346782
3.9530654428118495	8.795203	2.9656708
3.970602670105433	7.4075103	2.7216742
3.9881399904346244	6.462608	2.542166
4.005677404211669	6.4460254	2.5389023
4.023214911848827	6.5299535	2.5553775
4.0407525137583855	6.5472655	2.5587626
4.058290210352644	6.4300337	2.535751
4.075828002043927	6.3660326	2.5231
4.0933658892445814	6.2253265	2.4950604
4.110903872366966	6.1902614	2.4880235
4.128441951823468	6.1573687	2.4814045
4.145980128026488	6.186791	2.4873261
4.163518401388452	6.1649895	2.4829397
4.181056772321807	6.0644183	2.462604
4.1985952412390155	6.002639	2.4500284
4.216133808552567	6.0239496	2.4543736
4.233672474674966	6.135102	2.4769137
4.251211240018741	6.2859745	2.5071845
4.268750104996445	6.5354714	2.5564568
4.286289070020643	7.464329	2.7320924
4.303828135503928	9.099799	3.0165873
4.3213673018589125	29.460323	5.4277363
4.3389065694982305	90.66038	9.521574
4.356445938834537	166.07275	12.886922
4.3739854102805085	171.4201	13.092751
4.391524984248844	172.21925	13.123234
4.409064661152262	136.14462	11.668103
4.426604441403504	96.31197	9.813867
4.444144325415337	75.4818	8.688026
4.461684313600543	21.44572	4.6309524
4.47922440637193	21.953259	4.6854305
4.496764604142329	20.285637	4.5039577
4.5143049073245916	18.510965	4.3024373
4.531845316331589	16.360556	4.0448184
4.5493858315762195	13.417076	3.6629326
4.566926453471405	11.112848	3.3335938
4.584467182430081	9.084758	3.0140932
4.602008018865218	8.129577	2.8512414
4.619548963189798	7.522654	2.7427456
4.637090015816834	7.013652	2.64833
4.654631177159353	6.724805	2.5932229
4.672172447630417	6.410616	2.5319195
4.689713827643102	6.210855	2.4921587
4.7072553176105085	5.922346	2.433587
4.724796917945764	5.787346	2.4056904
4.742338629062015	5.724047	2.392498
4.759880451372434	5.79782	2.4078662
4.777422385290215	5.709431	2.3894415
4.794964431228581	5.6680293	2.3807623
4.812506589600768	5.712145	2.3900094
4.830048860820047	5.7481856	2.3975375
4.847591245299709	5.7022233	2.3879328
4.8651337434530655	5.6167035	2.3699586
4.882676355693457	5.5256424	2.3506684
4.900219082434242	5.6056194	2.367619
4.917761924088813	5.6500087	2.3769746
4.935304881070575	5.633247	2.3734462
4.952847953792969	5.56623	2.3592858
4.970391142669449	5.455886	2.3357837
4.9879344481135055	5.4635596	2.337426
5.005477870538642	5.500617	2.3453395
5.023021410358394	5.492415	2.3435903
5.040565067986324	5.500253	2.3452618
5.05810884383601	5.4498425	2.3344898
5.075652738321066	5.3743443	2.3182633
5.09319675185512	5.3512588	2.3132787
5.110740884851836	5.3147516	2.3053746
5.128285137724894	5.3670354	2.3166864
5.145829510888007	5.3398356	2.3108084
5.163374004754908	5.3567276	2.3144605
5.1809186197393595	5.362134	2.3156283
5.198463356255145	5.3366323	2.310115
5.216008214716077	5.263613	2.2942567
5.233553195535998	5.182244	2.2764542
5.251098299128764	5.1382494	2.2667706
5.268643525908272	5.1684294	2.273418
5.286188876288432	5.177013	2.275305
5.3037343506831895	5.179138	2.275772
5.32127994950651	5.1577682	2.2710721
5.3388256731723915	5.150559	2.2694843
5.356371522094851	5.1214333	2.2630584
5.373917496687938	5.1025267	2.2588773
5.391463597365729	5.110705	2.2606869
5.40900982454232	5.1461816	2.2685196
5.426556178631843	5.126036	2.264075
5.444102660048449	5.112083	2.2609916
5.4616492692063225	5.0641093	2.2503576
5.479196006519669	5.0377874	2.2445016
5.496742872402727	5.0764213	2.2530916
5.514289867269756	5.127267	2.2643468
5.531836991535049	5.176124	2.2751098
5.549384245612924	5.1982636	2.2799702
5.566931629917724	5.1952434	2.2793076
5.584479144863822	5.19012	2.2781835
5.6020267908656205	5.160843	2.2717488
5.619574568337545	5.117345	2.2621548
5.637122477694054	5.1053643	2.2595053
5.654670519349629	5.1193624	2.262601
5.672218693718784	5.152813	2.269981
5.689767001216059	5.128191	2.264551
5.707315442256021	5.0751557	2.2528107
5.724864017253266	5.0532975	2.2479541
5.7424127266224225	5.090514	2.2562168
5.75996157077814	5.0996823	2.2582476
5.777510550135105	5.122317	2.2632537
5.795059665108022	5.185547	2.2771795
5.812608916111639	5.202687	2.2809398
5.830158303560715	5.310472	2.3044462
5.847707827870055	5.3228865	2.3071382
5.86525748945448	5.3744473	2.3182855
5.8828072887288485	5.427619	2.329725
5.900357226108044	5.4440017	2.3332384
5.917907302006979	5.523136	2.3501353
5.9354575168406	6.1948795	2.4889514
5.9530078710238765	6.9247055	2.6314836
5.970558364971812	7.467064	2.7325928
5.988108999099438	7.7880273	2.7907038
6.005659773821818	8.324726	2.88526
6.023210689554039	8.019747	2.8319159
6.040761746711227	8.388197	2.8962383
6.058312945708531	7.6199727	2.7604299
6.075864286961132	7.101798	2.6649199
6.093415770884244	6.4920144	2.547943
6.1109673978931065	5.9553657	2.4403617
6.128519168402993	5.371497	2.3176491
6.146071082829204	5.190902	2.2783551
6.163623141587075	5.061918	2.2498705
6.181175345091969	5.116806	2.2620358
6.198727693759281	5.13797	2.266709
6.216280188004435	5.2032213	2.2810571
6.233832828242885	5.1787424	2.275685
6.251385614890126	5.172215	2.2742505
6.268938548361669	5.126654	2.2642117
6.286491629073067	5.02732	2.2421687
6.304044857439898	4.9695735	2.229254
6.321598233877777	4.8819075	2.209504
6.339151758802344	4.8215656	2.1958063
6.356705432629277	4.8330426	2.1984181
6.37425925577428	4.8692546	2.2066388
6.391813228653095	4.937221	2.2219858
6.409367351681486	4.9692893	2.2291903
6.426921625275259	4.9613986	2.2274196
6.44447604985025	4.9473343	2.2242603
6.46203062582232	4.952103	2.2253323
6.47958535360737	4.9629507	2.2277682
6.497140233621328	4.992629	2.234419
6.514695266280161	5.0273156	2.2421677
6.532250451999859	5.0192995	2.2403793
6.549805791196454	4.988395	2.2334716
6.567361284286002	4.9503756	2.2249439
6.584916931684597	4.9293294	2.2202094
6.602472733808367	4.8986225	2.2132833
6.6200286910734665	4.8765116	2.2082825
6.637584803896092	4.8896747	2.2112608
6.655141072692462	4.9156094	2.2171173
6.672697497878842	5.0044293	2.2370582
6.690254079871514	4.9998765	2.2360404
6.707810819086808	5.0191813	2.2403529
6.725367715941078	4.989421	2.2337012
6.742924770850719	4.9717407	2.2297401
6.760481984232151	5.006996	2.2376318
6.778039356501836	4.9757853	2.2306468
6.795596888076266	4.9596786	2.2270336
6.813154579371963	4.951707	2.225243
6.830712430805492	4.969187	2.2291672
6.84827044279344	4.9704356	2.2294474
6.865828615752445	4.9318647	2.2207801
6.883386950099159	4.9179606	2.2176476
6.900945446250287	4.924647	2.2191546
6.918504104622553	4.939527	2.2225046
6.936062925632727	4.9918914	2.2342541
6.953621909697607	4.996765	2.2353444
6.971181057234028	5.086703	2.255372
6.988740368658859	5.119293	2.2625854
7.006299844389007	5.148123	2.2689476
7.023859484841407	5.1369157	2.2664764
7.041419290433036	5.2603946	2.293555
7.058979261580902	5.43238	2.3307467
7.0765393987020495	5.64663	2.3762639
7.094099702213559	5.9413033	2.4374788
7.111660172532549	6.2345924	2.4969165
7.129220810076164	6.601782	2.5693934
7.146781615261595	7.1653523	2.6768177
7.16434258850606	7.432357	2.726235
7.181903730226821	7.89489	2.8097847
7.1994650408411704	8.066687	2.8401914
7.217026520766437	8.26061	2.8741276
7.234588170419983	8.491075	2.913945
7.252149990219215	8.411857	2.90032
7.269711980581568	8.299152	2.880825
7.2872741419245175	8.0042	2.8291695
7.304836474665574	7.594266	2.7557695
7.322398979222286	7.313726	2.70439
7.339961656012233	7.114656	2.6673312
7.357524505453039	6.7991133	2.607511
7.375087527962357	6.422596	2.534284
7.392650723957886	6.1426287	2.4784327
7.410214093857353	5.845577	2.4177628
7.427777638078528	5.6054707	2.3675876
7.445341357039213	5.496874	2.3445413
7.4629052511572525	5.3968873	2.32312
7.480469320850524	5.3804445	2.3195784
7.498033566536948	5.3755302	2.3185189
7.5155979886344735	5.33369	2.3094783
7.5331625875610975	5.299897	2.3021505
7.550727363734844	5.3251934	2.3076382
7.568292317573788	5.236115	2.288256
7.585857449496025	5.1829123	2.276601
7.603422759919705	5.1677485	2.2732682
7.620988249263007	5.175606	2.2749958
7.638553917944147	5.1851354	2.277089
7.656119766381391	5.137716	2.266653
7.673685794993023	5.1238146	2.2635844
7.691252004197388	5.100145	2.2583501
7.70881839441285	5.105346	2.2595012
7.726384966057826	5.0935283	2.2568846
7.743951719550762	5.0619316	2.2498736
7.761518655310149	5.0936093	2.2569027
7.779085773754511	5.1113133	2.2608213
7.796653075302419	5.199852	2.2803185
7.814220560372475	5.2931437	2.3006833
7.831788229383323	5.3476315	2.3124948
7.8493560827536495	5.3278675	2.3082173
7.866924120902174	5.3154707	2.3055305
7.884492344247663	5.2599983	2.2934687
7.9020607532089135	5.2795362	2.2977242
7.919629348204771	5.2675805	2.295121
7.937198129654115	5.260438	2.2935646
7.954767097975865	5.2723856	2.2961676
7.972336253588986	5.296004	2.3013048
7.989905596912472	5.376499	2.318728
8.007475128365371	5.3297124	2.3086169
8.025044848366756	5.3174305	2.3059554
8.042614757335754	5.3688416	2.3170762
8.060184855691523	5.4712014	2.3390598
8.07775514385327	5.663653	2.379843
8.095325622240228	5.79778	2.407858
8.112896291271687	5.810478	2.4104934
8.130467151366968	5.814941	2.411419
8.148038202945436	5.8283234	2.414192
8.165609446426497	5.8026447	2.4088678
8.183180882229594	5.8523145	2.4191558
8.200752510774217	5.8646755	2.4217093
8.218324332479893	5.901502	2.4293008
8.235896347766193	5.8795104	2.42477
8.253468557052724	5.8715444	2.423127
8.27104096075914	5.849606	2.4185958
8.288613559305137	5.9227915	2.4336786
8.306186353110448	6.030893	2.4557877
8.32375934259485	6.1408525	2.4780743
8.341332528178162	6.1541653	2.480759
8.358905910280246	6.206697	2.4913244
8.376479489321003	6.2246222	2.4949193
8.394053265720377	6.2445264	2.498905
8.411627239898356	6.227861	2.4955683
8.42920141227497	6.227274	2.4954507
8.44677578327029	6.255371	2.501074
8.464350353304427	6.242416	2.4984827
8.48192512279754	6.186147	2.4871967
8.499500092169827	6.1100793	2.4718575
8.51707526184153	6.0906897	2.4679322
8.534650632232934	6.070936	2.463927
8.552226203764365	6.0898247	2.467757
8.569801976856192	6.141867	2.478279
8.587377951928834	6.228319	2.49566
8.60495412940274	6.213467	2.4926827
8.622530509698416	6.287892	2.507567
8.6401070932364	6.4091234	2.5316246
8.657683880437283	6.5489984	2.559101
8.675260871721695	6.6717005	2.5829635
8.692838067510303	6.7933655	2.6064086
8.710415468223834	6.9790754	2.641794
8.727993074283043	7.1195774	2.6682537
8.745570886108737	7.0514455	2.6554558
8.763148904121765	7.035966	2.6525395
8.78072712874302	7.0068274	2.6470413
8.798305560393441	7.2004747	2.68337
8.815884199494006	7.3662047	2.7140753
8.833463046465745	7.5952616	2.7559502
8.851042101729728	7.7978697	2.7924666
8.86862136570707	8.019237	2.8318257
8.886200838818924	8.191458	2.8620722
8.903780521486505	8.222342	2.8674626
8.921360414131055	8.307055	2.8821962
8.938940517173874	8.406182	2.8993416
8.956520831036297	8.580393	2.9292307
8.97410135613971	8.950987	2.99182
8.99168209290554	9.168998	3.0280354
9.009263041755265	9.373656	3.0616426
9.026844203110405	9.573438	3.0940971
9.044425577392525	9.765297	3.1249475
9.062007165023239	9.849162	3.1383374
9.079588966424197	10.125504	3.1820595
9.097170982017108	10.225157	3.19768
9.11475321222372	11.365591	3.3712893
9.132335657465825	12.312009	3.5088472
9.149918318165264	12.461447	3.5300775
9.167501194743924	13.0090885	3.6068115
9.18508428762374	12.596326	3.5491302
9.202667597226693	12.620928	3.5525944
9.220251123974803	12.37668	3.5180507
9.237834868290143	12.109439	3.479862
9.255418830594836	11.806625	3.436077
9.273003011311046	11.1869135	3.3446844
9.290587410860985	11.025349	3.320444
9.308172029666911	10.466771	3.235239
9.32575686815113	10.233934	3.199052
9.343341926735997	8.755665	2.9589972
9.360927205843916	8.496287	2.9148393
9.378512705897327	8.327657	2.885768
9.396098427318728	8.140664	2.853185
9.413684370530664	8.004293	2.829186
9.431270535955722	7.901978	2.8110456
9.448856924016539	7.7704544	2.7875535
9.466443535135806	7.6582727	2.7673585
9.484030369736251	7.574082	2.752105
9.501617428240658	7.582082	2.753558
9.519204711071852	7.6678934	2.7690961
9.536792218652714	7.682163	2.7716715
9.55437995140617	7.6897345	2.773037
9.571967909755191	7.6473856	2.7653906
9.589556094122802	7.683098	2.77184
9.60714450493207	7.7896485	2.7909942
9.624733142606116	7.8549404	2.8026667
9.642322007568108	7.957141	2.8208404
9.659911100241267	8.00258	2.8288832
9.677500421048851	7.935997	2.8170903
9.695089970414175	7.963896	2.8220375
9.712679748760609	8.019743	2.8319151
9.730269756511557	8.094889	2.845152
9.747859994090492	8.181016	2.8602476
9.765450461920915	8.150808	2.854962
9.78304116042639	8.133424	2.8519158
9.800632090030527	8.131706	2.8516147
9.81822325115699	8.117346	2.8490956
9.835814644229481	8.103142	2.8466017
9.853406269671762	8.154384	2.8555882
9.870998127907646	8.238813	2.8703334
9.888590219360985	8.306991	2.882185
9.906182544455698	8.331186	2.8863795
9.923775103615734	8.263888	2.874698
9.941367897265108	8.17852	2.8598113
9.958960925827878	8.108139	2.8474793
9.97655418972816	8.107464	2.8473608
9.994147689390106	8.102349	2.8464625
10.011741425237934	8.126485	2.850699
10.029335397695904	8.185031	2.8609493
10.04692960718833	8.212319	2.8657146
10.06452405413958	8.218277	2.8667538
10.082118738974064	8.150877	2.854974
10.099713662116246	8.147112	2.8543146
10.117308823990651	8.18433	2.8608267
10.134904225021844	8.276021	2.8768075
10.152499865634445	8.287619	2.8788223
10.170095746253125	8.308079	2.8823738
10.18769186730261	8.272965	2.8762763
10.205288229207675	8.166138	2.8576455
10.222884832393145	8.1036	2.8466823
10.2404816772839	8.0743065	2.8415325
10.258078764304868	8.056741	2.83844
10.275676093881035	8.108158	2.8474827
10.293273666437438	8.08876	2.8440747
10.310871482399158	8.150567	2.85492
10.32846954219134	8.163697	2.8572185
10.346067846239173	8.17922	2.8599336
10.363666394967908	8.134931	2.85218
10.38126518880283	8.116673	2.8489776
10.398864228169298	8.051257	2.8374736
10.416463513492713	8.020954	2.832129
10.434063045198531	8.0470495	2.8367321
10.451662823712262	8.040798	2.8356302
10.469262849459467	8.046241	2.8365896
10.486863122865758	8.055994	2.8383083
10.504463644356806	8.057212	2.838523
10.522064414358338	8.037709	2.8350854
10.539665433296118	7.885214	2.8080623
10.557266701595987	7.7753286	2.7884276
10.574868219683818	7.7169538	2.7779405
10.592469987985552	7.6856813	2.7723062
10.610072006927185	7.6136107	2.759277
10.627674276934751	7.4779396	2.7345822
10.64527679843435	7.3071456	2.7031732
10.662879571852143	7.210799	2.6852932
10.680482597614331	7.143087	2.6726553
10.698085876147173	7.0978255	2.6641746
10.715689407876988	6.9922805	2.644292
10.733293193230146	6.903272	2.6274078
10.750897232633072	6.7491283	2.5979085
10.76850152651225	6.6629515	2.5812693
10.786106075294207	6.542866	2.5579028
10.803710879405534	6.498926	2.5492992
10.821315939272877	6.4631634	2.5422752
10.83892125532294	6.3986	2.5295455
10.856526827982472	6.347183	2.5193617
10.874132657678285	6.250291	2.5000582
10.891738744837243	6.1815157	2.4862654
10.909345089886271	6.112589	2.4723651
10.926951693252343	6.1039653	2.4706204
10.944558555362494	6.0713997	2.464021
10.96216567664381	5.999861	2.4494612
10.979773057523436	5.97516	2.4444141
10.997380698428573	5.8824215	2.4253705
11.014988599786477	5.80181	2.4086945
11.032596762024461	5.745721	2.3970234
11.050205185569892	5.651096	2.3772035
11.067813870850198	5.5655255	2.3591366
11.085422818292859	5.4931602	2.3437493
11.10303202832541	5.5015273	2.3455334
11.120641501375454	5.4571185	2.3360476
11.138251237870636	5.3476653	2.312502
11.155861238238671	5.2427874	2.2897134
11.173471502907317	5.1493077	2.2692087
11.191082032304402	5.1281366	2.264539
11.208692826857805	5.1123967	2.261061
11.226303886995465	5.0626235	2.2500274
11.243915213145371	5.014214	2.239244
11.261526805735578	4.9623733	2.2276385
11.279138665194196	4.9094157	2.2157202
11.296750791949393	4.8172607	2.194826
11.314363186429393	4.813726	2.1940205
11.331975849062479	4.773102	2.184743
11.34958878027699	4.7297864	2.1748073
11.36720198050133	4.6674356	2.160425
11.384815450163948	4.624945	2.1505685
11.402429189693366	4.6180687	2.1489692
11.420043199518153	4.508464	2.1233144
11.437657480066942	63.42266	7.963835
11.455272031768422	85.104095	9.225188
11.472886855051353	107.507576	10.368586
11.490501950344528	99.12365	9.956086
11.508117318076819	84.49096	9.191896
11.52573295867715	45.899036	6.774883
11.543348872574514	4.1976924	2.0488272
11.560965060197946	4.116666	2.028957
11.57858152197655	4.074191	2.0184627
11.59619825833949	4.024391	2.0060885
11.613815269715985	4.012283	2.0030684
11.631432556535323	38.53802	6.2079
11.649050119226837	83.030235	9.112093
11.666667958219929	93.359955	9.662295
11.68428607394406	107.57696	10.371931
11.701904466828756	82.379326	9.076305
11.719523137303586	65.23956	8.077101
11.737142085798196	4.495771	2.1203234
11.754761312742286	3.6529944	1.9112809
11.772380818565619	3.6651044	1.9144462
11.790000603698015	3.6524405	1.9111359
11.80762066856935	3.5802572	1.8921567
11.825241013609572	3.5292761	1.8786367
11.842861639248683	3.4858391	1.8670402
11.860482545916748	3.4624996	1.8607793
11.878103734043883	3.4457753	1.85628
11.895725204060282	3.4126668	1.8473405
11.91334695639619	3.4238896	1.8503755
11.930968991481919	3.4139462	1.8476866
11.948591309747824	3.408186	1.8461273
11.966213911624347	3.32978	1.8247685
11.98383679754198	3.268984	1.8080332
12.001459967931268	3.2464838	1.8018001
12.019083423222835	3.2264688	1.7962373
12.036707163847352	3.2487028	1.8024158
12.05433119023556	3.2271342	1.7964226
12.071955502818259	3.2174952	1.7937378
12.089580102026313	3.1563358	1.776608
12.107204988290643	3.1035507	1.7616897
12.12483016204224	3.0934837	1.7588302
12.142455623712152	3.076294	1.7539366
12.16008137373149	3.065173	1.7507635
12.177707412531431	3.06001	1.7492884
12.19533374054321	3.0596054	1.7491728
12.212960358198126	3.041415	1.7439653
12.230587265927545	3.0182853	1.7373213
12.248214464162889	3.024644	1.7391503
12.265841953335649	3.0024993	1.7327721
12.283469733877375	2.9807532	1.7264858
12.301097806219685	2.9441829	1.7158622
12.31872617079425	2.9168863	1.7078894
12.336354828032825	2.9199321	1.7087809
12.353983778367205	2.8979743	1.7023437
12.371613022229262	2.878016	1.6964716
12.389242560050928	2.8771927	1.696229
12.406872392264201	2.8628333	1.691991
12.424502519301143	2.8847318	1.6984499
12.442132941593874	2.8620365	1.6917554
12.459763659574586	2.8300536	1.6822762
12.477394673675532	2.8220444	1.6798942
12.49502598432903	2.8400633	1.6852487
12.51265759196746	2.836943	1.6843227
12.530289497023267	2.8472326	1.6873745
12.547921699928967	2.82664	1.6812614
12.565554201117134	2.8183541	1.6787955
12.583187001020404	2.7920375	1.6709391
12.600820100071486	2.7823484	1.6680373
12.618453498703152	2.7729871	1.6652288
12.636087197348235	2.7388842	1.6549574
12.65372119643964	2.738581	1.6548659
12.671355496410326	2.7305396	1.6524345
12.68899009769333	2.7885337	1.6698903
12.706625000721749	2.8412833	1.6856107
12.724260205928752	2.9068255	1.7049415
12.741895713747551	2.9410574	1.7149512
12.759531524611454	2.9820814	1.7268704
12.777167638953818	2.9810722	1.7265781
12.794804057208072	2.9910145	1.729455
12.812440779807702	3.0109637	1.7352129
12.830077807186271	3.1511965	1.775161
12.847715139777405	3.1883295	1.7855893
12.865352778014795	3.4540908	1.8585185
12.882990722332197	3.5864732	1.8937986
12.90062897316344	3.6700542	1.9157386
12.918267530942412	3.7445369	1.9350805
12.935906396103071	3.6432328	1.9087255
12.953545569079449	3.8424535	1.9602177
12.971185050305628	3.6446116	1.9090866
12.988824840215775	3.64307	1.9086828
13.006464939244115	3.6228538	1.9033796
13.024105347824943	3.4924178	1.8688011
13.041746066392617	3.561743	1.887258
13.05938709538157	3.3597577	1.8329642
13.077028435226296	3.3716347	1.8362012
13.094670086361363	3.278533	1.8106719
13.112312049221401	3.171943	1.7809949
13.129954324241112	3.0708795	1.7523925
13.147596911855258	2.882316	1.6977385
13.165239812498685	2.8622508	1.6918188
13.182883026606293	2.7849967	1.668831
13.200526554613058	2.723554	1.6503193
13.218170396954017	2.6886563	1.6397122
13.235814554064284	2.69396	1.6413287
13.253459026379034	2.7244847	1.6506013
13.271103814333523	2.700824	1.6434184
13.288748918363058	2.6570435	1.630044
13.306394338903031	2.6479974	1.6272669
13.32404007638889	2.6595917	1.6308254
13.341686131256164	2.6842148	1.6383574
13.359332503940449	2.6872716	1.63929
13.376979194877402	2.693192	1.6410948
13.394626204502751	2.715601	1.6479081
13.412273533252307	2.7372873	1.654475
13.429921181561937	2.7207494	1.6494694
13.447569149867581	2.7120497	1.6468302
13.465217438605247	2.6690214	1.633714
13.482866048211022	2.6732032	1.6349933
13.500514979121052	2.6367378	1.6238035
13.518164231771568	2.6465137	1.6268109
13.535813806598844	2.6682339	1.6334729
13.553463704039254	2.6873314	1.6393082
13.571113924529229	2.6580727	1.6303596
13.588764468505275	2.6715183	1.634478
13.606415336403956	2.698932	1.6428427
13.624066528661917	2.728839	1.6519197
13.641718045715882	2.8018112	1.6738611
13.659369888002635	2.8741887	1.6953433
13.67702205595903	2.9182913	1.7083007
13.694674550021993	2.928229	1.7112069
13.712327370628532	2.983849	1.7273822
13.729980518215713	3.0657957	1.7509414
13.747633993220681	3.122817	1.7671494
13.765287796080647	3.1676033	1.7797762
13.7829419272329	3.2175345	1.7937487
13.800596387114801	3.2733097	1.809229
13.818251176163775	3.314865	1.8206772
13.835906294817324	3.3673625	1.8350375
13.853561743513023	3.413018	1.8474355
13.871217522688525	3.4392328	1.8545169
13.888873632781538	3.4644725	1.8613094
13.906530074229858	3.5086524	1.8731397
13.92418684747135	3.552209	1.8847305
13.941843952943948	3.5468204	1.8833004
13.959501391085665	3.5052915	1.8722423
13.977159162334578	3.4197474	1.8492559
13.994817267128846	3.3486316	1.8299267
14.012475705906693	3.2579808	1.8049878
14.030134479106424	3.1848032	1.7846017
14.047793587166414	3.1286068	1.7687868
14.065453030525108	3.0643253	1.7505214
14.083112809621026	3.0020862	1.7326529
14.100772924892766	2.9537394	1.7186446
14.118433376778997	2.8590164	1.6908627
14.136094165718458	2.8202548	1.6793615
14.153755292149969	2.7708926	1.6645999
14.171416756512416	2.702642	1.6439714
14.189078559244768	2.6163409	1.6175107
14.20674070078606	2.537434	1.5929326
14.224403181575408	2.4770727	1.5738719
14.242066002051999	2.4672902	1.570761
14.259729162655093	2.4480515	1.564625
14.277392663824022	2.4429648	1.5629987
14.295056505998208	2.4305558	1.559024
14.312720689617128	2.3754976	1.5412649
14.330385215120348	2.3898306	1.5459077
14.348050082947497	2.3838968	1.5439873
14.3657152935383	2.3873591	1.5451081
14.383380847332528	2.3791487	1.5424489
14.401046744770051	2.3627427	1.5371215
14.418712986290798	2.3621306	1.5369225
14.436379572334793	2.3713002	1.5399027
14.454046503342123	2.4007144	1.5494239
14.471713779752946	2.390414	1.5460963
14.489381402007504	2.396081	1.547928
14.507049370546113	2.4011972	1.5495797
14.524717685809168	2.4057817	1.5510583
14.542386348237134	2.4069347	1.5514299
14.560055358270553	2.3940747	1.5472797
14.577724716350051	2.4345496	1.5603043
14.595394422916325	2.4338481	1.5600796
14.61306447841015	2.4471138	1.5643253
14.63073488327237	2.4029498	1.5501451
14.648405637943917	2.4166524	1.5545586
14.6660767428658	2.4544783	1.5666775
14.683748198479094	2.4988759	1.5807832
14.701420005224954	2.5162609	1.5862726
14.719092163544628	2.581925	1.6068369
14.73676467387942	2.6489117	1.6275477
14.754437536670727	2.7138288	1.6473702
14.772110752360014	2.7046776	1.6445904
14.78978432138882	2.6937616	1.6412683
14.807458244198777	2.6304524	1.621867
14.82513252123159	2.5942945	1.6106814
14.842807152929028	2.6102562	1.6156287
14.860482139732962	2.6093369	1.6153442
14.87815748208531	2.6210756	1.6189736
14.8958331804281	2.663312	1.6319656
14.91350923520342	2.6581998	1.6303986
14.931185646853438	2.6962316	1.6420206
14.948862415820408	2.6745298	1.635399
14.966539542546656	2.6825557	1.6378509
14.98421702747459	2.6225379	1.6194252
15.001894871046696	2.623001	1.6195682
15.019573073705542	2.6104853	1.6156996
15.037251635893766	2.6638217	1.6321218
15.054930558054092	2.6963835	1.6420668
15.072609840629323	2.742661	1.6560981
15.090289484062351	2.8911822	1.7003477
15.107969488796124	3.1783142	1.7827827
15.125649855273691	3.572811	1.8901881
15.14333058393817	4.0597553	2.0148835
15.161011675232768	4.95658	2.226338
15.17869312960076	6.242928	2.4985852
15.196374947485506	7.999103	2.8282685
15.214057129330447	11.058315	3.3254046
15.231739675579114	15.85517	3.9818552
15.249422586675102	20.990028	4.5814877
15.267105863062092	24.250174	4.9244466
15.284789505183847	24.737534	4.9736843
15.302473513484218	22.761393	4.77089
15.320157888407127	19.258713	4.388475
15.337842630396578	14.962816	3.86818
15.355527739896656	11.658932	3.4145179
15.37321321735153	8.997365	2.9995608
15.39089906320545	6.4800844	2.545601
15.408585277902748	4.7997203	2.1908264
15.42627186188783	3.6522703	1.9110914
15.443958815605198	3.1536105	1.7758408
15.461646139499424	2.864811	1.6925752
15.479333834015168	2.7203214	1.6493397
15.497021899597165	2.6509457	1.6281725
15.514710336690234	2.6020598	1.6130902
15.53239914573928	2.536749	1.5927174
15.550088327189297	2.4671865	1.570728
15.567777881485336	2.4630258	1.569403
15.58546780907256	2.4884048	1.5774678
15.6031581103962	2.538769	1.5933515
15.620848785901568	2.532038	1.5912379
15.638539836034063	2.5055122	1.582881
15.656231261239173	2.4618418	1.5690258
15.673923061962451	2.4076962	1.5516753
15.691615238649552	2.3969615	1.5482123
15.709307791746202	2.3797686	1.5426499
15.727000721698221	2.4050753	1.5508305
15.744694028951498	2.406552	1.5513066
15.76238771395202	2.4222674	1.5563636
15.780081777145844	2.4132447	1.5534621
15.797776218979125	2.3865669	1.5448518
15.815471039898094	2.392211	1.5466774
15.833166240349064	2.3823164	1.5434754
15.850861820778437	2.369697	1.5393821
15.868557781632699	2.3531344	1.533993
15.886254123358412	2.3725357	1.5403038
15.903950846402232	2.3942983	1.5473521
15.921647951210897	2.4029696	1.5501515
15.939345438231225	2.4122071	1.5531281
15.957043307910133	2.3788846	1.5423633
15.974741560694602	2.3308334	1.5267067
15.992440197031714	2.3112388	1.5202758
16.01013921736862	2.3356402	1.5282801
16.02783862215259	2.3896449	1.5458477
16.045538411830933	2.383691	1.5439206
16.06323858685107	2.3688557	1.5391088
16.080939147660512	2.4027328	1.550075
16.09864009470684	2.4471805	1.5643467
16.11634142843774	2.411187	1.5527997
16.134043149300954	2.3745925	1.5409713
16.15174525774433	2.336938	1.5287046
16.169447754215817	2.3737226	1.540689
16.18715063916342	2.4088702	1.5520536
16.204853913035244	2.4551647	1.5668966
16.222557576279478	2.459839	1.5683874
16.240261629344403	22.4082	4.73373
16.257966072678386	42.913475	6.5508375
16.275670906729868	38.030262	6.166868
16.293376131947387	2.496919	1.5801642
16.31108174877957	2.5180242	1.5868284
16.328787757675133	2.5515165	1.5973467
16.34649415908287	2.544231	1.5950645
16.364200953451657	2.580084	1.606264
16.38190814123048	2.619583	1.6185125
16.39961572286839	2.6698184	1.6339579
16.41732369881455	2.7011786	1.6435262
16.43503206951817	2.7514381	1.658746
16.45274083542859	2.7626977	1.6621364
16.47044999699522	2.8047433	1.6747367
16.488159554667558	2.8120103	1.6769049
16.505869508895184	2.8439255	1.6863942
16.523579860127786	2.8582213	1.6906275
16.541290608815117	2.8632984	1.6921284
16.559001755407035	2.943594	1.7156905
16.57671330035348	2.9865348	1.7281594
16.59442524410448	3.0628572	1.750102
16.61213758711015	3.1357858	1.770815
16.629850329820705	3.2107775	1.7918643
16.647563472686436	3.3054924	1.8181013
16.665277016157724	3.3634682	1.833976
16.682990960685053	3.4147053	1.8478922
16.70070530671898	3.4633727	1.8610139
16.718420054710155	3.4981909	1.8703451
16.736135205109335	3.5259748	1.8777579
16.753850758367335	3.5395596	1.8813717
16.771566714935087	3.6044374	1.8985356
16.789283075263597	3.7118037	1.9266042
16.80699983980398	3.7936168	1.9477209
16.82471700900741	3.822592	1.955145
16.84243458332518	3.8600447	1.9646996
16.860152563208665	3.9681602	1.9920242
16.87787094910932	4.0357366	2.0089142
16.89558974147871	4.0996695	2.024764
16.913308940768466	4.1554604	2.0384946
16.931028547430333	4.190052	2.0469615
16.94874856191613	4.2527466	2.062219
16.966468984677785	4.3296967	2.0807924
16.98418981616729	4.3592124	2.0878727
17.00191105683676	4.4153576	2.1012752
17.019632707138374	4.456512	2.1110451
17.03735476752442	4.5202327	2.1260839
17.05507723844728	4.5518064	2.1334963
17.072800120359403	4.577023	2.1393979
17.090523413713353	4.5827136	2.1407273
17.108247118961785	4.5721154	2.1382506
17.125971236557437	4.6038117	2.1456494
17.143695766953133	4.659025	2.1584775
17.161420710601806	4.601634	2.145142
17.179146067956477	4.546695	2.132298
17.19687183947025	4.565519	2.1367075
17.21459802559634	4.634953	2.152894
17.232324626788028	4.660411	2.1587985
17.25005164349871	4.605655	2.146079
17.267779076181863	4.582931	2.140778
17.285506925291074	4.58591	2.1414738
17.30323519127999	4.5897636	2.1423733
17.320963874602384	4.571861	2.138191
17.33869297571211	4.5805216	2.1402154
17.356422495063114	4.5759892	2.139156
17.37415243310944	4.5399837	2.1307237
17.391882790305218	4.5016327	2.121705
17.40961356710468	4.471864	2.1146784
17.42734476396215	4.445432	2.1084194
17.445076381332044	4.447775	2.108975
17.462808419668868	4.619394	2.1492774
17.48054087942723	4.7654724	2.1829963
17.498273761061835	4.974108	2.2302709
17.51600706502747	5.39973	2.323732
17.533740791779024	6.0838933	2.4665549
17.551474941771485	7.4810524	2.7351513
17.56920951545993	8.580981	2.9293313
17.586944513299528	10.882562	3.2988727
17.60467993574556	12.564998	3.544714
17.622415783253373	14.450275	3.8013518
17.64015205627843	15.84881	3.9810565
17.657888755276293	17.020472	4.1255875
17.675625880702604	17.507427	4.184188
17.69336343301311	17.448406	4.177129
17.71110141266366	16.593311	4.0734887
17.728839820110178	15.545571	3.9427872
17.746578655808705	14.49557	3.8073049
17.764317920215372	12.9842415	3.6033652
17.7820576137864	11.407748	3.3775358
17.79979773697811	9.3549385	3.0585845
17.81753829024692	7.486925	2.7362247
17.835279274049356	5.795248	2.4073322
17.85302068884201	4.7347264	2.1759427
17.870762535081607	4.086261	2.0214503
17.888504813224934	3.8059077	1.9508736
17.90624752372891	3.6752381	1.917091
17.923990667050536	3.6210718	1.9029114
17.941734243646895	3.5207303	1.8763609
17.959478253975185	3.4617188	1.8605695
17.9772226984927	3.4242904	1.8504838
17.994967577656833	3.4138386	1.8476576
18.01271289192506	3.4078789	1.8460441
18.030458641754965	3.3766885	1.8375767
18.04820482760425	3.312459	1.8200163
18.06595144993067	3.3032703	1.8174901
18.083698509192125	3.2457647	1.8016006
18.101446005846576	3.2258744	1.7960719
18.119193940352105	3.1849725	1.7846491
18.136942313166887	3.193235	1.7869625
18.1546911247492	3.2128932	1.7924545
18.1724403755574	3.1935766	1.7870581
18.19019006604997	3.1508627	1.775067
18.207940196685467	3.0863373	1.7567974
18.225690767922575	3.0691123	1.7518882
18.243441780220046	3.0780444	1.7544357
18.261193234036764	3.0717552	1.7526424
18.278945129831676	3.0462012	1.745337
18.29669746806386	3.0417507	1.7440616
18.314450249192483	3.0623758	1.7499645
18.3322034736768	3.0695095	1.7520015
18.349957141976184	3.0576837	1.7486234
18.3677112545501	3.0665286	1.7511506
18.385465811858108	3.0772824	1.7542185
18.403220814359884	3.078632	1.7546031
18.420976262515172	3.0930936	1.7587193
18.43873215678387	3.1129117	1.7643446
18.456488497625923	3.141411	1.7724026
18.474245285501407	3.2144823	1.7928977
18.492002520870486	3.2724488	1.8089911
18.50976020419343	3.3438897	1.8286306
18.527518335930615	3.593326	1.895607
18.545276916542516	4.1175256	2.0291686
18.563035946489688	4.289397	2.071086
18.580795426232832	4.7580647	2.181299
18.598555356232698	4.655231	2.1575985
18.616315736950185	4.97853	2.231262
18.63407656884626	4.629989	2.151741
18.65183785238201	4.859128	2.204343
18.669599588018617	4.5783854	2.1397161
18.68736177621737	4.573789	2.1386418
18.705124417439652	4.5660257	2.136826
18.72288751214696	4.411906	2.1004536
18.740651060800886	4.5478597	2.1325712
18.758415063863115	4.275115	2.067635
18.77617952179546	4.444026	2.1080859
18.793944435059814	4.1820083	2.044996
18.811709804118184	4.122829	2.0304751
18.829475629432675	4.07455	2.0185516
18.8472419114655	3.9036467	1.9757649
18.86500865067897	4.023363	2.0058322
18.88277584753551	3.705146	1.9248756
18.90054350249763	3.7447197	1.9351279
18.918311616027957	3.4386003	1.8543463
18.936080188589226	3.3348238	1.8261501
18.953849220644265	3.0252147	1.7393144
18.971618712656007	2.8704088	1.694228
18.9893886650875	2.8038425	1.6744678
19.007159078401887	7.957215	2.8208535
19.024929953062408	32.84489	5.731046
19.042701289532435	32.816044	5.728529
19.060473088275405	25.390024	5.0388513
19.07824534975489	2.637418	1.624013
19.096018074434568	2.6089299	1.6152182
19.113791262778197	2.5912848	1.6097468
19.13156491524966	2.604299	1.6137841
19.149339032312945	2.5894308	1.6091708
19.167113614432136	2.5541813	1.5981807
19.184888662071433	2.5481493	1.5962924
19.202664175695123	2.5524797	1.5976481
19.220440155767623	2.5552828	1.5985252
19.238216602753447	2.5240998	1.5887415
19.2559935171172	2.4957886	1.5798064
19.27377089932361	2.4901652	1.5780257
19.291548749837514	2.460966	1.5687467
19.309327069123835	2.440179	1.5621073
19.32710585764763	2.4361043	1.5608025
19.344885115874032	2.4581943	1.567863
19.362664844268313	2.4386256	1.56161
19.380445043295822	2.4437468	1.5632488
19.39822571342203	2.4978592	1.5804617
19.41600685511252	2.5210106	1.587769
19.43378846883297	2.497325	1.5802927
19.451570555049173	2.4580264	1.5678095
19.469353114227037	2.4602733	1.5685258
19.48713614683254	2.4837964	1.5760064
19.50491965333182	2.5071259	1.5833906
19.52270363419109	2.4867868	1.576955
19.540488089876686	2.4915843	1.5784754
19.55827302085503	2.462948	1.5693783
19.576058427592674	2.480392	1.574926
19.593844310556282	2.5222156	1.5881485
19.611630670212598	2.5252035	1.5890889
19.629417507028506	2.4986668	1.5807172
19.64720482147098	2.4863005	1.5768007
19.6649926140071	2.4979227	1.5804818
19.682780885104084	2.5257678	1.5892664
19.70056963522921	2.5072002	1.5834141
19.718358864849908	2.489491	1.5778121
19.7361485744337	2.4448752	1.5636097
19.753938764448215	2.462816	1.5693362
19.771729435361202	2.4555728	1.5670267
19.789520587640506	2.482466	1.5755843
19.807312221754092	2.4663873	1.5704736
19.825104338170043	2.5382674	1.5931941
19.842896937356517	2.5099108	1.5842698
19.860690019781824	2.4990966	1.5808531
19.87848358591436	2.498077	1.5805305
19.896277636222635	2.5325887	1.5914109
19.914072171175278	2.5135963	1.5854325
19.931867191241015	2.4560683	1.5671848
19.94966269688869	2.4256	1.5574338
19.967458688587264	2.418496	1.5551515
19.985255166805807	2.4114776	1.5528933
20.00305213201348	2.4207854	1.5558873
20.020849584679578	2.4249358	1.5572206
20.038647525273507	2.395851	1.5478536
20.05644595426477	2.3862548	1.5447507
20.07424487212299	2.3834887	1.5438551
20.092044279317903	2.4296796	1.558743
20.109844176319353	2.4686973	1.5712088
20.127644563597304	2.5145895	1.5857457
20.145445441621817	2.5018024	1.5817087
20.16324681086307	2.477555	1.5740252
20.181048671791373	2.4302542	1.5589273
20.198851024877122	2.4173937	1.5547969
20.216653870590836	2.4263432	1.5576724
20.234457209403146	2.4333725	1.5599271
20.252261041784802	2.3986623	1.5487616
20.270065368206662	2.3460088	1.5316687
20.287870189139685	2.3457158	1.5315729
20.305675505054968	2.3709035	1.5397738
20.323481316423702	2.3764446	1.5415721
20.341287623717207	2.3362737	1.5284873
20.359094427406884	2.3082912	1.5193062
20.376901727964288	2.3233166	1.524243
20.39470952586107	2.343081	1.5307126
20.41251782156899	2.385178	1.5444021
20.430326615559935	2.3559062	1.5348961
20.448135908305886	2.2951505	1.5149754
20.465945700278965	2.265053	1.5050093
20.483755991951384	2.307277	1.5189724
20.50156678379548	2.321321	1.5235882
20.519378076283708	2.3171523	1.5222195
20.537189869888635	2.3100433	1.5198827
20.55500216508294	2.3237345	1.5243801
20.572814962339415	2.3423018	1.5304581
20.59062826213098	2.3361044	1.528432
20.60844206493066	2.3156862	1.5217379
20.626256371211593	2.3211007	1.5235159
20.644071181447032	2.3133152	1.5209587
20.66188649611036	2.29155	1.5137867
20.67970231567506	2.2996316	1.5164536
20.697518640614742	2.2938795	1.5145559
20.715335471403122	2.283138	1.5110056
20.73315280851404	2.2773857	1.5091009
20.750970652421447	2.283534	1.5111367
20.768789003599412	2.27894	1.5096158
20.786607862522136	2.2485104	1.4995034
20.8044272296639	2.2747595	1.5082306
20.82224710549913	2.2877772	1.51254
20.84006749050237	2.2739885	1.507975
20.857888385148268	3.7937596	1.9477576
20.8757097899116	45.92362	6.7766967
20.893531705267254	64.77006	8.047985
20.911354131690224	83.7759	9.152918
20.92917706965566	68.9964	8.306407
20.94700051963877	50.08204	7.0768666
20.96482448211493	29.385992	5.4208846
20.982648957559622	4.0817075	2.0203235
21.00047394644843	2.1806045	1.476687
21.01829944925707	2.1971946	1.4822937
21.036125466461375	2.2389767	1.4963211
21.053951998537297	2.245994	1.4986641
21.071779045960906	2.251131	1.5003769
21.089606609208378	2.2361696	1.4953828
21.10743468875603	2.2035038	1.4844204
21.12526328508028	2.1970587	1.4822478
21.143092398657675	2.2071607	1.4856516
21.16092202996488	2.2204401	1.4901141
21.17875217947867	2.1881876	1.4792523
21.19658284767596	2.1712286	1.473509
21.21441403503377	2.157043	1.4686875
21.232245742029225	2.1827016	1.4773968
21.2500779691396	2.1966612	1.4821137
21.26791071684227	2.208148	1.4859838
21.28574398561475	2.1813018	1.4769231
21.30357777593465	2.1383324	1.4623038
21.321412088279704	2.1388357	1.4624759
21.339246923127792	2.1374278	1.4619944
21.357082280956888	2.1112685	1.4530205
21.3749181622451	2.1018815	1.4497867
21.392754567470647	2.1082184	1.4519706
21.41059149711187	2.1061864	1.4512706
21.42842895164726	2.1102314	1.4526635
21.446266931555378	2.1290727	1.4591342
21.464105437314945	2.1506753	1.466518
21.481944469404798	2.1373453	1.4619663
21.49978402830388	2.145802	1.4648557
21.51762411449127	2.105325	1.4509737
21.53546472844617	2.0817287	1.4428197
21.553305870647876	2.0621388	1.4360149
21.571147541575865	2.0719624	1.4394313
21.58898974170967	2.0655088	1.4371878
21.60683247152899	2.048442	1.4312379
21.62467573151363	2.024104	1.4227102
21.642519522143523	2.0245311	1.4228601
21.660363843898722	2.0454745	1.4302008
21.6782086972594	2.0723684	1.4395723
21.696054082705864	2.0805295	1.442404
21.713900000718535	2.0490189	1.4314394
21.73174645177795	1.9946253	1.412312
21.749593436364794	2.0177865	1.4204881
21.767440954959845	2.0178647	1.4205157
21.785289008044032	2.0449963	1.4300337
21.803137596098388	2.0311933	1.4251994
21.820986719604086	2.0213757	1.4217509
21.838836379042412	1.9793777	1.4069036
21.85668657489478	2.0019052	1.414887
21.87453730764273	2.0429647	1.4293232
21.892388577767914	2.0598578	1.4352205
21.91024038575213	2.0285828	1.4242833
21.928092732077285	2.0023665	1.41505
21.945945617225426	2.006755	1.4165999
21.963799041678694	1.9946507	1.4123211
21.981653005919398	31.300129	5.5946517
21.999507510429943	78.12156	8.83864
22.01736255569286	73.103294	8.550047
22.035218142190818	4.1840067	2.0454845
22.05307427040661	2.0052786	1.4160786
22.07093094082315	1.9954464	1.4126027
22.088788153923474	2.0022862	1.4150217
22.106645910190746	1.9888378	1.4102616
22.12450421010827	1.9735637	1.4048358
22.142363054159464	1.9721152	1.4043201
22.16022244282787	1.9668517	1.402445
22.178082376597164	1.9787015	1.4066633
22.195942855951145	1.9660165	1.4021472
22.213803881373742	1.9761535	1.4057573
22.231665453349002	1.9969314	1.4131283
22.24952757236111	2.011653	1.4183276
22.26739023889438	2.0369868	1.4272305
22.28525345343323	2.0087209	1.4172935
22.30311721646225	1.9599617	1.3999863
22.320981528466113	1.9426152	1.3937773
22.33884638992964	1.9593347	1.3997624
22.356711801337788	1.9814576	1.4076426
22.37457776317561	1.9860383	1.4092687
22.392444275928337	1.9706299	1.4037913
22.410311340081282	1.9620844	1.4007442
22.428178956119904	1.9639688	1.4014167
22.446047124529805	1.9887555	1.4102324
22.46391584579669	1.9762087	1.4057769
22.481785120406414	1.9355876	1.391254
22.49965494884496	1.9408878	1.3931575
22.51752533159841	1.930775	1.3895233
22.53539626915302	1.9094393	1.3818246
22.553267761995137	1.8854947	1.3731332
22.571139810611264	1.8839653	1.3725761
22.589012415488025	1.8749849	1.3693008
22.60688557711216	1.9029964	1.3794913
22.624759295970566	1.9659272	1.4021152
22.642633572550263	2.00029	1.414316
22.660508407338362	1.9859076	1.4092224
22.67838380082217	1.9264108	1.387952
22.696259753489077	1.8892953	1.3745164
22.714136265826614	1.8670652	1.366406
22.73201333832246	1.8608481	1.3641291
22.74989097146439	1.8618755	1.3645056
22.76776916574035	1.8877251	1.3739451
22.785647921638393	1.9042219	1.3799355
22.803527239646712	1.9015296	1.3789595
22.82140712025363	1.889568	1.3746156
22.839287563947593	1.9097425	1.3819343
22.85716857121719	1.9057132	1.3804758
22.875050142551135	1.8554845	1.3621616
22.892932278438277	1.8345755	1.354465
22.910814979367604	1.8605125	1.364006
22.928698245828222	1.9221708	1.3864237
22.946582078309387	1.9158194	1.3841313
22.96446647730047	1.8700649	1.3675032
22.98235144329098	1.8503568	1.3602782
23.000236976770562	1.8604571	1.3639858
23.018123078229	1.8682698	1.3668467
23.03600974815619	1.8770187	1.3700433
23.053896987042194	1.8931007	1.3759
23.071784795377173	1.8991996	1.3781145
23.08967317365145	1.8967406	1.3772221
23.10756212235546	1.884252	1.3726805
23.125451641979787	1.9076805	1.381188
23.143341733015134	1.9658879	1.4021013
23.161232395952357	1.9965922	1.4130082
23.179123631282426	1.9662647	1.4022356
23.197015439496468	1.9210697	1.3860266
23.214907821085717	1.9066116	1.3808011
23.23280077654157	1.8908669	1.375088
23.250694306355538	1.8985401	1.3778752
23.268588411019277	1.9188697	1.3852327
23.28648309102458	1.9398205	1.3927743
23.304378346863356	1.905954	1.3805629
23.322274179027676	1.8780504	1.3704199
23.340170588009723	1.8953037	1.3767003
23.358067574301852	1.9164132	1.3843458
23.37596513839651	1.9100075	1.3820302
23.39386328078629	1.8648251	1.365586
23.411762001963947	1.8373091	1.3554738
23.429661302422353	1.872213	1.3682884
23.4475611826545	1.9218342	1.3863024
23.46546164315356	1.9435052	1.3940965
23.48336268441279	1.9339465	1.3906641
23.501264306925638	1.8838955	1.3725507
23.51916651118564	1.8807021	1.3713869
23.537069297686497	1.9043804	1.379993
23.554972666922037	1.9561428	1.3986218
23.57287661938623	1.9451689	1.3946931
23.59078115557318	1.9309248	1.3895772
23.608686275977128	1.9223583	1.3864913
23.62659198109246	1.9098876	1.3819869
23.6444982714137	1.9003155	1.3785193
23.66240514743549	1.8744936	1.3691214
23.68031260965263	1.8830042	1.372226
23.698220658560068	1.8243333	1.3506788
23.716129294652845	1.7933719	1.3391683
23.7340385184262	1.8083255	1.3447399
23.75194833037546	1.8611768	1.3642496
23.769858730996123	1.9266183	1.3880268
23.78776972078382	1.9224999	1.3865424
23.80568130023431	1.9160119	1.3842008
23.823593469843495	1.9112602	1.3824834
23.841506230107424	1.9107838	1.382311
23.859419581522275	1.8552077	1.3620601
23.87733352458438	1.8513434	1.3606408
23.89524805979019	1.8341441	1.3543057
23.913163187636318	1.8661832	1.3660831
23.931078908619508	1.8957953	1.3768789
23.948995223236633	1.9438936	1.3942358
23.966912131984735	1.955141	1.3982636
23.98482963536096	1.9986844	1.4137484
24.002747733862616	2.0014393	1.4147223
24.020666427987155	2.0007803	1.4144894
24.038585718232156	1.9875108	1.409791
24.056505605095353	2.0157115	1.4197576
24.074426089074617	2.0187392	1.4208235
24.092347170667946	2.0406485	1.4285127
24.110268850373515	2.0493405	1.4315518
24.128191128689586	2.0744245	1.4402863
24.146114006114626	2.0687602	1.4383185
24.164037483147187	2.0904994	1.445856
24.181961560286005	2.0874014	1.4447842
24.199886238029926	2.0720506	1.439462
24.21781151687797	2.0671053	1.4377431
24.235737397329274	2.0370169	1.427241
24.253663879883135	2.0232449	1.4224081
24.271590965038975	2.0450752	1.4300612
24.289518653296376	2.0631123	1.4363538
24.30744694515505	2.0162013	1.41993
24.32537584111486	2.0245833	1.4228785
24.34330534167581	2.0419054	1.4289526
24.361235447338046	2.0357563	1.4267993
24.379166158601876	2.0144246	1.4193043
24.39709747596772	2.0278933	1.4240412
24.41502939993615	2.0492027	1.4315037
24.432961931007917	2.0620165	1.4359723
24.450895069683856	2.0484436	1.4312384
24.468828816465	2.0284507	1.4242369
24.4867631718525	1.981863	1.4077866
24.504698136347656	1.9595412	1.3998362
24.52263371045192	1.9528722	1.397452
24.540569894666874	1.9429245	1.3938882
24.558506689494266	1.9347223	1.3909429
24.57644409543597	1.9392703	1.3925768
24.594382112994012	1.9365445	1.3915979
24.61232074267057	1.9518446	1.3970844
24.630259984967953	1.9612534	1.4004476
24.64819984038863	1.944637	1.3945024
24.66614030943522	1.8919625	1.3754863
24.684081392610462	1.8869532	1.3736641
24.702023090417274	1.9015237	1.3789575
24.7199654033587	1.9025869	1.3793429
24.737908331937927	1.9586899	1.3995321
24.755851876658305	1.9977286	1.4134103
24.773796038023324	2.032001	1.4254827
24.79174081653661	2.038875	1.4278919
24.809686212701962	2.0842206	1.443683
24.827632227023294	2.087134	1.4446917
24.8455788600047	2.0912154	1.4461036
24.8635261121504	2.115484	1.4544704
24.88147398396475	2.1129534	1.4536002
24.899422475952303	2.0744574	1.4402977
24.917371588617698	2.0822678	1.4430065
24.935321322465768	2.1469626	1.4652517
24.953271678001478	2.2985106	1.516084
24.97122265572994	2.4847534	1.57631
24.989174256156414	2.811537	1.6767639
25.00712647978632	3.2817528	1.8115609
25.02507932712521	3.878169	1.9693067
25.043032798678798	4.3884687	2.0948672
25.060986894952933	5.0202293	2.2405868
25.078941616453637	5.737572	2.395323
25.096896963687055	6.737749	2.5957174
25.114852937159508	7.883717	2.8077958
25.132809537377444	8.362484	2.8917959
25.150766764847468	8.426876	2.9029083
25.168724620076347	7.7898526	2.7910306
25.186683103570985	6.773542	2.602603
25.204642215838426	5.590943	2.3645175
25.222601957385894	4.261263	2.0642827
25.24056232872074	3.1666589	1.7795109
25.25852333035048	2.5743494	1.6044779
25.276484962782778	2.271272	1.507074
25.294447226525435	2.065915	1.4373292
25.312410122086423	1.9918776	1.4113389
25.330373649973843	1.9660954	1.4021753
25.348337810695988	1.9600551	1.4000196
25.366302604761245	1.9304866	1.3894196
25.384268032678207	1.985646	1.4091295
25.40223409495558	1.9514989	1.3969606
25.420200792102257	1.9108126	1.3823215
25.438168124627246	1.8701915	1.3675494
25.45613609303974	1.8671851	1.3664498
25.474104697849057	1.8261821	1.3513631
25.492073939564698	1.8510977	1.3605505
25.510043818696285	1.898067	1.3777035
25.528014335753614	1.9124879	1.3829273
25.54598549124664	1.8450464	1.3583249
25.56395728568544	1.8219607	1.3498002
25.58192971958028	1.8185078	1.3485206
25.59990279344156	1.8116997	1.345994
25.617876507779833	1.8078033	1.3445457
25.635850863105826	1.8129779	1.3464687
25.653825859930386	1.8250548	1.3509458
25.671801498764548	1.8581113	1.3631256
25.68977778011949	1.8950294	1.3766006
25.707754704506524	1.8797681	1.3710464
25.725732272437153	1.8377255	1.3556273
25.743710484423012	1.8368664	1.3553104
25.761689340975888	1.8590319	1.3634632
25.77966884260774	1.8663379	1.3661398
25.797648989830662	1.8242128	1.3506342
25.815629783156922	1.7851343	1.3360891
25.83361122309895	1.7824291	1.3350765
25.85159331016929	1.8138146	1.3467793
25.869576044880695	1.8452444	1.3583977
25.887559427746034	1.8384537	1.3558959
25.90554345927836	1.7941047	1.3394419
25.92352813999086	1.7587638	1.3261839
25.94151347039689	1.7750245	1.3323004
25.959499451009965	1.824694	1.3508123
25.97748608234374	1.8364941	1.3551731
25.995473364912062	1.8726645	1.3684533
26.013461299228904	1.8709108	1.3678124
26.03144988580839	1.8448725	1.3582609
26.04943912516483	1.8081375	1.34467
26.067429017812675	1.7646515	1.3284019
26.085419564266537	1.7999622	1.3416266
26.103410765041186	1.8090754	1.3450187
26.12140262065155	1.7949538	1.3397589
26.139395131612723	1.7799683	1.3341545
26.157388298439948	1.8314563	1.3533131
26.17538212164861	1.829758	1.3526855
26.193376601754295	1.8249018	1.3508893
26.211371739272714	1.8334409	1.3540461
26.229367534719746	1.8753735	1.3694428
26.247363988611433	1.8836102	1.3724468
26.26536110146397	1.848283	1.3595158
26.283358873793727	1.8042694	1.343231
26.301357306117204	1.7976424	1.3407619
26.319356398951104	1.7884955	1.3373464
26.33735615281224	1.7880548	1.3371817
26.35535656821762	1.8210727	1.3494712
26.373357645684404	1.8930126	1.375868
26.39135938572991	1.9011621	1.3788264
26.409361788871614	1.8541019	1.3616542
26.427364855627165	1.7913198	1.338402
26.445368586514352	1.8081878	1.3446888
26.46337298205115	1.8503503	1.3602757
26.48137804275568	1.8373859	1.3555021
26.499383769146217	1.7864648	1.336587
26.517390161741215	1.7519008	1.3235939
26.53539722105928	1.7687143	1.3299302
26.553404947619182	1.8306442	1.353013
26.571413341939856	1.8576099	1.3629416
26.589422404540397	1.8216566	1.3496876
26.60743213594006	1.8250304	1.3509369
26.62544253665827	1.852623	1.3611109
26.64345360721459	1.8586406	1.3633196
26.66146534812879	1.8418901	1.3571625
26.679477759920758	1.8457731	1.3585923
26.69749084311057	1.8340573	1.3542737
26.71550459821847	1.8082311	1.3447049
26.733519025764842	1.8093271	1.3451123
26.751534126270258	1.8117391	1.3460085
26.769549900255434	1.8254117	1.3510779
26.787566348241267	1.8211014	1.3494819
26.80558347074881	1.7626127	1.3276342
26.823601268299267	1.7615321	1.3272272
26.841619741414036	1.7714046	1.3309412
26.85963889061465	1.7484294	1.322282
26.877658716422832	1.7095468	1.3074964
26.89567921936045	1.736559	1.3177856
26.913700399949544	1.729679	1.3151726
26.93172225871233	1.7387737	1.3186257
26.949744796171174	1.76493	1.3285067
26.967768012848605	1.8002136	1.3417203
26.98579190926733	1.8065182	1.3440678
27.003816485950225	1.8002601	1.3417377
27.021841743420318	1.8207481	1.3493509
27.039867682200814	1.7965202	1.3403434
27.057894302815072	1.76383	1.3280926
27.07592160578664	1.7787278	1.3336896
27.0939495916392	1.7940465	1.3394202
27.111978260896635	1.8456359	1.3585418
27.13000761408296	1.8414147	1.3569874
27.148037651722397	1.846986	1.3590387
27.166068374339304	1.8432275	1.3576552
27.184099782458215	1.860753	1.3640943
27.20213187660384	1.8242301	1.3506407
27.22016465730105	1.7822657	1.3350152
27.23819812507487	1.7549236	1.3247353
27.256232280450533	1.7678792	1.3296162
27.274267123953383	1.7998123	1.3415709
27.292302656108987	1.8300078	1.3527778
27.31033887744306	1.8642435	1.365373
27.32837578848146	1.8647933	1.3655744
27.34641338975026	1.8467498	1.3589517
27.364451681775673	1.8235236	1.3503791
27.382490665084074	1.8023219	1.3425058
27.400530340202046	1.7724777	1.3313444
27.41857070765629	1.7517352	1.3235314
27.436611767973726	1.782266	1.3350154
27.454653521681404	1.8088303	1.3449275
27.472695969306564	1.7990031	1.3412693
27.490739111376627	1.8114322	1.3458946
27.508782948419153	1.801463	1.3421859
27.526827480961902	1.8468887	1.3590028
27.54487270953279	1.8779664	1.3703891
27.562918634659898	1.8486606	1.3596545
27.580965256871508	1.8166577	1.3478345
27.599012576696026	1.8271677	1.3517277
27.617060594662068	1.8456157	1.3585345
27.63510931129842	1.826339	1.3514211
27.65315872713401	1.7892036	1.3376112
27.67120884269797	1.8138928	1.3468084
27.68925965851958	1.8870312	1.3736925
27.707311175128307	1.9251424	1.387495
27.725363393053787	1.9041171	1.3798975
27.74341631282583	1.8315277	1.3533394
27.7614699349744	1.8184676	1.3485057
27.77952426002968	2.0041924	1.415695
27.797579288521973	2.1034656	1.4503329
27.815635020981784	2.423602	1.5567923
27.83369145793979	2.3817225	1.543283
27.85174859992682	2.250324	1.500108
27.869806447473923	2.1949866	1.4815487
27.887865001112267	1.9858278	1.409194
27.905924261373233	1.8859094	1.3732842
27.92398422878836	1.8615655	1.3643919
27.94204490388936	1.9147484	1.3837444
27.96010628720813	1.9003543	1.3785334
27.978168379276728	1.8492833	1.3598835
27.9962311806274	1.8110021	1.3457348
28.014294691792568	1.8204038	1.3492234
28.0323589133048	1.8371813	1.3554267
28.050423845696887	1.8197901	1.3489959
28.068489489501758	1.7700539	1.3304337
28.086555845252523	1.8012657	1.3421124
28.104622913482487	1.887693	1.3739334
28.122690694725115	1.9108521	1.3823358
28.14075918951405	1.8781773	1.3704661
28.15882839838312	1.8233924	1.3503305
28.176898321866304	1.8713112	1.3679588
28.1949689604978	1.9373462	1.3918859
28.213040314811945	1.9689342	1.4031872
28.23111238534327	1.9041167	1.3798974
28.249185172626493	1.8761994	1.3697443
28.267258677196473	1.8908638	1.3750868
28.285332899588294	1.8917127	1.3753954
28.303407840337172	1.9041344	1.3799038
28.321483499978545	1.9186722	1.3851614
28.33955987904799	1.9450338	1.3946447
28.357636978081285	2.0050912	1.4160124
28.37571479761439	2.0013397	1.4146872
28.393793338183425	1.9300703	1.3892697
28.41187260032469	1.9025437	1.3793273
28.429952584574686	1.9022878	1.3792346
28.448033291470065	1.9297333	1.3891484
28.46611472154769	1.9391133	1.3925204
28.484196875344566	1.9040587	1.3798764
28.502279753397914	1.8716213	1.3680722
28.52036335624511	1.9365711	1.3916074
28.538447684423716	1.9775914	1.4062686
28.556532738471482	2.008141	1.417089
28.574618518926325	2.006552	1.4165281
28.59270502632635	1.9606695	1.4002391
28.61079226120985	1.9671063	1.4025357
28.628880224115274	1.9729934	1.4046328
28.646968915581287	2.0074062	1.4168296
28.66505833614671	2.014384	1.41929
28.68314848635055	2.0328267	1.4257723
28.701239366732004	2.0670211	1.4377139
28.71933097783044	2.0572863	1.4343243
28.737423320185403	2.1227794	1.456976
28.75551639433665	2.1173117	1.4550985
28.773610200824074	2.0735278	1.4399749
28.791704740187793	2.033247	1.4259197
28.80980001296809	2.10146	1.4496413
28.827896019705413	2.1612558	1.470121
28.845992760940433	2.1698065	1.4730263
28.86409023721397	2.1391554	1.4625852
28.88218844906704	2.1452582	1.46467
28.900287397040845	2.122398	1.4568452
28.918387081676755	2.141593	1.4634182
28.936487503516343	2.1945257	1.4813932
28.954588663101365	2.2182038	1.4893636
28.97269056097374	2.2552378	1.5017449
28.990793197675597	2.2967207	1.5154935
29.00889657374923	2.3448265	1.5312827
29.027000689737125	2.3877318	1.5452287
29.04510554618196	2.4285412	1.5583777
29.06321114362659	2.435397	1.5605758
29.08131748261405	2.4545484	1.5666999
29.099424563687567	2.4776566	1.5740573
29.11753238739057	2.5430934	1.594708
29.13564095426663	2.5350828	1.5921943
29.15375026485954	2.5368931	1.5927627
29.171860319713275	2.572318	1.6038448
29.18997111937199	2.6584084	1.6304626
29.20808266438002	2.7122993	1.646906
29.226194955281898	2.818484	1.6788341
29.244307992622335	2.9424229	1.7153492
29.26242177694624	2.8892322	1.6997741
29.2805363087987	2.8456583	1.6869079
29.29865158872498	2.9521408	1.7181795
29.316767617270557	3.0041635	1.7332523
29.334884394981064	3.0241144	1.738998
29.353001922402367	2.991269	1.7295285
29.37112020008047	3.0431564	1.7444645
29.389239228561596	3.1646848	1.778956
29.407359008392152	3.362721	1.8337723
29.42547954011872	3.728596	1.9309573
29.44360082428809	4.358571	2.0877192
29.46172286144722	5.438333	2.3320234
29.479845652143283	7.025139	2.650498
29.497969196923606	9.07966	3.0132475
29.516093496335728	11.644309	3.412376
29.5342185509274	14.613195	3.822721
29.55234436124651	17.18576	4.145571
29.570470927841175	18.768997	4.33232
29.588598251259686	18.441803	4.294392
29.60672633205055	17.069773	4.131558
29.624855170762405	14.79676	3.8466556
29.642984767944146	12.087168	3.4766605
29.66111512414481	9.30332	3.0501344
29.67924623991366	6.815735	2.6106963
29.697378115800138	5.0439143	2.245866
29.71551075235387	4.1041365	2.0258667
29.733644150124675	3.7229662	1.9294989
29.751778309662576	3.5176134	1.8755301
29.769913231517766	3.4114523	1.8470117
29.78804891624066	3.383649	1.8394698
29.806185364381818	3.3454459	1.829056
29.82432257649206	3.2657402	1.8071359
29.842460553122333	3.2169814	1.7935946
29.86059929482382	3.1636944	1.7786777
29.878738802147872	3.191369	1.7864404
29.896879075646048	3.217586	1.793763
29.915020115870114	3.217964	1.7938684
29.933161923371976	3.2223418	1.7950883
29.951304498703777	3.2606235	1.8057196
29.969447842417857	3.197438	1.7881382
29.987591955066733	3.1104407	1.7636442
30.005736837203123	3.1041398	1.7618569
30.023882489379943	3.1357753	1.770812
30.04202891215028	3.1438985	1.7731042
30.060176106067455	3.1790357	1.7829851
30.078324071684946	3.151586	1.7752707
30.09647280955646	3.0624976	1.7499993
30.114622320235863	3.027582	1.7399948
30.132772604277257	3.110114	1.7635516
30.1509236622349	3.1436508	1.7730343
30.16907549466328	3.144119	1.7731664
30.18722810211705	3.0876439	1.7571692
30.205381485151097	3.0585518	1.7488716
30.22353564432045	3.0790718	1.7547284
30.241690580180403	3.1071544	1.7627122
30.25984629328638	3.0780723	1.7544436
30.278002784194037	3.007631	1.7342523
30.296160053459246	2.9447274	1.7160208
30.314318101638033	2.9388628	1.7143111
30.332476929286646	2.9242449	1.7100424
30.35063653696153	2.920905	1.7090656
30.368796925219307	2.9463086	1.7164814
30.386958094616844	2.9697058	1.7232834
30.40512004571115	2.9124835	1.7066
30.423282779059463	2.9240186	1.7099762
30.441446295219233	2.9010785	1.7032553
30.459610594748067	2.8201897	1.679342
30.47777567820382	2.7826939	1.6681409
30.495941546144504	2.792209	1.6709903
30.51410819912835	2.8056781	1.6750158
30.532275637713795	2.7755833	1.6660082
30.55044386245946	2.7556434	1.6600131
30.56861287392416	2.7569423	1.6604042
30.586782672666956	2.7541928	1.659576
30.604953259247047	2.7437294	1.6564206
30.623124634223885	2.7828846	1.668198
30.641296798157075	2.8110087	1.6766063
30.659469751606462	2.731046	1.6525877
30.677643495132074	2.722807	1.650093
30.695818029294152	2.683233	1.6380577
30.713993354653116	2.7098086	1.6461496
30.73216947176962	2.7126956	1.6470263
30.75034638120448	2.7017355	1.6436957
30.768524083518756	2.6328115	1.6225941
30.786702579273673	2.747042	1.6574203
30.80488186903069	2.9457836	1.7163285
30.82306195335144	3.0575838	1.7485948
30.841242832797782	3.1543968	1.7760621
30.85942450793176	3.4174266	1.8486283
30.877606979315637	3.7688918	1.9413633
30.895790247511883	4.1453414	2.0360112
30.913974313083134	4.5560265	2.134485
30.932159176592283	4.9485726	2.2245388
30.95034483860237	5.059458	2.2493238
30.968531299676698	4.8148603	2.194279
30.98671856037873	4.4185767	2.102041
31.00490662127215	4.012309	2.003075
31.023095482920848	3.5923018	1.8953369
31.04128514588892	3.1690319	1.7801775
31.059475610740662	2.8125584	1.6770684
31.07766687804056	2.6032038	1.6134447
31.09585894835335	2.5138204	1.5855032
31.11405182224393	2.4986541	1.5807132
31.132245500277417	2.4459891	1.5639658
31.15043998301914	2.4121604	1.5531131
31.168635271034628	2.4790177	1.5744897
31.18683136488964	2.5194595	1.5872805
31.20502826515008	2.4883828	1.5774609
31.223225972382135	2.454223	1.5665959
31.241424487152155	2.431782	1.5594172
31.259623810026692	2.3818438	1.5433223
31.27782394157253	2.4289436	1.5585068
31.296024882356644	2.4942646	1.5793241
31.314226632946237	2.5122943	1.5850219
31.332429193908684	2.4939384	1.5792209
31.350632565811598	2.4342868	1.5602201
31.368836749222787	2.401438	1.5496573
31.387041744710295	2.4160957	1.5543796
31.40524755284232	2.528108	1.5900025
31.423454174187317	2.5788355	1.6058753
31.441661609313922	2.5655172	1.6017232
31.459869858791002	2.5735989	1.604244
31.478078923187628	2.4858084	1.5766447
31.496288803073064	2.3344908	1.527904
31.514499499016807	2.2886455	1.512827
31.532711011588546	2.399794	1.5491269
31.550923341358178	2.4391801	1.5617875
31.56913648889584	2.348536	1.5324934
31.587350454771844	2.2412298	1.4970738
31.605565239556732	2.2358418	1.4952731
31.62378084382127	2.3401163	1.5297439
31.641997268136382	2.4209404	1.5559372
31.660214513073274	2.424466	1.5570697
31.67843257920331	2.3306873	1.5266589
31.6966514670981	2.2136936	1.4878486
31.71487117732944	2.2404366	1.4968088
31.733091710469346	2.2990162	1.5162507
31.751313067090052	2.2836838	1.5111862
31.769535247764008	2.2596369	1.5032089
31.787758253063878	2.2483153	1.4994383
31.805982083562526	2.260795	1.503594
31.824206739833024	2.1926882	1.4807729
31.84243222244869	2.220498	1.4901335
31.860658531983013	2.2629476	1.5043097
31.878885669009737	2.2247586	1.4915625
31.897113634102784	2.1720438	1.4737855
31.91534242783632	2.1754584	1.4749435
31.933572050784694	2.156997	1.4686718
31.951802503522508	2.1777282	1.4757128
31.970033786624548	2.1989026	1.4828697
31.988265900665834	2.2396998	1.4965627
32.006498846221575	2.2242916	1.4914058
32.02473262386724	2.1439211	1.4642135
32.04296723417845	2.0980656	1.4484701
32.0612026777311	2.1340473	1.4608378
32.07943895510129	2.1329398	1.4604588
32.097676066865304	2.1341438	1.4608709
32.115914013599685	2.157234	1.4687525
32.13415279588115	2.1589305	1.46933
32.152392414286666	2.1129043	1.4535832
32.1706328693934	2.0935533	1.4469117
32.18887416177875	2.0568283	1.4341646
32.20711629202032	2.0586236	1.4347904
32.225359260695924	2.1161764	1.4547083
32.243603068383614	2.1122637	1.453363
32.26184771566166	2.0394697	1.4281
32.28009320310852	2.023736	1.4225807
32.2983395313029	2.0554793	1.4336942
32.31658670082372	2.0376194	1.4274521
32.33483471225012	2.0624838	1.436135
32.35308356616143	2.0828328	1.4432023
32.371333263137245	2.0874984	1.4448178
32.38958380375734	2.0214155	1.421765
32.407835188601744	2.0271244	1.4237711
32.42608741825067	2.1140842	1.453989
32.444340493284585	2.1349905	1.4611607
32.46259441428416	2.059484	1.4350902
32.48084918183028	1.9805686	1.4073268
32.49910479650405	2.0070264	1.4166956
32.51736125888683	2.0835981	1.4434674
32.53561856956014	2.0404742	1.4284517
32.5538767291058	1.9566593	1.3988063
32.572135738105764	2.014374	1.4192865
32.59039559714228	2.0850794	1.4439805
32.608656306797776	2.0435162	1.4295161
32.62691786765491	2.0345268	1.4263684
32.645180280296586	2.016169	1.4199187
32.663443545305896	2.0291884	1.4244958
32.68170766326619	2.021432	1.4217707
32.69997263476099	2.0118613	1.418401
32.7182384603741	2.012942	1.4187819
32.7365051406895	1.9467131	1.3952466
32.75477267629144	1.9798065	1.407056
32.77304106776434	2.079407	1.4420149
32.79131031569289	2.0767508	1.4410936
32.809580420661966	1.9756129	1.405565
32.827851383256714	1.9159999	1.3841965
32.84612320406245	1.9150618	1.3838576
32.86439588366476	1.9332815	1.390425
32.88266942264945	1.9926914	1.4116272
32.9009438216025	2.0425713	1.4291855
32.9192190811102	2.067675	1.4379413
32.937495201758985	2.0131903	1.4188694
32.95577218413556	1.9824612	1.407999
32.974050028826866	1.9255133	1.3876287
32.992328736420035	1.85684	1.3626592
33.010608307502444	1.797114	1.3405648
33.02888874266169	1.765896	1.3288702
33.047170042485604	1.802249	1.3424786
33.06545220756225	1.8992709	1.3781403
33.083735238479896	1.9203697	1.385774
33.10201913582707	1.9035654	1.3796976
33.12030390019248	1.8898698	1.3747253
33.138589532165135	1.8855492	1.373153
33.15687603233419	1.9095435	1.3818623
33.17516340128909	1.8665948	1.3662338
33.19345163961947	1.7750429	1.3323073
33.211740747915215	1.8071216	1.3442923
33.23003072676643	1.9056963	1.3804696
33.248321576763466	1.8877304	1.373947
33.266613298496885	1.8519577	1.3608665
33.28490589255747	1.9285513	1.3887229
33.30319935953626	1.9389262	1.3924533
33.32149370002451	1.9149702	1.3838245
33.339788914613706	1.8436277	1.3578025
33.358085003895575	1.7897086	1.3377999
33.376381968462034	1.7857637	1.3363247
33.39467980890529	1.9070983	1.3809773
33.41297852581774	1.9840631	1.4085678
33.43127811979204	1.9802301	1.4072065
33.44957859142105	1.8926666	1.3757422
33.467879941297866	1.8851717	1.3730155
33.486182170015844	1.9297291	1.3891469
33.50448527816853	1.8981932	1.3777493
33.522789266349754	1.8581544	1.3631414
33.541094135153514	1.9429654	1.3939029
33.55939988517411	2.0900357	1.4456955
33.57770651700602	2.0776265	1.4413974
33.59601403124398	2.0572994	1.4343289
33.61432242848296	1.9780873	1.4064449
33.632631709318154	1.9554286	1.3983665
33.650941874344994	2.0017145	1.4148196
33.66925292415916	2.0260158	1.4233818
33.68756485935654	1.9377869	1.3920442
33.70587768053328	1.8428707	1.3575238
33.724191388285746	1.8147004	1.3471081
33.74250598321054	1.8425492	1.3574053
33.760821465904506	1.8909372	1.3751135
33.77913783696474	1.9957726	1.4127182
33.79745509698852	1.9958583	1.4127485
33.815773246573414	1.9370421	1.3917766
33.8340922863172	1.9291795	1.388949
33.852412216817896	1.9017166	1.3790274
33.87073303867377	1.922448	1.3865237
33.889054752483304	1.9324238	1.3901165
33.907377358845245	1.8577886	1.3630072
33.92570085835853	1.8606279	1.3640484
33.94402525162239	1.9452684	1.3947288
33.96235053923627	2.0559177	1.4338472
33.980676721799824	1.9846553	1.408778
33.999003799912984	1.8471907	1.3591139
34.01733177417592	1.7534544	1.3241807
34.03566064518901	1.8664261	1.3661721
34.0539904135529	2.0251052	1.423062
34.07232107986846	2.0253637	1.4231527
34.090652644736785	2.0584779	1.4347397
34.108985108759235	2.0276182	1.4239446
34.12731847253742	2.0628407	1.4362593
34.14565273667313	2.0131369	1.4188505
34.16398790176847	1.8969259	1.3772893
34.18232396842574	1.8959702	1.3769424
34.20066093724749	1.9854718	1.4090677
34.21899880883651	1.9562429	1.3986576
34.23733758379583	1.9239475	1.3870643
34.25567726272874	1.9273499	1.3882903
34.27401784623872	1.8752042	1.369381
34.29235933492957	1.7833787	1.335432
34.31070172940526	1.810974	1.3457243
34.32904503027003	1.9058955	1.3805417
34.347389238128386	1.9000335	1.378417
34.36573435358502	1.9144782	1.3836467
34.38408037724492	1.9177741	1.3848372
34.402427309713296	1.9766572	1.4059364
34.42077515159559	2.0544372	1.4333308
34.43912390349752	2.0637422	1.436573
34.45747356602499	1.9862273	1.4093357
34.47582413978423	1.8832247	1.3723063
34.49417562538163	1.825251	1.3510185
34.51252802342388	1.8340739	1.3542799
34.53088133451789	1.932808	1.3902546
34.54923555927084	2.0990267	1.4488018
34.567590698290104	2.2545028	1.5015001
34.58594675218336	2.1920447	1.4805555
34.6043037215585	2.0817075	1.4428123
34.62266160702365	2.1080656	1.4519179
34.641020409187234	2.2192664	1.4897202
34.65938012865785	2.1689553	1.4727373
34.677740766044394	1.9672784	1.402597
34.69610232195598	1.9413503	1.3933235
34.714464797002016	2.061711	1.435866
34.73282819179208	2.0130951	1.4188359
34.751192506936064	1.8983374	1.3778017
34.76955774304408	1.9230281	1.3867329
34.7879239007265	2.0095487	1.4175855
34.80629098059391	1.9036524	1.3797292
34.824658983257194	1.8894136	1.3745594
34.843027909327446	1.9123347	1.3828719
34.86139775941603	1.9450916	1.3946654
34.879768534134534	1.9588149	1.3995767
34.89814023409483	1.9407028	1.3930911
34.91651285990901	1.8708447	1.3677883
34.93488641218944	1.8796297	1.3709959
34.95326089154871	1.8538353	1.3615562
34.97163629859967	1.9474264	1.3955022
34.99001263395542	2.095303	1.4475162
35.00838989822934	2.2395608	1.4965162
35.02676809203499	2.1336553	1.4607037
35.04514721598624	2.058915	1.4348919
35.063527270697215	1.8801333	1.3711795
35.081908256782256	1.6404468	1.2807993
35.10029017485597	1.7007056	1.304111
35.11867302553321	1.8263333	1.351419
35.137056809429104	1.8945746	1.3764355
35.155441527159006	1.8952954	1.3766973
35.173827179338524	1.7021616	1.3046691
35.19221376658354	1.7452298	1.3210715
35.21060128951017	1.9779997	1.4064138
35.2289897487348	1.8706862	1.3677303
35.24737914487405	1.5604062	1.2491622
35.26576947854479	1.5853597	1.2591107
35.28416075036418	1.9416788	1.3934413
35.30255296094958	2.114012	1.4539642
35.32094611091867	2.180378	1.4766103
35.33934020088932	2.285763	1.511874
35.35773523147969	2.3278308	1.525723
35.3761312033082	2.090046	1.4456991
35.394528116993506	1.9169297	1.3845323
35.41292597315452	2.1037643	1.4504359
35.431324772410434	1.94331	1.3940265
35.449724515380666	1.4599826	1.2082974
35.46812520268491	1.6270299	1.2755508
35.486526834943106	2.1122215	1.4533484
35.504929412775454	2.5454557	1.5954484
35.52333293680242	2.1278713	1.4587225
35.54173740764471	1.8234485	1.3503512
35.560142825923286	2.0982695	1.4485404
35.5785491922594	1.840665	1.3567111
35.59695650727454	1.7876948	1.3370471
35.61536477159042	2.8436186	1.6863033
