0.008763373481513119	0.0	0.0
0.026290120649546365	0.0	0.0
0.043816868432600686	0.060138714	0.24523196
0.06134361724069026	0.15420741	0.3926925
0.07887036748382949	0.12954669	0.35992596
0.0963971195720331	0.107107244	0.32727244
0.11392387391531617	0.06404245	0.2530661
0.1314506309236943	0.038722407	0.1967801
0.1489773910071836	0.10157441	0.3187074
0.16650415457580078	0.20769067	0.45573092
0.18403092203956356	0.19341922	0.4397945
0.20155769380849	0.19828857	0.44529605
0.2190844702925996	0.08177877	0.28596988
0.2366112519019124	0.101566754	0.3186954
0.2541380390464497	0.16910443	0.41122308
0.27166483213623416	0.18036436	0.42469326
0.28919163158128947	0.20699497	0.454967
0.3067184377916406	0.17116919	0.41372597
0.324245251177314	0.17141293	0.41402045
0.34177207214833777	0.17158493	0.4142281
0.3592989011147415	0.18906368	0.43481454
0.37682573848655654	0.13889904	0.37269163
0.39435258467381573	0.1534853	0.391772
0.41187944008655414	0.11490708	0.33897945
0.42940630513480854	0.123736285	0.3517617
0.446933180228618	0.12738733	0.35691363
0.4644600657780234	0.13914435	0.37302056
0.48198696219306775	0.13226448	0.36368185
0.49951386988379676	0.16133627	0.40166688
0.5170407892602581	0.15680319	0.39598382
0.5345677207325025	0.159457	0.39932066
0.5520946647105822	0.19262604	0.43889183
0.5696216216045534	0.19946082	0.44661036
0.5871485918244737	0.22047713	0.46954992
0.6046755757804043	0.1927838	0.43907154
0.6222025738824094	0.14211386	0.37697992
0.6397295865405557	0.10818045	0.32890797
0.6572566141649129	0.1104513	0.33234215
0.6747836571655547	0.11386177	0.33743408
0.6923107159525568	0.11792594	0.34340346
0.7098377909359992	0.15156618	0.389315
0.7273648825259653	0.17209953	0.4148488
0.7448919911325411	0.18828131	0.43391395
0.762419117165817	0.20200871	0.4494538
0.7799462610358868	0.205532	0.4533564
0.7974734231528482	0.21657516	0.46537638
0.8150006039268024	0.18886584	0.43458697
0.8325278037678551	0.22357288	0.47283494
0.8500550230861152	0.23749197	0.48733148
0.8675822622916969	0.25643054	0.50638974
0.8851095217947171	0.22666048	0.47608873
0.9026368020052984	0.18534058	0.430512
0.9201641033335665	0.16534463	0.4066259
0.9376914261896523	0.16969994	0.41194654
0.9552187709836915	0.19148135	0.43758583
0.9727461381258234	0.24660753	0.49659595
0.990273528026193	0.2580711	0.508007
1.0078009410949496	0.28696927	0.53569514
1.0253283777422473	0.28076798	0.52987546
1.0428558383782454	0.25888023	0.5088027
1.0603833234131086	0.24557513	0.49555537
1.0779108332570058	0.28051445	0.52963614
1.0954383683201119	0.29732487	0.54527503
1.112965929012607	0.31092244	0.5576042
1.1304935157446763	0.40161616	0.6337319
1.1480211289265108	0.39898834	0.6316552
1.1655487689683062	1.2597169	1.1223711
1.1830764362802655	1.5955925	1.2631676
1.200604131272596	2.05314	1.4328781
1.2181318543555117	2.3498816	1.5329324
1.235659605939232	2.3535929	1.5341424
1.253187386433982	4.0791535	2.0196915
1.270715196249994	6.654629	2.5796568
1.2882430357975057	11.970801	3.4598846
1.3057709054867608	16.752382	4.0929675
1.3232988057280106	22.480585	4.7413697
1.3408267369315112	27.427273	5.2371054
1.358354699507526	31.267242	5.591712
1.3758826938663256	35.388317	5.948808
1.3934107204181858	37.307915	6.1080203
1.410938779573391	37.748905	6.144014
1.4284668717422309	38.234215	6.183382
1.4459949973350033	37.869446	6.1538157
1.4635231567620117	37.612278	6.132885
1.4810513504335687	37.152554	6.095289
1.4985795787599925	36.44411	6.0368958
1.5161078421516088	36.14951	6.0124464
1.5336361410187505	35.079437	5.9227896
1.5511644757717598	34.97505	5.913971
1.5686928468209842	35.39484	5.949356
1.58622125457678	36.09855	6.008207
1.6037496994495108	37.350594	6.111513
1.621278181849548	37.104984	6.091386
1.6388067021872719	37.744335	6.143642
1.6563352608730693	37.166195	6.0964084
1.673863858317336	36.715992	6.0593724
1.6913924949304753	35.9786	5.998216
1.7089211711228998	35.004284	5.916442
1.7264498873050296	33.95298	5.8269186
1.7439786438872935	33.11644	5.7546887
1.7615074412801288	31.90939	5.6488395
1.779036279893981	31.237547	5.589056
1.796565160139305	30.265709	5.501428
1.814094082426564	29.31324	5.4141703
1.8316230471662298	28.850018	5.371221
1.849152054768784	28.069	5.2980185
1.8666811056447168	27.772417	5.269954
1.8842102002045273	26.992628	5.195443
1.901739338858724	26.209974	5.119568
1.9192685220178245	25.46043	5.045833
1.9367977500923557	24.71415	4.9713326
1.9543270234928547	24.550468	4.954843
1.971856342629867	23.854963	4.8841543
1.9893857079139496	23.688215	4.867054
2.006915119755667	23.105707	4.8068395
2.0244445785655945	22.590906	4.7529893
2.0419740847543175	22.10422	4.7015123
2.0595036387324317	21.795301	4.668544
2.0770332409105414	21.270788	4.6120267
2.094562891699263	20.766735	4.5570536
2.1120925915092217	19.99038	4.4710603
2.129622340751053	19.536587	4.420021
2.1471521398354043	187.91228	13.70811
2.1646819891729323	444.36563	21.07998
2.182211889174303	440.58316	20.990072
2.1997418402501974	452.9251	21.282038
2.2172718428113023	432.87305	20.805601
2.234801897268317	320.73514	17.90908
2.2523320040319548	17.32634	4.162492
2.269862163512935	17.142223	4.140317
2.287392376121992	16.68089	4.084224
2.304922642269869	16.139624	4.017415
2.322452962367322	15.73189	3.9663446
2.3399833368251164	15.496914	3.936612
2.357513766054032	15.400728	3.9243762
2.3750442504648586	15.0658655	3.881477
2.3925747904683963	14.615117	3.8229723
2.410105386475459	14.334709	3.7861207
2.4276360388968707	14.292926	3.7805986
2.445166748143469	14.24263	3.7739408
2.4626975146261025	14.062946	3.7500596
2.4802283387556323	13.756146	3.7089279
2.4977592209429305	13.4142065	3.662541
2.5152901615988825	13.140724	3.6250136
2.5328211611343865	13.060468	3.613927
2.5503522199603523	12.817957	3.5802174
2.5678833384877024	12.751615	3.5709403
2.5854145171273712	12.409254	3.5226772
2.6029457562903064	11.981245	3.4613936
2.620477056387469	11.695311	3.4198408
2.6380084178298326	11.499917	3.3911529
2.655539841028383	11.372585	3.3723264
2.673071326394119	11.241528	3.3528388
2.6906028743380523	10.966249	3.3115327
2.708134485271211	10.6944065	3.2702303
2.7256661596046325	10.694073	3.2701793
2.743197897749369	10.86784	3.2966406
2.760729700116486	10.843393	3.2929308
2.778261567117063	10.643744	3.2624753
2.795793499162193	10.2227335	3.197301
2.8133254966629817	9.895056	3.1456409
2.830857560030551	9.798432	3.1302447
2.8483896896760337	9.884996	3.1440413
2.865921886010578	9.861936	3.1403718
2.883454149445347	9.744444	3.1216092
2.9009864803915177	9.51525	3.0846798
2.91851887926028	9.183704	3.0304627
2.9360513464628384	8.911793	2.9852626
2.953583882410413	8.731721	2.9549487
2.9711164875142373	8.712628	2.9517162
2.9886491621855606	8.782081	2.9634576
3.0061819068356455	8.760136	2.9597526
3.023714721875769	8.660833	2.9429293
3.041247607717225	8.440276	2.9052153
3.0587805647713213	8.256671	2.8734424
3.0763135934493806	8.126149	2.85064
3.0938466941627407	8.036255	2.8348289
3.1113798673227544	7.9251313	2.815161
3.1289131133407904	7.8684216	2.8050706
3.1464464326282315	7.8643794	2.8043501
3.1639798255964786	7.861792	2.8038888
3.1815132926569443	7.6985703	2.7746298
3.1990468342210603	7.5528083	2.7482374
3.216580450700272	7.453557	2.7301204
3.2341141425060416	7.4031086	2.7208655
3.251647910049847	7.3536158	2.711755
3.2691817537431813	7.256485	2.6937864
3.286715673997555	7.3105288	2.703799
3.3042496712244938	7.2037044	2.6839716
3.32178374583554	7.061167	2.6572857
3.339317898242251	6.8766537	2.6223373
3.3568521288562034	6.6528025	2.5793028
3.3743864380889876	6.6259494	2.574092
3.3919208263522127	6.693214	2.5871246
3.4094552940575023	6.744208	2.5969613
3.4269898416164972	6.6940804	2.5872922
3.444524469440858	6.5768223	2.5645316
3.4620591779422587	6.468732	2.5433702
3.479593967532391	6.455681	2.5408032
3.4971288386229658	6.4052253	2.5308547
3.5146637916257086	6.4884996	2.5472534
3.5321988269523628	6.445197	2.5387392
3.5497339450146903	6.3210964	2.514179
3.5672691462244708	6.173379	2.4846284
3.5848044309934988	6.145033	2.4789176
3.60233979973359	6.2346287	2.496924
3.619875252856575	6.3413305	2.5182
3.6374107907743034	6.3854837	2.5269516
3.6549464138986427	6.312162	2.5124016
3.6724821226414788	6.209028	2.491792
3.690017917414714	6.1509066	2.480102
3.7075537986302702	6.2228875	2.4945717
3.7250897667000857	6.369328	2.5237527
3.7426258220361235	6.5041447	2.5503225
3.7601619650503553	6.935395	2.6335137
3.777698196154779	7.3335114	2.7080457
3.7952345157614067	8.149749	2.8547764
3.8127709242822716	8.861685	2.9768581
3.830307422129425	10.839339	3.2923152
3.847844009714936	12.353403	3.514741
3.8653806874508954	15.912235	3.9890144
3.882917455749409	15.582413	3.9474566
3.900454315022606	15.859651	3.9824176
3.917991265682631	12.887096	3.5898602
3.9355283081416506	10.987971	3.314811
3.9530654428118495	8.82918	2.9713936
3.970602670105433	7.541731	2.7462213
3.9881399904346244	6.6321874	2.5753033
4.005677404211669	6.534662	2.5562985
4.023214911848827	6.4930387	2.548144
4.0407525137583855	6.4606156	2.541774
4.058290210352644	6.5139785	2.5522497
4.075828002043927	6.419458	2.533665
4.0933658892445814	6.3472557	2.519376
4.110903872366966	6.299045	2.50979
4.128441951823468	6.2431006	2.4986198
4.145980128026488	6.1981936	2.489617
4.163518401388452	6.139811	2.4778643
4.181056772321807	6.085758	2.466933
4.1985952412390155	6.092995	2.4683993
4.216133808552567	6.222093	2.4944124
4.233672474674966	6.308075	2.511588
4.251211240018741	6.4807224	2.5457263
4.268750104996445	6.588105	2.5667305
4.286289070020643	7.4076056	2.7216916
4.303828135503928	9.188702	3.0312872
4.3213673018589125	29.597692	5.4403763
4.3389065694982305	90.759964	9.526802
4.356445938834537	165.86229	12.878754
4.3739854102805085	171.79341	13.106998
4.391524984248844	172.8116	13.145782
4.409064661152262	136.9507	11.702594
4.426604441403504	97.111626	9.854523
4.444144325415337	75.77131	8.704672
4.461684313600543	21.577232	4.64513
4.47922440637193	21.783285	4.667257
4.496764604142329	20.101448	4.483464
4.5143049073245916	18.480185	4.2988586
4.531845316331589	16.514238	4.0637712
4.5493858315762195	13.875726	3.7250135
4.566926453471405	11.498638	3.3909643
4.584467182430081	9.524132	3.0861192
4.602008018865218	8.313012	2.8832295
4.619548963189798	7.577449	2.7527165
4.637090015816834	7.022117	2.6499279
4.654631177159353	6.787094	2.6052053
4.672172447630417	6.6360426	2.5760517
4.689713827643102	6.46362	2.542365
4.7072553176105085	6.189991	2.4879692
4.724796917945764	5.993349	2.4481318
4.742338629062015	5.8655787	2.4218957
4.759880451372434	5.7876167	2.4057467
4.777422385290215	5.7149086	2.3905876
4.794964431228581	5.700052	2.387478
4.812506589600768	5.7037134	2.3882449
4.830048860820047	5.709221	2.3893976
4.847591245299709	5.689482	2.3852634
4.8651337434530655	5.676018	2.3824396
4.882676355693457	5.6185417	2.3703463
4.900219082434242	5.6188784	2.3704174
4.917761924088813	5.502869	2.3458195
4.935304881070575	5.4566383	2.335945
4.952847953792969	5.4605455	2.336781
4.970391142669449	5.4564924	2.3359137
4.9879344481135055	5.466273	2.3380063
5.005477870538642	5.466816	2.3381224
5.023021410358394	5.5198092	2.3494275
5.040565067986324	5.4609113	2.3368592
5.05810884383601	5.4370904	2.3317568
5.075652738321066	5.434317	2.3311622
5.09319675185512	5.390623	2.3217716
5.110740884851836	5.4243774	2.3290293
5.128285137724894	5.435662	2.3314505
5.145829510888007	5.463957	2.3375108
5.163374004754908	5.41162	2.326289
5.1809186197393595	5.328228	2.3082955
5.198463356255145	5.2583065	2.2930996
5.216008214716077	5.290434	2.3000944
5.233553195535998	5.3569317	2.3145046
5.251098299128764	5.3812666	2.3197558
5.268643525908272	5.3750873	2.3184235
5.286188876288432	5.315619	2.3055627
5.3037343506831895	5.2859917	2.2991285
5.32127994950651	5.3022404	2.3026595
5.3388256731723915	5.3123736	2.3048587
5.356371522094851	5.307699	2.3038445
5.373917496687938	5.3303056	2.3087454
5.391463597365729	5.3333287	2.3094
5.40900982454232	5.2872486	2.2994018
5.426556178631843	5.1908517	2.2783442
5.444102660048449	5.1654353	2.2727594
5.4616492692063225	5.2228403	2.2853534
5.479196006519669	5.286556	2.299251
5.496742872402727	5.3096795	2.304274
5.514289867269756	5.3280425	2.3082552
5.531836991535049	5.26093	2.2936718
5.549384245612924	5.2779694	2.297383
5.566931629917724	5.2276	2.2863946
5.584479144863822	5.2394633	2.2889874
5.6020267908656205	5.2292366	2.2867525
5.619574568337545	5.2176714	2.2842224
5.637122477694054	5.2450175	2.2902002
5.654670519349629	5.311211	2.3046064
5.672218693718784	5.3226213	2.3070807
5.689767001216059	5.209276	2.282384
5.707315442256021	5.1659007	2.2728617
5.724864017253266	5.1338005	2.2657893
5.7424127266224225	5.1341743	2.2658718
5.75996157077814	5.0769014	2.2531981
5.777510550135105	5.093183	2.256808
5.795059665108022	5.1287475	2.2646737
5.812608916111639	5.249964	2.29128
5.830158303560715	5.4266534	2.3295178
5.847707827870055	5.489121	2.3428874
5.86525748945448	5.5228524	2.350075
5.8828072887288485	5.558448	2.357636
5.900357226108044	5.5742044	2.3609753
5.917907302006979	5.5729504	2.3607097
5.9354575168406	6.074475	2.464645
5.9530078710238765	6.6308603	2.5750456
5.970558364971812	7.176417	2.6788836
5.988108999099438	7.585396	2.7541597
6.005659773821818	8.114501	2.8485963
6.023210689554039	7.9238005	2.8149245
6.040761746711227	8.2625	2.8744564
6.058312945708531	7.663967	2.768387
6.075864286961132	7.2172794	2.6864994
6.093415770884244	6.6262646	2.5741532
6.1109673978931065	6.170427	2.4840343
6.128519168402993	5.6308885	2.3729494
6.146071082829204	5.446442	2.3337615
6.163623141587075	5.2534876	2.2920487
6.181175345091969	5.1910377	2.278385
6.198727693759281	5.1491237	2.2691681
6.216280188004435	5.1078997	2.2600663
6.233832828242885	5.0944214	2.2570825
6.251385614890126	5.1184583	2.262401
6.268938548361669	5.168175	2.2733622
6.286491629073067	5.1331115	2.2656372
6.304044857439898	5.1717744	2.2741535
6.321598233877777	5.09168	2.2564752
6.339151758802344	5.053377	2.2479718
6.356705432629277	4.950347	2.2249374
6.37425925577428	4.916912	2.217411
6.391813228653095	4.9620047	2.2275558
6.409367351681486	4.9610047	2.2273314
6.426921625275259	5.033887	2.2436326
6.44447604985025	5.009668	2.2382288
6.46203062582232	5.031183	2.2430298
6.47958535360737	5.044854	2.2460754
6.497140233621328	5.050429	2.247316
6.514695266280161	5.080077	2.2539027
6.532250451999859	5.0935783	2.2568958
6.549805791196454	5.04538	2.2461925
6.567361284286002	4.9811506	2.2318492
6.584916931684597	5.004983	2.237182
6.602472733808367	4.990287	2.233895
6.6200286910734665	5.0371575	2.2443612
6.637584803896092	4.9990716	2.2358603
6.655141072692462	4.989912	2.2338111
6.672697497878842	5.037964	2.244541
6.690254079871514	5.0599318	2.2494292
6.707810819086808	5.0579977	2.2489994
6.725367715941078	5.01695	2.239855
6.742924770850719	4.98787	2.233354
6.760481984232151	5.0219326	2.2409668
6.778039356501836	5.01401	2.2391984
6.795596888076266	4.9854784	2.2328186
6.813154579371963	4.924276	2.219071
6.830712430805492	4.901132	2.21385
6.84827044279344	4.951112	2.2251093
6.865828615752445	4.99514	2.234981
6.883386950099159	4.970421	2.229444
6.900945446250287	4.945404	2.2238264
6.918504104622553	4.9963865	2.2352598
6.936062925632727	5.0238056	2.2413847
6.953621909697607	5.0853677	2.255076
6.971181057234028	5.0914073	2.2564147
6.988740368658859	5.0893254	2.2559533
7.006299844389007	5.105335	2.2594988
7.023859484841407	5.157542	2.2710223
7.041419290433036	5.211051	2.2827725
7.058979261580902	5.358052	2.3147466
7.0765393987020495	5.5834084	2.3629236
7.094099702213559	6.03848	2.457332
7.111660172532549	6.4536715	2.5404077
7.129220810076164	6.813823	2.61033
7.146781615261595	7.442081	2.7280178
7.16434258850606	7.6813316	2.7715216
7.181903730226821	8.177083	2.85956
7.1994650408411704	8.247867	2.8719099
7.217026520766437	8.398762	2.8980618
7.234588170419983	8.546614	2.9234593
7.252149990219215	8.475959	2.91135
7.269711980581568	8.276835	2.876949
7.2872741419245175	8.085023	2.8434174
7.304836474665574	7.72567	2.7795088
7.322398979222286	7.4775853	2.7345173
7.339961656012233	7.234498	2.6897023
7.357524505453039	6.8968062	2.626177
7.375087527962357	6.620768	2.5730853
7.392650723957886	6.3252454	2.5150042
7.410214093857353	5.9853444	2.4464962
7.427777638078528	5.736369	2.3950717
7.445341357039213	5.55256	2.3563871
7.4629052511572525	5.3855977	2.320689
7.480469320850524	5.3437333	2.3116517
7.498033566536948	5.32844	2.3083415
7.5155979886344735	5.3270392	2.308038
7.5331625875610975	5.297252	2.3015761
7.550727363734844	5.2025695	2.280914
7.568292317573788	5.151034	2.269589
7.585857449496025	5.089847	2.256069
7.603422759919705	5.0949554	2.2572007
7.620988249263007	5.1096997	2.2604644
7.638553917944147	5.173948	2.2746313
7.656119766381391	5.2067723	2.2818353
7.673685794993023	5.2534413	2.2920387
7.691252004197388	5.19854	2.2800307
7.70881839441285	5.218853	2.2844808
7.726384966057826	5.1963396	2.2795482
7.743951719550762	5.2137	2.2833529
7.761518655310149	5.1780925	2.2755423
7.779085773754511	5.216825	2.284037
7.796653075302419	5.2229247	2.2853718
7.814220560372475	5.305342	2.3033328
7.831788229383323	5.3290415	2.3084717
7.8493560827536495	5.3797603	2.319431
7.866924120902174	5.4157324	2.3271725
7.884492344247663	5.419405	2.3279614
7.9020607532089135	5.403255	2.3244903
7.919629348204771	5.3782067	2.319096
7.937198129654115	5.3891253	2.321449
7.954767097975865	5.403814	2.3246105
7.972336253588986	5.3505964	2.3131356
7.989905596912472	5.395241	2.3227658
8.007475128365371	5.435165	2.3313441
8.025044848366756	5.474954	2.339862
8.042614757335754	5.624105	2.3715196
8.060184855691523	5.6854577	2.3844197
8.07775514385327	5.8210006	2.412675
8.095325622240228	5.8618636	2.4211285
8.112896291271687	5.8699594	2.4227998
8.130467151366968	5.8925605	2.4274597
8.148038202945436	5.975869	2.444559
8.165609446426497	6.0048375	2.450477
8.183180882229594	6.0746408	2.4646785
8.200752510774217	6.027462	2.455089
8.218324332479893	5.9482718	2.4389079
8.235896347766193	5.9068985	2.430411
8.253468557052724	5.92833	2.4348161
8.27104096075914	5.974179	2.4442134
8.288613559305137	6.049858	2.459646
8.306186353110448	6.0596004	2.4616256
8.32375934259485	6.129229	2.475728
8.341332528178162	6.158946	2.4817224
8.358905910280246	6.2664375	2.5032854
8.376479489321003	6.298059	2.5095935
8.394053265720377	6.372509	2.5243828
8.411627239898356	6.359157	2.5217369
8.42920141227497	6.289185	2.5078247
8.44677578327029	6.194347	2.4888444
8.464350353304427	6.105318	2.470894
8.48192512279754	6.1212807	2.4741223
8.499500092169827	6.12139	2.4741442
8.51707526184153	6.12911	2.475704
8.534650632232934	6.1779294	2.4855442
8.552226203764365	6.1829095	2.4865458
8.569801976856192	6.1915956	2.4882917
8.587377951928834	6.2273054	2.495457
8.60495412940274	6.1901054	2.4879923
8.622530509698416	6.25674	2.5013475
8.6401070932364	6.388196	2.527488
8.657683880437283	6.562738	2.561784
8.675260871721695	6.745444	2.5971992
8.692838067510303	6.9548526	2.6372054
8.710415468223834	7.0584474	2.6567738
8.727993074283043	7.1042004	2.6653707
8.745570886108737	7.070145	2.6589744
8.763148904121765	7.1521707	2.6743543
8.78072712874302	7.1341805	2.6709888
8.798305560393441	7.3751903	2.7157302
8.815884199494006	7.570435	2.7514424
8.833463046465745	7.87759	2.8067045
8.851042101729728	8.1137	2.8484557
8.86862136570707	8.441917	2.9054978
8.886200838818924	8.56177	2.9260504
8.903780521486505	8.527202	2.9201372
8.921360414131055	8.565557	2.9266973
8.938940517173874	8.717737	2.9525814
8.956520831036297	8.894492	2.9823635
8.97410135613971	9.165923	3.0275276
8.99168209290554	9.323943	3.0535133
9.009263041755265	9.584043	3.0958104
9.026844203110405	9.766474	3.125136
9.044425577392525	9.9017725	3.1467083
9.062007165023239	9.964722	3.1566947
9.079588966424197	10.230835	3.1985676
9.097170982017108	10.404308	3.225571
9.11475321222372	11.217795	3.3492978
9.132335657465825	12.069974	3.474187
9.149918318165264	12.118108	3.4811072
9.167501194743924	12.640392	3.555333
9.18508428762374	12.307038	3.508139
9.202667597226693	12.245105	3.4993007
9.220251123974803	11.905406	3.450421
9.237834868290143	11.576188	3.4023798
9.255418830594836	11.387452	3.3745298
9.273003011311046	10.988265	3.314855
9.290587410860985	10.828697	3.2906985
9.308172029666911	10.253398	3.2020926
9.32575686815113	9.893295	3.145361
9.343341926735997	8.731284	2.9548748
9.360927205843916	8.49983	2.9154468
9.378512705897327	8.301796	2.8812838
9.396098427318728	8.107605	2.8473856
9.413684370530664	7.924693	2.815083
9.431270535955722	7.8726563	2.8058255
9.448856924016539	7.8128495	2.7951474
9.466443535135806	7.711986	2.7770462
9.484030369736251	7.7485123	2.7836149
9.501617428240658	7.724341	2.77927
9.519204711071852	7.7475395	2.78344
9.536792218652714	7.720682	2.7786117
9.55437995140617	7.726835	2.7797184
9.571967909755191	7.7513227	2.7841198
9.589556094122802	7.794484	2.7918603
9.60714450493207	7.8233542	2.797026
9.624733142606116	7.8180056	2.7960696
9.642322007568108	7.8823004	2.8075435
9.659911100241267	7.930855	2.8161774
9.677500421048851	7.965434	2.82231
9.695089970414175	7.9688826	2.822921
9.712679748760609	7.975756	2.8241382
9.730269756511557	8.059574	2.838939
9.747859994090492	8.107178	2.8473105
9.765450461920915	8.146427	2.8541946
9.78304116042639	8.161136	2.85677
9.800632090030527	8.228823	2.8685925
9.81822325115699	8.316905	2.8839045
9.835814644229481	8.376479	2.8942149
9.853406269671762	8.228433	2.8685246
9.870998127907646	8.154241	2.8555632
9.888590219360985	8.147355	2.8543572
9.906182544455698	8.235544	2.8697639
9.923775103615734	8.303325	2.8815491
9.941367897265108	8.34242	2.8883247
9.958960925827878	8.331127	2.8863692
9.97655418972816	8.328188	2.88586
9.994147689390106	8.308153	2.8823867
10.011741425237934	8.313604	2.8833323
10.029335397695904	8.2624035	2.8744397
10.04692960718833	8.2695	2.8756738
10.06452405413958	8.250924	2.8724422
10.082118738974064	8.27388	2.8764353
10.099713662116246	8.262526	2.874461
10.117308823990651	8.187358	2.861356
10.134904225021844	8.168563	2.85807
10.152499865634445	8.141973	2.8534143
10.170095746253125	8.173876	2.858999
10.18769186730261	8.138959	2.852886
10.205288229207675	8.044605	2.8363013
10.222884832393145	7.96042	2.8214216
10.2404816772839	7.9836936	2.8255432
10.258078764304868	8.033223	2.834294
10.275676093881035	8.066912	2.840231
10.293273666437438	8.03944	2.8353906
10.310871482399158	8.122615	2.8500202
10.32846954219134	8.162905	2.8570797
10.346067846239173	8.217433	2.8666065
10.363666394967908	8.222093	2.8674192
10.38126518880283	8.198068	2.863227
10.398864228169298	8.265195	2.8749251
10.416463513492713	8.307352	2.8822477
10.434063045198531	8.29586	2.8802536
10.451662823712262	8.193675	2.8624597
10.469262849459467	8.095053	2.8451805
10.486863122865758	8.017572	2.8315318
10.504463644356806	7.987618	2.8262374
10.522064414358338	7.912444	2.8129067
10.539665433296118	7.890379	2.808982
10.557266701595987	7.867641	2.8049316
10.574868219683818	7.815228	2.795573
10.592469987985552	7.7516375	2.7841763
10.610072006927185	7.6282196	2.761923
10.627674276934751	7.476572	2.734332
10.64527679843435	7.281882	2.698496
10.662879571852143	7.200256	2.6833293
10.680482597614331	7.1146107	2.6673226
10.698085876147173	7.077592	2.6603744
10.715689407876988	7.0220385	2.6499128
10.733293193230146	6.9024653	2.6272542
10.750897232633072	6.839015	2.6151512
10.76850152651225	6.7108235	2.5905256
10.786106075294207	6.588294	2.5667672
10.803710879405534	6.5044293	2.5503783
10.821315939272877	6.441095	2.5379312
10.83892125532294	6.4064126	2.5310893
10.856526827982472	6.3368535	2.5173109
10.874132657678285	6.2292967	2.4958558
10.891738744837243	6.088298	2.4674475
10.909345089886271	6.0322356	2.456061
10.926951693252343	6.0202374	2.4536173
10.944558555362494	5.994581	2.4483833
10.96216567664381	5.860891	2.4209278
10.979773057523436	5.8246913	2.4134398
10.997380698428573	5.784508	2.4051003
11.014988599786477	5.768855	2.401844
11.032596762024461	5.701236	2.387726
11.050205185569892	5.577438	2.36166
11.067813870850198	5.462539	2.3372076
11.085422818292859	5.3836994	2.32028
11.10303202832541	5.3386497	2.310552
11.120641501375454	5.354119	2.313897
11.138251237870636	5.3532534	2.31371
11.155861238238671	5.3034015	2.3029115
11.173471502907317	5.24193	2.2895262
11.191082032304402	5.140277	2.2672179
11.208692826857805	5.08876	2.255828
11.226303886995465	5.0153074	2.2394881
11.243915213145371	4.9836802	2.2324157
11.261526805735578	4.9380913	2.2221816
11.279138665194196	4.913612	2.216667
11.296750791949393	4.8410225	2.2002323
11.314363186429393	4.7842197	2.187286
11.331975849062479	4.7149835	2.1714013
11.34958878027699	4.705495	2.1692152
11.36720198050133	4.648963	2.1561453
11.384815450163948	4.59051	2.1425476
11.402429189693366	4.5018697	2.121761
11.420043199518153	4.483747	2.117486
11.437657480066942	63.478664	7.96735
11.455272031768422	85.18665	9.229662
11.472886855051353	107.583534	10.372249
11.490501950344528	99.13579	9.956696
11.508117318076819	84.481064	9.191359
11.52573295867715	45.84356	6.7707872
11.543348872574514	4.2127633	2.0525017
11.560965060197946	4.186636	2.046127
11.57858152197655	4.1791687	2.0443015
11.59619825833949	4.132995	2.0329769
11.613815269715985	4.0707474	2.0176094
11.631432556535323	38.554302	6.209211
11.649050119226837	83.0415	9.112711
11.666667958219929	93.39541	9.66413
11.68428607394406	107.64884	10.375396
11.701904466828756	82.50653	9.08331
11.719523137303586	65.409645	8.087623
11.737142085798196	4.6269407	2.1510324
11.754761312742286	3.727533	1.9306821
11.772380818565619	3.6778905	1.9177827
11.790000603698015	3.677796	1.917758
11.80762066856935	3.6294987	1.9051243
11.825241013609572	3.5935533	1.895667
11.842861639248683	3.5438972	1.8825241
11.860482545916748	3.473193	1.8636504
11.878103734043883	3.4216444	1.8497688
11.895725204060282	3.381144	1.8387887
11.91334695639619	3.3975449	1.843243
11.930968991481919	3.370461	1.8358815
11.948591309747824	3.3433452	1.8284817
11.966213911624347	3.322645	1.8228123
11.98383679754198	3.272803	1.8090891
12.001459967931268	3.2843993	1.8122911
12.019083423222835	3.2689297	1.8080182
12.036707163847352	3.242607	1.800724
12.05433119023556	3.2102265	1.7917105
12.071955502818259	3.2033646	1.7897946
12.089580102026313	3.1883242	1.7855879
12.107204988290643	3.1521678	1.7754345
12.12483016204224	3.1079652	1.7629422
12.142455623712152	3.118385	1.765895
12.16008137373149	3.1241012	1.7675127
12.177707412531431	3.1441329	1.7731702
12.19533374054321	3.0882912	1.7573534
12.212960358198126	3.0672219	1.7513486
12.230587265927545	3.0569005	1.7483994
12.248214464162889	3.0436091	1.7445942
12.265841953335649	3.0127602	1.7357304
12.283469733877375	2.9872582	1.7283686
12.301097806219685	2.9575026	1.7197391
12.31872617079425	2.9231834	1.7097319
12.336354828032825	2.918179	1.7082678
12.353983778367205	2.8952377	1.7015398
12.371613022229262	2.9036214	1.7040015
12.389242560050928	2.9172268	1.7079891
12.406872392264201	2.9012258	1.7032984
12.424502519301143	2.8534112	1.6892043
12.442132941593874	2.8437214	1.6863337
12.459763659574586	2.8200314	1.679295
12.477394673675532	2.8301647	1.6823093
12.49502598432903	2.8093362	1.6761074
12.51265759196746	2.813594	1.6773771
12.530289497023267	2.8052766	1.674896
12.547921699928967	2.7787602	1.6669613
12.565554201117134	2.8097186	1.6762215
12.583187001020404	2.798307	1.6728141
12.600820100071486	2.8139818	1.6774927
12.618453498703152	2.782591	1.66811
12.636087197348235	2.7827237	1.6681498
12.65372119643964	2.7816405	1.6678251
12.671355496410326	2.7891564	1.6700767
12.68899009769333	2.7914054	1.67075
12.706625000721749	2.8116732	1.6768044
12.724260205928752	2.8535085	1.6892331
12.741895713747551	2.9142864	1.707128
12.759531524611454	2.9678478	1.7227442
12.777167638953818	2.9938984	1.7302885
12.794804057208072	3.0216813	1.7382984
12.812440779807702	3.0648568	1.7506732
12.830077807186271	3.244033	1.8011199
12.847715139777405	3.3044605	1.8178176
12.865352778014795	3.5135882	1.8744568
12.882990722332197	3.6423073	1.908483
12.90062897316344	3.7273736	1.9306407
12.918267530942412	3.7670257	1.9408827
12.935906396103071	3.5773337	1.8913841
12.953545569079449	3.6868412	1.9201149
12.971185050305628	3.5372503	1.8807579
12.988824840215775	3.566705	1.8885722
13.006464939244115	3.5531244	1.8849733
13.024105347824943	3.4097087	1.8465396
13.041746066392617	3.5462031	1.8831365
13.05938709538157	3.3786352	1.8381064
13.077028435226296	3.3564372	1.8320582
13.094670086361363	3.2354248	1.7987287
13.112312049221401	3.1425207	1.7727156
13.129954324241112	3.071094	1.7524537
13.147596911855258	2.8938534	1.701133
13.165239812498685	2.8822737	1.697726
13.182883026606293	2.8573883	1.690381
13.200526554613058	2.8297746	1.6821934
13.218170396954017	2.751478	1.6587579
13.235814554064284	2.6827621	1.637914
13.253459026379034	2.6468244	1.6269064
13.271103814333523	2.6645193	1.6323355
13.288748918363058	2.6830027	1.6379874
13.306394338903031	2.703356	1.6441885
13.32404007638889	2.7105896	1.6463869
13.341686131256164	2.779131	1.6670725
13.359332503940449	2.759417	1.6611493
13.376979194877402	2.7049928	1.6446862
13.394626204502751	2.6788933	1.6367325
13.412273533252307	2.695749	1.6418736
13.429921181561937	2.7345219	1.653639
13.447569149867581	2.7613595	1.6617339
13.465217438605247	2.7625887	1.6621037
13.482866048211022	2.746389	1.6572232
13.500514979121052	2.7241132	1.6504887
13.518164231771568	2.695039	1.6416574
13.535813806598844	2.6609013	1.6312269
13.553463704039254	2.6537771	1.6290418
13.571113924529229	2.6471944	1.6270201
13.588764468505275	2.6521432	1.6285402
13.606415336403956	2.6745079	1.6353923
13.624066528661917	2.6868558	1.6391631
13.641718045715882	2.755636	1.6600108
13.659369888002635	2.8230233	1.6801856
13.67702205595903	2.9255497	1.7104238
13.694674550021993	3.0200238	1.7378216
13.712327370628532	3.0739536	1.7532694
13.729980518215713	3.1198914	1.7663214
13.747633993220681	3.1323538	1.7698457
13.765287796080647	3.1541162	1.7759831
13.7829419272329	3.166081	1.7793485
13.800596387114801	3.2033305	1.789785
13.818251176163775	3.2495632	1.8026545
13.835906294817324	3.2935822	1.8148229
13.853561743513023	3.3345315	1.82607
13.871217522688525	3.3816056	1.8389143
13.888873632781538	3.4234118	1.8502464
13.906530074229858	3.467887	1.8622264
13.92418684747135	3.4694324	1.8626412
13.941843952943948	3.4973524	1.870121
13.959501391085665	3.5001004	1.8708556
13.977159162334578	3.4353766	1.8534769
13.994817267128846	3.371037	1.8360384
14.012475705906693	3.278993	1.810799
14.030134479106424	3.2289615	1.7969311
14.047793587166414	3.1491284	1.7745783
14.065453030525108	3.074071	1.7533028
14.083112809621026	2.9609225	1.7207332
14.100772924892766	2.8994007	1.7027627
14.118433376778997	2.8738642	1.6952475
14.136094165718458	2.866414	1.6930487
14.153755292149969	2.8570087	1.6902689
14.171416756512416	2.8020105	1.6739208
14.189078559244768	2.7214262	1.6496745
14.20674070078606	2.6089327	1.6152191
14.224403181575408	2.560552	1.6001724
14.242066002051999	2.546054	1.5956359
14.259729162655093	2.5351088	1.5922025
14.277392663824022	2.4947765	1.5794861
14.295056505998208	2.4434788	1.563163
14.312720689617128	2.4105546	1.5525961
14.330385215120348	2.4141176	1.5537431
14.348050082947497	2.3960679	1.5479237
14.3657152935383	2.3923595	1.5467254
14.383380847332528	2.3557966	1.5348605
14.401046744770051	2.3464527	1.5318135
14.418712986290798	2.3515835	1.5334873
14.436379572334793	2.344029	1.5310222
14.454046503342123	2.3656044	1.5380522
14.471713779752946	2.373506	1.5406188
14.489381402007504	2.3978567	1.5485015
14.507049370546113	2.4001572	1.549244
14.524717685809168	2.3834784	1.5438519
14.542386348237134	2.3719094	1.5401005
14.560055358270553	2.3967402	1.5481409
14.577724716350051	2.4354053	1.5605785
14.595394422916325	2.4571571	1.5675322
14.61306447841015	2.4658074	1.570289
14.63073488327237	2.4795256	1.5746509
14.648405637943917	2.4997735	1.5810672
14.6660767428658	2.4746764	1.5731105
14.683748198479094	2.4727128	1.5724862
14.701420005224954	2.5123715	1.5850462
14.719092163544628	2.606612	1.6145005
14.73676467387942	2.672677	1.6348324
14.754437536670727	2.703099	1.6441104
14.772110752360014	2.6716974	1.6345328
14.78978432138882	2.631802	1.622283
14.807458244198777	2.6552122	1.6294822
14.82513252123159	2.6694782	1.6338538
14.842807152929028	2.7420807	1.6559229
14.860482139732962	2.679927	1.6370482
14.87815748208531	2.6311922	1.622095
14.8958331804281	2.5951107	1.6109347
14.91350923520342	2.5833578	1.6072828
14.931185646853438	2.6162062	1.6174691
14.948862415820408	2.6162715	1.6174892
14.966539542546656	2.6262932	1.6205842
14.98421702747459	2.5749974	1.6046798
15.001894871046696	2.6165528	1.6175762
15.019573073705542	2.630659	1.6219307
15.037251635893766	2.6787317	1.6366831
15.054930558054092	2.6970663	1.6422747
15.072609840629323	2.7504687	1.6584537
15.090289484062351	2.883491	1.6980845
15.107969488796124	3.2034225	1.7898108
15.125649855273691	3.6774619	1.917671
15.14333058393817	4.112002	2.0278072
15.161011675232768	5.0524044	2.2477555
15.17869312960076	6.349216	2.5197651
15.196374947485506	8.232409	2.8692174
15.214057129330447	11.33931	3.3673892
15.231739675579114	15.928624	3.9910681
15.249422586675102	20.770441	4.55746
15.267105863062092	23.656046	4.863748
15.284789505183847	23.650177	4.863145
15.302473513484218	21.393627	4.6253247
15.320157888407127	17.737118	4.211546
15.337842630396578	13.826187	3.718358
15.355527739896656	10.710456	3.2726834
15.37321321735153	8.3903675	2.8966131
15.39089906320545	6.199241	2.4898276
15.408585277902748	4.701687	2.1683373
15.42627186188783	3.6879556	1.920405
15.443958815605198	3.1949456	1.787441
15.461646139499424	2.9296155	1.711612
15.479333834015168	2.800354	1.6734258
15.497021899597165	2.762501	1.6620773
15.514710336690234	2.7476244	1.657596
15.53239914573928	2.6808786	1.6373389
15.550088327189297	2.5418432	1.5943159
15.567777881485336	2.443615	1.5632067
15.58546780907256	2.3897111	1.5458691
15.6031581103962	2.3826964	1.5435985
15.620848785901568	2.4038565	1.5504376
15.638539836034063	2.425078	1.5572661
15.656231261239173	2.421142	1.5560019
15.673923061962451	2.409044	1.5521096
15.691615238649552	2.3816073	1.5432457
15.709307791746202	2.4108455	1.5526898
15.727000721698221	2.4348595	1.5604036
15.744694028951498	2.4311998	1.5592306
15.76238771395202	2.3697214	1.53939
15.780081777145844	2.351454	1.5334451
15.797776218979125	2.3689003	1.5391232
15.815471039898094	2.421384	1.5560797
15.833166240349064	2.4198918	1.5556002
15.850861820778437	2.4058406	1.5510772
15.868557781632699	2.3877778	1.5452436
15.886254123358412	2.3914073	1.5464176
15.903950846402232	2.3990648	1.5488914
15.921647951210897	2.3671591	1.5385575
15.939345438231225	2.3857348	1.5445824
15.957043307910133	2.389518	1.5458066
15.974741560694602	2.3810027	1.5430498
15.992440197031714	2.3740766	1.5408039
16.01013921736862	2.404877	1.5507666
16.02783862215259	2.4160666	1.5543702
16.045538411830933	2.3856037	1.5445399
16.06323858685107	2.3775725	1.541938
16.080939147660512	2.4031334	1.5502043
16.09864009470684	2.3811824	1.543108
16.11634142843774	2.387444	1.5451356
16.134043149300954	2.4044306	1.5506227
16.15174525774433	2.4654093	1.5701622
16.169447754215817	2.4652228	1.5701028
16.18715063916342	2.4311566	1.5592166
16.204853913035244	2.4307604	1.5590895
16.222557576279478	2.4609807	1.5687513
16.240261629344403	22.441347	4.73723
16.257966072678386	42.956345	6.554109
16.275670906729868	38.036304	6.167358
16.293376131947387	2.4488149	1.5648689
16.31108174877957	2.501048	1.5814703
16.328787757675133	2.5432336	1.594752
16.34649415908287	2.5962076	1.6112752
16.364200953451657	2.610719	1.6157719
16.38190814123048	2.624026	1.6198846
16.39961572286839	2.617615	1.6179045
16.41732369881455	2.6475601	1.6271325
16.43503206951817	2.6700532	1.6340297
16.45274083542859	2.7183797	1.648751
16.47044999699522	2.7502184	1.6583782
16.488159554667558	2.8379245	1.6846141
16.505869508895184	2.889784	1.6999365
16.523579860127786	2.934337	1.7129906
16.541290608815117	2.9158645	1.7075902
16.559001755407035	2.948193	1.7170303
16.57671330035348	3.0082333	1.7344259
16.59442524410448	3.110724	1.7637244
16.61213758711015	3.1759145	1.7821096
16.629850329820705	3.2094154	1.7914841
16.647563472686436	3.278939	1.8107841
16.665277016157724	3.3331015	1.8256783
16.682990960685053	3.4078286	1.8460305
16.70070530671898	3.4033034	1.8448044
16.718420054710155	3.4353998	1.8534832
16.736135205109335	3.5048425	1.8721224
16.753850758367335	3.6071117	1.8992398
16.771566714935087	3.6955364	1.9223778
16.789283075263597	3.70846	1.9257362
16.80699983980398	3.7269654	1.930535
16.82471700900741	3.7560592	1.9380555
16.84243458332518	3.828081	1.9565482
16.860152563208665	3.9280822	1.981939
16.87787094910932	4.01759	2.0043926
16.89558974147871	4.0547633	2.0136442
16.913308940768466	4.0607314	2.0151258
16.931028547430333	4.1337976	2.0331743
16.94874856191613	4.2036095	2.0502706
16.966468984677785	4.2353845	2.0580049
16.98418981616729	4.309563	2.0759487
17.00191105683676	4.3796735	2.092767
17.019632707138374	4.4548125	2.1106427
17.03735476752442	4.511223	2.1239638
17.05507723844728	4.5450797	2.1319191
17.072800120359403	4.590669	2.1425848
17.090523413713353	4.584417	2.1411252
17.108247118961785	4.640489	2.1541793
17.125971236557437	4.6227	2.1500466
17.143695766953133	4.6968746	2.1672275
17.161420710601806	4.657942	2.1582265
17.179146067956477	4.679031	2.1631067
17.19687183947025	4.6544185	2.1574101
17.21459802559634	4.6731606	2.1617494
17.232324626788028	4.641723	2.154466
17.25005164349871	4.6525426	2.1569753
17.267779076181863	4.653421	2.1571789
17.285506925291074	4.6681943	2.1606004
17.30323519127999	4.6455946	2.155364
17.320963874602384	4.61634	2.148567
17.33869297571211	4.558781	2.1351302
17.356422495063114	4.495584	2.1202793
17.37415243310944	4.4371514	2.1064546
17.391882790305218	4.43508	2.105963
17.40961356710468	4.4844685	2.1176565
17.42734476396215	4.49103	2.119205
17.445076381332044	4.5070634	2.1229846
17.462808419668868	4.587903	2.1419392
17.48054087942723	4.717925	2.1720786
17.498273761061835	5.0131397	2.2390041
17.51600706502747	5.4914494	2.3433843
17.533740791779024	6.208107	2.4916074
17.551474941771485	7.634398	2.7630415
17.56920951545993	8.734249	2.9553764
17.586944513299528	10.79791	3.2860174
17.60467993574556	12.31943	3.5099046
17.622415783253373	13.715895	3.7034976
17.64015205627843	14.8334	3.8514154
17.657888755276293	15.765229	3.9705453
17.675625880702604	16.387749	4.0481787
17.69336343301311	16.299337	4.037244
17.71110141266366	15.625886	3.952959
17.728839820110178	14.739636	3.8392234
17.746578655808705	13.926906	3.7318769
17.764317920215372	12.663538	3.5585866
17.7820576137864	11.297934	3.36124
17.79979773697811	9.358301	3.059134
17.81753829024692	7.466977	2.732577
17.835279274049356	5.814608	2.4113498
17.85302068884201	4.810067	2.1931865
17.870762535081607	4.15525	2.038443
17.888504813224934	3.845243	1.9609292
17.90624752372891	3.6806977	1.9185145
17.923990667050536	3.5770264	1.8913028
17.941734243646895	3.4811268	1.8657779
17.959478253975185	3.433072	1.8528551
17.9772226984927	3.420837	1.8495505
17.994967577656833	3.4109983	1.8468888
18.01271289192506	3.4027133	1.8446445
18.030458641754965	3.384906	1.8398114
18.04820482760425	3.298149	1.8160807
18.06595144993067	3.2459505	1.8016522
18.083698509192125	3.2363343	1.7989814
18.101446005846576	3.2523754	1.8034344
18.119193940352105	3.2421606	1.8006
18.136942313166887	3.164662	1.7789496
18.1546911247492	3.1042964	1.7619014
18.1724403755574	3.09249	1.7585477
18.19019006604997	3.1216915	1.7668309
18.207940196685467	3.1552446	1.7763008
18.225690767922575	3.1679807	1.7798822
18.243441780220046	3.1281674	1.7686626
18.261193234036764	3.0667243	1.7512065
18.278945129831676	3.017488	1.7370918
18.29669746806386	3.0305192	1.7408386
18.314450249192483	3.0330968	1.7415788
18.3322034736768	3.080719	1.7551978
18.349957141976184	3.0677228	1.7514915
18.3677112545501	3.0837777	1.7560688
18.385465811858108	3.1045675	1.7619783
18.403220814359884	3.0877223	1.7571915
18.420976262515172	3.1178668	1.7657483
18.43873215678387	3.1481066	1.7742904
18.456488497625923	3.161307	1.7780066
18.474245285501407	3.211765	1.7921398
18.492002520870486	3.2638977	1.8066261
18.50976020419343	3.3385684	1.827175
18.527518335930615	3.668185	1.9152507
18.545276916542516	4.2870026	2.0705078
18.563035946489688	4.4847994	2.1177344
18.580795426232832	4.865385	2.2057617
18.598555356232698	4.697033	2.167264
18.616315736950185	5.017694	2.240021
18.63407656884626	4.712419	2.1708107
18.65183785238201	4.941461	2.2229397
18.669599588018617	4.718802	2.1722803
18.68736177621737	4.725594	2.1738431
18.705124417439652	4.728154	2.174432
18.72288751214696	4.514918	2.1248336
18.740651060800886	4.6828465	2.1639886
18.758415063863115	4.418174	2.1019452
18.77617952179546	4.5748854	2.1388981
18.793944435059814	4.296374	2.0727696
18.811709804118184	4.294905	2.0724154
18.829475629432675	4.2740216	2.0673707
18.8472419114655	4.0377584	2.0094175
18.86500865067897	4.1454544	2.0360389
18.88277584753551	3.812322	1.9525168
18.90054350249763	3.839154	1.959376
18.918311616027957	3.5286999	1.8784834
18.936080188589226	3.4055178	1.8454045
18.953849220644265	3.0345407	1.7419933
18.971618712656007	2.828663	1.681863
18.9893886650875	2.7887902	1.6699672
19.007159078401887	7.9852095	2.8258114
19.024929953062408	32.850433	5.7315297
19.042701289532435	32.782364	5.7255883
19.060473088275405	25.360344	5.0359054
19.07824534975489	2.673489	1.6350808
19.096018074434568	2.6795995	1.6369482
19.113791262778197	2.6544244	1.6292404
19.13156491524966	2.6205218	1.6188025
19.149339032312945	2.6201348	1.6186831
19.167113614432136	2.575765	1.604919
19.184888662071433	2.5396142	1.5936167
19.202664175695123	2.5133216	1.5853459
19.220440155767623	2.5335014	1.5916977
19.238216602753447	2.529474	1.590432
19.2559935171172	2.5307128	1.5908214
19.27377089932361	2.4996114	1.581016
19.291548749837514	2.5017626	1.5816962
19.309327069123835	2.5084822	1.5838189
19.32710585764763	2.5318248	1.5911709
19.344885115874032	2.5106146	1.584492
19.362664844268313	2.4666216	1.5705482
19.380445043295822	2.4816723	1.5753324
19.39822571342203	2.4921052	1.5786403
19.41600685511252	2.5315237	1.5910763
19.43378846883297	2.5493007	1.596653
19.451570555049173	2.517823	1.5867649
19.469353114227037	2.4765384	1.5737021
19.48713614683254	2.425549	1.5574174
19.50491965333182	2.4291615	1.5585768
19.52270363419109	2.4424129	1.5628221
19.540488089876686	2.4713356	1.5720482
19.55827302085503	2.4826612	1.5756463
19.576058427592674	2.4800177	1.5748072
19.593844310556282	2.4728906	1.5725427
19.611630670212598	2.4697897	1.5715564
19.629417507028506	2.467898	1.5709544
19.64720482147098	2.5292413	1.5903589
19.6649926140071	2.5221117	1.5881158
19.682780885104084	2.5172896	1.5865968
19.70056963522921	2.466866	1.570626
19.718358864849908	2.4882648	1.5774235
19.7361485744337	2.5007915	1.5813891
19.753938764448215	2.5169468	1.5864888
19.771729435361202	2.488412	1.5774701
19.789520587640506	2.4566352	1.5673656
19.807312221754092	2.476818	1.573791
19.825104338170043	2.4763296	1.5736358
19.842896937356517	2.4723675	1.5723764
19.860690019781824	2.4479487	1.5645921
19.87848358591436	2.4233143	1.5566999
19.896277636222635	2.4516714	1.5657814
19.914072171175278	2.493566	1.5791029
19.931867191241015	2.5334077	1.5916682
19.94966269688869	2.503217	1.5821558
19.967458688587264	2.5171442	1.5865511
19.985255166805807	2.5692532	1.6028891
20.00305213201348	2.5383248	1.5932121
20.020849584679578	2.4772494	1.573928
20.038647525273507	2.452361	1.5660017
20.05644595426477	2.461562	1.5689366
20.07424487212299	2.450076	1.5652719
20.092044279317903	2.4772124	1.5739163
20.109844176319353	2.4516008	1.5657588
20.127644563597304	2.4448004	1.5635858
20.145445441621817	2.4403424	1.5621595
20.16324681086307	2.4606013	1.5686305
20.181048671791373	2.4032304	1.5502356
20.198851024877122	2.339144	1.529426
20.216653870590836	2.2914464	1.5137525
20.234457209403146	2.3231916	1.524202
20.252261041784802	2.3522437	1.5337026
20.270065368206662	2.40022	1.5492643
20.287870189139685	2.391463	1.5464356
20.305675505054968	2.3682618	1.5389158
20.323481316423702	2.3611934	1.5366175
20.341287623717207	2.3442388	1.5310907
20.359094427406884	2.3526144	1.5338235
20.376901727964288	2.3613856	1.5366801
20.39470952586107	2.3740382	1.5407914
20.41251782156899	2.3501287	1.533013
20.430326615559935	2.2980847	1.5159435
20.448135908305886	2.2959895	1.5152524
20.465945700278965	2.3028088	1.5175009
20.483755991951384	2.3487668	1.5325687
20.50156678379548	2.3694546	1.5393033
20.519378076283708	2.3539813	1.534269
20.537189869888635	2.3414059	1.5301653
20.55500216508294	2.3031735	1.517621
20.572814962339415	2.3076625	1.5190992
20.59062826213098	2.3080208	1.5192171
20.60844206493066	2.3223886	1.5239385
20.626256371211593	2.312127	1.520568
20.644071181447032	2.280642	1.5101795
20.66188649611036	2.2463086	1.498769
20.67970231567506	2.2840164	1.5112963
20.697518640614742	2.310327	1.519976
20.715335471403122	2.2995424	1.5164242
20.73315280851404	2.2969244	1.5155607
20.750970652421447	2.2850633	1.5116426
20.768789003599412	2.2694013	1.5064533
20.786607862522136	2.2906678	1.5134952
20.8044272296639	2.2843044	1.5113915
20.82224710549913	2.2957065	1.5151589
20.84006749050237	2.2633626	1.5044476
20.857888385148268	3.8054185	1.9507482
20.8757097899116	45.894196	6.7745256
20.893531705267254	64.75697	8.047172
20.911354131690224	83.79509	9.153966
20.92917706965566	69.05428	8.309891
20.94700051963877	50.095333	7.0778055
20.96482448211493	29.356361	5.418151
20.982648957559622	4.1004024	2.024945
21.00047394644843	2.20521	1.4849949
21.01829944925707	2.2380621	1.4960154
21.036125466461375	2.2292159	1.4930558
21.053951998537297	2.246618	1.4988723
21.071779045960906	2.2504828	1.5001609
21.089606609208378	2.252218	1.5007391
21.10743468875603	2.223032	1.4909836
21.12526328508028	2.2290745	1.4930085
21.143092398657675	2.2371988	1.4957268
21.16092202996488	2.2392268	1.4964046
21.17875217947867	2.206437	1.4854081
21.19658284767596	2.2141435	1.4879998
21.21441403503377	2.1730669	1.4741325
21.232245742029225	2.1379633	1.4621776
21.2500779691396	2.1136022	1.4538233
21.26791071684227	2.119739	1.4559324
21.28574398561475	2.102824	1.4501117
21.30357777593465	2.0791254	1.4419173
21.321412088279704	2.11199	1.4532688
21.339246923127792	2.161114	1.4700727
21.357082280956888	2.1526062	1.4671763
21.3749181622451	2.1246097	1.457604
21.392754567470647	2.1016245	1.4496981
21.41059149711187	2.128948	1.4590915
21.42842895164726	2.1492388	1.4660282
21.446266931555378	2.147615	1.4654744
21.464105437314945	2.1490173	1.4659528
21.481944469404798	2.0941613	1.4471217
21.49978402830388	2.0587182	1.4348234
21.51762411449127	2.088642	1.4452134
21.53546472844617	2.1191027	1.4557139
21.553305870647876	2.0970757	1.4481283
21.571147541575865	2.0554602	1.4336877
21.58898974170967	2.0509903	1.432128
21.60683247152899	2.0637212	1.4365658
21.62467573151363	2.0553038	1.4336331
21.642519522143523	2.049167	1.4314911
21.660363843898722	2.0727289	1.4396975
21.6782086972594	2.043399	1.4294751
21.696054082705864	2.0121193	1.418492
21.713900000718535	2.0105429	1.4179361
21.73174645177795	2.0341704	1.4262434
21.749593436364794	2.038142	1.4276351
21.767440954959845	2.033627	1.4260529
21.785289008044032	2.0062306	1.4164147
21.803137596098388	2.007511	1.4168665
21.820986719604086	1.9640521	1.4014465
21.838836379042412	1.9548243	1.3981503
21.85668657489478	1.9310694	1.3896292
21.87453730764273	1.9453923	1.3947732
21.892388577767914	1.9645329	1.4016179
21.91024038575213	1.9684366	1.4030099
21.928092732077285	1.9860458	1.4092714
21.945945617225426	2.0046134	1.4158437
21.963799041678694	1.9984015	1.4136482
21.981653005919398	31.324331	5.596814
21.999507510429943	78.131424	8.839198
22.01736255569286	73.100945	8.549909
22.035218142190818	4.1746116	2.0431867
22.05307427040661	2.0168715	1.420166
22.07093094082315	2.0174208	1.4203594
22.088788153923474	2.007227	1.4167664
22.106645910190746	2.0006177	1.4144319
22.12450421010827	1.9912866	1.4111296
22.142363054159464	2.0056398	1.4162061
22.16022244282787	1.9895808	1.410525
22.178082376597164	1.991389	1.4111658
22.195942855951145	1.9903849	1.41081
22.213803881373742	2.0103328	1.417862
22.231665453349002	2.0056777	1.4162195
22.24952757236111	1.9613085	1.4004673
22.26739023889438	1.9309568	1.3895887
22.28525345343323	1.9225367	1.3865557
22.30311721646225	1.9791367	1.4068179
22.320981528466113	1.9838701	1.4084992
22.33884638992964	1.9707015	1.4038167
22.356711801337788	1.9590774	1.3996705
22.37457776317561	1.9434569	1.3940792
22.392444275928337	1.9269073	1.3881309
22.410311340081282	1.9102993	1.3821357
22.428178956119904	1.9397132	1.3927358
22.446047124529805	1.9502648	1.3965188
22.46391584579669	1.940246	1.3929272
22.481785120406414	1.9276896	1.3884126
22.49965494884496	1.951399	1.3969249
22.51752533159841	1.930309	1.3893557
22.53539626915302	1.92149	1.3861781
22.553267761995137	1.8952823	1.3766925
22.571139810611264	1.9116464	1.382623
22.589012415488025	1.9148313	1.3837743
22.60688557711216	1.9240416	1.3870983
22.624759295970566	1.9308212	1.38954
22.642633572550263	1.9236472	1.3869561
22.660508407338362	1.9166776	1.3844413
22.67838380082217	1.9004705	1.3785756
22.696259753489077	1.8832476	1.3723147
22.714136265826614	1.9025381	1.3793253
22.73201333832246	1.9514023	1.396926
22.74989097146439	1.9763652	1.4058325
22.76776916574035	1.9452404	1.3947188
22.785647921638393	1.8940806	1.376256
22.803527239646712	1.8796735	1.3710119
22.82140712025363	1.9278805	1.3884814
22.839287563947593	1.9668448	1.4024425
22.85716857121719	1.96098	1.40035
22.875050142551135	1.9312185	1.3896829
22.892932278438277	1.9359208	1.3913738
22.910814979367604	1.9513918	1.3969222
22.928698245828222	1.9551286	1.3982592
22.946582078309387	1.949948	1.3964053
22.96446647730047	1.9179598	1.3849043
22.98235144329098	1.8929192	1.375834
23.000236976770562	1.9034506	1.379656
23.018123078229	1.891651	1.375373
23.03600974815619	1.8667204	1.3662797
23.053896987042194	1.8743446	1.3690671
23.071784795377173	1.9039283	1.379829
23.08967317365145	1.9127486	1.3830216
23.10756212235546	1.894415	1.3763775
23.125451641979787	1.9045525	1.3800552
23.143341733015134	1.8844193	1.3727416
23.161232395952357	1.8864404	1.3734775
23.179123631282426	1.9149529	1.3838183
23.197015439496468	1.949765	1.3963399
23.214907821085717	1.945455	1.3947957
23.23280077654157	1.9422396	1.3936425
23.250694306355538	1.9579802	1.3992784
23.268588411019277	1.9234227	1.3868752
23.28648309102458	1.9089445	1.3816456
23.304378346863356	1.9091923	1.3817352
23.322274179027676	1.9218826	1.3863198
23.340170588009723	1.8803374	1.371254
23.358067574301852	1.8739063	1.368907
23.37596513839651	1.8553112	1.3620981
23.39386328078629	1.891251	1.3752276
23.411762001963947	1.881301	1.3716053
23.429661302422353	1.8846556	1.3728276
23.4475611826545	1.9008976	1.3787304
23.46546164315356	1.8814123	1.3716458
23.48336268441279	1.8793005	1.3708758
23.501264306925638	1.9140551	1.3834938
23.51916651118564	1.962863	1.4010221
23.537069297686497	1.9615757	1.4005626
23.554972666922037	1.9351293	1.3910892
23.57287661938623	1.9168764	1.384513
23.59078115557318	1.8805178	1.3713198
23.608686275977128	1.8698146	1.3674116
23.62659198109246	1.8657181	1.3659129
23.6444982714137	1.8735249	1.3687676
23.66240514743549	1.9009844	1.3787619
23.68031260965263	1.9029428	1.3794719
23.698220658560068	1.8790513	1.3707849
23.716129294652845	1.8563807	1.3624907
23.7340385184262	1.8708386	1.367786
23.75194833037546	1.8819232	1.371832
23.769858730996123	1.8683572	1.3668786
23.78776972078382	1.8409929	1.3568319
23.80568130023431	1.8414962	1.3570174
23.823593469843495	1.8454965	1.3584906
23.841506230107424	1.8696283	1.3673435
23.859419581522275	1.8478389	1.3593524
23.87733352458438	1.8648762	1.3656046
23.89524805979019	1.8645253	1.3654763
23.913163187636318	1.8508706	1.3604671
23.931078908619508	1.824299	1.3506662
23.948995223236633	1.8668051	1.3663107
23.966912131984735	1.921428	1.3861558
23.98482963536096	1.9474723	1.3955187
24.002747733862616	1.9652728	1.4018818
24.020666427987155	1.9849321	1.4088762
24.038585718232156	1.9655864	1.4019938
24.056505605095353	1.9676926	1.4027447
24.074426089074617	2.028964	1.4244171
24.092347170667946	2.0749135	1.440456
24.110268850373515	2.058751	1.4348348
24.128191128689586	2.0453117	1.430144
24.146114006114626	2.048783	1.431357
24.164037483147187	2.0814037	1.4427071
24.181961560286005	2.0582728	1.4346682
24.199886238029926	2.0404122	1.42843
24.21781151687797	1.9974369	1.4133071
24.235737397329274	1.9769346	1.4060351
24.253663879883135	1.9554977	1.3983911
24.271590965038975	1.9938538	1.4120389
24.289518653296376	2.0608392	1.4355624
24.30744694515505	2.0953834	1.447544
24.32537584111486	2.063858	1.4366134
24.34330534167581	2.0302556	1.4248704
24.361235447338046	1.9858437	1.4091996
24.379166158601876	2.0021904	1.4149878
24.39709747596772	1.9983191	1.4136192
24.41502939993615	1.9952455	1.4125316
24.432961931007917	1.978493	1.4065892
24.450895069683856	1.9530758	1.3975248
24.468828816465	1.953189	1.3975654
24.4867631718525	2.0018616	1.4148716
24.504698136347656	1.9785807	1.4066203
24.52263371045192	1.9460968	1.3950257
24.540569894666874	1.9092776	1.3817661
24.558506689494266	1.9024223	1.3792833
24.57644409543597	1.9208351	1.385942
24.594382112994012	1.926704	1.3880577
24.61232074267057	1.9128184	1.3830467
24.630259984967953	1.9340643	1.3907064
24.64819984038863	1.9986509	1.4137365
24.66614030943522	2.028809	1.4243627
24.684081392610462	1.9925177	1.4115657
24.702023090417274	1.9554911	1.3983887
24.7199654033587	1.9348421	1.390986
24.737908331937927	1.9438359	1.3942151
24.755851876658305	1.9719763	1.4042708
24.773796038023324	2.0279841	1.4240731
24.79174081653661	2.0156686	1.4197425
24.809686212701962	2.0447943	1.429963
24.827632227023294	2.0325236	1.425666
24.8455788600047	2.0587304	1.4348277
24.8635261121504	2.073932	1.4401152
24.88147398396475	2.0899665	1.4456717
24.899422475952303	2.0740569	1.4401586
24.917371588617698	2.087088	1.4446758
24.935321322465768	2.1320224	1.4601446
24.953271678001478	2.2261012	1.4920125
24.97122265572994	2.463319	1.5694964
24.989174256156414	2.7779799	1.6667273
25.00712647978632	3.1292446	1.768967
25.02507932712521	3.5243254	1.8773186
25.043032798678798	4.0523415	2.013043
25.060986894952933	4.736254	2.1762936
25.078941616453637	5.4413896	2.3326786
25.096896963687055	6.245681	2.499136
25.114852937159508	7.3133698	2.7043242
25.132809537377444	7.906233	2.8118024
25.150766764847468	8.002679	2.8289006
25.168724620076347	7.4111156	2.7223365
25.186683103570985	6.464809	2.542599
25.204642215838426	5.400122	2.3238163
25.222601957385894	4.1842375	2.0455408
25.24056232872074	3.1800132	1.7832592
25.25852333035048	2.60027	1.6125352
25.276484962782778	2.2684991	1.5061537
25.294447226525435	2.1243129	1.4575022
25.312410122086423	2.0286834	1.4243186
25.330373649973843	1.9520465	1.3971566
25.348337810695988	1.9284877	1.3887
25.366302604761245	1.9386144	1.3923414
25.384268032678207	1.9140198	1.383481
25.40223409495558	1.8925918	1.375715
25.420200792102257	1.8426962	1.3574594
25.438168124627246	1.8394594	1.3562667
25.45613609303974	1.8341223	1.3542978
25.474104697849057	1.8693192	1.3672305
25.492073939564698	1.9053713	1.3803519
25.510043818696285	1.9408305	1.3931369
25.528014335753614	1.8971214	1.3773603
25.54598549124664	1.830982	1.3531379
25.56395728568544	1.8269447	1.3516452
25.58192971958028	1.8610036	1.364186
25.59990279344156	1.8091844	1.3450593
25.617876507779833	1.770549	1.3306198
25.635850863105826	1.8160279	1.3476008
25.653825859930386	1.8633915	1.365061
25.671801498764548	1.8894682	1.3745793
25.68977778011949	1.8884525	1.3742098
25.707754704506524	1.8873692	1.3738155
25.725732272437153	1.8982854	1.3777828
25.743710484423012	1.8234953	1.3503686
25.761689340975888	1.7838733	1.3356172
25.77966884260774	1.8306122	1.3530011
25.797648989830662	1.8736498	1.3688133
25.815629783156922	1.8586228	1.3633132
25.83361122309895	1.8017406	1.3422893
25.85159331016929	1.8014085	1.3421656
25.869576044880695	1.8205081	1.3492621
25.887559427746034	1.8125612	1.346314
25.90554345927836	1.7645427	1.3283609
25.92352813999086	1.7675028	1.3294746
25.94151347039689	1.7996773	1.3415205
25.959499451009965	1.7765809	1.3328844
25.97748608234374	1.7754395	1.3324562
25.995473364912062	1.8055563	1.34371
26.013461299228904	1.8751695	1.3693683
26.03144988580839	1.9013624	1.378899
26.04943912516483	1.8447065	1.3581997
26.067429017812675	1.8115709	1.3459461
26.085419564266537	1.814627	1.347081
26.103410765041186	1.8263547	1.351427
26.12140262065155	1.7497007	1.3227625
26.139395131612723	1.7024624	1.3047844
26.157388298439948	1.7450014	1.3209851
26.17538212164861	1.7877648	1.3370732
26.193376601754295	1.8060242	1.343884
26.211371739272714	1.8201379	1.3491249
26.229367534719746	1.8567432	1.3626237
26.247363988611433	1.8401293	1.3565136
26.26536110146397	1.8485589	1.3596172
26.283358873793727	1.864816	1.3655826
26.301357306117204	1.8416008	1.3570559
26.319356398951104	1.8057177	1.3437699
26.33735615281224	1.8407996	1.3567607
26.35535656821762	1.8674668	1.366553
26.373357645684404	1.8291894	1.3524753
26.39135938572991	1.8159173	1.3475597
26.409361788871614	1.8496273	1.36001
26.427364855627165	1.853103	1.3612872
26.445368586514352	1.8746486	1.369178
26.46337298205115	1.8682406	1.366836
26.48137804275568	1.809627	1.3452238
26.499383769146217	1.795781	1.3400675
26.517390161741215	1.7557566	1.3250496
26.53539722105928	1.7502521	1.322971
26.553404947619182	1.773398	1.33169
26.571413341939856	1.777202	1.3331174
26.589422404540397	1.7507596	1.3231627
26.60743213594006	1.7557752	1.3250567
26.62544253665827	1.7778352	1.3333548
26.64345360721459	1.7849292	1.3360124
26.66146534812879	1.7715052	1.3309791
26.679477759920758	1.8031151	1.3428012
26.69749084311057	1.7922391	1.3387454
26.71550459821847	1.7696218	1.3302714
26.733519025764842	1.778934	1.3337668
26.751534126270258	1.778267	1.3335168
26.769549900255434	1.8040394	1.3431454
26.787566348241267	1.8326882	1.3537681
26.80558347074881	1.799782	1.3415595
26.823601268299267	1.7454464	1.3211534
26.841619741414036	1.732405	1.3162086
26.85963889061465	1.7427775	1.320143
26.877658716422832	1.7552891	1.3248732
26.89567921936045	1.7517169	1.3235244
26.913700399949544	1.759851	1.3265938
26.93172225871233	1.7884439	1.3373271
26.949744796171174	1.7565148	1.3253357
26.967768012848605	1.6996524	1.3037072
26.98579190926733	1.7107831	1.3079691
27.003816485950225	1.7126888	1.3086973
27.021841743420318	1.7236825	1.3128909
27.039867682200814	1.7953763	1.3399166
27.057894302815072	1.839725	1.3563646
27.07592160578664	1.8062482	1.3439673
27.0939495916392	1.8118349	1.3460442
27.111978260896635	1.81426	1.3469447
27.13000761408296	1.8030112	1.3427625
27.148037651722397	1.8105866	1.3455803
27.166068374339304	1.8013252	1.3421346
27.184099782458215	1.7766914	1.3329259
27.20213187660384	1.741156	1.3195287
27.22016465730105	1.7799739	1.3341566
27.23819812507487	1.7927747	1.3389454
27.256232280450533	1.7827214	1.3351859
27.274267123953383	1.7598743	1.3266026
27.292302656108987	1.7261621	1.3138349
27.31033887744306	1.7371725	1.3180184
27.32837578848146	1.8015994	1.3422368
27.34641338975026	1.829176	1.3524703
27.364451681775673	1.8048447	1.3434451
27.382490665084074	1.7390693	1.3187377
27.400530340202046	1.6933615	1.3012923
27.41857070765629	1.7233926	1.3127805
27.436611767973726	1.7606975	1.3269128
27.454653521681404	1.7785813	1.3336346
27.472695969306564	1.8253741	1.3510641
27.490739111376627	1.8319618	1.3534998
27.508782948419153	1.8241339	1.350605
27.526827480961902	1.7899263	1.3378813
27.54487270953279	1.788706	1.3374251
27.562918634659898	1.7583817	1.3260399
27.580965256871508	1.7546189	1.3246202
27.599012576696026	1.7633562	1.3279142
27.617060594662068	1.7495083	1.3226898
27.63510931129842	1.7398493	1.3190335
27.65315872713401	1.7571889	1.32559
27.67120884269797	1.8064346	1.3440367
27.68925965851958	1.8060051	1.343877
27.707311175128307	1.7676579	1.329533
27.725363393053787	1.802057	1.3424072
27.74341631282583	1.8650278	1.3656602
27.7614699349744	1.8621693	1.3646132
27.77952426002968	2.08579	1.4442264
27.797579288521973	2.170447	1.4732437
27.815635020981784	2.7073474	1.6454018
27.83369145793979	2.7010581	1.6434896
27.85174859992682	2.430751	1.5590866
27.869806447473923	2.2687168	1.5062261
27.887865001112267	1.9630613	1.4010929
27.905924261373233	1.8561844	1.3624185
27.92398422878836	1.8416618	1.3570784
27.94204490388936	1.8287147	1.3522998
27.96010628720813	1.8126857	1.3463602
27.978168379276728	1.8421916	1.3572736
27.9962311806274	1.8590608	1.3634738
28.014294691792568	1.8263055	1.3514087
28.0323589133048	1.795673	1.3400272
28.050423845696887	1.8148711	1.3471715
28.068489489501758	1.8503891	1.36029
28.086555845252523	1.8880605	1.3740671
28.104622913482487	1.8457743	1.3585927
28.122690694725115	1.8236784	1.3504363
28.14075918951405	1.8208961	1.3494059
28.15882839838312	1.8201965	1.3491466
28.176898321866304	1.826966	1.3516531
28.1949689604978	1.8763841	1.3698118
28.213040314811945	1.8901168	1.3748152
28.23111238534327	1.9116671	1.3826305
28.249185172626493	1.906178	1.3806441
28.267258677196473	1.8708776	1.3678002
28.285332899588294	1.82656	1.3515029
28.303407840337172	1.8340042	1.3542541
28.321483499978545	1.9177005	1.3848107
28.33955987904799	1.9591266	1.399688
28.357636978081285	1.9560131	1.3985754
28.37571479761439	1.9471784	1.3954133
28.393793338183425	1.944896	1.3945953
28.41187260032469	1.9289156	1.388854
28.429952584574686	1.9105392	1.3822225
28.448033291470065	1.9187046	1.3851731
28.46611472154769	1.8975377	1.3775114
28.484196875344566	1.9050211	1.3802251
28.502279753397914	1.9864899	1.409429
28.52036335624511	2.0326984	1.4257274
28.538447684423716	1.996283	1.4128988
28.556532738471482	1.9433923	1.3940561
28.574618518926325	1.9767486	1.4059689
28.59270502632635	2.0003595	1.4143406
28.61079226120985	1.9886707	1.4102024
28.628880224115274	1.9900193	1.4106804
28.646968915581287	2.0022206	1.4149984
28.66505833614671	2.0761023	1.4408686
28.68314848635055	2.1107621	1.4528462
28.701239366732004	2.086613	1.4445113
28.71933097783044	1.9982805	1.4136055
28.737423320185403	2.0010026	1.414568
28.75551639433665	2.0354252	1.4266833
28.773610200824074	2.0520134	1.432485
28.791704740187793	2.0282805	1.4241772
28.80980001296809	2.0534341	1.4329809
28.827896019705413	2.1170523	1.4550093
28.845992760940433	2.149787	1.4662151
28.86409023721397	2.2276242	1.4925227
28.88218844906704	2.2590003	1.5029972
28.900287397040845	2.2242377	1.4913878
28.918387081676755	2.225703	1.491879
28.936487503516343	2.2851603	1.5116746
28.954588663101365	2.3055882	1.5184164
28.97269056097374	2.3263135	1.5252258
28.990793197675597	2.358722	1.5358131
29.00889657374923	2.3839521	1.5440053
29.027000689737125	2.3453045	1.5314387
29.04510554618196	2.3288033	1.5260417
29.06321114362659	2.3798816	1.5426865
29.08131748261405	2.4592636	1.5682039
29.099424563687567	2.4547803	1.5667739
29.11753238739057	2.4431524	1.5630587
29.13564095426663	2.5000114	1.5811424
29.15375026485954	2.5514348	1.5973212
29.171860319713275	2.6092718	1.615324
29.18997111937199	2.7259047	1.6510314
29.20808266438002	2.7965522	1.6722895
29.226194955281898	2.8001664	1.6733698
29.244307992622335	2.788146	1.6697743
29.26242177694624	2.8325999	1.683033
29.2805363087987	2.863979	1.6923295
29.29865158872498	2.8907673	1.7002257
29.316767617270557	2.841418	1.6856506
29.334884394981064	2.9008048	1.703175
29.353001922402367	3.0775595	1.7542974
29.37112020008047	3.1493828	1.7746501
29.389239228561596	3.2090693	1.7913876
29.407359008392152	3.3354428	1.8263195
29.42547954011872	3.551429	1.8845235
29.44360082428809	4.19866	2.0490632
29.46172286144722	5.251155	2.29154
29.479845652143283	6.703025	2.58902
29.497969196923606	8.527369	2.9201658
29.516093496335728	10.839144	3.2922854
29.5342185509274	13.275562	3.6435645
29.55234436124651	15.330873	3.9154658
29.570470927841175	16.5153	4.0639024
29.588598251259686	16.311602	4.0387626
29.60672633205055	15.229826	3.902541
29.624855170762405	13.299072	3.6467893
29.642984767944146	10.978255	3.313345
29.66111512414481	8.520314	2.9189577
29.67924623991366	6.3529663	2.5205092
29.697378115800138	4.986867	2.2331295
29.71551075235387	4.1962614	2.048478
29.733644150124675	3.7810576	1.9444941
29.751778309662576	3.5472498	1.8834144
29.769913231517766	3.3993833	1.8437417
29.78804891624066	3.2586513	1.8051735
29.806185364381818	3.2181852	1.79393
29.82432257649206	3.157849	1.7770338
29.842460553122333	3.1665683	1.7794853
29.86059929482382	3.2050655	1.7902696
29.878738802147872	3.2188337	1.7941108
29.896879075646048	3.2219253	1.7949722
29.915020115870114	3.2371764	1.7992156
29.933161923371976	3.1978045	1.7882406
29.951304498703777	3.2393303	1.799814
29.969447842417857	3.257554	1.8048695
29.987591955066733	3.2728388	1.809099
30.005736837203123	3.2413588	1.8003774
30.023882489379943	3.1944249	1.7872955
30.04202891215028	3.188757	1.7857091
30.060176106067455	3.1721437	1.7810513
30.078324071684946	3.1425793	1.7727321
30.09647280955646	3.039232	1.7433393
30.114622320235863	3.0136006	1.7359725
30.132772604277257	3.0223525	1.7384914
30.1509236622349	2.9994905	1.7319037
30.16907549466328	3.0386665	1.7431772
30.18722810211705	3.0669832	1.7512804
30.205381485151097	3.0180619	1.737257
30.22353564432045	3.0329115	1.7415257
30.241690580180403	2.9975817	1.7313526
30.25984629328638	2.9155264	1.7074913
30.278002784194037	2.9555318	1.719166
30.296160053459246	2.9471612	1.7167298
30.314318101638033	2.8597953	1.691093
30.332476929286646	2.8149934	1.6777942
30.35063653696153	2.9065824	1.7048702
30.368796925219307	2.9584692	1.72002
30.386958094616844	2.9189506	1.7084937
30.40512004571115	2.875241	1.6956536
30.423282779059463	2.9070044	1.704994
30.441446295219233	2.8670359	1.6932324
30.459610594748067	2.8710032	1.6944035
30.47777567820382	2.8546727	1.6895777
30.495941546144504	2.811311	1.6766964
30.51410819912835	2.7643223	1.6626251
30.532275637713795	2.7516956	1.6588236
30.55044386245946	2.7512193	1.65868
30.56861287392416	2.8093476	1.6761109
30.586782672666956	2.8832517	1.698014
30.604953259247047	2.83407	1.6834697
30.623124634223885	2.763553	1.6623937
30.641296798157075	2.7459457	1.6570895
30.659469751606462	2.7500024	1.6583132
30.677643495132074	2.7357073	1.6539974
30.695818029294152	2.6977937	1.6424962
30.713993354653116	2.6748343	1.6354921
30.73216947176962	2.6841135	1.6383264
30.75034638120448	2.6723547	1.6347338
30.768524083518756	2.650182	1.6279379
30.786702579273673	2.6519496	1.6284808
30.80488186903069	2.6996822	1.6430709
30.82306195335144	2.7840462	1.6685461
30.841242832797782	2.995028	1.7306149
30.85942450793176	3.315272	1.8207889
30.877606979315637	3.6042395	1.8984835
30.895790247511883	3.9420033	1.9854479
30.913974313083134	4.307093	2.0753536
30.932159176592283	4.532244	2.1289067
30.95034483860237	4.551053	2.1333196
30.968531299676698	4.369912	2.0904336
30.98671856037873	4.1639876	2.040585
31.00490662127215	3.826559	1.9561592
31.023095482920848	3.4207537	1.849528
31.04128514588892	2.9982972	1.7315592
31.059475610740662	2.669272	1.6337906
31.07766687804056	2.4963717	1.5799911
31.09585894835335	2.449074	1.5649518
31.11405182224393	2.4452598	1.5637326
31.132245500277417	2.4786355	1.5743684
31.15043998301914	2.483699	1.5759757
31.168635271034628	2.3715096	1.5399706
31.18683136488964	2.3230002	1.5241392
31.20502826515008	2.3692424	1.5392344
31.223225972382135	2.4252634	1.5573257
31.241424487152155	2.4524279	1.566023
31.259623810026692	2.456461	1.5673101
31.27782394157253	2.5252907	1.5891163
31.296024882356644	2.4157674	1.554274
31.314226632946237	2.3685238	1.5390009
31.332429193908684	2.3146718	1.5214045
31.350632565811598	2.346235	1.5317425
31.368836749222787	2.3768215	1.5416944
31.387041744710295	2.5085542	1.5838416
31.40524755284232	2.556778	1.5989928
31.423454174187317	2.5767176	1.6052158
31.441661609313922	2.5559793	1.5987431
31.459869858791002	2.4588673	1.5680776
31.478078923187628	2.3413622	1.530151
31.496288803073064	2.2730653	1.5076689
31.514499499016807	2.2621634	1.504049
31.532711011588546	2.215706	1.4885248
31.550923341358178	2.2307007	1.493553
31.56913648889584	2.2745562	1.5081632
31.587350454771844	2.2978632	1.5158705
31.605565239556732	2.316672	1.5220618
31.62378084382127	2.3369539	1.5287099
31.641997268136382	2.2022853	1.4840099
31.660214513073274	2.1053543	1.4509839
31.67843257920331	2.229077	1.4930094
31.6966514670981	2.3297613	1.5263555
31.71487117732944	2.2517967	1.5005988
31.733091710469346	2.2037182	1.4844925
31.751313067090052	2.2476318	1.4992104
31.769535247764008	2.2743735	1.5081027
31.787758253063878	2.2560964	1.5020307
31.805982083562526	2.2564921	1.5021625
31.824206739833024	2.2808242	1.5102397
31.84243222244869	2.3030875	1.5175927
31.860658531983013	2.2659998	1.5053238
31.878885669009737	2.2472622	1.4990871
31.897113634102784	2.3079298	1.5191872
31.91534242783632	2.3411274	1.5300744
31.933572050784694	2.3175974	1.5223657
31.951802503522508	2.2203448	1.4900821
31.970033786624548	2.2026997	1.4841495
31.988265900665834	2.239592	1.4965267
32.006498846221575	2.235107	1.4950274
32.02473262386724	2.1680558	1.4724319
32.04296723417845	2.1427758	1.4638224
32.0612026777311	2.062527	1.4361501
32.07943895510129	2.1012836	1.4495804
32.097676066865304	2.1746638	1.4746741
32.115914013599685	2.1590304	1.4693639
32.13415279588115	2.1697178	1.4729962
32.152392414286666	2.1798792	1.4764414
32.1706328693934	2.1220338	1.4567202
32.18887416177875	2.0644484	1.4368188
32.20711629202032	2.1013942	1.4496186
32.225359260695924	2.135126	1.461207
32.243603068383614	2.1848748	1.4781322
32.26184771566166	2.2416167	1.497203
32.28009320310852	2.0936303	1.4469383
32.2983395313029	2.0871532	1.4446983
32.31658670082372	2.1272	1.4584923
32.33483471225012	2.146785	1.4651911
32.35308356616143	2.106462	1.4513656
32.371333263137245	2.1053061	1.4509673
32.38958380375734	2.0450413	1.4300494
32.407835188601744	2.0911093	1.4460669
32.42608741825067	2.1567066	1.468573
32.444340493284585	2.2275457	1.4924965
32.46259441428416	2.2171285	1.4890025
32.48084918183028	2.1393661	1.4626572
32.49910479650405	1.9934939	1.4119115
32.51736125888683	1.9346445	1.3909149
32.53561856956014	2.0131392	1.4188514
32.5538767291058	2.011489	1.4182696
32.572135738105764	1.9715056	1.4041032
32.59039559714228	1.9402044	1.3929121
32.608656306797776	1.928922	1.3888564
32.62691786765491	1.9506642	1.3966618
32.645180280296586	2.0118499	1.418397
32.663443545305896	2.0322592	1.4255733
32.68170766326619	2.0866892	1.4445378
32.69997263476099	2.129379	1.4592392
32.7182384603741	2.0972786	1.4481984
32.7365051406895	1.9971466	1.4132044
32.75477267629144	2.0180893	1.4205947
32.77304106776434	2.0669203	1.4376788
32.79131031569289	2.0730655	1.4398144
32.809580420661966	2.0055187	1.4161633
32.827851383256714	1.9791142	1.4068099
32.84612320406245	1.9642041	1.4015007
32.86439588366476	1.9309472	1.3895853
32.88266942264945	1.9193815	1.3854175
32.9009438216025	1.9217467	1.3862708
32.9192190811102	1.9006984	1.3786582
32.937495201758985	1.868355	1.3668778
32.95577218413556	1.9262435	1.3878918
32.974050028826866	1.9370838	1.3917916
32.992328736420035	1.9701638	1.4036252
33.010608307502444	1.9985341	1.4136952
33.02888874266169	2.0011861	1.4146329
33.047170042485604	2.0335245	1.426017
33.06545220756225	1.9957728	1.4127183
33.083735238479896	1.8883419	1.3741696
33.10201913582707	1.8238342	1.350494
33.12030390019248	1.8382568	1.3558233
33.138589532165135	1.9423909	1.3936969
33.15687603233419	1.9609203	1.4003286
33.17516340128909	1.908914	1.3816345
33.19345163961947	1.8422544	1.3572967
33.211740747915215	1.9428419	1.3938587
33.23003072676643	2.0562441	1.433961
33.248321576763466	2.117727	1.4552412
33.266613298496885	2.0577412	1.4344829
33.28490589255747	1.951776	1.3970598
33.30319935953626	1.9657923	1.4020672
33.32149370002451	2.0331948	1.4259014
33.339788914613706	2.0846977	1.4438483
33.358085003895575	1.9803085	1.4072343
33.376381968462034	1.8886919	1.3742969
33.39467980890529	1.9402027	1.3929116
33.41297852581774	1.9924004	1.4115242
33.43127811979204	1.9886271	1.4101869
33.44957859142105	2.0414631	1.4287978
33.467879941297866	1.9765841	1.4059104
33.486182170015844	1.970115	1.4036078
33.50448527816853	1.9248426	1.3873869
33.522789266349754	1.9020071	1.3791327
33.541094135153514	2.0223043	1.4220774
33.55939988517411	2.1082346	1.4519761
33.57770651700602	2.0342581	1.4262742
33.59601403124398	1.9830629	1.4082127
33.61432242848296	2.0145707	1.4193558
33.632631709318154	2.0603576	1.4353945
33.650941874344994	2.0819302	1.4428896
33.66925292415916	2.0463245	1.430498
33.68756485935654	1.9731284	1.4046808
33.70587768053328	1.9209348	1.3859779
33.724191388285746	1.9719082	1.4042464
33.74250598321054	2.1057088	1.4511061
33.760821465904506	2.0475817	1.4309373
33.77913783696474	1.9357237	1.3913028
33.79745509698852	1.8872528	1.3737732
33.815773246573414	1.8691585	1.3671718
33.8340922863172	1.8785632	1.3706069
33.852412216817896	1.9166938	1.3844471
33.87073303867377	1.9097227	1.3819271
33.889054752483304	1.8761605	1.3697301
33.907377358845245	1.9593375	1.3997633
33.92570085835853	2.0496633	1.4316645
33.94402525162239	1.9829698	1.4081796
33.96235053923627	1.8212318	1.3495302
33.980676721799824	1.7630515	1.3277996
33.999003799912984	1.8854246	1.3731077
34.01733177417592	1.9516071	1.3969994
34.03566064518901	1.9481518	1.3957621
34.0539904135529	1.8552266	1.3620671
34.07232107986846	1.7233446	1.3127621
34.090652644736785	1.9050999	1.3802536
34.108985108759235	2.0788069	1.4418068
34.12731847253742	1.9992408	1.4139451
34.14565273667313	1.8768235	1.3699721
34.16398790176847	1.948049	1.3957253
34.18232396842574	2.0629807	1.436308
34.20066093724749	2.1009676	1.4494715
34.21899880883651	2.102439	1.449979
34.23733758379583	2.0333424	1.4259531
34.25567726272874	2.0489979	1.4314321
34.27401784623872	2.0652008	1.4370806
34.29235933492957	1.8203044	1.3491865
34.31070172940526	1.6612177	1.2888824
34.32904503027003	1.7182527	1.3108214
34.347389238128386	1.8591806	1.3635178
34.36573435358502	2.0072014	1.4167573
34.38408037724492	2.0835855	1.443463
34.402427309713296	2.0187137	1.4208144
34.42077515159559	2.0850327	1.4439642
34.43912390349752	2.1347497	1.4610783
34.45747356602499	2.151056	1.4666479
34.47582413978423	2.158612	1.4692216
34.49417562538163	2.0364227	1.4270328
34.51252802342388	1.9023929	1.3792726
34.53088133451789	1.9415377	1.3933908
34.54923555927084	1.8345479	1.3544549
34.567590698290104	1.8291395	1.3524568
34.58594675218336	1.8822532	1.3719523
34.6043037215585	1.9713118	1.4040341
34.62266160702365	1.9064602	1.3807462
34.641020409187234	1.9031203	1.3795363
34.65938012865785	1.9004759	1.3785775
34.677740766044394	1.8363348	1.3551143
34.69610232195598	1.8024589	1.3425568
34.714464797002016	1.8450865	1.3583395
34.73282819179208	1.8973789	1.3774538
34.751192506936064	1.9452665	1.3947281
34.76955774304408	1.9600639	1.4000229
34.7879239007265	2.0810947	1.4426
34.80629098059391	2.116679	1.4548811
34.824658983257194	2.2089183	1.486243
34.843027909327446	2.0965235	1.4479377
34.86139775941603	1.9539163	1.3978256
34.879768534134534	1.9501634	1.3964825
34.89814023409483	1.8553102	1.3620977
34.91651285990901	1.8323498	1.3536432
34.93488641218944	1.8555222	1.3621755
34.95326089154871	1.8236649	1.3504313
34.97163629859967	1.8690304	1.3671248
34.99001263395542	1.9987694	1.4137784
35.00838989822934	2.0381436	1.4276357
35.02676809203499	1.9941747	1.4121525
35.04514721598624	2.026704	1.4236236
35.063527270697215	2.0819278	1.4428887
35.081908256782256	1.973531	1.4048241
35.10029017485597	1.8474756	1.3592187
35.11867302553321	1.8874346	1.3738394
35.137056809429104	1.9900761	1.4107006
35.155441527159006	1.9684877	1.403028
35.173827179338524	2.018229	1.4206439
35.19221376658354	2.0411537	1.4286895
35.21060128951017	1.9982557	1.4135967
35.2289897487348	1.8974473	1.3774786
35.24737914487405	1.9739659	1.404979
35.26576947854479	2.3171678	1.5222247
35.28416075036418	2.3426871	1.5305839
35.30255296094958	2.111705	1.4531707
35.32094611091867	2.3705301	1.5396526
35.33934020088932	2.4310594	1.5591855
35.35773523147969	2.208334	1.4860464
35.3761312033082	2.15739	1.4688057
35.394528116993506	2.143392	1.4640328
35.41292597315452	2.1572416	1.4687551
35.431324772410434	2.379232	1.5424759
35.449724515380666	2.3905149	1.546129
35.46812520268491	2.009733	1.4176505
35.486526834943106	1.6416476	1.281268
35.504929412775454	1.6979291	1.3030461
35.52333293680242	1.6025915	1.2659351
35.54173740764471	1.6669401	1.2911004
35.560142825923286	1.9492573	1.396158
35.5785491922594	1.7604116	1.326805
35.59695650727454	1.5524511	1.245974
35.61536477159042	1.3578206	1.1652557
