0.008763373481513119	0.0	0.0
0.026290120649546365	0.0	0.0
0.043816868432600686	0.0	0.0
0.06134361724069026	0.0	0.0
0.07887036748382949	0.0	0.0
0.0963971195720331	0.03539418	0.18813342
0.11392387391531617	0.11698368	0.34202877
0.1314506309236943	0.21174288	0.46015528
0.1489773910071836	0.21116012	0.45952162
0.16650415457580078	0.14035244	0.3746364
0.18403092203956356	0.11476212	0.3387656
0.20155769380849	0.085625686	0.29261866
0.2190844702925996	0.13035797	0.3610512
0.2366112519019124	0.13407752	0.36616597
0.2541380390464497	0.14988017	0.3871436
0.27166483213623416	0.12558481	0.35437948
0.28919163158128947	0.15211554	0.39001992
0.3067184377916406	0.19400142	0.4404559
0.324245251177314	0.21250439	0.460982
0.34177207214833777	0.25261858	0.50261176
0.3592989011147415	0.24264325	0.4925883
0.37682573848655654	0.22970901	0.4792797
0.39435258467381573	0.1911789	0.4372401
0.41187944008655414	0.123799734	0.35185185
0.42940630513480854	0.10180755	0.31907296
0.446933180228618	0.112253405	0.3350424
0.4644600657780234	0.14999442	0.38729113
0.48198696219306775	0.17188023	0.4145844
0.49951386988379676	0.15588164	0.39481848
0.5170407892602581	0.15093113	0.38849857
0.5345677207325025	0.11014133	0.33187547
0.5520946647105822	0.13326238	0.3650512
0.5696216216045534	0.13387227	0.3658856
0.5871485918244737	0.1407453	0.37516037
0.6046755757804043	0.13963352	0.3736757
0.6222025738824094	0.15480861	0.39345726
0.6397295865405557	0.17543353	0.41884786
0.6572566141649129	0.16802362	0.40990683
0.6747836571655547	0.14810975	0.3848503
0.6923107159525568	0.14459945	0.38026235
0.7098377909359992	0.12933153	0.35962692
0.7273648825259653	0.1428458	0.37794945
0.7448919911325411	0.13943808	0.37341407
0.762419117165817	0.16956481	0.41178247
0.7799462610358868	0.18366289	0.4285591
0.7974734231528482	0.17708968	0.42082024
0.8150006039268024	0.16304971	0.40379414
0.8325278037678551	0.1644308	0.40550068
0.8500550230861152	0.23225144	0.4819247
0.8675822622916969	0.24640457	0.49639156
0.8851095217947171	0.22587462	0.47526267
0.9026368020052984	0.19994532	0.44715247
0.9201641033335665	0.18022667	0.4245311
0.9376914261896523	0.22298913	0.47221723
0.9552187709836915	0.23713374	0.4869638
0.9727461381258234	0.25378913	0.5037749
0.990273528026193	0.25018057	0.50018054
1.0078009410949496	0.24242637	0.49236813
1.0253283777422473	0.24217294	0.4921107
1.0428558383782454	0.2067894	0.45474103
1.0603833234131086	0.27894825	0.5281555
1.0779108332570058	0.30571055	0.552911
1.0954383683201119	0.35616225	0.5967933
1.112965929012607	0.39146593	0.6256724
1.1304935157446763	0.4689619	0.6848079
1.1480211289265108	0.50526184	0.71081775
1.1655487689683062	1.3805226	1.1749564
1.1830764362802655	1.6975502	1.3029007
1.200604131272596	2.1364405	1.4616568
1.2181318543555117	2.501779	1.5817013
1.235659605939232	2.4752638	1.5732971
1.253187386433982	3.8889534	1.9720429
1.270715196249994	6.222898	2.4945738
1.2882430357975057	11.692508	3.419431
1.3057709054867608	16.344778	4.0428677
1.3232988057280106	22.443146	4.7374196
1.3408267369315112	27.342096	5.228967
1.358354699507526	31.056211	5.57281
1.3758826938663256	34.792374	5.898506
1.3934107204181858	36.865906	6.07173
1.410938779573391	37.282642	6.1059513
1.4284668717422309	37.854946	6.1526375
1.4459949973350033	37.266785	6.104653
1.4635231567620117	37.28769	6.1063647
1.4810513504335687	36.634308	6.052628
1.4985795787599925	35.973255	5.997771
1.5161078421516088	35.845417	5.9871044
1.5336361410187505	34.754864	5.8953257
1.5511644757717598	34.694233	5.890181
1.5686928468209842	35.357872	5.9462485
1.58622125457678	36.147526	6.0122814
1.6037496994495108	37.138912	6.0941706
1.621278181849548	36.83238	6.0689683
1.6388067021872719	37.384186	6.1142607
1.6563352608730693	36.934883	6.0774074
1.673863858317336	36.20452	6.0170193
1.6913924949304753	35.61713	5.968009
1.7089211711228998	34.70817	5.891364
1.7264498873050296	33.92028	5.824112
1.7439786438872935	33.049404	5.7488613
1.7615074412801288	32.186962	5.6733556
1.779036279893981	31.395819	5.603197
1.796565160139305	30.420462	5.515475
1.814094082426564	29.862318	5.4646425
1.8316230471662298	29.231201	5.4065886
1.849152054768784	28.272125	5.317154
1.8666811056447168	27.919197	5.283862
1.8842102002045273	26.909483	5.187435
1.901739338858724	26.191479	5.117761
1.9192685220178245	25.549847	5.0546856
1.9367977500923557	24.84522	4.984498
1.9543270234928547	24.329033	4.932447
1.971856342629867	23.601177	4.858104
1.9893857079139496	22.884548	4.7837796
2.006915119755667	22.28962	4.7211885
2.0244445785655945	21.782774	4.667202
2.0419740847543175	21.709932	4.659392
2.0595036387324317	21.532871	4.6403527
2.0770332409105414	21.263458	4.611232
2.094562891699263	20.942537	4.5763016
2.1120925915092217	20.2897	4.504409
2.129622340751053	19.714443	4.440095
2.1471521398354043	187.76868	13.702871
2.1646819891729323	443.93826	21.069843
2.182211889174303	440.19415	20.980804
2.1997418402501974	452.76767	21.278337
2.2172718428113023	432.91534	20.806618
2.234801897268317	321.0698	17.91842
2.2523320040319548	17.37794	4.1686854
2.269862163512935	17.072287	4.131862
2.287392376121992	16.726168	4.0897636
2.304922642269869	16.5617	4.069607
2.322452962367322	16.27565	4.034309
2.3399833368251164	15.726653	3.9656844
2.357513766054032	15.418101	3.926589
2.3750442504648586	15.048243	3.8792064
2.3925747904683963	14.930314	3.8639765
2.410105386475459	14.723412	3.8371098
2.4276360388968707	14.463812	3.8031318
2.445166748143469	14.251926	3.7751725
2.4626975146261025	13.944093	3.734179
2.4802283387556323	13.704132	3.7019093
2.4977592209429305	13.373161	3.6569333
2.5152901615988825	12.992443	3.6045032
2.5328211611343865	12.628892	3.5537152
2.5503522199603523	12.480515	3.532777
2.5678833384877024	12.318259	3.5097377
2.5854145171273712	12.239425	3.498489
2.6029457562903064	12.048868	3.471148
2.620477056387469	12.040911	3.4700015
2.6380084178298326	11.91246	3.4514432
2.655539841028383	11.756097	3.4287164
2.673071326394119	11.359338	3.3703616
2.6906028743380523	11.097451	3.3312838
2.708134485271211	10.941229	3.3077528
2.7256661596046325	10.855897	3.294829
2.743197897749369	10.773815	3.282349
2.760729700116486	10.602126	3.2560906
2.778261567117063	10.371835	3.2205334
2.795793499162193	10.209233	3.195189
2.8133254966629817	10.035823	3.1679368
2.830857560030551	9.9138565	3.1486278
2.8483896896760337	9.817023	3.133213
2.865921886010578	9.625235	3.1024563
2.883454149445347	9.507812	3.083474
2.9009864803915177	9.436689	3.0719194
2.91851887926028	9.412678	3.0680087
2.9360513464628384	9.208968	3.0346282
2.953583882410413	8.926166	2.987669
2.9711164875142373	8.785346	2.9640083
2.9886491621855606	8.763617	2.9603405
3.0061819068356455	8.7079735	2.9509275
3.023714721875769	8.5691805	2.9273162
3.041247607717225	8.476662	2.9114707
3.0587805647713213	8.432421	2.903863
3.0763135934493806	8.379391	2.8947177
3.0938466941627407	8.229935	2.8687863
3.1113798673227544	8.106275	2.847152
3.1289131133407904	7.994743	2.8274977
3.1464464326282315	7.9643493	2.8221178
3.1639798255964786	7.7384086	2.7817996
3.1815132926569443	7.527124	2.7435606
3.1990468342210603	7.4628243	2.731817
3.216580450700272	7.42096	2.724144
3.2341141425060416	7.3601522	2.71296
3.251647910049847	7.2305737	2.6889727
3.2691817537431813	7.1168857	2.6677492
3.286715673997555	7.1295424	2.6701202
3.3042496712244938	7.1626287	2.6763089
3.32178374583554	7.0417457	2.6536288
3.339317898242251	6.9215336	2.6308808
3.3568521288562034	6.8847175	2.6238744
3.3743864380889876	6.7795887	2.6037643
3.3919208263522127	6.71302	2.5909495
3.4094552940575023	6.600246	2.5690944
3.4269898416164972	6.6322093	2.5753076
3.444524469440858	6.520165	2.5534613
3.4620591779422587	6.510931	2.5516527
3.479593967532391	6.393925	2.5286212
3.4971288386229658	6.457794	2.541219
3.5146637916257086	6.4561186	2.5408893
3.5321988269523628	6.4230175	2.5343673
3.5497339450146903	6.3383236	2.5176027
3.5672691462244708	6.2233715	2.4946687
3.5848044309934988	6.145881	2.4790888
3.60233979973359	6.213533	2.4926958
3.619875252856575	6.1789894	2.4857574
3.6374107907743034	6.2138243	2.4927545
3.6549464138986427	6.180881	2.4861379
3.6724821226414788	6.219778	2.4939482
3.690017917414714	6.1894627	2.487863
3.7075537986302702	6.229571	2.495911
3.7250897667000857	6.302791	2.510536
3.7426258220361235	6.4703245	2.5436833
3.7601619650503553	6.745421	2.597195
3.777698196154779	7.1283903	2.6699045
3.7952345157614067	8.1287775	2.8511012
3.8127709242822716	9.073571	3.0122368
3.830307422129425	11.355213	3.3697498
3.847844009714936	30.223846	5.497622
3.8653806874508954	97.75739	9.887234
3.882917455749409	97.02988	9.850374
3.900454315022606	96.84898	9.841188
3.917991265682631	41.327503	6.428647
3.9355283081416506	10.908599	3.3028169
3.9530654428118495	8.829099	2.97138
3.970602670105433	7.6346164	2.763081
3.9881399904346244	6.6910553	2.5867074
4.005677404211669	6.662075	2.5810995
4.023214911848827	6.585397	2.5662029
4.0407525137583855	6.5073314	2.5509472
4.058290210352644	6.5181503	2.5530667
4.075828002043927	6.3732014	2.52452
4.0933658892445814	6.2726374	2.5045233
4.110903872366966	6.192824	2.4885385
4.128441951823468	6.1141553	2.4726818
4.145980128026488	6.165811	2.4831052
4.163518401388452	6.2029243	2.490567
4.181056772321807	6.100762	2.4699721
4.1985952412390155	6.082909	2.4663553
4.216133808552567	6.143457	2.4785998
4.233672474674966	6.2399383	2.4979868
4.251211240018741	6.422257	2.5342171
4.268750104996445	6.5809	2.5653265
4.286289070020643	7.496608	2.7379935
4.303828135503928	9.235306	3.0389645
4.3213673018589125	29.614355	5.4419074
4.3389065694982305	90.8193	9.529916
4.356445938834537	165.94537	12.881979
4.3739854102805085	171.49597	13.095647
4.391524984248844	172.4122	13.130583
4.409064661152262	136.46404	11.681782
4.426604441403504	96.75958	9.836645
4.444144325415337	75.509735	8.689633
4.461684313600543	21.487759	4.635489
4.47922440637193	21.905668	4.6803493
4.496764604142329	20.25633	4.5007033
4.5143049073245916	18.550985	4.3070855
4.531845316331589	16.329422	4.040968
4.5493858315762195	13.595258	3.6871748
4.566926453471405	11.234151	3.3517385
4.584467182430081	9.305637	3.0505142
4.602008018865218	8.235108	2.8696878
4.619548963189798	7.499331	2.7384906
4.637090015816834	6.9461417	2.6355534
4.654631177159353	6.610006	2.5709932
4.672172447630417	6.393023	2.5284429
4.689713827643102	6.2505674	2.5001135
4.7072553176105085	6.0164866	2.4528527
4.724796917945764	5.866542	2.4220946
4.742338629062015	5.803499	2.4090452
4.759880451372434	5.791069	2.406464
4.777422385290215	5.708202	2.3891842
4.794964431228581	5.674775	2.3821785
4.812506589600768	5.6852245	2.3843708
4.830048860820047	5.6183476	2.3703053
4.847591245299709	5.631944	2.3731718
4.8651337434530655	5.6324883	2.3732865
4.882676355693457	5.6404757	2.3749685
4.900219082434242	5.701894	2.3878639
4.917761924088813	5.65162	2.3773136
4.935304881070575	5.58724	2.3637345
4.952847953792969	5.5532146	2.356526
4.970391142669449	5.5760517	2.3613665
4.9879344481135055	5.577926	2.3617632
5.005477870538642	5.5791564	2.3620238
5.023021410358394	5.502741	2.345792
5.040565067986324	5.539574	2.35363
5.05810884383601	5.4576325	2.3361576
5.075652738321066	5.4635763	2.3374295
5.09319675185512	5.4085975	2.3256392
5.110740884851836	5.4005136	2.3239005
5.128285137724894	5.333902	2.309524
5.145829510888007	5.3196697	2.3064408
5.163374004754908	5.3234158	2.307253
5.1809186197393595	5.35182	2.3134
5.198463356255145	5.282543	2.2983785
5.216008214716077	5.29024	2.3000522
5.233553195535998	5.2997985	2.302129
5.251098299128764	5.349446	2.312887
5.268643525908272	5.402731	2.3243775
5.286188876288432	5.4168735	2.3274179
5.3037343506831895	5.3647933	2.3162024
5.32127994950651	5.231622	2.287274
5.3388256731723915	5.142892	2.2677946
5.356371522094851	5.1636066	2.272357
5.373917496687938	5.2201605	2.2847672
5.391463597365729	5.30502	2.303263
5.40900982454232	5.2738276	2.2964816
5.426556178631843	5.2554946	2.2924867
5.444102660048449	5.1419845	2.2675943
5.4616492692063225	5.066813	2.2509582
5.479196006519669	5.0430145	2.2456658
5.496742872402727	5.1196346	2.262661
5.514289867269756	5.204164	2.2812636
5.531836991535049	5.2129636	2.2831914
5.549384245612924	5.227626	2.2864
5.566931629917724	5.209275	2.2823837
5.584479144863822	5.1152577	2.2616935
5.6020267908656205	5.085887	2.255191
5.619574568337545	5.018543	2.2402105
5.637122477694054	5.0594425	2.2493205
5.654670519349629	5.1548257	2.2704241
5.672218693718784	5.2328787	2.2875485
5.689767001216059	5.1633434	2.272299
5.707315442256021	5.059965	2.2494366
5.724864017253266	4.992664	2.234427
5.7424127266224225	5.0379305	2.2445335
5.75996157077814	5.150873	2.2695534
5.777510550135105	5.1886263	2.2778556
5.795059665108022	5.1637883	2.272397
5.812608916111639	5.1471844	2.2687407
5.830158303560715	5.2545404	2.2922785
5.847707827870055	5.295363	2.3011656
5.86525748945448	5.3735566	2.3180933
5.8828072887288485	5.508117	2.346938
5.900357226108044	5.5919237	2.3647249
5.917907302006979	5.687581	2.384865
5.9354575168406	6.317584	2.5134804
5.9530078710238765	6.944265	2.6351974
5.970558364971812	7.435218	2.7267597
5.988108999099438	7.6865025	2.7724543
6.005659773821818	8.120708	2.8496857
6.023210689554039	7.9357853	2.8170526
6.040761746711227	8.424289	2.9024625
6.058312945708531	7.9086056	2.8122244
6.075864286961132	7.424084	2.7247174
6.093415770884244	6.678534	2.584286
6.1109673978931065	6.077641	2.4652872
6.128519168402993	5.4962435	2.3444068
6.146071082829204	5.3553348	2.3141596
6.163623141587075	5.2676682	2.29514
6.181175345091969	5.225161	2.285861
6.198727693759281	5.270249	2.2957022
6.216280188004435	5.2339654	2.2877862
6.233832828242885	5.220902	2.2849293
6.251385614890126	5.2094793	2.2824285
6.268938548361669	5.210441	2.282639
6.286491629073067	5.097528	2.2577705
6.304044857439898	4.9909444	2.2340422
6.321598233877777	4.9129725	2.2165227
6.339151758802344	4.939063	2.2224002
6.356705432629277	4.948468	2.2245152
6.37425925577428	4.9454794	2.2238433
6.391813228653095	4.993808	2.234683
6.409367351681486	5.0417676	2.245388
6.426921625275259	5.083322	2.2546225
6.44447604985025	5.127423	2.2643814
6.46203062582232	5.09786	2.257844
6.47958535360737	5.0535526	2.2480109
6.497140233621328	4.998781	2.2357955
6.514695266280161	4.968138	2.2289321
6.532250451999859	4.962325	2.2276278
6.549805791196454	4.9085803	2.2155316
6.567361284286002	4.930692	2.2205162
6.584916931684597	4.962274	2.2276163
6.602472733808367	5.0400686	2.2450097
6.6200286910734665	5.1126585	2.261119
6.637584803896092	5.0371046	2.2443495
6.655141072692462	5.021623	2.240898
6.672697497878842	4.9859576	2.232926
6.690254079871514	4.967281	2.2287397
6.707810819086808	4.93364	2.22118
6.725367715941078	4.912656	2.2164512
6.742924770850719	4.950329	2.2249334
6.760481984232151	4.993582	2.2346323
6.778039356501836	4.9528275	2.2254949
6.795596888076266	4.9235024	2.2188966
6.813154579371963	4.852504	2.2028399
6.830712430805492	4.8470244	2.2015958
6.84827044279344	4.8119364	2.1936126
6.865828615752445	4.836446	2.199192
6.883386950099159	4.871397	2.2071242
6.900945446250287	4.9492927	2.2247007
6.918504104622553	5.0067186	2.2375698
6.936062925632727	5.03731	2.2443953
6.953621909697607	5.031227	2.2430396
6.971181057234028	5.0239944	2.241427
6.988740368658859	5.078199	2.253486
7.006299844389007	5.1293144	2.2647989
7.023859484841407	5.225177	2.2858646
7.041419290433036	5.3463125	2.3122094
7.058979261580902	5.445865	2.3336377
7.0765393987020495	5.657071	2.37846
7.094099702213559	6.004094	2.4503253
7.111660172532549	6.3862786	2.5271087
7.129220810076164	6.724705	2.5932035
7.146781615261595	7.3476663	2.7106578
7.16434258850606	7.600149	2.756837
7.181903730226821	8.046296	2.8365993
7.1994650408411704	8.106272	2.8471515
7.217026520766437	8.256897	2.8734818
7.234588170419983	8.575528	2.9284003
7.252149990219215	8.585478	2.9300985
7.269711980581568	8.496683	2.914907
7.2872741419245175	8.289253	2.8791063
7.304836474665574	7.8456864	2.8010151
7.322398979222286	7.510424	2.7405152
7.339961656012233	7.2126937	2.6856458
7.357524505453039	6.800385	2.6077547
7.375087527962357	6.514638	2.552379
7.392650723957886	6.2406497	2.4981291
7.410214093857353	5.9574	2.4407785
7.427777638078528	5.8124576	2.410904
7.445341357039213	5.6311755	2.37301
7.4629052511572525	5.4334826	2.3309832
7.480469320850524	5.3132696	2.305053
7.498033566536948	5.2812176	2.29809
7.5155979886344735	5.269262	2.2954872
7.5331625875610975	5.175621	2.2749991
7.550727363734844	5.0650134	2.2505584
7.568292317573788	5.0642405	2.2503867
7.585857449496025	5.104638	2.2593446
7.603422759919705	5.142038	2.2676063
7.620988249263007	5.162881	2.2721975
7.638553917944147	5.162492	2.2721117
7.656119766381391	5.1539254	2.2702258
7.673685794993023	5.1515746	2.2697082
7.691252004197388	5.1680217	2.2733283
7.70881839441285	5.1759005	2.2750607
7.726384966057826	5.191773	2.2785463
7.743951719550762	5.1819077	2.2763803
7.761518655310149	5.182833	2.2765837
7.779085773754511	5.211463	2.282863
7.796653075302419	5.2219267	2.2851536
7.814220560372475	5.2449336	2.290182
7.831788229383323	5.227123	2.2862902
7.8493560827536495	5.260423	2.2935612
7.866924120902174	5.2393374	2.28896
7.884492344247663	5.278023	2.2973948
7.9020607532089135	5.3048506	2.3032262
7.919629348204771	5.316982	2.3058581
7.937198129654115	5.412056	2.3263826
7.954767097975865	5.417592	2.327572
7.972336253588986	5.3779936	2.31905
7.989905596912472	5.3601675	2.3152037
8.007475128365371	5.3242764	2.3074393
8.025044848366756	5.4166055	2.3273602
8.042614757335754	5.553165	2.3565154
8.060184855691523	5.6216655	2.371005
8.07775514385327	5.801025	2.4085317
8.095325622240228	5.8466277	2.4179802
8.112896291271687	5.8825674	2.4254005
8.130467151366968	5.942766	2.437779
8.148038202945436	5.9594417	2.4411967
8.165609446426497	5.9292755	2.4350104
8.183180882229594	5.940504	2.437315
8.200752510774217	5.939037	2.4370139
8.218324332479893	5.9854646	2.4465208
8.235896347766193	5.9598536	2.441281
8.253468557052724	5.9345284	2.4360888
8.27104096075914	5.882403	2.4253666
8.288613559305137	5.9701743	2.443394
8.306186353110448	6.07642	2.4650395
8.32375934259485	6.242441	2.4984877
8.341332528178162	6.2568264	2.501365
8.358905910280246	6.280743	2.5061412
8.376479489321003	6.313789	2.5127254
8.394053265720377	6.372159	2.5243137
8.411627239898356	6.418709	2.5335171
8.42920141227497	6.3797045	2.5258076
8.44677578327029	6.3255644	2.5150676
8.464350353304427	6.1741843	2.4847906
8.48192512279754	6.1236506	2.474601
8.499500092169827	6.0906296	2.46792
8.51707526184153	6.0532417	2.4603336
8.534650632232934	6.0239205	2.4543676
8.552226203764365	5.9854646	2.4465208
8.569801976856192	6.0316706	2.455946
8.587377951928834	6.122664	2.4744017
8.60495412940274	6.277123	2.5054188
8.622530509698416	6.3910813	2.5280588
8.6401070932364	6.521897	2.5538006
8.657683880437283	6.6557446	2.579873
8.675260871721695	6.7976227	2.6072252
8.692838067510303	6.959949	2.6381714
8.710415468223834	7.0121727	2.6480508
8.727993074283043	7.058295	2.6567452
8.745570886108737	7.0535	2.6558425
8.763148904121765	7.1780186	2.6791825
8.78072712874302	7.2054143	2.6842902
8.798305560393441	7.3708844	2.7149372
8.815884199494006	7.577039	2.7526422
8.833463046465745	7.8260436	2.7975066
8.851042101729728	8.007177	2.8296957
8.86862136570707	8.263953	2.8747091
8.886200838818924	8.436155	2.904506
8.903780521486505	8.485261	2.9129472
8.921360414131055	8.610246	2.934322
8.938940517173874	8.696573	2.9489954
8.956520831036297	8.79883	2.9662821
8.97410135613971	9.065732	3.0109353
8.99168209290554	9.214216	3.0354927
9.009263041755265	9.494905	3.0813804
9.026844203110405	9.736535	3.1203423
9.044425577392525	9.890388	3.1448987
9.062007165023239	10.007982	3.1635394
9.079588966424197	10.26179	3.203403
9.097170982017108	10.33252	3.2144237
9.11475321222372	11.250544	3.354183
9.132335657465825	12.094197	3.4776711
9.149918318165264	12.221816	3.4959714
9.167501194743924	12.774379	3.5741262
9.18508428762374	12.5037985	3.536071
9.202667597226693	12.470849	3.531409
9.220251123974803	12.194859	3.4921138
9.237834868290143	11.904485	3.4502876
9.255418830594836	11.665378	3.4154615
9.273003011311046	11.134185	3.3367927
9.290587410860985	10.870396	3.2970283
9.308172029666911	10.214422	3.196001
9.32575686815113	10.0242815	3.1661146
9.343341926735997	8.834574	2.972301
9.360927205843916	8.59778	2.932197
9.378512705897327	8.345909	2.8889287
9.396098427318728	8.155665	2.8558125
9.413684370530664	8.079717	2.8424842
9.431270535955722	8.027964	2.8333662
9.448856924016539	7.9101524	2.8124993
9.466443535135806	7.7959943	2.7921307
9.484030369736251	7.750444	2.783962
9.501617428240658	7.7918577	2.79139
9.519204711071852	7.826231	2.7975402
9.536792218652714	7.8496065	2.801715
9.55437995140617	7.796762	2.7922683
9.571967909755191	7.7843833	2.7900507
9.589556094122802	7.773029	2.7880151
9.60714450493207	7.840976	2.8001742
9.624733142606116	7.900586	2.8107982
9.642322007568108	7.972984	2.8236473
9.659911100241267	8.032037	2.8340847
9.677500421048851	8.028886	2.8335288
9.695089970414175	8.047391	2.8367925
9.712679748760609	8.058468	2.8387442
9.730269756511557	8.075427	2.8417296
9.747859994090492	8.106641	2.8472164
9.765450461920915	8.11069	2.8479273
9.78304116042639	8.231398	2.8690412
9.800632090030527	8.312485	2.883138
9.81822325115699	8.255136	2.8731751
9.835814644229481	8.204453	2.8643417
9.853406269671762	8.23326	2.8693657
9.870998127907646	8.318064	2.8841054
9.888590219360985	8.3578825	2.8910003
9.906182544455698	8.388042	2.8962116
9.923775103615734	8.384381	2.8955796
9.941367897265108	8.362727	2.891838
9.958960925827878	8.324334	2.8851922
9.97655418972816	8.322406	2.8848581
9.994147689390106	8.331461	2.886427
10.011741425237934	8.285457	2.8784468
10.029335397695904	8.23872	2.870317
10.04692960718833	8.186761	2.8612516
10.06452405413958	8.231467	2.8690534
10.082118738974064	8.220864	2.867205
10.099713662116246	8.146255	2.8541644
10.117308823990651	8.1546	2.855626
10.134904225021844	8.183223	2.8606334
10.152499865634445	8.266989	2.8752372
10.170095746253125	8.314432	2.8834758
10.18769186730261	8.266847	2.8752124
10.205288229207675	8.24739	2.871827
10.222884832393145	8.257071	2.8735118
10.2404816772839	8.236222	2.8698819
10.258078764304868	8.135067	2.8522038
10.275676093881035	8.101814	2.8463686
10.293273666437438	8.109213	2.847668
10.310871482399158	8.116974	2.8490303
10.32846954219134	8.039219	2.8353517
10.346067846239173	8.041596	2.8357708
10.363666394967908	8.036307	2.8348382
10.38126518880283	8.10053	2.846143
10.398864228169298	8.242695	2.8710093
10.416463513492713	8.300671	2.8810885
10.434063045198531	8.22316	2.8676052
10.451662823712262	8.105792	2.8470674
10.469262849459467	8.045798	2.8365116
10.486863122865758	8.088507	2.84403
10.504463644356806	8.129064	2.8511512
10.522064414358338	8.04725	2.8367674
10.539665433296118	7.9970875	2.8279123
10.557266701595987	7.958681	2.8211133
10.574868219683818	7.890979	2.8090887
10.592469987985552	7.79849	2.7925777
10.610072006927185	7.638773	2.763833
10.627674276934751	7.5312405	2.7443106
10.64527679843435	7.44226	2.7280505
10.662879571852143	7.3137927	2.7044024
10.680482597614331	7.2199025	2.6869876
10.698085876147173	7.0363812	2.6526177
10.715689407876988	6.902135	2.6271915
10.733293193230146	6.8450513	2.6163049
10.750897232633072	6.828288	2.6130993
10.76850152651225	6.7565327	2.599333
10.786106075294207	6.6742663	2.58346
10.803710879405534	6.56769	2.5627503
10.821315939272877	6.4738	2.5443664
10.83892125532294	6.420779	2.5339258
10.856526827982472	6.364051	2.522707
10.874132657678285	6.3282585	2.515603
10.891738744837243	6.2498584	2.4999716
10.909345089886271	6.2299776	2.4959924
10.926951693252343	6.183174	2.486599
10.944558555362494	6.1209307	2.4740515
10.96216567664381	6.0215993	2.4538946
10.979773057523436	5.9308634	2.4353364
10.997380698428573	5.8922033	2.427386
11.014988599786477	5.777777	2.4037008
11.032596762024461	5.705318	2.3885808
11.050205185569892	5.5726886	2.3606544
11.067813870850198	5.5295267	2.3514946
11.085422818292859	5.5020666	2.3456485
11.10303202832541	5.448871	2.3342817
11.120641501375454	5.4295044	2.3301296
11.138251237870636	5.3032627	2.3028815
11.155861238238671	5.2433267	2.2898312
11.173471502907317	5.1819	2.2763786
11.191082032304402	5.146164	2.2685158
11.208692826857805	5.081996	2.2543283
11.226303886995465	5.0461917	2.246373
11.243915213145371	4.9873753	2.2332432
11.261526805735578	4.895979	2.2126858
11.279138665194196	4.834884	2.198837
11.296750791949393	4.795555	2.1898756
11.314363186429393	4.7920194	2.189068
11.331975849062479	4.7277055	2.1743288
11.34958878027699	4.690512	2.165759
11.36720198050133	4.6207128	2.1495843
11.384815450163948	4.540401	2.1308217
11.402429189693366	4.4275355	2.104171
11.420043199518153	4.385814	2.0942335
11.437657480066942	63.391132	7.961855
11.455272031768422	85.18593	9.229622
11.472886855051353	107.59757	10.372925
11.490501950344528	99.13507	9.956659
11.508117318076819	84.463844	9.190421
11.52573295867715	45.85967	6.771977
11.543348872574514	4.2063036	2.0509274
11.560965060197946	4.133043	2.0329885
11.57858152197655	4.1020966	2.0253632
11.59619825833949	4.0821085	2.020423
11.613815269715985	4.0766006	2.0190594
11.631432556535323	38.54654	6.2085857
11.649050119226837	83.00593	9.110759
11.666667958219929	93.31773	9.66011
11.68428607394406	107.598854	10.372987
11.701904466828756	82.48894	9.082342
11.719523137303586	65.38767	8.086265
11.737142085798196	4.601955	2.1452167
11.754761312742286	3.6848826	1.9196048
11.772380818565619	3.6361694	1.9068743
11.790000603698015	3.5961864	1.8963614
11.80762066856935	3.5749567	1.8907555
11.825241013609572	3.5969608	1.8965656
11.842861639248683	3.595497	1.8961796
11.860482545916748	3.5455048	1.8829511
11.878103734043883	3.5123322	1.8741217
11.895725204060282	3.5004292	1.8709434
11.91334695639619	3.4857922	1.8670276
11.930968991481919	3.448345	1.856972
11.948591309747824	3.4316192	1.852463
11.966213911624347	3.428567	1.851639
11.98383679754198	3.3932366	1.842074
12.001459967931268	3.3444884	1.8287942
12.019083423222835	3.2500036	1.8027766
12.036707163847352	3.1872463	1.7852861
12.05433119023556	3.1492026	1.7745993
12.071955502818259	3.1521244	1.7754223
12.089580102026313	3.1942914	1.787258
12.107204988290643	3.186879	1.7851832
12.12483016204224	3.149695	1.774738
12.142455623712152	3.1377196	1.771361
12.16008137373149	3.1157799	1.7651572
12.177707412531431	3.1074991	1.76281
12.19533374054321	3.0427027	1.7443345
12.212960358198126	2.9836767	1.7273322
12.230587265927545	2.9843957	1.7275404
12.248214464162889	3.007781	1.7342955
12.265841953335649	3.015119	1.7364098
12.283469733877375	2.9892528	1.7289456
12.301097806219685	2.9425704	1.7153922
12.31872617079425	2.935383	1.7132959
12.336354828032825	2.9588332	1.7201259
12.353983778367205	2.9868975	1.7282643
12.371613022229262	2.9578118	1.719829
12.389242560050928	2.9562893	1.7193863
12.406872392264201	2.9320428	1.7123209
12.424502519301143	2.926843	1.7108018
12.442132941593874	2.918772	1.7084414
12.459763659574586	2.893326	1.7009779
12.477394673675532	2.859198	1.6909163
12.49502598432903	2.8572812	1.6903495
12.51265759196746	2.8198218	1.6792325
12.530289497023267	2.8358998	1.684013
12.547921699928967	2.8599606	1.6911418
12.565554201117134	2.8440838	1.6864412
12.583187001020404	2.8560245	1.6899776
12.600820100071486	2.8384132	1.6847591
12.618453498703152	2.8357928	1.6839812
12.636087197348235	2.8324187	1.6829791
12.65372119643964	2.8386981	1.6848437
12.671355496410326	2.8830693	1.6979604
12.68899009769333	2.8833072	1.6980304
12.706625000721749	2.876539	1.6960362
12.724260205928752	2.88391	1.6982079
12.741895713747551	2.8709161	1.6943778
12.759531524611454	2.9236383	1.709865
12.777167638953818	2.9239118	1.709945
12.794804057208072	2.9489007	1.7172364
12.812440779807702	3.0556276	1.7480353
12.830077807186271	3.1907938	1.7862793
12.847715139777405	3.2505717	1.8029342
12.865352778014795	3.4394991	1.8545886
12.882990722332197	3.5510995	1.8844361
12.90062897316344	3.6142457	1.901117
12.918267530942412	3.665576	1.9145694
12.935906396103071	3.5727506	1.8901721
12.953545569079449	3.7111964	1.9264466
12.971185050305628	3.5246048	1.8773931
12.988824840215775	3.565598	1.8882791
13.006464939244115	3.6100867	1.9000229
13.024105347824943	3.4810233	1.8657501
13.041746066392617	3.5643513	1.887949
13.05938709538157	3.366345	1.8347602
13.077028435226296	3.374594	1.8370068
13.094670086361363	3.255859	1.8043998
13.112312049221401	3.1415696	1.7724473
13.129954324241112	3.0527592	1.7472147
13.147596911855258	2.8976164	1.7022387
13.165239812498685	2.862403	1.6918638
13.182883026606293	2.7808945	1.6676015
13.200526554613058	2.6803703	1.6371837
13.218170396954017	2.6547365	1.6293362
13.235814554064284	2.655706	1.6296337
13.253459026379034	2.7100418	1.6462204
13.271103814333523	2.706793	1.6452334
13.288748918363058	2.6956034	1.6418293
13.306394338903031	2.6532748	1.6288875
13.32404007638889	2.6278038	1.6210502
13.341686131256164	2.658771	1.6305739
13.359332503940449	2.6466877	1.6268644
13.376979194877402	2.68833	1.6396128
13.394626204502751	2.723805	1.6503954
13.412273533252307	2.7269006	1.651333
13.429921181561937	2.7429557	1.656187
13.447569149867581	2.7660036	1.6631306
13.465217438605247	2.7598615	1.6612831
13.482866048211022	2.7247472	1.6506808
13.500514979121052	2.6879225	1.6394885
13.518164231771568	2.6823766	1.6377963
13.535813806598844	2.695414	1.6417717
13.553463704039254	2.6908398	1.6403779
13.571113924529229	2.655942	1.6297061
13.588764468505275	2.6710916	1.6343474
13.606415336403956	2.7235262	1.650311
13.624066528661917	2.7561233	1.6601576
13.641718045715882	2.8023179	1.6740125
13.659369888002635	2.8555057	1.6898241
13.67702205595903	2.9439332	1.7157894
13.694674550021993	2.9735153	1.7243884
13.712327370628532	3.0059578	1.7337699
13.729980518215713	3.0829725	1.7558396
13.747633993220681	3.185914	1.784913
13.765287796080647	3.246167	1.8017123
13.7829419272329	3.331948	1.8253624
13.800596387114801	3.373952	1.836832
13.818251176163775	3.356358	1.8320366
13.835906294817324	3.3753405	1.8372099
13.853561743513023	3.3706338	1.8359286
13.871217522688525	3.4536355	1.8583959
13.888873632781538	3.5299695	1.8788213
13.906530074229858	3.5655475	1.8882657
13.92418684747135	3.5738683	1.8904678
13.941843952943948	3.5389185	1.8812014
13.959501391085665	3.493575	1.8691108
13.977159162334578	3.3796408	1.83838
13.994817267128846	3.311112	1.8196461
14.012475705906693	3.2264025	1.796219
14.030134479106424	3.1797385	1.7831821
14.047793587166414	3.1533396	1.7757645
14.065453030525108	3.092482	1.7585454
14.083112809621026	2.9887395	1.7287971
14.100772924892766	2.9179265	1.7081939
14.118433376778997	2.9032478	1.703892
14.136094165718458	2.8463066	1.6871
14.153755292149969	2.781413	1.6677569
14.171416756512416	2.699803	1.6431078
14.189078559244768	2.6280928	1.6211393
14.20674070078606	2.5825338	1.6070263
14.224403181575408	2.533564	1.5917174
14.242066002051999	2.5254843	1.5891773
14.259729162655093	2.4985015	1.5806649
14.277392663824022	2.46791	1.5709584
14.295056505998208	2.446277	1.5640578
14.312720689617128	2.427333	1.5579901
14.330385215120348	2.3847973	1.5442789
14.348050082947497	2.351946	1.5336056
14.3657152935383	2.3404233	1.5298442
14.383380847332528	2.3439267	1.5309888
14.401046744770051	2.3655849	1.5380458
14.418712986290798	2.3501976	1.5330354
14.436379572334793	2.3370504	1.5287415
14.454046503342123	2.350211	1.5330398
14.471713779752946	2.3405066	1.5298715
14.489381402007504	2.334346	1.5278567
14.507049370546113	2.3240623	1.5244876
14.524717685809168	2.3425906	1.5305524
14.542386348237134	2.3815873	1.5432392
14.560055358270553	2.3631053	1.5372396
14.577724716350051	2.3575468	1.5354306
14.595394422916325	2.37202	1.5401363
14.61306447841015	2.4490829	1.5649546
14.63073488327237	2.462077	1.5691006
14.648405637943917	2.4877524	1.5772611
14.6660767428658	2.4787736	1.5744121
14.683748198479094	2.4716644	1.5721529
14.701420005224954	2.4919486	1.5785908
14.719092163544628	2.596084	1.6112368
14.73676467387942	2.6538985	1.629079
14.754437536670727	2.6778152	1.6364031
14.772110752360014	2.649152	1.6276215
14.78978432138882	2.6435964	1.625914
14.807458244198777	2.658981	1.6306382
14.82513252123159	2.635899	1.6235452
14.842807152929028	2.666663	1.632992
14.860482139732962	2.6465635	1.6268262
14.87815748208531	2.6939142	1.6413147
14.8958331804281	2.7318828	1.6528409
14.91350923520342	2.715745	1.6479517
14.931185646853438	2.729312	1.6520629
14.948862415820408	2.693455	1.6411749
14.966539542546656	2.7103198	1.6463048
14.98421702747459	2.6770039	1.6361552
15.001894871046696	2.6700854	1.6340396
15.019573073705542	2.6278563	1.6210665
15.037251635893766	2.5820105	1.6068636
15.054930558054092	2.5943265	1.6106913
15.072609840629323	2.6840677	1.6383125
15.090289484062351	2.825348	1.6808771
15.107969488796124	3.12752	1.7684796
15.125649855273691	3.5332172	1.8796854
15.14333058393817	4.0308766	2.0077043
15.161011675232768	5.036285	2.2441669
15.17869312960076	6.397033	2.5292356
15.196374947485506	8.138645	2.8528311
15.214057129330447	11.112922	3.3336048
15.231739675579114	15.690841	3.9611666
15.249422586675102	20.665928	4.5459795
15.267105863062092	23.861532	4.8848267
15.284789505183847	24.14595	4.9138527
15.302473513484218	22.06436	4.6972713
15.320157888407127	18.514418	4.3028383
15.337842630396578	14.407724	3.7957509
15.355527739896656	11.27057	3.357167
15.37321321735153	8.754066	2.9587271
15.39089906320545	6.4394736	2.5376117
15.408585277902748	4.8165283	2.194659
15.42627186188783	3.7219777	1.9292427
15.443958815605198	3.1921263	1.7866522
15.461646139499424	2.9086242	1.7054689
15.479333834015168	2.7487056	1.657922
15.497021899597165	2.6696818	1.6339161
15.514710336690234	2.6324608	1.622486
15.53239914573928	2.647087	1.6269871
15.550088327189297	2.63537	1.6233823
15.567777881485336	2.5876534	1.6086185
15.58546780907256	2.5378914	1.5930761
15.6031581103962	2.4832103	1.5758206
15.620848785901568	2.4770873	1.5738765
15.638539836034063	2.4674997	1.5708277
15.656231261239173	2.453814	1.5664655
15.673923061962451	2.4341264	1.5601687
15.691615238649552	2.4251676	1.557295
15.709307791746202	2.438649	1.5616174
15.727000721698221	2.4593773	1.5682402
15.744694028951498	2.4343045	1.5602257
15.76238771395202	2.3992283	1.5489442
15.780081777145844	2.3959792	1.5478951
15.797776218979125	2.399897	1.5491601
15.815471039898094	2.400422	1.5493295
15.833166240349064	2.361621	1.5367566
15.850861820778437	2.317045	1.5221843
15.868557781632699	2.3044682	1.5180475
15.886254123358412	2.3356416	1.5282806
15.903950846402232	2.358476	1.535733
15.921647951210897	2.369959	1.5394671
15.939345438231225	2.356523	1.5350971
15.957043307910133	2.368576	1.5390179
15.974741560694602	2.380442	1.542868
15.992440197031714	2.379689	1.542624
16.01013921736862	2.367488	1.5386643
16.02783862215259	2.3680842	1.538858
16.045538411830933	2.408695	1.5519971
16.06323858685107	2.4043918	1.5506102
16.080939147660512	2.3979821	1.5485419
16.09864009470684	2.3723364	1.5402391
16.11634142843774	2.3780828	1.5421034
16.134043149300954	2.3667316	1.5384185
16.15174525774433	2.3662996	1.5382781
16.169447754215817	2.369469	1.539308
16.18715063916342	2.3961875	1.5479624
16.204853913035244	2.4447947	1.563584
16.222557576279478	2.4775171	1.5740131
16.240261629344403	22.434399	4.7364964
16.257966072678386	42.92629	6.5518155
16.275670906729868	38.04074	6.1677175
16.293376131947387	2.5036368	1.5822885
16.31108174877957	2.5225306	1.5882477
16.328787757675133	2.5621073	1.6006584
16.34649415908287	2.5787134	1.6058373
16.364200953451657	2.6139355	1.6167669
16.38190814123048	2.644935	1.6263256
16.39961572286839	2.682146	1.6377258
16.41732369881455	2.693973	1.6413327
16.43503206951817	2.7120903	1.6468425
16.45274083542859	2.735904	1.6540568
16.47044999699522	2.756101	1.6601509
16.488159554667558	2.7677493	1.6636554
16.505869508895184	2.8329518	1.6831375
16.523579860127786	2.883113	1.6979731
16.541290608815117	2.9588764	1.7201384
16.559001755407035	3.0347967	1.7420667
16.57671330035348	3.1262522	1.7681211
16.59442524410448	3.1205225	1.7665001
16.61213758711015	3.1584785	1.7772108
16.629850329820705	3.2179537	1.7938656
16.647563472686436	3.3146152	1.8206085
16.665277016157724	3.3870747	1.8404007
16.682990960685053	3.422584	1.8500227
16.70070530671898	3.4556723	1.8589438
16.718420054710155	3.4518476	1.8579148
16.736135205109335	3.500187	1.8708787
16.753850758367335	3.5405614	1.8816379
16.771566714935087	3.6258771	1.9041736
16.789283075263597	3.6904752	1.9210609
16.80699983980398	3.813034	1.9526992
16.82471700900741	3.869431	1.9670869
16.84243458332518	3.9364946	1.9840602
16.860152563208665	3.9704785	1.9926059
16.87787094910932	4.0382977	2.0095515
16.89558974147871	4.1080394	2.02683
16.913308940768466	4.1726055	2.0426958
16.931028547430333	4.2677608	2.065856
16.94874856191613	4.2922225	2.071768
16.966468984677785	4.295716	2.0726109
16.98418981616729	4.304317	2.0746849
17.00191105683676	4.3510365	2.085914
17.019632707138374	4.459462	2.111744
17.03735476752442	4.4963746	2.1204658
17.05507723844728	4.5815496	2.1404555
17.072800120359403	4.5720015	2.138224
17.090523413713353	4.579984	2.1400898
17.108247118961785	4.590643	2.1425786
17.125971236557437	4.6325774	2.1523423
17.143695766953133	4.665803	2.160047
17.161420710601806	4.677448	2.1627407
17.179146067956477	4.6680813	2.1605742
17.19687183947025	4.651793	2.1568015
17.21459802559634	4.670837	2.161212
17.232324626788028	4.6627526	2.1593409
17.25005164349871	4.658879	2.1584437
17.267779076181863	4.6270194	2.1510508
17.285506925291074	4.6261277	2.1508434
17.30323519127999	4.662162	2.159204
17.320963874602384	4.641161	2.1543355
17.33869297571211	4.589408	2.1422904
17.356422495063114	4.5470343	2.1323776
17.37415243310944	4.5499635	2.1330643
17.391882790305218	4.564435	2.1364539
17.40961356710468	4.482204	2.1171217
17.42734476396215	4.4707317	2.1144104
17.445076381332044	4.5075107	2.1230898
17.462808419668868	4.5882273	2.1420147
17.48054087942723	4.706731	2.1695
17.498273761061835	4.9975286	2.2355154
17.51600706502747	5.4733596	2.3395212
17.533740791779024	6.241106	2.4982207
17.551474941771485	7.7016153	2.7751784
17.56920951545993	8.783285	2.9636607
17.586944513299528	10.861418	3.2956665
17.60467993574556	12.439471	3.5269635
17.622415783253373	14.156165	3.7624679
17.64015205627843	15.496946	3.9366162
17.657888755276293	16.529264	4.06562
17.675625880702604	16.973413	4.11988
17.69336343301311	16.846771	4.1044817
17.71110141266366	16.117943	4.0147157
17.728839820110178	15.2968855	3.9111233
17.746578655808705	14.343357	3.7872624
17.764317920215372	12.806475	3.5786135
17.7820576137864	11.277398	3.3581839
17.79979773697811	9.308003	3.0509021
17.81753829024692	7.506009	2.7397096
17.835279274049356	5.8465304	2.41796
17.85302068884201	4.86072	2.204704
17.870762535081607	4.2354016	2.0580091
17.888504813224934	3.9497821	1.9874059
17.90624752372891	3.7545917	1.9376769
17.923990667050536	3.670772	1.9159259
17.941734243646895	3.5564003	1.8858421
17.959478253975185	3.454342	1.858586
17.9772226984927	3.356739	1.8321406
17.994967577656833	3.3183677	1.8216387
18.01271289192506	3.2917185	1.8143094
18.030458641754965	3.320536	1.8222338
18.04820482760425	3.3066752	1.8184266
18.06595144993067	3.3057873	1.8181825
18.083698509192125	3.302417	1.8172554
18.101446005846576	3.2642534	1.8067244
18.119193940352105	3.2261143	1.7961388
18.136942313166887	3.1882503	1.7855672
18.1546911247492	3.182371	1.78392
18.1724403755574	3.1567864	1.7767348
18.19019006604997	3.1372395	1.7712255
18.207940196685467	3.1381922	1.7714944
18.225690767922575	3.1520581	1.7754036
18.243441780220046	3.124392	1.7675949
18.261193234036764	3.1049786	1.762095
18.278945129831676	3.062377	1.7499648
18.29669746806386	3.0519147	1.746973
18.314450249192483	3.0863903	1.7568126
18.3322034736768	3.090897	1.7580948
18.349957141976184	3.0669155	1.7512611
18.3677112545501	3.0611558	1.7496159
18.385465811858108	3.0362988	1.7424978
18.403220814359884	3.0090554	1.7346629
18.420976262515172	3.0250056	1.7392544
18.43873215678387	3.0644467	1.7505561
18.456488497625923	3.1330388	1.7700392
18.474245285501407	3.2537446	1.8038139
18.492002520870486	3.350631	1.830473
18.50976020419343	3.4040496	1.8450067
18.527518335930615	3.6775136	1.9176844
18.545276916542516	4.227215	2.056019
18.563035946489688	4.428731	2.104455
18.580795426232832	4.898687	2.2132978
18.598555356232698	4.8167953	2.1947198
18.616315736950185	5.154314	2.2703114
18.63407656884626	4.796956	2.1901953
18.65183785238201	4.949913	2.22484
18.669599588018617	4.652561	2.1569796
18.68736177621737	4.5973744	2.1441488
18.705124417439652	4.627881	2.151251
18.72288751214696	4.4702697	2.1143012
18.740651060800886	4.6595674	2.1586032
18.758415063863115	4.3617473	2.0884798
18.77617952179546	4.536126	2.1298184
18.793944435059814	4.267349	2.0657563
18.811709804118184	4.254152	2.0625596
18.829475629432675	4.154129	2.038168
18.8472419114655	3.962015	1.990481
18.86500865067897	4.1146345	2.0284562
18.88277584753551	3.8325574	1.9576919
18.90054350249763	3.8223886	1.955093
18.918311616027957	3.4189167	1.8490313
18.936080188589226	3.2972224	1.8158256
18.953849220644265	3.0193083	1.7376157
18.971618712656007	2.89032	1.7000941
18.9893886650875	2.8488927	1.6878663
19.007159078401887	8.003321	2.829014
19.024929953062408	32.8767	5.733821
19.042701289532435	32.834858	5.7301707
19.060473088275405	25.394938	5.039339
19.07824534975489	2.6459322	1.6266322
19.096018074434568	2.6339664	1.62295
19.113791262778197	2.6318862	1.622309
19.13156491524966	2.58292	1.6071466
19.149339032312945	2.5474975	1.5960882
19.167113614432136	2.5529032	1.5977807
19.184888662071433	2.5632	1.6009997
19.202664175695123	2.5524058	1.597625
19.220440155767623	2.5590882	1.599715
19.238216602753447	2.5912054	1.6097221
19.2559935171172	2.6069005	1.6145899
19.27377089932361	2.5645342	1.6014163
19.291548749837514	2.522852	1.5883489
19.309327069123835	2.5169992	1.5865054
19.32710585764763	2.5132043	1.5853089
19.344885115874032	2.4611833	1.568816
19.362664844268313	2.4844403	1.5762107
19.380445043295822	2.5096426	1.5841851
19.39822571342203	2.5125458	1.5851012
19.41600685511252	2.4974546	1.5803337
19.43378846883297	2.492112	1.5786425
19.451570555049173	2.5196345	1.5873357
19.469353114227037	2.518423	1.586954
19.48713614683254	2.4969804	1.5801836
19.50491965333182	2.4714994	1.5721003
19.52270363419109	2.4829469	1.5757369
19.540488089876686	2.4966524	1.5800799
19.55827302085503	2.5132823	1.5853335
19.576058427592674	2.5273583	1.5897667
19.593844310556282	2.5058348	1.5829829
19.611630670212598	2.505755	1.5829576
19.629417507028506	2.4941254	1.57928
19.64720482147098	2.491753	1.5785288
19.6649926140071	2.4554245	1.5669794
19.682780885104084	2.4423683	1.5628078
19.70056963522921	2.4531593	1.5662565
19.718358864849908	2.4585989	1.567992
19.7361485744337	2.4834268	1.5758892
19.753938764448215	2.4967663	1.5801159
19.771729435361202	2.4740198	1.5729017
19.789520587640506	2.4835095	1.5759155
19.807312221754092	2.504177	1.5824592
19.825104338170043	2.5022082	1.5818369
19.842896937356517	2.4880872	1.5773672
19.860690019781824	2.5228357	1.5883437
19.87848358591436	2.5384426	1.5932491
19.896277636222635	2.5349658	1.5921576
19.914072171175278	2.5386045	1.5932999
19.931867191241015	2.5080137	1.583671
19.94966269688869	2.5023696	1.581888
19.967458688587264	2.4684997	1.571146
19.985255166805807	2.4827063	1.5756606
20.00305213201348	2.5092769	1.5840697
20.020849584679578	2.5083444	1.5837754
20.038647525273507	2.5006194	1.5813347
20.05644595426477	2.4431198	1.5630482
20.07424487212299	2.4395647	1.5619106
20.092044279317903	2.455308	1.5669422
20.109844176319353	2.4697614	1.5715474
20.127644563597304	2.4360318	1.5607792
20.145445441621817	2.4135199	1.5535507
20.16324681086307	2.4226608	1.55649
20.181048671791373	2.3913019	1.5463835
20.198851024877122	2.385926	1.5446444
20.216653870590836	2.3699296	1.5394576
20.234457209403146	2.3720644	1.5401508
20.252261041784802	2.3687663	1.5390797
20.270065368206662	2.3691263	1.5391966
20.287870189139685	2.3425758	1.5305475
20.305675505054968	2.3211858	1.5235438
20.323481316423702	2.3246665	1.5246857
20.341287623717207	2.3329563	1.5274018
20.359094427406884	2.3411436	1.5300796
20.376901727964288	2.3277707	1.5257033
20.39470952586107	2.3491838	1.5327047
20.41251782156899	2.3397071	1.5296102
20.430326615559935	2.3099318	1.519846
20.448135908305886	2.3125212	1.5206976
20.465945700278965	2.332156	1.5271398
20.483755991951384	2.3772008	1.5418174
20.50156678379548	2.3783944	1.5422044
20.519378076283708	2.3301306	1.5264765
20.537189869888635	2.3078566	1.5191631
20.55500216508294	2.338941	1.5293597
20.572814962339415	2.3800333	1.5427357
20.59062826213098	2.355745	1.5348437
20.60844206493066	2.313215	1.5209258
20.626256371211593	2.2623465	1.5041099
20.644071181447032	2.2752316	1.5083871
20.66188649611036	2.276486	1.5088028
20.67970231567506	2.286877	1.5122423
20.697518640614742	2.2614522	1.5038126
20.715335471403122	2.2404463	1.4968121
20.73315280851404	2.2534287	1.5011425
20.750970652421447	2.3150227	1.5215199
20.768789003599412	2.3001235	1.5166157
20.786607862522136	2.2475803	1.4991932
20.8044272296639	2.2493963	1.4997988
20.82224710549913	2.2682426	1.5060686
20.84006749050237	2.2699654	1.5066404
20.857888385148268	3.8146853	1.9531219
20.8757097899116	45.945362	6.778301
20.893531705267254	64.82003	8.051088
20.911354131690224	83.859985	9.15751
20.92917706965566	69.103966	8.31288
20.94700051963877	50.13723	7.080765
20.96482448211493	29.386778	5.420957
20.982648957559622	4.127591	2.0316474
21.00047394644843	2.2559428	1.5019796
21.01829944925707	2.2445955	1.4981974
21.036125466461375	2.2250276	1.4916526
21.053951998537297	2.249356	1.4997853
21.071779045960906	2.259139	1.5030433
21.089606609208378	2.2208283	1.4902444
21.10743468875603	2.1983027	1.4826674
21.12526328508028	2.1905248	1.4800422
21.143092398657675	2.190388	1.479996
21.16092202996488	2.1914034	1.4803389
21.17875217947867	2.185256	1.4782611
21.19658284767596	2.1925673	1.4807321
21.21441403503377	2.1936884	1.4811106
21.232245742029225	2.2066033	1.485464
21.2500779691396	2.1954238	1.4816962
21.26791071684227	2.1553152	1.4680991
21.28574398561475	2.129658	1.4593347
21.30357777593465	2.1577106	1.4689147
21.321412088279704	2.1958923	1.4818543
21.339246923127792	2.169877	1.4730502
21.357082280956888	2.1466894	1.4651585
21.3749181622451	2.0951571	1.4474658
21.392754567470647	2.1123521	1.4533933
21.41059149711187	2.1243918	1.4575293
21.42842895164726	2.1327093	1.4603798
21.446266931555378	2.1232772	1.4571469
21.464105437314945	2.0896022	1.4455457
21.481944469404798	2.0666718	1.4375924
21.49978402830388	2.0626106	1.4361792
21.51762411449127	2.0799394	1.4421995
21.53546472844617	2.0703733	1.4388791
21.553305870647876	2.0562048	1.4339473
21.571147541575865	2.0166938	1.4201034
21.58898974170967	2.043849	1.4296324
21.60683247152899	2.0574	1.434364
21.62467573151363	2.1006432	1.4493595
21.642519522143523	2.0906703	1.4459151
21.660363843898722	2.0803418	1.4423391
21.6782086972594	2.0564225	1.4340231
21.696054082705864	2.0450077	1.4300376
21.713900000718535	2.0381205	1.4276276
21.73174645177795	2.046937	1.4307121
21.749593436364794	2.0341938	1.4262516
21.767440954959845	2.0376418	1.42746
21.785289008044032	2.0278606	1.4240297
21.803137596098388	2.033698	1.4260778
21.820986719604086	2.063611	1.4365274
21.838836379042412	2.078842	1.441819
21.85668657489478	2.0733397	1.4399096
21.87453730764273	2.0304632	1.4249432
21.892388577767914	2.0013378	1.4146864
21.91024038575213	1.9736894	1.4048805
21.928092732077285	1.9500884	1.3964556
21.945945617225426	1.9500893	1.396456
21.963799041678694	1.9871268	1.4096549
21.981653005919398	31.349506	5.599063
21.999507510429943	78.137505	8.839542
22.01736255569286	73.08692	8.5490885
22.035218142190818	4.1995234	2.049274
22.05307427040661	2.0415707	1.4288354
22.07093094082315	2.055635	1.4337486
22.088788153923474	2.0427322	1.4292419
22.106645910190746	2.0166488	1.4200876
22.12450421010827	2.0031824	1.4153383
22.142363054159464	1.9945198	1.4122747
22.16022244282787	1.9869521	1.4095929
22.178082376597164	1.9679927	1.4028516
22.195942855951145	1.9794998	1.406947
22.213803881373742	1.9783098	1.406524
22.231665453349002	1.9912673	1.4111227
22.24952757236111	1.9959387	1.412777
22.26739023889438	1.9858235	1.4091926
22.28525345343323	1.9916401	1.4112548
22.30311721646225	1.9753546	1.4054731
22.320981528466113	1.9525679	1.3973432
22.33884638992964	1.9414542	1.3933607
22.356711801337788	1.9590795	1.3996712
22.37457776317561	1.9472247	1.39543
22.392444275928337	1.9319144	1.3899332
22.410311340081282	1.9257785	1.3877242
22.428178956119904	1.9519395	1.3971183
22.446047124529805	1.9683176	1.4029675
22.46391584579669	1.9708805	1.4038805
22.481785120406414	1.9525132	1.3973236
22.49965494884496	1.9135349	1.3833058
22.51752533159841	1.9120121	1.3827553
22.53539626915302	1.941044	1.3932135
22.553267761995137	1.9633057	1.4011801
22.571139810611264	1.973555	1.4048327
22.589012415488025	1.9676802	1.4027402
22.60688557711216	1.9617671	1.400631
22.624759295970566	1.9465668	1.3951942
22.642633572550263	1.9200372	1.3856541
22.660508407338362	1.9020878	1.379162
22.67838380082217	1.931623	1.3898284
22.696259753489077	1.9578114	1.3992181
22.714136265826614	1.9159149	1.3841658
22.73201333832246	1.8753921	1.3694495
22.74989097146439	1.8627528	1.364827
22.76776916574035	1.8916214	1.3753623
22.785647921638393	1.9161566	1.3842531
22.803527239646712	1.933925	1.3906564
22.82140712025363	1.973995	1.4049894
22.839287563947593	1.9468263	1.3952872
22.85716857121719	1.8932853	1.375967
22.875050142551135	1.8600911	1.3638515
22.892932278438277	1.8949802	1.3765827
22.910814979367604	1.9155173	1.3840221
22.928698245828222	1.912816	1.3830459
22.946582078309387	1.8764219	1.3698255
22.96446647730047	1.8549453	1.3619637
22.98235144329098	1.8809532	1.3714784
23.000236976770562	1.9129368	1.3830895
23.018123078229	1.9310455	1.3896207
23.03600974815619	1.918672	1.3851614
23.053896987042194	1.9072942	1.3810482
23.071784795377173	1.8882612	1.3741401
23.08967317365145	1.8960644	1.3769765
23.10756212235546	1.8627509	1.3648263
23.125451641979787	1.8899957	1.3747711
23.143341733015134	1.8848765	1.372908
23.161232395952357	1.9221488	1.3864158
23.179123631282426	1.9314549	1.3897679
23.197015439496468	1.946546	1.3951867
23.214907821085717	1.9470844	1.3953797
23.23280077654157	1.9268692	1.3881171
23.250694306355538	1.9257048	1.3876977
23.268588411019277	1.9105957	1.382243
23.28648309102458	1.9127841	1.3830343
23.304378346863356	1.9198841	1.3855988
23.322274179027676	1.9134771	1.3832849
23.340170588009723	1.8990296	1.3780528
23.358067574301852	1.9465386	1.395184
23.37596513839651	1.9884322	1.4101177
23.39386328078629	1.9723172	1.4043921
23.411762001963947	1.9351454	1.391095
23.429661302422353	1.9187821	1.3852011
23.4475611826545	1.9122486	1.3828408
23.46546164315356	1.9258935	1.3877656
23.48336268441279	1.9346558	1.3909191
23.501264306925638	1.9395493	1.3926771
23.51916651118564	1.9312735	1.3897027
23.537069297686497	1.9117725	1.3826686
23.554972666922037	1.9064709	1.3807502
23.57287661938623	1.8910892	1.3751688
23.59078115557318	1.8979378	1.3776566
23.608686275977128	1.8722793	1.3683126
23.62659198109246	1.8632588	1.3650124
23.6444982714137	1.8939552	1.3762105
23.66240514743549	1.9192159	1.3853577
23.68031260965263	1.9063685	1.380713
23.698220658560068	1.8751086	1.369346
23.716129294652845	1.8341974	1.3543254
23.7340385184262	1.8479443	1.3593911
23.75194833037546	1.8637621	1.3651967
23.769858730996123	1.8782493	1.3704923
23.78776972078382	1.8861887	1.3733859
23.80568130023431	1.8831656	1.3722848
23.823593469843495	1.909067	1.3816899
23.841506230107424	1.8956051	1.3768097
23.859419581522275	1.8734413	1.3687371
23.87733352458438	1.8746159	1.3691661
23.89524805979019	1.893687	1.376113
23.913163187636318	1.9432778	1.394015
23.931078908619508	1.9602466	1.4000881
23.948995223236633	1.9561514	1.3986248
23.966912131984735	1.9592265	1.3997238
23.98482963536096	2.0248342	1.4229667
24.002747733862616	1.9837261	1.4084481
24.020666427987155	1.9288377	1.388826
24.038585718232156	1.9375762	1.3919685
24.056505605095353	1.9810222	1.4074879
24.074426089074617	2.0436285	1.4295553
24.092347170667946	2.0593333	1.4350377
24.110268850373515	2.0848992	1.443918
24.128191128689586	2.0924144	1.4465181
24.146114006114626	2.072446	1.4395993
24.164037483147187	2.0924225	1.4465208
24.181961560286005	2.104512	1.4506936
24.199886238029926	2.0688553	1.4383516
24.21781151687797	2.0345726	1.4263844
24.235737397329274	2.053544	1.4330192
24.253663879883135	2.0655966	1.4372183
24.271590965038975	2.0774252	1.4413276
24.289518653296376	2.014149	1.4192071
24.30744694515505	2.001192	1.414635
24.32537584111486	2.0395558	1.4281301
24.34330534167581	2.0902205	1.4457594
24.361235447338046	2.1225033	1.4568814
24.379166158601876	2.1068258	1.4514909
24.39709747596772	2.0884473	1.4451461
24.41502939993615	2.06867	1.4382871
24.432961931007917	2.0272484	1.4238148
24.450895069683856	1.9612622	1.4004507
24.468828816465	1.9403154	1.3929521
24.4867631718525	1.9651909	1.4018526
24.504698136347656	1.986989	1.409606
24.52263371045192	1.9676819	1.4027408
24.540569894666874	1.9409564	1.393182
24.558506689494266	1.9505718	1.3966287
24.57644409543597	1.9574249	1.39908
24.594382112994012	1.9563	1.398678
24.61232074267057	1.9643577	1.4015554
24.630259984967953	1.9223471	1.3864874
24.64819984038863	1.889279	1.3745104
24.66614030943522	1.9278723	1.3884784
24.684081392610462	1.982766	1.4081073
24.702023090417274	1.963076	1.4010981
24.7199654033587	1.9399158	1.3928086
24.737908331937927	1.9569386	1.3989062
24.755851876658305	1.967741	1.4027619
24.773796038023324	2.0171673	1.4202702
24.79174081653661	2.107864	1.4518484
24.809686212701962	2.1442838	1.4643373
24.827632227023294	2.149562	1.4661385
24.8455788600047	2.1031744	1.4502325
24.8635261121504	2.1056201	1.4510756
24.88147398396475	2.1152723	1.4543976
24.899422475952303	2.158553	1.4692014
24.917371588617698	2.1489954	1.4659452
24.935321322465768	2.147689	1.4654996
24.953271678001478	2.219063	1.489652
24.97122265572994	2.4507787	1.5654963
24.989174256156414	2.748033	1.6577193
25.00712647978632	3.1530945	1.7756956
25.02507932712521	3.738696	1.9335709
25.043032798678798	4.3140965	2.0770402
25.060986894952933	4.9463625	2.224042
25.078941616453637	5.6001215	2.3664577
25.096896963687055	6.4951406	2.5485566
25.114852937159508	7.660633	2.7677848
25.132809537377444	8.137039	2.8525496
25.150766764847468	8.122395	2.8499815
25.168724620076347	7.4745936	2.7339704
25.186683103570985	6.4946775	2.5484657
25.204642215838426	5.403467	2.3245358
25.222601957385894	4.1162004	2.0288422
25.24056232872074	3.1560416	1.7765251
25.25852333035048	2.5997007	1.6123587
25.276484962782778	2.2594647	1.5031517
25.294447226525435	2.0999405	1.4491172
25.312410122086423	2.0198889	1.4212279
25.330373649973843	1.9562694	1.398667
25.348337810695988	1.8707995	1.3677717
25.366302604761245	1.854415	1.3617691
25.384268032678207	1.8964196	1.3771055
25.40223409495558	1.9735615	1.4048351
25.420200792102257	1.9825339	1.4080248
25.438168124627246	1.9210677	1.3860259
25.45613609303974	1.8805811	1.3713428
25.474104697849057	1.864078	1.3653125
25.492073939564698	1.8951969	1.3766615
25.510043818696285	1.9153844	1.3839742
25.528014335753614	1.893024	1.375872
25.54598549124664	1.8595016	1.3636354
25.56395728568544	1.8469305	1.3590182
25.58192971958028	1.846649	1.3589146
25.59990279344156	1.857706	1.3629769
25.617876507779833	1.8434763	1.3577467
25.635850863105826	1.8763666	1.3698053
25.653825859930386	1.8517793	1.360801
25.671801498764548	1.8590747	1.3634789
25.68977778011949	1.862206	1.3646266
25.707754704506524	1.8492181	1.3598596
25.725732272437153	1.825538	1.3511248
25.743710484423012	1.8497634	1.3600601
25.761689340975888	1.8476567	1.3592854
25.77966884260774	1.8136189	1.3467066
25.797648989830662	1.8042127	1.3432099
25.815629783156922	1.8117954	1.3460295
25.83361122309895	1.8317662	1.3534276
25.85159331016929	1.8782271	1.3704842
25.869576044880695	1.8686262	1.3669771
25.887559427746034	1.863156	1.3649747
25.90554345927836	1.8850363	1.3729663
25.92352813999086	1.8966603	1.377193
25.94151347039689	1.8610975	1.3642205
25.959499451009965	1.8399922	1.3564631
25.97748608234374	1.7994876	1.3414499
25.995473364912062	1.7992843	1.341374
26.013461299228904	1.8398365	1.3564057
26.03144988580839	1.870473	1.3676524
26.04943912516483	1.8638964	1.3652459
26.067429017812675	1.8453581	1.3584396
26.085419564266537	1.8373456	1.3554872
26.103410765041186	1.780962	1.3345269
26.12140262065155	1.7568587	1.3254654
26.139395131612723	1.8117275	1.3460042
26.157388298439948	1.8421134	1.3572447
26.17538212164861	1.8108693	1.3456855
26.193376601754295	1.8083862	1.3447626
26.211371739272714	1.839907	1.3564317
26.229367534719746	1.8498337	1.360086
26.247363988611433	1.856787	1.3626397
26.26536110146397	1.8773266	1.3701557
26.283358873793727	1.8527374	1.361153
26.301357306117204	1.7814819	1.3347217
26.319356398951104	1.7881603	1.3372211
26.33735615281224	1.8340975	1.3542886
26.35535656821762	1.8854258	1.373108
26.373357645684404	1.8703238	1.3675978
26.39135938572991	1.86533	1.3657708
26.409361788871614	1.8034676	1.3429325
26.427364855627165	1.7996827	1.3415226
26.445368586514352	1.8391504	1.3561528
26.46337298205115	1.8708291	1.3677826
26.48137804275568	1.8673257	1.3665012
26.499383769146217	1.8341526	1.3543088
26.517390161741215	1.7876476	1.3370293
26.53539722105928	1.787751	1.3370681
26.553404947619182	1.826113	1.3513374
26.571413341939856	1.862923	1.3648894
26.589422404540397	1.8742946	1.3690488
26.60743213594006	1.8386922	1.3559839
26.62544253665827	1.7923852	1.3388
26.64345360721459	1.7991443	1.3413218
26.66146534812879	1.8088131	1.3449212
26.679477759920758	1.7999259	1.3416132
26.69749084311057	1.8160192	1.3475976
26.71550459821847	1.8023751	1.3425256
26.733519025764842	1.8011041	1.3420522
26.751534126270258	1.7990017	1.3412687
26.769549900255434	1.8111044	1.3457727
26.787566348241267	1.8186697	1.3485806
26.80558347074881	1.812915	1.3464453
26.823601268299267	1.7767528	1.3329489
26.841619741414036	1.7750465	1.3323087
26.85963889061465	1.7910409	1.3382977
26.877658716422832	1.8350558	1.3546423
26.89567921936045	1.809783	1.3452817
26.913700399949544	1.7778581	1.3333634
26.93172225871233	1.7984139	1.3410496
26.949744796171174	1.8231514	1.3502412
26.967768012848605	1.8308275	1.3530807
26.98579190926733	1.8284096	1.3521869
27.003816485950225	1.7849038	1.336003
27.021841743420318	1.7439386	1.3205826
27.039867682200814	1.7915232	1.338478
27.057894302815072	1.8729881	1.3685715
27.07592160578664	1.7954632	1.339949
27.0939495916392	1.7577105	1.3257867
27.111978260896635	1.7787752	1.3337073
27.13000761408296	1.8497951	1.3600718
27.148037651722397	1.8559214	1.3623221
27.166068374339304	1.8884964	1.3742257
27.184099782458215	1.8532739	1.36135
27.20213187660384	1.8287562	1.3523152
27.22016465730105	1.846978	1.3590356
27.23819812507487	1.8380067	1.3557311
27.256232280450533	1.7878695	1.3371123
27.274267123953383	1.8016852	1.3422687
27.292302656108987	1.8332502	1.3539757
27.31033887744306	1.8401464	1.3565199
27.32837578848146	1.8341948	1.3543245
27.34641338975026	1.8532811	1.3613527
27.364451681775673	1.8552687	1.3620825
27.382490665084074	1.8084345	1.3447804
27.400530340202046	1.785442	1.3362043
27.41857070765629	1.8142854	1.3469541
27.436611767973726	1.8157208	1.3474869
27.454653521681404	1.7829791	1.3352824
27.472695969306564	1.7703576	1.3305478
27.490739111376627	1.7878729	1.3371136
27.508782948419153	1.8169222	1.3479326
27.526827480961902	1.8395972	1.3563175
27.54487270953279	1.866897	1.3663443
27.562918634659898	1.8256857	1.3511794
27.580965256871508	1.8047618	1.3434142
27.599012576696026	1.7919663	1.3386434
27.617060594662068	1.8107748	1.3456503
27.63510931129842	1.7975028	1.3407098
27.65315872713401	1.8441715	1.3580028
27.67120884269797	1.8339026	1.3542166
27.68925965851958	1.8379531	1.3557113
27.707311175128307	1.8651726	1.3657132
27.725363393053787	1.9167699	1.3844746
27.74341631282583	1.9249824	1.3874373
27.7614699349744	1.9502151	1.3965011
27.77952426002968	2.1477048	1.465505
27.797579288521973	2.2127542	1.487533
27.815635020981784	2.5618918	1.6005911
27.83369145793979	2.5419774	1.594358
27.85174859992682	2.4125972	1.5532538
27.869806447473923	2.3178499	1.5224487
27.887865001112267	1.9980655	1.4135294
27.905924261373233	1.8516563	1.3607558
27.92398422878836	1.8309156	1.3531133
27.94204490388936	1.8843409	1.372713
27.96010628720813	1.8770227	1.3700448
27.978168379276728	1.8544041	1.361765
27.9962311806274	1.8372837	1.3554643
28.014294691792568	1.8466271	1.3589066
28.0323589133048	1.8441863	1.3580083
28.050423845696887	1.8634024	1.365065
28.068489489501758	1.846555	1.35888
28.086555845252523	1.8332282	1.3539675
28.104622913482487	1.8310065	1.3531469
28.122690694725115	1.8369796	1.3553522
28.14075918951405	1.8589805	1.3634443
28.15882839838312	1.8875146	1.3738685
28.176898321866304	1.8722825	1.3683138
28.1949689604978	1.8862952	1.3734246
28.213040314811945	1.8747727	1.3692234
28.23111238534327	1.8699876	1.3674749
28.249185172626493	1.8604801	1.3639941
28.267258677196473	1.8551	1.3620206
28.285332899588294	1.8795604	1.3709706
28.303407840337172	1.9235659	1.3869268
28.321483499978545	1.9793447	1.4068918
28.33955987904799	2.008078	1.4170667
28.357636978081285	1.9795035	1.4069483
28.37571479761439	1.9405258	1.3930275
28.393793338183425	1.9456686	1.3948722
28.41187260032469	2.0055277	1.4161665
28.429952584574686	2.000454	1.414374
28.448033291470065	1.9603367	1.4001203
28.46611472154769	1.9346395	1.3909131
28.484196875344566	1.9267981	1.3880916
28.502279753397914	1.9302931	1.3893499
28.52036335624511	1.9754311	1.4055003
28.538447684423716	1.9845096	1.4087262
28.556532738471482	1.9837719	1.4084644
28.574618518926325	2.0011694	1.414627
28.59270502632635	1.9689938	1.4032084
28.61079226120985	1.9272414	1.3882512
28.628880224115274	1.9425476	1.393753
28.646968915581287	1.9762937	1.4058071
28.66505833614671	1.9919906	1.411379
28.68314848635055	2.006785	1.4166104
28.701239366732004	2.03999	1.4282821
28.71933097783044	2.1203282	1.4561347
28.737423320185403	2.1219766	1.4567006
28.75551639433665	2.119522	1.4558579
28.773610200824074	2.0880601	1.4450122
28.791704740187793	2.0972214	1.4481786
28.80980001296809	2.060162	1.4353265
28.827896019705413	2.0478754	1.4310399
28.845992760940433	2.0729926	1.439789
28.86409023721397	2.0942056	1.447137
28.88218844906704	2.0866306	1.4445174
28.900287397040845	2.1198783	1.4559802
28.918387081676755	2.1170754	1.4550173
28.936487503516343	2.1436493	1.4641206
28.954588663101365	2.2244318	1.4914529
28.97269056097374	2.2669976	1.5056552
28.990793197675597	2.2624419	1.5041416
29.00889657374923	2.3662584	1.5382648
29.027000689737125	2.3762295	1.5415024
29.04510554618196	2.3304527	1.526582
29.06321114362659	2.3142724	1.5212733
29.08131748261405	2.3708434	1.5397544
29.099424563687567	2.4784696	1.5743155
29.11753238739057	2.6078415	1.6148813
29.13564095426663	2.6172748	1.6177994
29.15375026485954	2.5744703	1.6045156
29.171860319713275	2.5721712	1.603799
29.18997111937199	2.6317513	1.6222674
29.20808266438002	2.6932733	1.6411195
29.226194955281898	2.7470453	1.6574212
29.244307992622335	2.8020778	1.6739408
29.26242177694624	2.8882453	1.6994839
29.2805363087987	2.9346209	1.7130735
29.29865158872498	2.9450998	1.7161293
29.316767617270557	2.9088984	1.7055492
29.334884394981064	2.895349	1.7015725
29.353001922402367	2.944715	1.7160172
29.37112020008047	3.0316339	1.7411587
29.389239228561596	3.1212373	1.7667024
29.407359008392152	3.2861135	1.812764
29.42547954011872	3.6494057	1.9103417
29.44360082428809	4.3231435	2.079217
29.46172286144722	5.374958	2.3183956
29.479845652143283	6.8037457	2.6083992
29.497969196923606	8.7499695	2.9580348
29.516093496335728	11.220022	3.34963
29.5342185509274	13.938456	3.7334242
29.55234436124651	16.133074	4.0165997
29.570470927841175	17.445253	4.1767516
29.588598251259686	17.095457	4.1346655
29.60672633205055	15.7240925	3.9653616
29.624855170762405	13.7329645	3.7058015
29.642984767944146	11.287275	3.359654
29.66111512414481	8.755565	2.9589803
29.67924623991366	6.4910884	2.5477614
29.697378115800138	4.940292	2.2226768
29.71551075235387	4.1044674	2.0259485
29.733644150124675	3.7276	1.9306993
29.751778309662576	3.5322783	1.8794357
29.769913231517766	3.38376	1.8395
29.78804891624066	3.3155687	1.8208703
29.806185364381818	3.2612948	1.8059056
29.82432257649206	3.2607596	1.8057574
29.842460553122333	3.2146642	1.7929485
29.86059929482382	3.199852	1.788813
29.878738802147872	3.2514203	1.8031695
29.896879075646048	3.282581	1.8117895
29.915020115870114	3.2771513	1.8102905
29.933161923371976	3.2915158	1.8142536
29.951304498703777	3.3049285	1.8179462
29.969447842417857	3.2827065	1.8118241
29.987591955066733	3.270162	1.8083589
30.005736837203123	3.2016418	1.7893132
30.023882489379943	3.1690483	1.7801821
30.04202891215028	3.2379932	1.7994425
30.060176106067455	3.2814722	1.8114834
30.078324071684946	3.3093114	1.8191513
30.09647280955646	3.2652128	1.80699
30.114622320235863	3.1484876	1.7743979
30.132772604277257	3.1153605	1.7650384
30.1509236622349	3.0993502	1.7604971
30.16907549466328	3.1308305	1.7694153
30.18722810211705	3.1603982	1.7777508
30.205381485151097	3.0702157	1.7522031
30.22353564432045	2.9922183	1.729803
30.241690580180403	3.0188034	1.7374704
30.25984629328638	3.0149362	1.7363572
30.278002784194037	2.966876	1.7224622
30.296160053459246	2.931487	1.7121586
30.314318101638033	2.9297652	1.7116557
30.332476929286646	2.9558978	1.7192725
30.35063653696153	2.9426904	1.7154272
30.368796925219307	2.9377975	1.7140005
30.386958094616844	2.97479	1.724758
30.40512004571115	2.9735765	1.7244061
30.423282779059463	2.9435074	1.7156653
30.441446295219233	2.886629	1.6990082
30.459610594748067	2.8375454	1.6845015
30.47777567820382	2.798919	1.672997
30.495941546144504	2.7753727	1.665945
30.51410819912835	2.854525	1.689534
30.532275637713795	2.8648448	1.6925852
30.55044386245946	2.858634	1.6907495
30.56861287392416	2.8667855	1.6931584
30.586782672666956	2.799167	1.6730711
30.604953259247047	2.714642	1.6476171
30.623124634223885	2.7732177	1.6652981
30.641296798157075	2.8674543	1.6933559
30.659469751606462	2.7996607	1.6732186
30.677643495132074	2.75985	1.6612797
30.695818029294152	2.7503114	1.6584063
30.713993354653116	2.679583	1.6369432
30.73216947176962	2.6291935	1.6214788
30.75034638120448	2.6761305	1.6358883
30.768524083518756	2.7861743	1.6691837
30.786702579273673	2.8319483	1.6828394
30.80488186903069	2.845441	1.6868435
30.82306195335144	2.8632224	1.6921059
30.841242832797782	3.028285	1.7401968
30.85942450793176	3.2852	1.8125122
30.877606979315637	3.6547112	1.9117299
30.895790247511883	4.0105567	2.0026374
30.913974313083134	4.4544015	2.1105454
30.932159176592283	4.804303	2.1918721
30.95034483860237	4.923758	2.2189543
30.968531299676698	4.796374	2.1900625
30.98671856037873	4.3989816	2.097375
31.00490662127215	3.920864	1.9801172
31.023095482920848	3.46012	1.8601397
31.04128514588892	3.0659626	1.7509891
31.059475610740662	2.7341661	1.6535314
31.07766687804056	2.6018453	1.6130236
31.09585894835335	2.5541043	1.5981566
31.11405182224393	2.5368571	1.5927514
31.132245500277417	2.514656	1.5857667
31.15043998301914	2.526712	1.5895635
31.168635271034628	2.5068572	1.5833057
31.18683136488964	2.4330475	1.5598229
31.20502826515008	2.444173	1.5633851
31.223225972382135	2.461632	1.5689589
31.241424487152155	2.4288318	1.558471
31.259623810026692	2.4032555	1.5502437
31.27782394157253	2.4244397	1.5570612
31.296024882356644	2.3530226	1.5339565
31.314226632946237	2.4384596	1.5615568
31.332429193908684	2.5183456	1.5869296
31.350632565811598	2.5061564	1.5830845
31.368836749222787	2.428592	1.5583941
31.387041744710295	2.4506598	1.5654583
31.40524755284232	2.568445	1.6026369
31.423454174187317	2.6370213	1.6238908
31.441661609313922	2.6520903	1.628524
31.459869858791002	2.5570161	1.5990672
31.478078923187628	2.4486454	1.5648148
31.496288803073064	2.3628163	1.5371455
31.514499499016807	2.3257146	1.5250294
31.532711011588546	2.3121283	1.5205684
31.550923341358178	2.311407	1.5203313
31.56913648889584	2.3179078	1.5224676
31.587350454771844	2.3598313	1.5361743
31.605565239556732	2.3477614	1.5322406
31.62378084382127	2.3370364	1.5287368
31.641997268136382	2.2789476	1.5096184
31.660214513073274	2.3410263	1.5300412
31.67843257920331	2.3492377	1.5327224
31.6966514670981	2.3164608	1.5219924
31.71487117732944	2.3634646	1.5373564
31.733091710469346	2.396064	1.5479225
31.751313067090052	2.3161087	1.5218767
31.769535247764008	2.2309482	1.4936359
31.787758253063878	2.1776736	1.4756943
31.805982083562526	2.2022636	1.4840026
31.824206739833024	2.276399	1.5087739
31.84243222244869	2.2483845	1.4994614
31.860658531983013	2.1676414	1.4722912
31.878885669009737	2.2051945	1.4849898
31.897113634102784	2.2397573	1.4965819
31.91534242783632	2.233369	1.494446
31.933572050784694	2.2274094	1.4924508
31.951802503522508	2.2019646	1.4839019
31.970033786624548	2.202239	1.4839942
31.988265900665834	2.1944625	1.4813719
32.006498846221575	2.3109748	1.520189
32.02473262386724	2.303791	1.5178244
32.04296723417845	2.2346256	1.4948664
32.0612026777311	2.129572	1.4593053
32.07943895510129	2.1051888	1.4509269
32.097676066865304	2.0179882	1.4205592
32.115914013599685	2.063799	1.4365928
32.13415279588115	2.1657615	1.4716526
32.152392414286666	2.2099636	1.4865947
32.1706328693934	2.141792	1.4634863
32.18887416177875	2.11284	1.4535611
32.20711629202032	2.1066523	1.4514312
32.225359260695924	2.0933623	1.4468457
32.243603068383614	2.104396	1.4506537
32.26184771566166	2.1137705	1.4538811
32.28009320310852	2.1650705	1.4714179
32.2983395313029	2.149441	1.4660972
32.31658670082372	2.1738112	1.474385
32.33483471225012	2.1350563	1.4611832
32.35308356616143	2.1232538	1.4571389
32.371333263137245	2.1564913	1.4684997
32.38958380375734	2.213227	1.4876919
32.407835188601744	2.1841419	1.4778843
32.42608741825067	2.05555	1.4337189
32.444340493284585	1.9870597	1.409631
32.46259441428416	2.0235257	1.4225068
32.48084918183028	2.079042	1.4418883
32.49910479650405	2.0314176	1.4252781
32.51736125888683	1.9860647	1.409278
32.53561856956014	1.9825075	1.4080155
32.5538767291058	2.023048	1.4223388
32.572135738105764	1.999189	1.4139268
32.59039559714228	1.9816893	1.4077249
32.608656306797776	2.0044866	1.4157989
32.62691786765491	2.0724013	1.4395838
32.645180280296586	1.9902639	1.4107672
32.663443545305896	1.9788672	1.4067222
32.68170766326619	2.021524	1.4218031
32.69997263476099	2.0291657	1.4244878
32.7182384603741	1.9504737	1.3965936
32.7365051406895	1.9520925	1.397173
32.75477267629144	2.01153	1.4182842
32.77304106776434	1.982282	1.4079354
32.79131031569289	1.9419427	1.3935361
32.809580420661966	1.8835686	1.3724316
32.827851383256714	1.8350259	1.3546313
32.84612320406245	1.8375623	1.3555672
32.86439588366476	1.8997467	1.378313
32.88266942264945	1.9907495	1.4109392
32.9009438216025	1.9633886	1.4012097
32.9192190811102	1.9330543	1.3903432
32.937495201758985	1.9335306	1.3905145
32.95577218413556	2.0473936	1.4308716
32.974050028826866	2.0155218	1.4196907
32.992328736420035	1.8490912	1.359813
33.010608307502444	1.8067807	1.3441654
33.02888874266169	1.9067937	1.380867
33.047170042485604	2.0410786	1.4286633
33.06545220756225	2.0223155	1.4220814
33.083735238479896	2.0268998	1.4236923
33.10201913582707	1.9765687	1.4059049
33.12030390019248	2.0094326	1.4175446
33.138589532165135	2.0352561	1.4266241
33.15687603233419	2.040969	1.4286249
33.17516340128909	1.9949102	1.4124129
33.19345163961947	1.9674246	1.4026492
33.211740747915215	1.9129906	1.383109
33.23003072676643	1.961797	1.4006417
33.248321576763466	1.9519204	1.3971114
33.266613298496885	1.933642	1.3905545
33.28490589255747	1.9481316	1.3957548
33.30319935953626	1.924191	1.3871521
33.32149370002451	1.9299392	1.3892225
33.339788914613706	1.9685777	1.4030601
33.358085003895575	1.9453063	1.3947424
33.376381968462034	1.9531083	1.3975365
33.39467980890529	1.9723792	1.4044142
33.41297852581774	1.9955068	1.4126241
33.43127811979204	2.0183105	1.4206725
33.44957859142105	2.0195823	1.42112
33.467879941297866	2.024746	1.4229357
33.486182170015844	1.9469589	1.3953347
33.50448527816853	1.971827	1.4042176
33.522789266349754	1.9197091	1.3855357
33.541094135153514	1.8746839	1.3691909
33.55939988517411	1.834471	1.3544264
33.57770651700602	1.8023959	1.3425333
33.59601403124398	1.8206419	1.3493116
33.61432242848296	1.8224425	1.3499787
33.632631709318154	1.8619905	1.3645477
33.650941874344994	1.9153856	1.3839746
33.66925292415916	1.8290448	1.3524219
33.68756485935654	1.8417186	1.3570993
33.70587768053328	1.8432791	1.3576741
33.724191388285746	1.8807179	1.3713927
33.74250598321054	1.80842	1.3447751
33.760821465904506	1.7738674	1.3318661
33.77913783696474	1.7820857	1.3349478
33.79745509698852	1.7923381	1.3387823
33.815773246573414	1.8374529	1.3555268
33.8340922863172	1.8643322	1.3654056
33.852412216817896	1.8586968	1.3633403
33.87073303867377	1.8784405	1.3705621
33.889054752483304	1.8770946	1.370071
33.907377358845245	1.8925089	1.3756849
33.92570085835853	1.957714	1.3991833
33.94402525162239	1.9001834	1.3784714
33.96235053923627	1.8462837	1.3587803
33.980676721799824	1.87991	1.371098
33.999003799912984	1.8714625	1.3680141
34.01733177417592	1.8528072	1.3611786
34.03566064518901	1.846173	1.3587395
34.0539904135529	1.8319061	1.3534793
34.07232107986846	1.887675	1.3739269
34.090652644736785	1.8620563	1.3645718
34.108985108759235	1.8146198	1.3470782
34.12731847253742	1.821043	1.3494602
34.14565273667313	1.8066224	1.3441066
34.16398790176847	1.808959	1.3449755
34.18232396842574	1.8159674	1.3475784
34.20066093724749	2.0097969	1.417673
34.21899880883651	2.1005404	1.4493241
34.23733758379583	1.9451053	1.3946704
34.25567726272874	1.92121	1.3860772
34.27401784623872	1.9313506	1.3897305
34.29235933492957	1.9285631	1.3887272
34.31070172940526	2.0246422	1.4228992
34.32904503027003	2.0701938	1.4388168
34.347389238128386	2.0473897	1.4308703
34.36573435358502	2.0477762	1.4310054
34.38408037724492	1.9957384	1.412706
34.402427309713296	1.9237368	1.3869884
34.42077515159559	1.9169326	1.3845333
34.43912390349752	1.878582	1.3706137
34.45747356602499	1.9719541	1.4042628
34.47582413978423	2.0579715	1.4345632
34.49417562538163	2.0242307	1.4227546
34.51252802342388	2.011946	1.4184308
34.53088133451789	2.066673	1.4375927
34.54923555927084	2.0698516	1.4386979
34.567590698290104	1.9700311	1.4035779
34.58594675218336	1.8383528	1.3558587
34.6043037215585	1.8973593	1.3774467
34.62266160702365	2.1013746	1.4496119
34.641020409187234	1.9947904	1.4123704
34.65938012865785	1.8890613	1.3744313
34.677740766044394	1.9876525	1.4098413
34.69610232195598	2.0665133	1.4375372
34.714464797002016	1.9136266	1.3833389
34.73282819179208	1.7898594	1.3378563
34.751192506936064	1.8206706	1.3493223
34.76955774304408	1.9997313	1.4141185
34.7879239007265	1.990919	1.4109993
34.80629098059391	1.8818601	1.3718091
34.824658983257194	1.8916628	1.3753773
34.843027909327446	1.8459911	1.3586726
34.86139775941603	2.0430868	1.4293659
34.879768534134534	2.0878088	1.4449252
34.89814023409483	2.0196464	1.4211427
34.91651285990901	1.8205297	1.3492701
34.93488641218944	1.6761467	1.2946608
34.95326089154871	1.7018092	1.3045341
34.97163629859967	1.7070909	1.3065568
34.99001263395542	1.9169209	1.3845291
35.00838989822934	2.0337973	1.4261127
35.02676809203499	1.912328	1.3828695
35.04514721598624	1.857131	1.3627659
35.063527270697215	1.924755	1.3873554
35.081908256782256	1.8784236	1.3705559
35.10029017485597	1.8699352	1.3674557
35.11867302553321	1.9573915	1.3990681
35.137056809429104	2.2289567	1.492969
35.155441527159006	2.1887102	1.479429
35.173827179338524	1.9375471	1.391958
35.19221376658354	1.9215676	1.3862062
35.21060128951017	1.9686469	1.4030848
35.2289897487348	1.9687159	1.4031093
35.24737914487405	2.1543136	1.467758
35.26576947854479	2.2346494	1.4948744
35.28416075036418	2.0389004	1.4279007
35.30255296094958	1.9411387	1.3932476
35.32094611091867	1.6944599	1.3017142
35.33934020088932	1.5562683	1.2475048
35.35773523147969	1.8867643	1.3735954
35.3761312033082	2.1996028	1.4831058
35.394528116993506	1.9282781	1.3886245
35.41292597315452	1.673016	1.2934512
35.431324772410434	2.0310163	1.4251373
35.449724515380666	2.0723069	1.4395509
35.46812520268491	1.9062091	1.3806553
35.486526834943106	2.1518154	1.4669068
35.504929412775454	2.25363	1.5012095
35.52333293680242	2.1364472	1.4616591
35.54173740764471	2.0701962	1.4388176
35.560142825923286	2.178493	1.4759719
35.5785491922594	2.3303227	1.5265394
35.59695650727454	2.6121922	1.6162277
35.61536477159042	2.855109	1.6897068
