0.008763373481513119	0.0	0.0
0.026290120649546365	0.0	0.0
0.043816868432600686	0.0	0.0
0.06134361724069026	0.04474922	0.21154012
0.07887036748382949	0.102808505	0.32063764
0.0963971195720331	0.16445701	0.405533
0.11392387391531617	0.2092072	0.45739174
0.1314506309236943	0.23229252	0.48196733
0.1489773910071836	0.20864485	0.4567766
0.16650415457580078	0.12988068	0.36038962
0.18403092203956356	0.06927696	0.26320517
0.20155769380849	0.08961367	0.29935542
0.2190844702925996	0.1341892	0.36631843
0.2366112519019124	0.1466093	0.38289595
0.2541380390464497	0.1274185	0.3569573
0.27166483213623416	0.15634422	0.39540386
0.28919163158128947	0.18264945	0.42737508
0.3067184377916406	0.19703802	0.44388965
0.324245251177314	0.14848234	0.38533407
0.34177207214833777	0.06926765	0.2631875
0.3592989011147415	0.095795974	0.30950925
0.37682573848655654	0.10273677	0.32052577
0.39435258467381573	0.118850365	0.34474683
0.41187944008655414	0.12591648	0.35484713
0.42940630513480854	0.13944581	0.37342444
0.446933180228618	0.16420911	0.40522724
0.4644600657780234	0.18021673	0.42451942
0.48198696219306775	0.16247807	0.40308568
0.49951386988379676	0.1412338	0.37581086
0.5170407892602581	0.15324397	0.39146388
0.5345677207325025	0.14058614	0.37494817
0.5520946647105822	0.120649934	0.347347
0.5696216216045534	0.077406384	0.27822003
0.5871485918244737	0.0845011	0.29069072
0.6046755757804043	0.10342664	0.32160014
0.6222025738824094	0.13939072	0.37335068
0.6397295865405557	0.16557792	0.40691265
0.6572566141649129	0.1806279	0.4250034
0.6747836571655547	0.19216523	0.43836653
0.6923107159525568	0.17925124	0.42338073
0.7098377909359992	0.16476917	0.4059177
0.7273648825259653	0.17204928	0.41478825
0.7448919911325411	0.21830252	0.46722856
0.762419117165817	0.2158152	0.46455914
0.7799462610358868	0.21416956	0.4627846
0.7974734231528482	0.19465952	0.44120234
0.8150006039268024	0.1809179	0.42534447
0.8325278037678551	0.17747627	0.42127934
0.8500550230861152	0.14967316	0.38687617
0.8675822622916969	0.15310825	0.3912905
0.8851095217947171	0.1631043	0.40386173
0.9026368020052984	0.20717707	0.45516708
0.9201641033335665	0.2350348	0.4848039
0.9376914261896523	0.25589222	0.5058579
0.9552187709836915	0.26368016	0.51349795
0.9727461381258234	0.29955068	0.54731226
0.990273528026193	0.2889422	0.5375334
1.0078009410949496	0.30633846	0.5534785
1.0253283777422473	0.32220355	0.56762975
1.0428558383782454	0.38055658	0.6168927
1.0603833234131086	0.34875524	0.590555
1.0779108332570058	0.33326223	0.5772887
1.0954383683201119	0.31392208	0.5602875
1.112965929012607	0.38643575	0.62163955
1.1304935157446763	0.5214246	0.72209734
1.1480211289265108	0.56345314	0.75063515
1.1655487689683062	1.4473056	1.2030401
1.1830764362802655	1.7494396	1.3226638
1.200604131272596	2.0896728	1.4455701
1.2181318543555117	2.2020772	1.4839398
1.235659605939232	2.2089877	1.4862664
1.253187386433982	3.7302015	1.931373
1.270715196249994	6.0939207	2.4685867
1.2882430357975057	11.3256445	3.3653595
1.3057709054867608	15.837926	3.9796891
1.3232988057280106	21.800457	4.669096
1.3408267369315112	26.828737	5.1796465
1.358354699507526	30.290613	5.5036907
1.3758826938663256	34.038097	5.834218
1.3934107204181858	35.681118	5.973367
1.410938779573391	36.53637	6.0445323
1.4284668717422309	37.18535	6.097979
1.4459949973350033	37.050995	6.0869527
1.4635231567620117	37.22086	6.10089
1.4810513504335687	36.531143	6.0441
1.4985795787599925	35.818924	5.9848914
1.5161078421516088	35.050648	5.9203587
1.5336361410187505	34.265057	5.8536363
1.5511644757717598	33.740414	5.80865
1.5686928468209842	34.73381	5.89354
1.58622125457678	35.366272	5.9469547
1.6037496994495108	36.814224	6.0674725
1.621278181849548	36.49549	6.0411496
1.6388067021872719	37.048733	6.086767
1.6563352608730693	36.41878	6.0347977
1.673863858317336	35.224308	5.935007
1.6913924949304753	34.4832	5.8722396
1.7089211711228998	33.294926	5.7701755
1.7264498873050296	32.822304	5.7290754
1.7439786438872935	32.18185	5.672905
1.7615074412801288	31.512775	5.613624
1.779036279893981	30.909388	5.5596213
1.796565160139305	29.78939	5.457966
1.814094082426564	29.231533	5.4066195
1.8316230471662298	28.645962	5.3521924
1.849152054768784	28.082518	5.299294
1.8666811056447168	27.352833	5.2299933
1.8842102002045273	26.180258	5.116665
1.901739338858724	25.377628	5.0376215
1.9192685220178245	24.736792	4.9736094
1.9367977500923557	24.12401	4.91162
1.9543270234928547	23.641563	4.862259
1.971856342629867	23.29341	4.8263245
1.9893857079139496	22.649992	4.7592006
2.006915119755667	22.289143	4.721138
2.0244445785655945	21.746008	4.6632614
2.0419740847543175	21.546623	4.6418343
2.0595036387324317	21.226894	4.6072655
2.0770332409105414	20.773785	4.5578265
2.094562891699263	20.447943	4.52194
2.1120925915092217	20.031113	4.475613
2.129622340751053	19.57188	4.4240117
2.1471521398354043	187.55022	13.694898
2.1646819891729323	443.50348	21.059523
2.182211889174303	439.76334	20.970535
2.1997418402501974	452.22937	21.265686
2.2172718428113023	432.41925	20.794693
2.234801897268317	320.5108	17.902815
2.2523320040319548	17.00463	4.123667
2.269862163512935	16.78902	4.0974407
2.287392376121992	16.484285	4.0600843
2.304922642269869	16.107315	4.013392
2.322452962367322	15.6623745	3.9575717
2.3399833368251164	15.38625	3.9225311
2.357513766054032	15.352472	3.9182231
2.3750442504648586	15.014622	3.8748705
2.3925747904683963	14.752533	3.8409026
2.410105386475459	14.354863	3.7887812
2.4276360388968707	14.011249	3.7431602
2.445166748143469	13.912129	3.7298968
2.4626975146261025	13.548174	3.6807845
2.4802283387556323	13.271902	3.643062
2.4977592209429305	13.010156	3.6069593
2.5152901615988825	12.7356415	3.568703
2.5328211611343865	12.638849	3.555116
2.5503522199603523	12.428094	3.52535
2.5678833384877024	12.325007	3.510699
2.5854145171273712	12.072776	3.47459
2.6029457562903064	11.842295	3.4412634
2.620477056387469	11.540879	3.397187
2.6380084178298326	11.457745	3.384929
2.655539841028383	11.252232	3.3544347
2.673071326394119	11.206897	3.3476703
2.6906028743380523	11.062346	3.3260107
2.708134485271211	10.861693	3.2957084
2.7256661596046325	10.588741	3.2540345
2.743197897749369	10.52103	3.2436137
2.760729700116486	10.519551	3.2433858
2.778261567117063	10.526096	3.2443945
2.795793499162193	10.36395	3.2193089
2.8133254966629817	10.092426	3.176858
2.830857560030551	9.858456	3.1398177
2.8483896896760337	9.496804	3.0816886
2.865921886010578	9.324488	3.0536025
2.883454149445347	9.248193	3.041084
2.9009864803915177	9.244715	3.0405123
2.91851887926028	9.074479	3.0123875
2.9360513464628384	8.878016	2.9796
2.953583882410413	8.759883	2.95971
2.9711164875142373	8.778098	2.9627855
2.9886491621855606	8.582085	2.9295194
3.0061819068356455	8.442734	2.9056382
3.023714721875769	8.338063	2.8875704
3.041247607717225	8.258114	2.8736935
3.0587805647713213	8.186666	2.861235
3.0763135934493806	8.056275	2.838358
3.0938466941627407	7.905252	2.811628
3.1113798673227544	7.944715	2.8186371
3.1289131133407904	8.006725	2.8296158
3.1464464326282315	7.898387	2.810407
3.1639798255964786	7.8247523	2.7972758
3.1815132926569443	7.501288	2.738848
3.1990468342210603	7.2380486	2.6903622
3.216580450700272	7.1183715	2.6680276
3.2341141425060416	7.077091	2.6602802
3.251647910049847	7.1223927	2.668781
3.2691817537431813	7.148442	2.673657
3.286715673997555	7.1371436	2.6715434
3.3042496712244938	7.0091333	2.6474767
3.32178374583554	6.886646	2.6242418
3.339317898242251	6.746927	2.5974846
3.3568521288562034	6.5785356	2.5648656
3.3743864380889876	6.608062	2.570615
3.3919208263522127	6.534103	2.556189
3.4094552940575023	6.4360847	2.536944
3.4269898416164972	6.4727926	2.5441685
3.444524469440858	6.446997	2.5390937
3.4620591779422587	6.482667	2.5461082
3.479593967532391	6.4088264	2.531566
3.4971288386229658	6.23538	2.4970744
3.5146637916257086	6.057043	2.461106
3.5321988269523628	6.016238	2.4528022
3.5497339450146903	6.096235	2.4690554
3.5672691462244708	6.155593	2.4810467
3.5848044309934988	6.203121	2.4906065
3.60233979973359	6.1081433	2.4714658
3.619875252856575	6.110457	2.4719338
3.6374107907743034	6.164173	2.4827752
3.6549464138986427	6.2154074	2.4930718
3.6724821226414788	6.236844	2.4973674
3.690017917414714	6.1598816	2.481911
3.7075537986302702	6.1952825	2.4890325
3.7250897667000857	6.1357055	2.4770355
3.7426258220361235	6.271419	2.50428
3.7601619650503553	6.5891595	2.5669358
3.777698196154779	7.1687355	2.6774495
3.7952345157614067	8.262403	2.8744395
3.8127709242822716	9.07695	3.0127978
3.830307422129425	11.325391	3.3653219
3.847844009714936	12.787847	3.5760098
3.8653806874508954	16.242258	4.0301685
3.882917455749409	15.800254	3.9749534
3.900454315022606	15.835108	3.979335
3.917991265682631	12.741559	3.5695322
3.9355283081416506	10.87568	3.2978296
3.9530654428118495	8.731057	2.9548361
3.970602670105433	7.4088144	2.7219138
3.9881399904346244	6.4946623	2.5484626
4.005677404211669	6.3729634	2.524473
4.023214911848827	6.2355795	2.4971142
4.0407525137583855	6.202094	2.4904003
4.058290210352644	6.280291	2.5060508
4.075828002043927	6.22489	2.494973
4.0933658892445814	6.1865554	2.4872787
4.110903872366966	6.101417	2.4701047
4.128441951823468	5.951299	2.4395285
4.145980128026488	5.975669	2.444518
4.163518401388452	5.9673123	2.4428084
4.181056772321807	5.975235	2.4444294
4.1985952412390155	5.9491296	2.4390838
4.216133808552567	5.891506	2.4272425
4.233672474674966	5.8977714	2.4285328
4.251211240018741	6.0620203	2.462117
4.268750104996445	6.344293	2.518788
4.286289070020643	7.369073	2.7146037
4.303828135503928	8.934632	2.9890854
4.3213673018589125	29.229237	5.406407
4.3389065694982305	90.43382	9.50967
4.356445938834537	165.74873	12.874344
4.3739854102805085	171.24594	13.086098
4.391524984248844	172.11641	13.119314
4.409064661152262	136.02791	11.6631
4.426604441403504	96.349396	9.815773
4.444144325415337	75.330246	8.6793
4.461684313600543	21.285744	4.6136475
4.47922440637193	21.591434	4.6466584
4.496764604142329	20.002249	4.4723873
4.5143049073245916	18.24254	4.2711287
4.531845316331589	16.173143	4.0215845
4.5493858315762195	13.33551	3.6517818
4.566926453471405	11.088349	3.3299174
4.584467182430081	9.029075	3.0048418
4.602008018865218	7.981851	2.825217
4.619548963189798	7.2274876	2.6883986
4.637090015816834	6.7458186	2.5972714
4.654631177159353	6.4602013	2.5416925
4.672172447630417	6.278221	2.505638
4.689713827643102	6.072497	2.4642437
4.7072553176105085	5.8171463	2.4118762
4.724796917945764	5.632482	2.373285
4.742338629062015	5.586931	2.363669
4.759880451372434	5.544109	2.354593
4.777422385290215	5.507021	2.3467042
4.794964431228581	5.464566	2.3376412
4.812506589600768	5.4711943	2.3390584
4.830048860820047	5.4827952	2.341537
4.847591245299709	5.417409	2.3275328
4.8651337434530655	5.41325	2.3266392
4.882676355693457	5.4755087	2.3399806
4.900219082434242	5.5805326	2.3623152
4.917761924088813	5.5107837	2.3475058
4.935304881070575	5.4199457	2.3280778
4.952847953792969	5.3480363	2.3125823
4.970391142669449	5.300635	2.3023107
4.9879344481135055	5.256478	2.292701
5.005477870538642	5.275563	2.2968593
5.023021410358394	5.249449	2.2911675
5.040565067986324	5.2613797	2.2937698
5.05810884383601	5.1870737	2.2775147
5.075652738321066	5.179181	2.2757814
5.09319675185512	5.210413	2.2826328
5.110740884851836	5.256092	2.2926168
5.128285137724894	5.274193	2.296561
5.145829510888007	5.2108006	2.2827177
5.163374004754908	5.1456676	2.2684064
5.1809186197393595	5.187282	2.2775605
5.198463356255145	5.244563	2.290101
5.216008214716077	5.227989	2.2864797
5.233553195535998	5.122608	2.263318
5.251098299128764	5.105433	2.2595205
5.268643525908272	5.1179895	2.2622974
5.286188876288432	5.144669	2.2681863
5.3037343506831895	5.153365	2.2701025
5.32127994950651	5.156084	2.2707012
5.3388256731723915	5.1952353	2.279306
5.356371522094851	5.132312	2.2654607
5.373917496687938	5.103341	2.2590575
5.391463597365729	5.0637975	2.2502882
5.40900982454232	5.0419397	2.2454264
5.426556178631843	5.0511603	2.2474787
5.444102660048449	5.069306	2.2515118
5.4616492692063225	5.0693674	2.2515256
5.479196006519669	5.1340823	2.2658513
5.496742872402727	5.1132526	2.2612503
5.514289867269756	5.1165957	2.2619894
5.531836991535049	5.0814757	2.2542129
5.549384245612924	5.0058494	2.2373755
5.566931629917724	5.0322514	2.243268
5.584479144863822	5.02688	2.2420704
5.6020267908656205	5.032828	2.2433965
5.619574568337545	5.0122113	2.238797
5.637122477694054	5.0311327	2.2430186
5.654670519349629	5.087163	2.255474
5.672218693718784	5.102052	2.2587724
5.689767001216059	5.055714	2.2484915
5.707315442256021	5.0150676	2.2394347
5.724864017253266	4.992796	2.2344565
5.7424127266224225	5.0172296	2.2399173
5.75996157077814	5.067479	2.2511063
5.777510550135105	5.0916862	2.2564764
5.795059665108022	5.08315	2.2545843
5.812608916111639	5.037805	2.2445056
5.830158303560715	5.071445	2.251987
5.847707827870055	5.0780153	2.2534451
5.86525748945448	5.165244	2.2727172
5.8828072887288485	5.3445773	2.311834
5.900357226108044	5.44834	2.334168
5.917907302006979	5.583544	2.3629522
5.9354575168406	6.124712	2.4748156
5.9530078710238765	6.6880736	2.586131
5.970558364971812	7.2112284	2.685373
5.988108999099438	7.5714965	2.7516353
6.005659773821818	8.217288	2.8665812
6.023210689554039	7.9964967	2.8278077
6.040761746711227	8.450516	2.9069772
6.058312945708531	7.7693543	2.7873561
6.075864286961132	7.2758584	2.6973798
6.093415770884244	6.656431	2.5800061
6.1109673978931065	6.14371	2.4786508
6.128519168402993	5.4678607	2.3383458
6.146071082829204	5.353671	2.3138
6.163623141587075	5.247235	2.2906845
6.181175345091969	5.184413	2.2769306
6.198727693759281	5.167868	2.2732944
6.216280188004435	5.0380335	2.2445564
6.233832828242885	5.014562	2.2393217
6.251385614890126	5.0383997	2.244638
6.268938548361669	5.040522	2.2451108
6.286491629073067	4.9807053	2.2317493
6.304044857439898	4.922563	2.218685
6.321598233877777	4.892674	2.2119389
6.339151758802344	4.939992	2.2226093
6.356705432629277	4.9314528	2.2206874
6.37425925577428	4.8933682	2.212096
6.391813228653095	4.807799	2.1926694
6.409367351681486	4.802767	2.1915216
6.426921625275259	4.8110733	2.1934159
6.44447604985025	4.853726	2.2031174
6.46203062582232	4.8604007	2.2046316
6.47958535360737	4.8807993	2.209253
6.497140233621328	4.969157	2.2291605
6.514695266280161	4.9463496	2.224039
6.532250451999859	4.951204	2.22513
6.549805791196454	4.9141345	2.2167847
6.567361284286002	4.90916	2.2156625
6.584916931684597	4.9310236	2.2205908
6.602472733808367	4.9024124	2.2141392
6.6200286910734665	4.943987	2.223508
6.637584803896092	4.9106693	2.216003
6.655141072692462	4.8871217	2.2106836
6.672697497878842	4.910744	2.2160199
6.690254079871514	4.853245	2.2030082
6.707810819086808	4.9000883	2.2136142
6.725367715941078	4.781632	2.1866944
6.742924770850719	4.798839	2.1906252
6.760481984232151	4.8260193	2.1968203
6.778039356501836	4.896945	2.2129042
6.795596888076266	4.922328	2.218632
6.813154579371963	4.9719114	2.2297783
6.830712430805492	4.9982796	2.2356832
6.84827044279344	5.016375	2.2397265
6.865828615752445	4.9082937	2.215467
6.883386950099159	4.9050546	2.2147357
6.900945446250287	4.9223933	2.2186468
6.918504104622553	4.9945602	2.2348514
6.936062925632727	5.028333	2.2423944
6.953621909697607	5.029279	2.2426054
6.971181057234028	5.055124	2.2483602
6.988740368658859	5.062939	2.2500975
7.006299844389007	5.097935	2.2578607
7.023859484841407	5.165444	2.2727613
7.041419290433036	5.2352695	2.2880712
7.058979261580902	5.3692713	2.3171687
7.0765393987020495	5.5336456	2.3523703
7.094099702213559	5.892795	2.427508
7.111660172532549	6.254709	2.5009415
7.129220810076164	6.660947	2.580881
7.146781615261595	7.2260194	2.6881256
7.16434258850606	7.4500437	2.729477
7.181903730226821	7.8623943	2.803996
7.1994650408411704	7.8849306	2.8080118
7.217026520766437	8.082569	2.8429859
7.234588170419983	8.383956	2.8955061
7.252149990219215	8.39887	2.8980806
7.269711980581568	8.25272	2.8727548
7.2872741419245175	7.966989	2.8225856
7.304836474665574	7.5837836	2.7538671
7.322398979222286	7.2986913	2.7016091
7.339961656012233	7.088668	2.6624553
7.357524505453039	6.7746825	2.602822
7.375087527962357	6.527475	2.5548923
7.392650723957886	6.2126813	2.492525
7.410214093857353	5.858064	2.4203439
7.427777638078528	5.550819	2.3560176
7.445341357039213	5.415334	2.3270872
7.4629052511572525	5.360716	2.315322
7.480469320850524	5.333964	2.3095376
7.498033566536948	5.3016734	2.3025362
7.5155979886344735	5.1891007	2.2779598
7.5331625875610975	5.066885	2.2509742
7.550727363734844	5.0721383	2.2521408
7.568292317573788	5.0947113	2.2571468
7.585857449496025	5.1375093	2.2666075
7.603422759919705	5.0806146	2.254022
7.620988249263007	5.049772	2.2471697
7.638553917944147	4.971561	2.2296999
7.656119766381391	4.966192	2.2284954
7.673685794993023	5.015102	2.2394423
7.691252004197388	5.0192327	2.2403643
7.70881839441285	5.042879	2.2456355
7.726384966057826	5.0918193	2.256506
7.743951719550762	5.1154895	2.2617447
7.761518655310149	5.1710625	2.273997
7.779085773754511	5.184144	2.2768714
7.796653075302419	5.189345	2.2780135
7.814220560372475	5.223595	2.2855186
7.831788229383323	5.2453623	2.2902756
7.8493560827536495	5.235812	2.2881896
7.866924120902174	5.2118883	2.2829561
7.884492344247663	5.2345324	2.28791
7.9020607532089135	5.2485433	2.2909698
7.919629348204771	5.2865553	2.299251
7.937198129654115	5.249212	2.2911158
7.954767097975865	5.1912503	2.2784317
7.972336253588986	5.2240424	2.2856164
7.989905596912472	5.2715783	2.295992
8.007475128365371	5.3259234	2.3077962
8.025044848366756	5.343151	2.3115258
8.042614757335754	5.5365067	2.3529782
8.060184855691523	5.64964	2.376897
8.07775514385327	5.76865	2.4018013
8.095325622240228	5.756673	2.3993068
8.112896291271687	5.74571	2.397021
8.130467151366968	5.7142377	2.3904471
8.148038202945436	5.7729664	2.4026997
8.165609446426497	5.789562	2.4061508
8.183180882229594	5.872534	2.423331
8.200752510774217	5.88854	2.4266315
8.218324332479893	5.90126	2.429251
8.235896347766193	5.90402	2.4298189
8.253468557052724	5.950707	2.439407
8.27104096075914	5.9630184	2.4419293
8.288613559305137	6.0175204	2.4530635
8.306186353110448	6.0155706	2.452666
8.32375934259485	6.1190743	2.4736762
8.341332528178162	6.09299	2.4683983
8.358905910280246	6.130363	2.475957
8.376479489321003	6.1113677	2.4721181
8.394053265720377	6.1528826	2.4805005
8.411627239898356	6.1409225	2.4780884
8.42920141227497	6.1062746	2.4710877
8.44677578327029	6.1110363	2.4720511
8.464350353304427	6.06819	2.4633696
8.48192512279754	6.0281386	2.455227
8.499500092169827	6.043234	2.458299
8.51707526184153	6.0563564	2.4609666
8.534650632232934	6.130987	2.476083
8.552226203764365	6.1394925	2.4778
8.569801976856192	6.1120763	2.4722614
8.587377951928834	6.0573974	2.461178
8.60495412940274	6.05191	2.460063
8.622530509698416	6.0653872	2.4628007
8.6401070932364	6.177948	2.4855478
8.657683880437283	6.3285446	2.5156598
8.675260871721695	6.5476704	2.5588417
8.692838067510303	6.646983	2.5781744
8.710415468223834	6.7985077	2.6073947
8.727993074283043	6.886362	2.624188
8.745570886108737	6.9850464	2.6429238
8.763148904121765	7.084681	2.6617064
8.78072712874302	7.051981	2.6555567
8.798305560393441	7.3105526	2.7038033
8.815884199494006	7.4470663	2.7289314
8.833463046465745	7.705738	2.775921
8.851042101729728	7.8915205	2.809185
8.86862136570707	8.184276	2.8608172
8.886200838818924	8.286945	2.8787055
8.903780521486505	8.24058	2.870641
8.921360414131055	8.268401	2.8754828
8.938940517173874	8.417529	2.9012978
8.956520831036297	8.635626	2.9386435
8.97410135613971	8.8740015	2.9789262
8.99168209290554	9.0956745	3.0159037
9.009263041755265	9.371027	3.0612133
9.026844203110405	9.601656	3.0986538
9.044425577392525	9.820357	3.133745
9.062007165023239	9.812516	3.1324935
9.079588966424197	10.014225	3.164526
9.097170982017108	10.053127	3.1706667
9.11475321222372	11.028821	3.320967
9.132335657465825	11.942652	3.4558141
9.149918318165264	12.036572	3.4693763
9.167501194743924	12.659074	3.5579593
9.18508428762374	12.4092045	3.52267
9.202667597226693	12.391998	3.520227
9.220251123974803	12.080986	3.4757712
9.237834868290143	11.7781315	3.4319282
9.255418830594836	11.536807	3.3965876
9.273003011311046	10.989007	3.3149672
9.290587410860985	10.716715	3.2736394
9.308172029666911	10.188346	3.1919188
9.32575686815113	9.967422	3.1571224
9.343341926735997	8.718398	2.9526935
9.360927205843916	8.453254	2.907448
9.378512705897327	8.194283	2.8625658
9.396098427318728	7.956477	2.8207228
9.413684370530664	7.8512955	2.8020163
9.431270535955722	7.66267	2.768153
9.448856924016539	7.597973	2.756442
9.466443535135806	7.5031066	2.7391798
9.484030369736251	7.5168943	2.7416954
9.501617428240658	7.5197124	2.7422094
9.519204711071852	7.5413218	2.7461467
9.536792218652714	7.5663633	2.7507024
9.55437995140617	7.635264	2.7631981
9.571967909755191	7.64235	2.76448
9.589556094122802	7.6821275	2.771665
9.60714450493207	7.7077637	2.776286
9.624733142606116	7.772475	2.787916
9.642322007568108	7.899443	2.8105948
9.659911100241267	7.948453	2.8193002
9.677500421048851	7.954782	2.8204224
9.695089970414175	7.971592	2.8234007
9.712679748760609	7.987574	2.8262296
9.730269756511557	8.0616455	2.8393037
9.747859994090492	8.013907	2.8308845
9.765450461920915	8.055329	2.8381913
9.78304116042639	8.107088	2.8472948
9.800632090030527	8.15802	2.8562248
9.81822325115699	8.148867	2.854622
9.835814644229481	8.183185	2.8606267
9.853406269671762	8.193279	2.8623905
9.870998127907646	8.307585	2.8822882
9.888590219360985	8.302311	2.8813732
9.906182544455698	8.276457	2.8768833
9.923775103615734	8.270105	2.8757792
9.941367897265108	8.218173	2.8667357
9.958960925827878	8.217758	2.8666632
9.97655418972816	8.204896	2.864419
9.994147689390106	8.186822	2.8612623
10.011741425237934	8.064693	2.8398404
10.029335397695904	8.053978	2.837953
10.04692960718833	8.088024	2.8439453
10.06452405413958	8.11598	2.848856
10.082118738974064	8.108921	2.8476167
10.099713662116246	8.077135	2.84203
10.117308823990651	8.021424	2.832212
10.134904225021844	8.02123	2.8321776
10.152499865634445	7.9701157	2.8231394
10.170095746253125	8.040387	2.8355577
10.18769186730261	8.006467	2.82957
10.205288229207675	8.0213175	2.8321931
10.222884832393145	7.961908	2.8216853
10.2404816772839	7.9800425	2.8248968
10.258078764304868	7.9508038	2.819717
10.275676093881035	7.9821205	2.8252647
10.293273666437438	7.948581	2.8193228
10.310871482399158	7.9800825	2.824904
10.32846954219134	8.003016	2.8289604
10.346067846239173	8.030666	2.833843
10.363666394967908	8.050718	2.8373787
10.38126518880283	8.040575	2.8355908
10.398864228169298	8.052114	2.8376245
10.416463513492713	7.971822	2.8234415
10.434063045198531	7.941062	2.817989
10.451662823712262	7.960537	2.8214424
10.469262849459467	7.993411	2.8272622
10.486863122865758	7.985897	2.825933
10.504463644356806	8.000772	2.8285637
10.522064414358338	7.9487762	2.8193574
10.539665433296118	7.8843803	2.8079138
10.557266701595987	7.8066373	2.794036
10.574868219683818	7.710021	2.7766924
10.592469987985552	7.638017	2.7636962
10.610072006927185	7.48196	2.7353172
10.627674276934751	7.3035164	2.7025018
10.64527679843435	7.1778398	2.6791492
10.662879571852143	7.098828	2.6643627
10.680482597614331	7.06643	2.6582758
10.698085876147173	6.9288697	2.6322746
10.715689407876988	6.8830333	2.6235535
10.733293193230146	6.812425	2.6100624
10.750897232633072	6.709931	2.5903535
10.76850152651225	6.581194	2.5653837
10.786106075294207	6.5130725	2.5520723
10.803710879405534	6.442288	2.5381663
10.821315939272877	6.4075813	2.53132
10.83892125532294	6.312479	2.5124648
10.856526827982472	6.2074423	2.491474
10.874132657678285	6.140578	2.478019
10.891738744837243	6.09417	2.4686372
10.909345089886271	6.074068	2.4645624
10.926951693252343	6.031997	2.4560125
10.944558555362494	6.0092244	2.451372
10.96216567664381	5.94342	2.437913
10.979773057523436	5.8555846	2.4198315
10.997380698428573	5.743597	2.3965802
11.014988599786477	5.6666794	2.3804789
11.032596762024461	5.5908093	2.3644893
11.050205185569892	5.544462	2.3546681
11.067813870850198	5.465625	2.3378675
11.085422818292859	5.413005	2.3265865
11.10303202832541	5.40017	2.3238266
11.120641501375454	5.332225	2.3091612
11.138251237870636	5.3492436	2.312843
11.155861238238671	5.2571516	2.2928479
11.173471502907317	5.222872	2.2853603
11.191082032304402	5.1136165	2.2613306
11.208692826857805	5.114393	2.2615025
11.226303886995465	5.0709	2.2518659
11.243915213145371	5.0134573	2.2390752
11.261526805735578	4.8883996	2.2109725
11.279138665194196	4.7645874	2.1827934
11.296750791949393	4.737509	2.1765819
11.314363186429393	4.7469487	2.1787493
11.331975849062479	4.7262487	2.1739938
11.34958878027699	4.6340137	2.1526759
11.36720198050133	4.5387797	2.1304412
11.384815450163948	4.4412584	2.1074293
11.402429189693366	4.429044	2.1045294
11.420043199518153	4.384991	2.094037
11.437657480066942	63.357635	7.959751
11.455272031768422	85.07267	9.223485
11.472886855051353	107.4777	10.367146
11.490501950344528	99.1173	9.955768
11.508117318076819	84.47622	9.191094
11.52573295867715	45.872673	6.772937
11.543348872574514	4.144819	2.0358827
11.560965060197946	4.0556674	2.0138688
11.57858152197655	4.005225	2.0013058
11.59619825833949	3.9792564	1.9948074
11.613815269715985	3.9833977	1.9958451
11.631432556535323	38.503696	6.205135
11.649050119226837	83.026276	9.111876
11.666667958219929	93.37361	9.663002
11.68428607394406	107.65099	10.3755
11.701904466828756	82.47407	9.081524
11.719523137303586	65.35366	8.084161
11.737142085798196	4.571251	2.1380484
11.754761312742286	3.683528	1.9192519
11.772380818565619	3.6439793	1.908921
11.790000603698015	3.6252272	1.9040029
11.80762066856935	3.5736687	1.890415
11.825241013609572	3.5276463	1.8782029
11.842861639248683	3.5073082	1.8727809
11.860482545916748	3.475323	1.8642218
11.878103734043883	3.417177	1.8485608
11.895725204060282	3.3628078	1.833796
11.91334695639619	3.316055	1.8210039
11.930968991481919	3.2915914	1.8142743
11.948591309747824	3.2444122	1.8012252
11.966213911624347	3.2628834	1.8063453
11.98383679754198	3.2769692	1.8102401
12.001459967931268	3.3098247	1.8192923
12.019083423222835	3.288989	1.813557
12.036707163847352	3.280159	1.8111209
12.05433119023556	3.2354233	1.7987282
12.071955502818259	3.188466	1.7856276
12.089580102026313	3.1320012	1.7697461
12.107204988290643	3.1002462	1.7607516
12.12483016204224	3.0855455	1.7565721
12.142455623712152	3.0674179	1.7514045
12.16008137373149	3.0694823	1.7519938
12.177707412531431	3.0437002	1.7446203
12.19533374054321	3.0414257	1.7439684
12.212960358198126	3.01037	1.7350417
12.230587265927545	2.9989614	1.731751
12.248214464162889	2.9865253	1.7281566
12.265841953335649	3.0014749	1.7324765
12.283469733877375	2.9839182	1.7274021
12.301097806219685	2.96136	1.7208602
12.31872617079425	2.9436755	1.7157143
12.336354828032825	2.8922217	1.7006533
12.353983778367205	2.905962	1.7046882
12.371613022229262	2.881886	1.6976118
12.389242560050928	2.8696396	1.6940011
12.406872392264201	2.8286843	1.6818693
12.424502519301143	2.8443587	1.6865226
12.442132941593874	2.8457341	1.6869304
12.459763659574586	2.807839	1.6756607
12.477394673675532	2.7953112	1.6719184
12.49502598432903	2.7812593	1.6677108
12.51265759196746	2.7948077	1.6717678
12.530289497023267	2.80175	1.6738429
12.547921699928967	2.8177261	1.6786084
12.565554201117134	2.799567	1.6731907
12.583187001020404	2.7905927	1.6705067
12.600820100071486	2.774805	1.6657746
12.618453498703152	2.800552	1.6734849
12.636087197348235	2.7939575	1.6715136
12.65372119643964	2.7783728	1.6668452
12.671355496410326	2.7543416	1.6596209
12.68899009769333	2.8003924	1.6734374
12.706625000721749	2.81071	1.6765172
12.724260205928752	2.83425	1.683523
12.741895713747551	2.8437216	1.6863338
12.759531524611454	2.9119565	1.7064456
12.777167638953818	2.9278865	1.7111068
12.794804057208072	2.9150631	1.7073556
12.812440779807702	2.9485605	1.7171373
12.830077807186271	3.134427	1.7704313
12.847715139777405	3.1462383	1.7737639
12.865352778014795	3.3462393	1.8292729
12.882990722332197	3.4438853	1.8557708
12.90062897316344	3.5447927	1.882762
12.918267530942412	3.5865564	1.8938206
12.935906396103071	3.4646487	1.8613567
12.953545569079449	3.6219046	1.9031302
12.971185050305628	3.5119295	1.8740143
12.988824840215775	3.5399003	1.8814623
13.006464939244115	3.5722723	1.8900455
13.024105347824943	3.4279792	1.8514802
13.041746066392617	3.5300555	1.8788441
13.05938709538157	3.3139617	1.820429
13.077028435226296	3.3174968	1.8213997
13.094670086361363	3.2183635	1.7939798
13.112312049221401	3.1326332	1.7699246
13.129954324241112	3.0468721	1.7455292
13.147596911855258	2.8879821	1.6994064
13.165239812498685	2.8375823	1.6845125
13.182883026606293	2.774024	1.6655401
13.200526554613058	2.724528	1.6506145
13.218170396954017	2.7043133	1.6444796
13.235814554064284	2.7020245	1.6437836
13.253459026379034	2.7114058	1.6466347
13.271103814333523	2.709752	1.6461325
13.288748918363058	2.6526105	1.6286837
13.306394338903031	2.6304293	1.6218598
13.32404007638889	2.625459	1.6203268
13.341686131256164	2.6526172	1.6286857
13.359332503940449	2.6263163	1.6205914
13.376979194877402	2.5997953	1.6123881
13.394626204502751	2.6571367	1.6300726
13.412273533252307	2.666968	1.6330855
13.429921181561937	2.6978085	1.6425006
13.447569149867581	2.7334685	1.6533204
13.465217438605247	2.7291489	1.6520135
13.482866048211022	2.6910849	1.6404526
13.500514979121052	2.6722271	1.6346948
13.518164231771568	2.6463923	1.6267736
13.535813806598844	2.6198382	1.6185914
13.553463704039254	2.632787	1.6225865
13.571113924529229	2.62167	1.6191572
13.588764468505275	2.6648898	1.632449
13.606415336403956	2.6587632	1.6305714
13.624066528661917	2.6937973	1.6412792
13.641718045715882	2.757868	1.660683
13.659369888002635	2.8059778	1.6751053
13.67702205595903	2.8529463	1.6890666
13.694674550021993	2.9059563	1.7046865
13.712327370628532	2.9671655	1.7225462
13.729980518215713	3.0402434	1.7436293
13.747633993220681	3.112433	1.7642089
13.765287796080647	3.1859393	1.78492
13.7829419272329	3.2279434	1.7966478
13.800596387114801	3.2914367	1.8142318
13.818251176163775	3.2931488	1.8147035
13.835906294817324	3.3615963	1.8334657
13.853561743513023	3.4107857	1.8468312
13.871217522688525	3.454624	1.8586619
13.888873632781538	3.4653523	1.8615457
13.906530074229858	3.44749	1.8567418
13.92418684747135	3.4777544	1.8648738
13.941843952943948	3.4659045	1.861694
13.959501391085665	3.446675	1.8565223
13.977159162334578	3.349291	1.8301069
13.994817267128846	3.2694726	1.8081683
14.012475705906693	3.197794	1.7882377
14.030134479106424	3.1099722	1.7635113
14.047793587166414	3.028283	1.7401962
14.065453030525108	2.949521	1.717417
14.083112809621026	2.8822734	1.697726
14.100772924892766	2.8337185	1.6833652
14.118433376778997	2.8176506	1.6785859
14.136094165718458	2.7827454	1.6681563
14.153755292149969	2.748798	1.6579499
14.171416756512416	2.6668816	1.6330589
14.189078559244768	2.5696084	1.6029998
14.20674070078606	2.5192106	1.5872021
14.224403181575408	2.497316	1.5802898
14.242066002051999	2.4884598	1.5774853
14.259729162655093	2.5074098	1.5834802
14.277392663824022	2.4833827	1.5758752
14.295056505998208	2.4451764	1.5637059
14.312720689617128	2.413007	1.5533856
14.330385215120348	2.402967	1.5501506
14.348050082947497	2.4122992	1.5531578
14.3657152935383	2.3892686	1.545726
14.383380847332528	2.3534186	1.5340856
14.401046744770051	2.3324265	1.5272284
14.418712986290798	2.3491523	1.5326945
14.436379572334793	2.3384423	1.5291966
14.454046503342123	2.343141	1.5307322
14.471713779752946	2.3483698	1.5324392
14.489381402007504	2.3764865	1.5415857
14.507049370546113	2.357564	1.535436
14.524717685809168	2.3316638	1.5269786
14.542386348237134	2.3260908	1.5251527
14.560055358270553	2.3586817	1.5358
14.577724716350051	2.384109	1.544056
14.595394422916325	2.3900158	1.5459676
14.61306447841015	2.390957	1.546272
14.63073488327237	2.388535	1.5454886
14.648405637943917	2.4282508	1.5582845
14.6660767428658	2.4486914	1.5648295
14.683748198479094	2.48405	1.5760869
14.701420005224954	2.5095391	1.5841525
14.719092163544628	2.5731387	1.6041006
14.73676467387942	2.62297	1.6195586
14.754437536670727	2.6829722	1.6379781
14.772110752360014	2.6611621	1.6313069
14.78978432138882	2.633706	1.6228697
14.807458244198777	2.6415226	1.6252762
14.82513252123159	2.6031883	1.6134399
14.842807152929028	2.6507685	1.628118
14.860482139732962	2.6569355	1.6300108
14.87815748208531	2.6691546	1.6337547
14.8958331804281	2.6390893	1.6245275
14.91350923520342	2.579929	1.6062157
14.931185646853438	2.6283743	1.6212262
14.948862415820408	2.6712704	1.6344022
14.966539542546656	2.7279499	1.6516507
14.98421702747459	2.696826	1.6422015
15.001894871046696	2.6759276	1.6358262
15.019573073705542	2.630652	1.6219285
15.037251635893766	2.650611	1.6280696
15.054930558054092	2.6484308	1.6274
15.072609840629323	2.6701653	1.6340641
15.090289484062351	2.7546403	1.6597109
15.107969488796124	2.934576	1.7130604
15.125649855273691	3.1580205	1.777082
15.14333058393817	3.5209367	1.876416
15.161011675232768	4.091396	2.0227199
15.17869312960076	4.6856923	2.164646
15.196374947485506	5.3301363	2.308709
15.214057129330447	6.6471863	2.5782137
15.231739675579114	8.736122	2.9556932
15.249422586675102	13.329436	3.65095
15.267105863062092	17.93898	4.235443
15.284789505183847	25.30838	5.0307436
15.302473513484218	30.303942	5.5049014
15.320157888407127	34.575577	5.8801003
15.337842630396578	33.240185	5.76543
15.355527739896656	30.21858	5.497143
15.37321321735153	23.404728	4.8378434
15.39089906320545	15.793557	3.9741108
15.408585277902748	10.166466	3.1884897
15.42627186188783	6.283289	2.506649
15.443958815605198	4.530725	2.12855
15.461646139499424	3.715212	1.9274886
15.479333834015168	3.2823188	1.8117172
15.497021899597165	3.0134306	1.7359235
15.514710336690234	2.811454	1.6767391
15.53239914573928	2.669524	1.6338677
15.550088327189297	2.6020818	1.613097
15.567777881485336	2.5674458	1.6023251
15.58546780907256	2.531181	1.5909686
15.6031581103962	2.4691727	1.5713601
15.620848785901568	2.4686449	1.5711921
15.638539836034063	2.4979646	1.580495
15.656231261239173	2.5423396	1.5944716
15.673923061962451	2.5225663	1.5882589
15.691615238649552	2.4692965	1.5713996
15.709307791746202	2.4107466	1.552658
15.727000721698221	2.4462192	1.5640393
15.744694028951498	2.4535298	1.5663748
15.76238771395202	2.393643	1.5471402
15.780081777145844	2.327103	1.5254844
15.797776218979125	2.3362942	1.5284941
15.815471039898094	2.3632507	1.5372868
15.833166240349064	2.3727398	1.54037
15.850861820778437	2.3841798	1.544079
15.868557781632699	2.3922794	1.5466995
15.886254123358412	2.4282424	1.5582819
15.903950846402232	2.4615312	1.5689268
15.921647951210897	2.4712882	1.5720332
15.939345438231225	2.4680164	1.5709921
15.957043307910133	2.4503696	1.5653657
15.974741560694602	2.4688451	1.5712559
15.992440197031714	2.4883485	1.57745
16.01013921736862	2.442348	1.5628014
16.02783862215259	2.3866787	1.5448879
16.045538411830933	2.3488104	1.5325829
16.06323858685107	2.3847737	1.5442712
16.080939147660512	2.4153984	1.5541552
16.09864009470684	2.4413633	1.5624863
16.11634142843774	2.426447	1.5577056
16.134043149300954	2.390225	1.5460353
16.15174525774433	2.3878803	1.5452768
16.169447754215817	2.3620157	1.536885
16.18715063916342	2.3937535	1.547176
16.204853913035244	2.4300053	1.5588474
16.222557576279478	2.480805	1.5750571
16.240261629344403	22.447412	4.73787
16.257966072678386	42.96014	6.5543985
16.275670906729868	38.072285	6.1702743
16.293376131947387	2.528166	1.5900208
16.31108174877957	2.532014	1.5912303
16.328787757675133	2.5597568	1.599924
16.34649415908287	2.5621147	1.6006607
16.364200953451657	2.5959728	1.6112022
16.38190814123048	2.610882	1.6158224
16.39961572286839	2.647666	1.627165
16.41732369881455	2.659306	1.6307379
16.43503206951817	2.7018437	1.6437286
16.45274083542859	2.738276	1.6547737
16.47044999699522	2.7789946	1.6670316
16.488159554667558	2.8459902	1.6870062
16.505869508895184	2.8828526	1.6978965
16.523579860127786	2.9034915	1.7039635
16.541290608815117	2.9250782	1.710286
16.559001755407035	2.9803123	1.7263582
16.57671330035348	3.1147125	1.7648548
16.59442524410448	3.25192	1.803308
16.61213758711015	3.4301803	1.8520746
16.629850329820705	3.51174	1.8739637
16.647563472686436	3.575178	1.8908141
16.665277016157724	3.5061831	1.8724805
16.682990960685053	3.4758673	1.8643678
16.70070530671898	3.4328907	1.8528062
16.718420054710155	3.4455516	1.8562198
16.736135205109335	3.4587674	1.8597761
16.753850758367335	3.4880612	1.8676351
16.771566714935087	3.5735393	1.8903807
16.789283075263597	3.6519186	1.9109994
16.80699983980398	3.6760788	1.9173104
16.82471700900741	3.7082639	1.9256853
16.84243458332518	3.7911744	1.9470938
16.860152563208665	3.8638842	1.9656765
16.87787094910932	3.9649687	1.9912229
16.89558974147871	4.0474234	2.0118208
16.913308940768466	4.130858	2.0324512
16.931028547430333	4.1850286	2.0457342
16.94874856191613	4.270195	2.066445
16.966468984677785	4.339983	2.0832627
16.98418981616729	4.368372	2.090065
17.00191105683676	4.3609896	2.0882983
17.019632707138374	4.4211736	2.1026587
17.03735476752442	4.4862494	2.1180768
17.05507723844728	4.515337	2.1249323
17.072800120359403	4.4785094	2.1162488
17.090523413713353	4.4896274	2.118874
17.108247118961785	4.5362554	2.1298487
17.125971236557437	4.5987716	2.1444747
17.143695766953133	4.6004663	2.1448698
17.161420710601806	4.598664	2.1444495
17.179146067956477	4.5909677	2.1426544
17.19687183947025	4.5881796	2.1420035
17.21459802559634	4.6127214	2.1477246
17.232324626788028	4.616896	2.1486964
17.25005164349871	4.6092486	2.1469162
17.267779076181863	4.5855355	2.1413863
17.285506925291074	4.589879	2.1424003
17.30323519127999	4.559367	2.1352675
17.320963874602384	4.543216	2.1314821
17.33869297571211	4.5438085	2.1316211
17.356422495063114	4.5374203	2.1301222
17.37415243310944	4.5000744	2.121338
17.391882790305218	4.520595	2.1261692
17.40961356710468	4.5740237	2.1386967
17.42734476396215	4.6429605	2.154753
17.445076381332044	4.6539288	2.1572967
17.462808419668868	4.7245955	2.1736135
17.48054087942723	4.7917314	2.1890023
17.498273761061835	4.834984	2.1988597
17.51600706502747	5.1323757	2.2654748
17.533740791779024	5.7018414	2.387853
17.551474941771485	6.6010737	2.5692556
17.56920951545993	8.5452585	2.9232273
17.586944513299528	9.869659	3.1416013
17.60467993574556	12.812838	3.5795023
17.622415783253373	15.502188	3.9372818
17.64015205627843	18.209806	4.267295
17.657888755276293	20.448988	4.5220556
17.675625880702604	22.035706	4.6942205
17.69336343301311	20.716774	4.5515685
17.71110141266366	18.579607	4.3104067
17.728839820110178	15.724422	3.965403
17.746578655808705	12.465107	3.5305958
17.764317920215372	10.284936	3.2070136
17.7820576137864	8.656259	2.942152
17.79979773697811	7.3629236	2.7134707
17.81753829024692	6.0947614	2.4687572
17.835279274049356	5.28353	2.298593
17.85302068884201	4.4890194	2.1187305
17.870762535081607	4.041355	2.010312
17.888504813224934	3.8040302	1.9503924
17.90624752372891	3.710912	1.9263728
17.923990667050536	3.621884	1.9031248
17.941734243646895	3.4892356	1.8679496
17.959478253975185	3.4019265	1.8444312
17.9772226984927	3.3652196	1.8344535
17.994967577656833	3.3533304	1.8312101
18.01271289192506	3.3251913	1.8235106
18.030458641754965	3.3411236	1.8278741
18.04820482760425	3.3576577	1.8323913
18.06595144993067	3.342449	1.8282366
18.083698509192125	3.332893	1.8256212
18.101446005846576	3.2614772	1.805956
18.119193940352105	3.27278	1.8090826
18.136942313166887	3.2237818	1.7954893
18.1546911247492	3.1940894	1.7872015
18.1724403755574	3.1189082	1.7660431
18.19019006604997	3.1243303	1.7675775
18.207940196685467	3.1035628	1.7616931
18.225690767922575	3.0953045	1.7593478
18.243441780220046	3.0829353	1.755829
18.261193234036764	3.0431497	1.7444626
18.278945129831676	2.971339	1.7237573
18.29669746806386	2.9769123	1.725373
18.314450249192483	2.957722	1.7198029
18.3322034736768	2.9503398	1.7176553
18.349957141976184	2.9247346	1.7101855
18.3677112545501	2.9532092	1.7184904
18.385465811858108	3.003409	1.7330346
18.403220814359884	3.0615044	1.7497156
18.420976262515172	3.0916238	1.7583014
18.43873215678387	3.1379201	1.7714175
18.456488497625923	3.162538	1.7783526
18.474245285501407	3.2237637	1.7954843
18.492002520870486	3.2519178	1.8033074
18.50976020419343	3.3269644	1.8239968
18.527518335930615	3.6408865	1.9081107
18.545276916542516	4.195062	2.048185
18.563035946489688	4.371138	2.0907266
18.580795426232832	4.742928	2.1778264
18.598555356232698	4.645171	2.1552658
18.616315736950185	4.9201994	2.2181523
18.63407656884626	4.579011	2.1398623
18.65183785238201	4.817288	2.194832
18.669599588018617	4.6052637	2.1459877
18.68736177621737	4.59884	2.1444907
18.705124417439652	4.5565643	2.1346111
18.72288751214696	4.3627377	2.0887167
18.740651060800886	4.4842854	2.117613
18.758415063863115	4.1792803	2.044329
18.77617952179546	4.404376	2.0986605
18.793944435059814	4.2148366	2.0530066
18.811709804118184	4.2168126	2.053488
18.829475629432675	4.0998282	2.0248032
18.8472419114655	3.8492076	1.9619398
18.86500865067897	3.9428718	1.9856666
18.88277584753551	3.6516516	1.9109296
18.90054350249763	3.7284214	1.930912
18.918311616027957	3.4222481	1.849932
18.936080188589226	3.3381102	1.8270496
18.953849220644265	3.011878	1.7354763
18.971618712656007	2.8369803	1.6843338
18.9893886650875	2.7866266	1.6693192
19.007159078401887	8.00956	2.8301165
19.024929953062408	32.872295	5.7334366
19.042701289532435	32.779068	5.725301
19.060473088275405	25.356525	5.0355263
19.07824534975489	2.6448631	1.6263036
19.096018074434568	2.6382434	1.6242671
19.113791262778197	2.6114733	1.6160053
19.13156491524966	2.6180835	1.6180493
19.149339032312945	2.603999	1.6136911
19.167113614432136	2.5243275	1.5888132
19.184888662071433	2.4871197	1.5770605
19.202664175695123	2.4396358	1.5619333
19.220440155767623	2.484407	1.5762001
19.238216602753447	2.4524658	1.566035
19.2559935171172	2.48111	1.575154
19.27377089932361	2.4900255	1.5779815
19.291548749837514	2.5039744	1.5823952
19.309327069123835	2.501588	1.581641
19.32710585764763	2.5221038	1.5881133
19.344885115874032	2.5385897	1.5932952
19.362664844268313	2.552826	1.5977565
19.380445043295822	2.5570009	1.5990624
19.39822571342203	2.52653	1.5895063
19.41600685511252	2.4946256	1.5794383
19.43378846883297	2.4780426	1.57418
19.451570555049173	2.5093663	1.584098
19.469353114227037	2.5034528	1.5822303
19.48713614683254	2.4874895	1.5771776
19.50491965333182	2.478128	1.5742071
19.52270363419109	2.4777727	1.5740943
19.540488089876686	2.4724092	1.5723896
19.55827302085503	2.4514894	1.5657233
19.576058427592674	2.4499047	1.5652171
19.593844310556282	2.4578376	1.5677493
19.611630670212598	2.5040698	1.5824252
19.629417507028506	2.5329154	1.5915135
19.64720482147098	2.5429645	1.5946676
19.6649926140071	2.5115044	1.5847727
19.682780885104084	2.4792411	1.5745606
19.70056963522921	2.440574	1.5622337
19.718358864849908	2.4897776	1.5779029
19.7361485744337	2.5219743	1.5880725
19.753938764448215	2.5623827	1.6007444
19.771729435361202	2.5325015	1.5913835
19.789520587640506	2.5126724	1.5851412
19.807312221754092	2.5114145	1.5847443
19.825104338170043	2.508735	1.5838987
19.842896937356517	2.5184672	1.586968
19.860690019781824	2.489309	1.5777545
19.87848358591436	2.4721797	1.5723166
19.896277636222635	2.4652755	1.5701196
19.914072171175278	2.494328	1.5793442
19.931867191241015	2.53765	1.5930003
19.94966269688869	2.5559855	1.598745
19.967458688587264	2.501714	1.5816808
19.985255166805807	2.4468625	1.564245
20.00305213201348	2.4167764	1.5545985
20.020849584679578	2.450805	1.5655047
20.038647525273507	2.5010316	1.581465
20.05644595426477	2.517102	1.5865377
20.07424487212299	2.4754672	1.5733618
20.092044279317903	2.444452	1.5634743
20.109844176319353	2.4328232	1.559751
20.127644563597304	2.431799	1.5594226
20.145445441621817	2.4198346	1.5555818
20.16324681086307	2.3944297	1.5473945
20.181048671791373	2.4037702	1.5504097
20.198851024877122	2.4032457	1.5502405
20.216653870590836	2.432143	1.5595329
20.234457209403146	2.4095316	1.5522666
20.252261041784802	2.381986	1.5433683
20.270065368206662	2.3559847	1.5349218
20.287870189139685	2.364097	1.537562
20.305675505054968	2.366766	1.5384297
20.323481316423702	2.3418527	1.5303113
20.341287623717207	2.296665	1.5154752
20.359094427406884	2.2794209	1.509775
20.376901727964288	2.3080504	1.5192269
20.39470952586107	2.340625	1.5299101
20.41251782156899	2.3496099	1.5328437
20.430326615559935	2.3708708	1.5397632
20.448135908305886	2.3378785	1.5290122
20.465945700278965	2.3232574	1.5242236
20.483755991951384	2.2993276	1.5163534
20.50156678379548	2.3241935	1.5245305
20.519378076283708	2.3203862	1.5232813
20.537189869888635	2.3010592	1.5169243
20.55500216508294	2.3024578	1.5173852
20.572814962339415	2.3313947	1.5268905
20.59062826213098	2.3073356	1.5189916
20.60844206493066	2.2723217	1.5074222
20.626256371211593	2.2669954	1.5056545
20.644071181447032	2.290906	1.5135739
20.66188649611036	2.3041153	1.5179312
20.67970231567506	2.2940676	1.5146179
20.697518640614742	2.2737288	1.5078889
20.715335471403122	2.2746396	1.5081909
20.73315280851404	2.2934785	1.5144235
20.750970652421447	2.3029685	1.5175534
20.768789003599412	2.2681844	1.5060493
20.786607862522136	2.2708983	1.50695
20.8044272296639	2.2614117	1.5037991
20.82224710549913	2.2581186	1.5027038
20.84006749050237	2.2381895	1.496058
20.857888385148268	3.8117197	1.9523625
20.8757097899116	45.955833	6.779073
20.893531705267254	64.811165	8.050538
20.911354131690224	83.8095	9.154753
20.92917706965566	69.01563	8.307565
20.94700051963877	50.06858	7.0759153
20.96482448211493	29.35204	5.4177523
20.982648957559622	4.1049843	2.026076
21.00047394644843	2.2070217	1.4856049
21.01829944925707	2.2027612	1.4841702
21.036125466461375	2.1980405	1.482579
21.053951998537297	2.185374	1.478301
21.071779045960906	2.1651573	1.4714473
21.089606609208378	2.1883168	1.4792961
21.10743468875603	2.218301	1.4893962
21.12526328508028	2.2198558	1.489918
21.143092398657675	2.1840484	1.4778526
21.16092202996488	2.1868834	1.4788115
21.17875217947867	2.2274141	1.4924524
21.19658284767596	2.2436204	1.497872
21.21441403503377	2.2053123	1.4850293
21.232245742029225	2.1577964	1.468944
21.2500779691396	2.1492386	1.4660282
21.26791071684227	2.1427329	1.4638077
21.28574398561475	2.1506736	1.4665176
21.30357777593465	2.1625445	1.4705592
21.321412088279704	2.153407	1.4674492
21.339246923127792	2.1470473	1.4652807
21.357082280956888	2.1317725	1.460059
21.3749181622451	2.1373425	1.4619653
21.392754567470647	2.1156862	1.4545399
21.41059149711187	2.1023514	1.4499488
21.42842895164726	2.0789046	1.4418408
21.446266931555378	2.0814278	1.4427154
21.464105437314945	2.0585816	1.4347758
21.481944469404798	2.0571473	1.4342759
21.49978402830388	2.082187	1.4429785
21.51762411449127	2.094314	1.4471745
21.53546472844617	2.0667803	1.43763
21.553305870647876	2.039545	1.4281265
21.571147541575865	2.048981	1.4314262
21.58898974170967	2.0532045	1.4329008
21.60683247152899	2.0403163	1.4283965
21.62467573151363	2.022582	1.4221752
21.642519522143523	2.0464435	1.4305396
21.660363843898722	2.0546792	1.4334152
21.6782086972594	2.0536978	1.4330728
21.696054082705864	2.0463362	1.430502
21.713900000718535	2.0321608	1.4255388
21.73174645177795	2.0596569	1.4351505
21.749593436364794	2.0468612	1.4306855
21.767440954959845	2.0103319	1.4178617
21.785289008044032	1.9650741	1.401811
21.803137596098388	1.9696826	1.4034538
21.820986719604086	2.0108087	1.4180299
21.838836379042412	2.0228584	1.4222722
21.85668657489478	2.0068524	1.4166342
21.87453730764273	1.9850972	1.4089347
21.892388577767914	1.9909216	1.4110003
21.91024038575213	1.9962198	1.4128764
21.928092732077285	2.003572	1.4154758
21.945945617225426	1.9663738	1.4022745
21.963799041678694	1.9513524	1.3969082
21.981653005919398	31.264236	5.591443
21.999507510429943	78.08262	8.836437
22.01736255569286	73.048744	8.546856
22.035218142190818	4.1423583	2.0352783
22.05307427040661	1.9744362	1.4051464
22.07093094082315	1.9763844	1.4058394
22.088788153923474	1.9876666	1.4098463
22.106645910190746	1.9775114	1.4062402
22.12450421010827	1.9705561	1.403765
22.142363054159464	1.9505887	1.3966348
22.16022244282787	1.9623138	1.4008261
22.178082376597164	1.9385145	1.3923055
22.195942855951145	1.9313838	1.3897424
22.213803881373742	1.9143516	1.383601
22.231665453349002	1.9250501	1.3874618
22.24952757236111	1.9594933	1.399819
22.26739023889438	1.9482386	1.3957932
22.28525345343323	1.9547037	1.3981072
22.30311721646225	1.9624165	1.4008628
22.320981528466113	1.9886378	1.4101907
22.33884638992964	1.9857651	1.4091718
22.356711801337788	1.9983193	1.4136192
22.37457776317561	1.9997139	1.4141124
22.392444275928337	2.0306454	1.4250071
22.410311340081282	1.9836963	1.4084376
22.428178956119904	1.9650615	1.4018065
22.446047124529805	1.9421437	1.3936081
22.46391584579669	1.9149216	1.383807
22.481785120406414	1.9092366	1.3817513
22.49965494884496	1.9287149	1.3887818
22.51752533159841	1.923027	1.3867325
22.53539626915302	1.9139292	1.3834484
22.553267761995137	1.909929	1.3820019
22.571139810611264	1.9307625	1.3895189
22.589012415488025	1.9387028	1.3923731
22.60688557711216	1.9676387	1.4027255
22.624759295970566	1.97057	1.40377
22.642633572550263	1.9833574	1.4083172
22.660508407338362	1.9603324	1.4001187
22.67838380082217	1.9532751	1.3975962
22.696259753489077	1.9560796	1.3985991
22.714136265826614	1.9552414	1.3982995
22.73201333832246	1.9371527	1.3918164
22.74989097146439	1.8980254	1.3776884
22.76776916574035	1.8930006	1.3758636
22.785647921638393	1.8887774	1.374328
22.803527239646712	1.8607811	1.3641045
22.82140712025363	1.873122	1.3686205
22.839287563947593	1.8860043	1.3733187
22.85716857121719	1.9086351	1.3815336
22.875050142551135	1.9062372	1.3806655
22.892932278438277	1.9079783	1.3812959
22.910814979367604	1.8774922	1.3702161
22.928698245828222	1.8706517	1.3677177
22.946582078309387	1.8608782	1.3641402
22.96446647730047	1.8556187	1.362211
22.98235144329098	1.8451045	1.3583462
23.000236976770562	1.8885989	1.374263
23.018123078229	1.9086428	1.3815364
23.03600974815619	1.9354309	1.3911977
23.053896987042194	1.9217448	1.3862702
23.071784795377173	1.9083569	1.3814329
23.08967317365145	1.8933418	1.3759875
23.10756212235546	1.8870589	1.3737026
23.125451641979787	1.8746818	1.3691902
23.143341733015134	1.9004272	1.3785598
23.161232395952357	1.9350716	1.3910685
23.179123631282426	1.9421215	1.3936002
23.197015439496468	1.9334421	1.3904827
23.214907821085717	1.9145638	1.3836776
23.23280077654157	1.9107527	1.3822998
23.250694306355538	1.9519264	1.3971136
23.268588411019277	1.9685906	1.4030647
23.28648309102458	1.9721763	1.4043419
23.304378346863356	1.9470913	1.3953822
23.322274179027676	1.9335301	1.3905144
23.340170588009723	1.8948021	1.3765181
23.358067574301852	1.889812	1.3747044
23.37596513839651	1.9067996	1.3808692
23.39386328078629	1.9698404	1.40351
23.411762001963947	1.9980798	1.4135345
23.429661302422353	1.9447213	1.3945327
23.4475611826545	1.8801775	1.3711957
23.46546164315356	1.853949	1.3615979
23.48336268441279	1.8991641	1.3781016
23.501264306925638	1.9234725	1.3868932
23.51916651118564	1.9334922	1.3905007
23.537069297686497	1.9412229	1.3932778
23.554972666922037	1.921418	1.3861523
23.57287661938623	1.9149228	1.3838074
23.59078115557318	1.8914162	1.3752877
23.608686275977128	1.8787813	1.3706864
23.62659198109246	1.8469285	1.3590175
23.6444982714137	1.832119	1.353558
23.66240514743549	1.8323052	1.3536267
23.68031260965263	1.8414633	1.3570052
23.698220658560068	1.8735871	1.3687904
23.716129294652845	1.906873	1.3808957
23.7340385184262	1.9114115	1.3825381
23.75194833037546	1.8629597	1.3649029
23.769858730996123	1.8786498	1.3706385
23.78776972078382	1.9272974	1.3882713
23.80568130023431	1.9535772	1.3977042
23.823593469843495	1.8981564	1.377736
23.841506230107424	1.8891449	1.3744617
23.859419581522275	1.8914942	1.375316
23.87733352458438	1.9237305	1.3869861
23.89524805979019	1.9116892	1.3826385
23.913163187636318	1.8501626	1.3602068
23.931078908619508	1.8902447	1.3748617
23.948995223236633	1.9678243	1.4027916
23.966912131984735	2.0431442	1.429386
23.98482963536096	2.0793202	1.4419848
24.002747733862616	2.064745	1.4369221
24.020666427987155	2.0072126	1.4167613
24.038585718232156	1.9230204	1.3867301
24.056505605095353	1.950893	1.3967438
24.074426089074617	2.0373137	1.427345
24.092347170667946	2.0651662	1.4370686
24.110268850373515	2.0592623	1.4350129
24.128191128689586	2.0655112	1.4371886
24.146114006114626	2.0491283	1.4314777
24.164037483147187	2.033537	1.4260213
24.181961560286005	2.0248876	1.4229854
24.199886238029926	2.0218475	1.4219168
24.21781151687797	2.0330117	1.4258372
24.235737397329274	2.0586567	1.4348019
24.253663879883135	2.0509207	1.4321036
24.271590965038975	2.0445254	1.429869
24.289518653296376	2.0232694	1.4224168
24.30744694515505	2.0343974	1.426323
24.32537584111486	2.041031	1.4286466
24.34330534167581	1.9968002	1.4130818
24.361235447338046	1.9769682	1.406047
24.379166158601876	1.9798788	1.4070816
24.39709747596772	2.0235007	1.422498
24.41502939993615	2.044807	1.4299675
24.432961931007917	1.9979295	1.4134814
24.450895069683856	1.9856507	1.4091312
24.468828816465	1.9610627	1.4003794
24.4867631718525	1.9661472	1.4021937
24.504698136347656	1.960778	1.4002779
24.52263371045192	1.9607303	1.4002608
24.540569894666874	1.962761	1.4009857
24.558506689494266	1.9537985	1.3977834
24.57644409543597	1.9363723	1.391536
24.594382112994012	1.9030739	1.3795195
24.61232074267057	1.8890914	1.3744422
24.630259984967953	1.9098383	1.381969
24.64819984038863	1.9582824	1.3993864
24.66614030943522	1.957245	1.3990157
24.684081392610462	1.9180034	1.38492
24.702023090417274	1.9332566	1.390416
24.7199654033587	1.983544	1.4083835
24.737908331937927	2.0450985	1.4300694
24.755851876658305	2.0725036	1.4396193
24.773796038023324	2.0818808	1.4428724
24.79174081653661	2.0699155	1.4387201
24.809686212701962	2.1142507	1.4540462
24.827632227023294	2.1416507	1.4634379
24.8455788600047	2.1331573	1.4605333
24.8635261121504	2.123536	1.4572358
24.88147398396475	2.1296089	1.4593179
24.899422475952303	2.1358402	1.4614514
24.917371588617698	2.1173592	1.4551148
24.935321322465768	2.1386952	1.4624279
24.953271678001478	2.1961663	1.4819468
24.97122265572994	2.40872	1.5520052
24.989174256156414	2.809747	1.67623
25.00712647978632	3.4495265	1.8572901
25.02507932712521	4.4527755	2.11016
25.043032798678798	6.004461	2.4504
25.060986894952933	7.6922827	2.7734964
25.078941616453637	9.1274605	3.0211687
25.096896963687055	9.951387	3.154582
25.114852937159508	10.548575	3.247857
25.132809537377444	10.366453	3.2196977
25.150766764847468	9.629931	3.103213
25.168724620076347	8.325044	2.8853152
25.186683103570985	7.0971794	2.6640532
25.204642215838426	5.7574553	2.3994699
25.222601957385894	4.609604	2.146999
25.24056232872074	3.5117419	1.8739642
25.25852333035048	2.8256822	1.6809765
25.276484962782778	2.4122021	1.5531266
25.294447226525435	2.1837926	1.477766
25.312410122086423	2.0310175	1.4251378
25.330373649973843	1.9672159	1.4025748
25.348337810695988	1.9852761	1.4089983
25.366302604761245	1.9793173	1.4068822
25.384268032678207	1.9814948	1.4076558
25.40223409495558	1.9401917	1.3929076
25.420200792102257	1.895856	1.3769009
25.438168124627246	1.8484617	1.3595815
25.45613609303974	1.8429588	1.3575562
25.474104697849057	1.8586425	1.3633204
25.492073939564698	1.886187	1.3733852
25.510043818696285	1.8641088	1.3653237
25.528014335753614	1.8035425	1.3429604
25.54598549124664	1.793624	1.3392625
25.56395728568544	1.8577268	1.3629845
25.58192971958028	1.8785604	1.3706058
25.59990279344156	1.8585409	1.3632832
25.617876507779833	1.8207742	1.3493607
25.635850863105826	1.8184803	1.3485104
25.653825859930386	1.839943	1.356445
25.671801498764548	1.8974664	1.3774855
25.68977778011949	1.9024471	1.3792922
25.707754704506524	1.8883989	1.3741902
25.725732272437153	1.8686017	1.366968
25.743710484423012	1.844005	1.3579415
25.761689340975888	1.8416564	1.3570764
25.77966884260774	1.8307294	1.3530445
25.797648989830662	1.8357213	1.354888
25.815629783156922	1.8560733	1.3623778
25.83361122309895	1.9066514	1.3808155
25.85159331016929	1.9306954	1.3894947
25.869576044880695	1.8699447	1.3674592
25.887559427746034	1.8376248	1.3555902
25.90554345927836	1.8451223	1.3583528
25.92352813999086	1.8664232	1.366171
25.94151347039689	1.8738286	1.3688786
25.959499451009965	1.8708978	1.3678076
25.97748608234374	1.8554126	1.3621353
25.995473364912062	1.8285931	1.3522549
26.013461299228904	1.8218769	1.3497692
26.03144988580839	1.8097675	1.345276
26.04943912516483	1.7977712	1.34081
26.067429017812675	1.8159666	1.347578
26.085419564266537	1.8532053	1.3613248
26.103410765041186	1.8485456	1.3596122
26.12140262065155	1.7886695	1.3374115
26.139395131612723	1.7968454	1.3404646
26.157388298439948	1.8389454	1.3560772
26.17538212164861	1.816617	1.3478193
26.193376601754295	1.7643037	1.3282709
26.211371739272714	1.7352234	1.3172787
26.229367534719746	1.7572659	1.3256191
26.247363988611433	1.751546	1.3234599
26.26536110146397	1.7623832	1.3275478
26.283358873793727	1.8060236	1.3438838
26.301357306117204	1.8175416	1.3481623
26.319356398951104	1.7987049	1.341158
26.33735615281224	1.8219144	1.3497831
26.35535656821762	1.8569616	1.3627038
26.373357645684404	1.8604153	1.3639704
26.39135938572991	1.820421	1.3492298
26.409361788871614	1.813276	1.3465794
26.427364855627165	1.8396945	1.3563534
26.445368586514352	1.851094	1.3605492
26.46337298205115	1.8613449	1.3643111
26.48137804275568	1.8320075	1.3535167
26.499383769146217	1.8353826	1.3547629
26.517390161741215	1.8032311	1.3428444
26.53539722105928	1.789612	1.3377638
26.553404947619182	1.7848011	1.3359644
26.571413341939856	1.8055634	1.3437126
26.589422404540397	1.7996169	1.341498
26.60743213594006	1.8135034	1.3466638
26.62544253665827	1.828568	1.3522456
26.64345360721459	1.842806	1.3575
26.66146534812879	1.8517325	1.3607838
26.679477759920758	1.8029879	1.3427539
26.69749084311057	1.7627645	1.3276914
26.71550459821847	1.8033134	1.342875
26.733519025764842	1.8488845	1.3597369
26.751534126270258	1.8493515	1.3599087
26.769549900255434	1.8572716	1.3628175
26.787566348241267	1.7971762	1.340588
26.80558347074881	1.8039781	1.3431225
26.823601268299267	1.823245	1.3502759
26.841619741414036	1.8825915	1.3720756
26.85963889061465	1.8919791	1.3754923
26.877658716422832	1.8542724	1.3617167
26.89567921936045	1.8414493	1.3570001
26.913700399949544	1.8749385	1.3692839
26.93172225871233	1.8494968	1.3599621
26.949744796171174	1.7820201	1.3349233
26.967768012848605	1.7506173	1.3231089
26.98579190926733	1.8058715	1.3438271
27.003816485950225	1.8231143	1.3502275
27.021841743420318	1.8731111	1.3686165
27.039867682200814	1.8494819	1.3599566
27.057894302815072	1.8433776	1.3577105
27.07592160578664	1.8279133	1.3520035
27.0939495916392	1.82743	1.3518246
27.111978260896635	1.8249506	1.3509073
27.13000761408296	1.8160876	1.347623
27.148037651722397	1.8025823	1.3426028
27.166068374339304	1.8019681	1.3423741
27.184099782458215	1.7779944	1.3334146
27.20213187660384	1.7304194	1.315454
27.22016465730105	1.7000749	1.3038692
27.23819812507487	1.7359649	1.3175602
27.256232280450533	1.7475334	1.321943
27.274267123953383	1.8055063	1.3436913
27.292302656108987	1.8158399	1.3475311
27.31033887744306	1.7879286	1.3371345
27.32837578848146	1.7138686	1.3091481
27.34641338975026	1.7210201	1.3118765
27.364451681775673	1.7502381	1.3229656
27.382490665084074	1.7663102	1.329026
27.400530340202046	1.8308479	1.3530883
27.41857070765629	1.9129627	1.383099
27.436611767973726	1.9043745	1.3799907
27.454653521681404	1.8441601	1.3579986
27.472695969306564	1.7783203	1.3335367
27.490739111376627	1.7964214	1.3403064
27.508782948419153	1.7713528	1.3309218
27.526827480961902	1.7265928	1.3139988
27.54487270953279	1.7581639	1.3259578
27.562918634659898	1.7757674	1.3325793
27.580965256871508	1.810046	1.3453795
27.599012576696026	1.8356324	1.3548552
27.617060594662068	1.8741549	1.3689978
27.63510931129842	1.8167717	1.3478768
27.65315872713401	1.8329062	1.3538487
27.67120884269797	1.8685848	1.3669618
27.68925965851958	1.8815038	1.3716792
27.707311175128307	1.881937	1.3718371
27.725363393053787	1.8674774	1.3665568
27.74341631282583	1.885106	1.3729916
27.7614699349744	1.9425967	1.3937707
27.77952426002968	2.107448	1.4517052
27.797579288521973	2.1556196	1.4682028
27.815635020981784	2.6005678	1.6126276
27.83369145793979	2.6926186	1.64092
27.85174859992682	2.5062625	1.583118
27.869806447473923	2.3418167	1.5302995
27.887865001112267	2.063347	1.4364356
27.905924261373233	1.9580995	1.3993211
27.92398422878836	1.9683708	1.4029864
27.94204490388936	1.9505216	1.3966107
27.96010628720813	1.8818805	1.3718165
27.978168379276728	1.863738	1.3651879
27.9962311806274	1.8685708	1.3669567
28.014294691792568	1.8974658	1.3774853
28.0323589133048	1.9222798	1.386463
28.050423845696887	1.8424864	1.3573822
28.068489489501758	1.7935182	1.339223
28.086555845252523	1.8067554	1.344156
28.104622913482487	1.8396126	1.3563232
28.122690694725115	1.8475944	1.3592625
28.14075918951405	1.8681055	1.3667866
28.15882839838312	1.904043	1.3798707
28.176898321866304	1.9153883	1.3839755
28.1949689604978	1.929627	1.3891101
28.213040314811945	2.0297153	1.4246808
28.23111238534327	2.0189512	1.420898
28.249185172626493	1.937079	1.3917898
28.267258677196473	1.8890939	1.3744432
28.285332899588294	1.914389	1.3836144
28.303407840337172	1.9577459	1.3991947
28.321483499978545	1.9800599	1.407146
28.33955987904799	1.9305533	1.3894435
28.357636978081285	1.9386452	1.3923525
28.37571479761439	1.9858845	1.4092141
28.393793338183425	2.0311968	1.4252006
28.41187260032469	2.0172653	1.4203047
28.429952584574686	2.0119247	1.4184233
28.448033291470065	2.0198624	1.4212186
28.46611472154769	2.054478	1.433345
28.484196875344566	2.060073	1.4352955
28.502279753397914	2.0485976	1.4312923
28.52036335624511	2.018008	1.4205661
28.538447684423716	2.0120697	1.4184744
28.556532738471482	2.0323763	1.4256144
28.574618518926325	2.0356898	1.426776
28.59270502632635	2.0142984	1.4192598
28.61079226120985	2.0216	1.4218298
28.628880224115274	2.0376544	1.4274644
28.646968915581287	2.0444765	1.4298519
28.66505833614671	2.087249	1.4447315
28.68314848635055	2.0799494	1.4422029
28.701239366732004	2.0993369	1.4489088
28.71933097783044	2.0763865	1.4409672
28.737423320185403	2.1060412	1.4512206
28.75551639433665	2.0918074	1.4463081
28.773610200824074	2.0861263	1.4443429
28.791704740187793	2.0828514	1.4432087
28.80980001296809	2.125439	1.4578885
28.827896019705413	2.1594298	1.4694998
28.845992760940433	2.1828766	1.4774561
28.86409023721397	2.113911	1.4539294
28.88218844906704	2.1373756	1.4619766
28.900287397040845	2.2378821	1.4959552
28.918387081676755	2.296963	1.5155735
28.936487503516343	2.2958312	1.5152
28.954588663101365	2.3049676	1.518212
28.97269056097374	2.2747655	1.5082326
28.990793197675597	2.2658534	1.5052752
29.00889657374923	2.3109832	1.5201918
29.027000689737125	2.3503566	1.5330873
29.04510554618196	2.412575	1.5532466
29.06321114362659	2.444008	1.5633323
29.08131748261405	2.4657586	1.5702734
29.099424563687567	2.460005	1.5684403
29.11753238739057	2.435633	1.5606514
29.13564095426663	2.4253285	1.5573466
29.15375026485954	2.4549806	1.5668378
29.171860319713275	2.6050706	1.6140231
29.18997111937199	2.7043808	1.6445001
29.20808266438002	2.7194057	1.649062
29.226194955281898	2.75902	1.6610298
29.244307992622335	2.7431016	1.6562312
29.26242177694624	2.8031137	1.6742502
29.2805363087987	2.8823826	1.6977581
29.29865158872498	2.9823332	1.7269433
29.316767617270557	3.0238492	1.7389219
29.334884394981064	2.9532046	1.718489
29.353001922402367	2.9584024	1.7200007
29.37112020008047	3.094757	1.7591921
29.389239228561596	3.166257	1.779398
29.407359008392152	3.280954	1.8113403
29.42547954011872	3.5654647	1.8882438
29.44360082428809	4.084118	2.02092
29.46172286144722	5.054169	2.248148
29.479845652143283	6.6749854	2.5835993
29.497969196923606	9.312314	3.0516083
29.516093496335728	13.025563	3.6090946
29.5342185509274	16.60924	4.0754433
29.55234436124651	19.80431	4.4502034
29.570470927841175	21.349634	4.6205664
29.588598251259686	21.375021	4.623313
29.60672633205055	19.621746	4.429644
29.624855170762405	16.404953	4.050303
29.642984767944146	12.977144	3.6023803
29.66111512414481	9.723096	3.118188
29.67924623991366	7.223168	2.6875951
29.697378115800138	5.3346024	2.3096757
29.71551075235387	4.3115697	2.076432
29.733644150124675	3.7798114	1.9441737
29.751778309662576	3.514147	1.8746059
29.769913231517766	3.4956565	1.8696675
29.78804891624066	3.5611944	1.8871127
29.806185364381818	3.4256108	1.8508406
29.82432257649206	3.2499588	1.8027642
29.842460553122333	3.236308	1.7989742
29.86059929482382	3.257692	1.8049078
29.878738802147872	3.248355	1.8023193
29.896879075646048	3.2384496	1.7995692
29.915020115870114	3.2512138	1.8031123
29.933161923371976	3.3098006	1.8192858
29.951304498703777	3.2746646	1.8096035
29.969447842417857	3.253251	1.8036771
29.987591955066733	3.2446089	1.8012798
30.005736837203123	3.205729	1.790455
30.023882489379943	3.171012	1.7807336
30.04202891215028	3.182973	1.7840889
30.060176106067455	3.2327833	1.7979943
30.078324071684946	3.213245	1.7925526
30.09647280955646	3.2123904	1.7923143
30.114622320235863	3.2477393	1.8021486
30.132772604277257	3.2670534	1.8074992
30.1509236622349	3.2244313	1.7956702
30.16907549466328	3.1288502	1.7688556
30.18722810211705	3.064624	1.7506068
30.205381485151097	3.0074866	1.7342106
30.22353564432045	3.0295305	1.7405547
30.241690580180403	3.0467906	1.7455058
30.25984629328638	3.0653195	1.7508054
30.278002784194037	3.025905	1.7395128
30.296160053459246	2.9862654	1.7280815
30.314318101638033	2.995794	1.7308363
30.332476929286646	2.9601398	1.7205057
30.35063653696153	2.9058113	1.7046441
30.368796925219307	2.8834596	1.6980753
30.386958094616844	2.8677588	1.6934458
30.40512004571115	2.8642988	1.6924239
30.423282779059463	2.8985565	1.7025148
30.441446295219233	2.9388983	1.7143215
30.459610594748067	2.8991487	1.7026887
30.47777567820382	2.8626995	1.6919514
30.495941546144504	2.8331606	1.6831995
30.51410819912835	2.7970502	1.6724384
30.532275637713795	2.766838	1.6633816
30.55044386245946	2.786566	1.669301
30.56861287392416	2.8365114	1.6841946
30.586782672666956	2.8707728	1.6943355
30.604953259247047	2.8382828	1.6847204
30.623124634223885	2.7862208	1.6691977
30.641296798157075	2.7072067	1.6453592
30.659469751606462	2.6886275	1.6397035
30.677643495132074	2.6722827	1.6347119
30.695818029294152	2.690402	1.6402445
30.713993354653116	2.742176	1.6559517
30.73216947176962	2.7304847	1.6524179
30.75034638120448	2.7254786	1.6509024
30.768524083518756	2.7537358	1.6594384
30.786702579273673	2.7446167	1.6566885
30.80488186903069	2.8353648	1.6838541
30.82306195335144	3.0610342	1.7495811
30.841242832797782	3.321629	1.8225337
30.85942450793176	3.640879	1.9081087
30.877606979315637	4.081072	2.0201664
30.895790247511883	4.3858876	2.0942512
30.913974313083134	4.737218	2.176515
30.932159176592283	5.2749467	2.2967253
30.95034483860237	5.6287847	2.372506
30.968531299676698	5.608826	2.3682961
30.98671856037873	5.2981544	2.301772
31.00490662127215	4.8833594	2.2098324
31.023095482920848	4.3664174	2.0895975
31.04128514588892	3.765859	1.9405822
31.059475610740662	3.1829343	1.784078
31.07766687804056	2.832421	1.6829798
31.09585894835335	2.5918276	1.6099154
31.11405182224393	2.4586103	1.5679957
31.132245500277417	2.4224763	1.5564306
31.15043998301914	2.4485884	1.5647966
31.168635271034628	2.4620566	1.5690942
31.18683136488964	2.3913581	1.5464016
31.20502826515008	2.3171322	1.522213
31.223225972382135	2.4006307	1.5493969
31.241424487152155	2.4976082	1.5803823
31.259623810026692	2.5164585	1.586335
31.27782394157253	2.5094008	1.5841088
31.296024882356644	2.5008323	1.5814021
31.314226632946237	2.4178014	1.5549281
31.332429193908684	2.3993452	1.548982
31.350632565811598	2.415543	1.5542017
31.368836749222787	2.447097	1.56432
31.387041744710295	2.4620757	1.5691003
31.40524755284232	2.5783854	1.6057352
31.423454174187317	2.6556132	1.6296052
31.441661609313922	2.6129344	1.6164573
31.459869858791002	2.419468	1.5554639
31.478078923187628	2.42822	1.5582747
31.496288803073064	2.4435039	1.5631711
31.514499499016807	2.379116	1.5424384
31.532711011588546	2.3102996	1.519967
31.550923341358178	2.3452504	1.5314211
31.56913648889584	2.3617175	1.536788
31.587350454771844	2.3470614	1.5320122
31.605565239556732	2.2769356	1.5089518
31.62378084382127	2.2948003	1.5148598
31.641997268136382	2.2840025	1.5112916
31.660214513073274	2.2193253	1.48974
31.67843257920331	2.252762	1.5009204
31.6966514670981	2.312665	1.5207449
31.71487117732944	2.2942493	1.514678
31.733091710469346	2.221406	1.4904382
31.751313067090052	2.2512665	1.5004221
31.769535247764008	2.2614064	1.5037973
31.787758253063878	2.270765	1.5069058
31.805982083562526	2.240479	1.496823
31.824206739833024	2.2287588	1.4929028
31.84243222244869	2.2471075	1.4990355
31.860658531983013	2.2691967	1.5063853
31.878885669009737	2.2499928	1.4999976
31.897113634102784	2.3006954	1.5168043
31.91534242783632	2.3370137	1.5287294
31.933572050784694	2.2834435	1.5111067
31.951802503522508	2.2160966	1.4886559
31.970033786624548	2.2524078	1.5008024
31.988265900665834	2.2804139	1.510104
32.006498846221575	2.2779136	1.5092758
32.02473262386724	2.2508373	1.5002791
32.04296723417845	2.2321007	1.4940217
32.0612026777311	2.2145793	1.4881463
32.07943895510129	2.1493134	1.4660537
32.097676066865304	2.108194	1.4519621
32.115914013599685	2.1955872	1.4817513
32.13415279588115	2.2155287	1.4884652
32.152392414286666	2.2149148	1.488259
32.1706328693934	2.1559727	1.4683231
32.18887416177875	2.1549504	1.4679749
32.20711629202032	2.1794147	1.4762841
32.225359260695924	2.1529424	1.4672909
32.243603068383614	2.1445568	1.4644306
32.26184771566166	2.129508	1.4592834
32.28009320310852	2.1322525	1.4602234
32.2983395313029	2.1298394	1.459397
32.31658670082372	2.106844	1.4514972
32.33483471225012	2.1989336	1.4828801
32.35308356616143	2.2836711	1.5111821
32.371333263137245	2.1415348	1.4633983
32.38958380375734	2.0310404	1.4251457
32.407835188601744	2.0888627	1.4452899
32.42608741825067	2.1396556	1.4627562
32.444340493284585	2.0829937	1.443258
32.46259441428416	2.1278358	1.4587103
32.48084918183028	2.0695724	1.4386009
32.49910479650405	1.9976795	1.4133929
32.51736125888683	1.9628985	1.4010348
32.53561856956014	1.9941003	1.4121262
32.5538767291058	1.9355385	1.3912363
32.572135738105764	1.9383396	1.3922427
32.59039559714228	2.0272489	1.4238149
32.608656306797776	2.1170235	1.4549994
32.62691786765491	2.130396	1.4595876
32.645180280296586	2.0890577	1.4453573
32.663443545305896	2.0515904	1.4323374
32.68170766326619	2.0747437	1.440397
32.69997263476099	2.0103357	1.417863
32.7182384603741	2.0038543	1.4155756
32.7365051406895	1.9729961	1.4046338
32.75477267629144	1.9185323	1.385111
32.77304106776434	2.0164652	1.420023
32.79131031569289	2.1060517	1.4512242
32.809580420661966	2.0925145	1.4465526
32.827851383256714	1.966189	1.4022086
32.84612320406245	1.8792602	1.370861
32.86439588366476	1.9359927	1.3913995
32.88266942264945	1.9720105	1.4042829
32.9009438216025	2.00995	1.417727
32.9192190811102	2.0083308	1.4171559
32.937495201758985	2.016787	1.4201363
32.95577218413556	1.992278	1.4114808
32.974050028826866	1.9707887	1.4038478
32.992328736420035	1.9748862	1.4053065
33.010608307502444	2.0188715	1.42087
33.02888874266169	2.063565	1.4365114
33.047170042485604	1.9746461	1.405221
33.06545220756225	1.8921657	1.3755602
33.083735238479896	1.9234071	1.3868695
33.10201913582707	1.9989967	1.4138588
33.12030390019248	1.9732974	1.404741
33.138589532165135	1.9417061	1.3934511
33.15687603233419	1.9858361	1.409197
33.17516340128909	1.9622258	1.4007947
33.19345163961947	1.936166	1.3914618
33.211740747915215	1.993676	1.4119759
33.23003072676643	2.0191486	1.4209675
33.248321576763466	2.0037317	1.4155324
33.266613298496885	1.9613329	1.400476
33.28490589255747	1.8762702	1.3697702
33.30319935953626	1.8283429	1.3521624
33.32149370002451	1.8739194	1.3689117
33.339788914613706	2.0059483	1.4163151
33.358085003895575	2.0655103	1.4371883
33.376381968462034	2.0828435	1.443206
33.39467980890529	2.0899327	1.44566
33.41297852581774	2.0879908	1.4449881
33.43127811979204	1.9055371	1.380412
33.44957859142105	1.7947744	1.3396919
33.467879941297866	1.8515885	1.3607309
33.486182170015844	1.9286695	1.3887655
33.50448527816853	1.9157598	1.3841097
33.522789266349754	1.823674	1.3504348
33.541094135153514	1.8799833	1.3711249
33.55939988517411	1.9997541	1.4141266
33.57770651700602	2.0355837	1.4267389
33.59601403124398	2.0044072	1.4157709
33.61432242848296	1.9809705	1.4074695
33.632631709318154	1.9136716	1.3833553
33.650941874344994	1.8700296	1.3674903
33.66925292415916	1.8218044	1.3497423
33.68756485935654	1.8249826	1.3509191
33.70587768053328	1.8135136	1.3466676
33.724191388285746	1.8644392	1.3654447
33.74250598321054	1.9727616	1.4045503
33.760821465904506	2.051227	1.4322106
33.77913783696474	2.0842466	1.443692
33.79745509698852	2.133326	1.460591
33.815773246573414	2.0907178	1.4459314
33.8340922863172	2.0370057	1.427237
33.852412216817896	2.0047307	1.4158851
33.87073303867377	2.09182	1.4463125
33.889054752483304	1.9846603	1.4087797
33.907377358845245	1.8887776	1.374328
33.92570085835853	1.9318914	1.389925
33.94402525162239	1.9499512	1.3964065
33.96235053923627	1.8512028	1.3605891
33.980676721799824	1.9055736	1.3804251
33.999003799912984	2.0080502	1.4170569
34.01733177417592	2.042549	1.4291776
34.03566064518901	2.0352263	1.4266136
34.0539904135529	2.045463	1.4301969
34.07232107986846	1.989629	1.4105421
34.090652644736785	1.9681014	1.4028903
34.108985108759235	2.026298	1.423481
34.12731847253742	2.0088866	1.417352
34.14565273667313	2.0055854	1.4161869
34.16398790176847	2.0167556	1.4201252
34.18232396842574	1.8833876	1.3723657
34.20066093724749	1.7951356	1.3398267
34.21899880883651	1.7901244	1.3379554
34.23733758379583	1.856864	1.3626679
34.25567726272874	1.9044558	1.3800203
34.27401784623872	1.8103738	1.3455013
34.29235933492957	1.8411406	1.3568864
34.31070172940526	1.9106573	1.3822653
34.32904503027003	2.0047796	1.4159024
34.347389238128386	1.9346427	1.3909143
34.36573435358502	1.880672	1.3713759
34.38408037724492	1.9524183	1.3972896
34.402427309713296	1.9207602	1.3859149
34.42077515159559	1.8551289	1.3620311
34.43912390349752	1.876629	1.3699011
34.45747356602499	1.9054987	1.380398
34.47582413978423	1.9046874	1.3801042
34.49417562538163	1.9210864	1.3860326
34.51252802342388	1.9078947	1.3812656
34.53088133451789	1.853233	1.361335
34.54923555927084	1.8100799	1.3453921
34.567590698290104	1.8560551	1.3623711
34.58594675218336	1.9072475	1.3810313
34.6043037215585	1.9030997	1.3795288
34.62266160702365	1.8958015	1.3768811
34.641020409187234	1.9375238	1.3919497
34.65938012865785	1.903039	1.3795068
34.677740766044394	2.0152776	1.4196048
34.69610232195598	2.1138062	1.4538934
34.714464797002016	1.9770987	1.4060935
34.73282819179208	1.8032776	1.3428618
34.751192506936064	1.7898235	1.3378428
34.76955774304408	1.8453293	1.358429
34.7879239007265	2.0085485	1.4172326
34.80629098059391	2.2436259	1.4978738
34.824658983257194	2.0918317	1.4463166
34.843027909327446	1.8056941	1.3437612
34.86139775941603	1.7129554	1.3087991
34.879768534134534	1.6497856	1.2844398
34.89814023409483	1.6216309	1.2734327
34.91651285990901	1.8262352	1.3513827
34.93488641218944	2.0770082	1.441183
34.95326089154871	2.1100307	1.4525944
34.97163629859967	1.9134362	1.3832701
34.99001263395542	1.6114036	1.2694107
35.00838989822934	1.727821	1.314466
35.02676809203499	1.9133193	1.3832278
35.04514721598624	1.9960712	1.4128238
35.063527270697215	1.9982424	1.413592
35.081908256782256	2.1394699	1.4626926
35.10029017485597	2.1055834	1.4510629
35.11867302553321	1.983367	1.4083207
35.137056809429104	1.8005176	1.3418337
35.155441527159006	1.8916844	1.3753852
35.173827179338524	2.1750572	1.4748075
35.19221376658354	2.0849283	1.4439281
35.21060128951017	1.8329467	1.3538636
35.2289897487348	1.8884008	1.3741909
35.24737914487405	2.0337186	1.4260851
35.26576947854479	2.0590851	1.4349513
35.28416075036418	2.0020788	1.4149483
35.30255296094958	2.058539	1.4347609
35.32094611091867	2.1675658	1.4722655
35.33934020088932	2.1564443	1.4684837
35.35773523147969	1.8951702	1.3766518
35.3761312033082	1.8489794	1.3597718
35.394528116993506	1.859368	1.3635864
35.41292597315452	1.815061	1.347242
35.431324772410434	2.0162058	1.4199317
35.449724515380666	2.2387877	1.4962579
35.46812520268491	2.4856575	1.5765967
35.486526834943106	2.4534197	1.5663396
35.504929412775454	1.9073862	1.3810816
35.52333293680242	1.8207093	1.3493366
35.54173740764471	1.7252481	1.313487
35.560142825923286	1.4280491	1.1950101
35.5785491922594	1.3944145	1.1808534
35.59695650727454	1.9908389	1.4109709
35.61536477159042	3.2678285	1.8077136
