0.008763373481513119	0.0	0.0
0.026290120649546365	0.0	0.0
0.043816868432600686	0.03550094	0.18841693
0.06134361724069026	0.082251735	0.28679565
0.07887036748382949	0.08843453	0.29737943
0.0963971195720331	0.12039032	0.3469731
0.11392387391531617	0.2062046	0.45409757
0.1314506309236943	0.15621673	0.3952426
0.1489773910071836	0.14358129	0.3789212
0.16650415457580078	0.087912604	0.2965006
0.18403092203956356	0.08871318	0.29784757
0.20155769380849	0.117328	0.34253174
0.2190844702925996	0.13624306	0.36911118
0.2366112519019124	0.13518654	0.3676772
0.2541380390464497	0.15069354	0.38819265
0.27166483213623416	0.14069827	0.3750977
0.28919163158128947	0.17083558	0.41332263
0.3067184377916406	0.20325597	0.4508392
0.324245251177314	0.24215102	0.49208844
0.34177207214833777	0.1838827	0.42881545
0.3592989011147415	0.17619035	0.41975033
0.37682573848655654	0.1482344	0.3850122
0.39435258467381573	0.1578676	0.39732555
0.41187944008655414	0.12538874	0.35410273
0.42940630513480854	0.09030365	0.30050567
0.446933180228618	0.1088974	0.32999608
0.4644600657780234	0.16102134	0.40127465
0.48198696219306775	0.16235647	0.40293482
0.49951386988379676	0.15766005	0.3970643
0.5170407892602581	0.11816052	0.34374484
0.5345677207325025	0.16830575	0.41025084
0.5520946647105822	0.15766288	0.39706784
0.5696216216045534	0.20001328	0.44722843
0.5871485918244737	0.18866445	0.4343552
0.6046755757804043	0.16518283	0.4064269
0.6222025738824094	0.175095	0.41844356
0.6397295865405557	0.19343126	0.43980822
0.6572566141649129	0.22301328	0.47224283
0.6747836571655547	0.20845552	0.45656928
0.6923107159525568	0.18906903	0.43482068
0.7098377909359992	0.19121543	0.43728185
0.7273648825259653	0.21698225	0.46581352
0.7448919911325411	0.22488177	0.474217
0.762419117165817	0.2242887	0.47359127
0.7799462610358868	0.22389299	0.47317332
0.7974734231528482	0.20339341	0.4509916
0.8150006039268024	0.18766022	0.43319768
0.8325278037678551	0.19927947	0.4464073
0.8500550230861152	0.1950405	0.44163388
0.8675822622916969	0.23068124	0.48029286
0.8851095217947171	0.2213249	0.4704518
0.9026368020052984	0.22874983	0.47827798
0.9201641033335665	0.18697159	0.4324021
0.9376914261896523	0.17065142	0.41309977
0.9552187709836915	0.17577323	0.41925317
0.9727461381258234	0.17479698	0.4180873
0.990273528026193	0.19876164	0.44582692
1.0078009410949496	0.22631368	0.47572437
1.0253283777422473	0.25378743	0.5037732
1.0428558383782454	0.24704005	0.49703124
1.0603833234131086	0.24597448	0.49595815
1.0779108332570058	0.31535316	0.56156313
1.0954383683201119	0.35086396	0.5923377
1.112965929012607	0.41064516	0.64081603
1.1304935157446763	0.4814622	0.6938748
1.1480211289265108	0.49250054	0.70178384
1.1655487689683062	1.3274497	1.15215
1.1830764362802655	1.6868465	1.2987865
1.200604131272596	2.1664553	1.4718883
1.2181318543555117	2.373022	1.5404617
1.235659605939232	2.3687537	1.5390756
1.253187386433982	3.7947466	1.9480109
1.270715196249994	6.11645	2.4731457
1.2882430357975057	11.165347	3.3414588
1.3057709054867608	15.778327	3.9721942
1.3232988057280106	21.27787	4.6127944
1.3408267369315112	26.091429	5.107977
1.358354699507526	29.891052	5.467271
1.3758826938663256	33.811172	5.8147373
1.3934107204181858	35.788612	5.9823585
1.410938779573391	35.849846	5.987474
1.4284668717422309	36.554264	6.0460124
1.4459949973350033	36.22183	6.0184574
1.4635231567620117	36.665474	6.055202
1.4810513504335687	35.75244	5.9793344
1.4985795787599925	34.80312	5.899417
1.5161078421516088	34.123413	5.841525
1.5336361410187505	33.419693	5.780977
1.5511644757717598	33.56894	5.793871
1.5686928468209842	34.00684	5.831538
1.58622125457678	34.340027	5.8600364
1.6037496994495108	35.379864	5.9480977
1.621278181849548	35.491947	5.957512
1.6388067021872719	36.868008	6.071903
1.6563352608730693	36.323475	6.026896
1.673863858317336	35.44531	5.953596
1.6913924949304753	34.589115	5.8812513
1.7089211711228998	33.52958	5.790473
1.7264498873050296	32.8505	5.7315354
1.7439786438872935	31.77891	5.6372786
1.7615074412801288	30.6976	5.5405416
1.779036279893981	29.985987	5.4759464
1.796565160139305	29.319304	5.41473
1.814094082426564	28.950502	5.380567
1.8316230471662298	28.071049	5.298212
1.849152054768784	27.311438	5.2260346
1.8666811056447168	26.599163	5.157438
1.8842102002045273	25.88889	5.0881124
1.901739338858724	25.478745	5.0476475
1.9192685220178245	25.068527	5.006848
1.9367977500923557	24.50141	4.9498897
1.9543270234928547	23.981178	4.897058
1.971856342629867	23.403076	4.8376727
1.9893857079139496	22.877628	4.7830563
2.006915119755667	22.622522	4.756314
2.0244445785655945	21.882063	4.677827
2.0419740847543175	21.483921	4.635075
2.0595036387324317	20.781572	4.558681
2.0770332409105414	20.078653	4.4809213
2.094562891699263	19.706274	4.439175
2.1120925915092217	19.198927	4.381658
2.129622340751053	18.860878	4.3429112
2.1471521398354043	187.23192	13.683271
2.1646819891729323	443.7396	21.065128
2.182211889174303	440.08295	20.978153
2.1997418402501974	452.59674	21.27432
2.2172718428113023	432.63507	20.799881
2.234801897268317	320.35638	17.898502
2.2523320040319548	16.623507	4.0771933
2.269862163512935	16.322105	4.0400624
2.287392376121992	16.17738	4.0221114
2.304922642269869	16.076714	4.0095778
2.322452962367322	15.871495	3.9839046
2.3399833368251164	15.290019	3.9102454
2.357513766054032	15.019698	3.8755255
2.3750442504648586	14.565344	3.816457
2.3925747904683963	14.43955	3.7999408
2.410105386475459	14.318289	3.7839515
2.4276360388968707	13.868192	3.7240021
2.445166748143469	13.529738	3.6782792
2.4626975146261025	13.193394	3.632271
2.4802283387556323	13.086904	3.6175826
2.4977592209429305	13.042599	3.6114538
2.5152901615988825	12.66843	3.559274
2.5328211611343865	12.321291	3.5101697
2.5503522199603523	12.127011	3.4823859
2.5678833384877024	12.033802	3.468977
2.5854145171273712	11.863155	3.4442933
2.6029457562903064	11.623423	3.4093142
2.620477056387469	11.365291	3.3712447
2.6380084178298326	11.144971	3.3384085
2.655539841028383	10.919029	3.3043954
2.673071326394119	10.690455	3.2696261
2.6906028743380523	10.602555	3.2561564
2.708134485271211	10.572676	3.2515652
2.7256661596046325	10.341894	3.2158816
2.743197897749369	10.246052	3.2009454
2.760729700116486	10.173074	3.1895256
2.778261567117063	9.815738	3.1330078
2.795793499162193	9.6684885	3.1094193
2.8133254966629817	9.438315	3.072184
2.830857560030551	9.359493	3.0593288
2.8483896896760337	9.420972	3.0693603
2.865921886010578	9.305938	3.0505636
2.883454149445347	9.302288	3.0499651
2.9009864803915177	9.217113	3.0359697
2.91851887926028	8.935973	2.9893098
2.9360513464628384	8.704331	2.9503105
2.953583882410413	8.535272	2.9215188
2.9711164875142373	8.526295	2.919982
2.9886491621855606	8.445504	2.906115
3.0061819068356455	8.245055	2.8714204
3.023714721875769	8.153665	2.8554623
3.041247607717225	8.049814	2.8372195
3.0587805647713213	8.121204	2.8497727
3.0763135934493806	8.131765	2.851625
3.0938466941627407	8.108664	2.8475716
3.1113798673227544	7.884853	2.807998
3.1289131133407904	7.623927	2.761146
3.1464464326282315	7.5275764	2.7436428
3.1639798255964786	7.465942	2.7323875
3.1815132926569443	7.382608	2.7170956
3.1990468342210603	7.213436	2.685784
3.216580450700272	7.008841	2.6474216
3.2341141425060416	6.9206924	2.6307209
3.251647910049847	6.884741	2.623879
3.2691817537431813	6.9589067	2.637974
3.286715673997555	6.9046645	2.627673
3.3042496712244938	6.9154806	2.6297302
3.32178374583554	6.7929316	2.6063254
3.339317898242251	6.732505	2.594707
3.3568521288562034	6.5575128	2.560764
3.3743864380889876	6.4307323	2.535889
3.3919208263522127	6.401527	2.530124
3.4094552940575023	6.468107	2.5432475
3.4269898416164972	6.468536	2.5433316
3.444524469440858	6.441539	2.5380187
3.4620591779422587	6.419514	2.533676
3.479593967532391	6.352411	2.5203989
3.4971288386229658	6.231123	2.4962218
3.5146637916257086	6.0723014	2.464204
3.5321988269523628	6.0458765	2.4588363
3.5497339450146903	6.047524	2.4591713
3.5672691462244708	6.1053457	2.4708998
3.5848044309934988	6.1094	2.47172
3.60233979973359	6.092782	2.4683561
3.619875252856575	6.026281	2.4548485
3.6374107907743034	5.9394474	2.4370983
3.6549464138986427	5.899583	2.4289057
3.6724821226414788	5.894361	2.4278305
3.690017917414714	6.0414295	2.457932
3.7075537986302702	6.0982623	2.469466
3.7250897667000857	6.144873	2.4788854
3.7426258220361235	6.2068467	2.4913545
3.7601619650503553	6.5666556	2.5625486
3.777698196154779	7.121468	2.668608
3.7952345157614067	8.249323	2.8721635
3.8127709242822716	9.043863	3.0073016
3.830307422129425	11.177304	3.3432477
3.847844009714936	29.854485	5.463926
3.8653806874508954	97.26882	9.862495
3.882917455749409	96.44445	9.820614
3.900454315022606	96.19895	9.808106
3.917991265682631	40.74937	6.3835235
3.9355283081416506	10.36179	3.2189734
3.9530654428118495	8.401211	2.8984842
3.970602670105433	7.2296076	2.688793
3.9881399904346244	6.4291196	2.5355709
4.005677404211669	6.3668537	2.5232625
4.023214911848827	6.2729936	2.5045946
4.0407525137583855	6.2749324	2.5049815
4.058290210352644	6.2728076	2.5045574
4.075828002043927	6.125983	2.4750724
4.0933658892445814	6.048443	2.4593582
4.110903872366966	5.9925337	2.4479651
4.128441951823468	6.04191	2.4580297
4.145980128026488	6.0962543	2.4690595
4.163518401388452	5.985207	2.4464684
4.181056772321807	5.958536	2.4410112
4.1985952412390155	5.900302	2.4290538
4.216133808552567	5.938792	2.4369638
4.233672474674966	6.0391803	2.4574745
4.251211240018741	6.2193747	2.4938674
4.268750104996445	6.4048734	2.530785
4.286289070020643	7.325345	2.7065375
4.303828135503928	8.936588	2.9894128
4.3213673018589125	29.321842	5.4149647
4.3389065694982305	90.51951	9.514174
4.356445938834537	165.6354	12.869942
4.3739854102805085	170.65512	13.063503
4.391524984248844	171.53304	13.097062
4.409064661152262	135.62628	11.645869
4.426604441403504	95.915794	9.793661
4.444144325415337	75.06728	8.664138
4.461684313600543	21.090206	4.592407
4.47922440637193	21.54402	4.6415534
4.496764604142329	19.831749	4.453285
4.5143049073245916	17.968725	4.238953
4.531845316331589	15.938642	3.992323
4.5493858315762195	13.1036215	3.6198924
4.566926453471405	11.027606	3.3207839
4.584467182430081	8.881634	2.980207
4.602008018865218	7.7620363	2.7860432
4.619548963189798	7.0896454	2.662639
4.637090015816834	6.7076836	2.5899196
4.654631177159353	6.472584	2.5441272
4.672172447630417	6.154324	2.480791
4.689713827643102	5.999224	2.4493313
4.7072553176105085	5.8554263	2.4197989
4.724796917945764	5.82302	2.4130933
4.742338629062015	5.7263274	2.3929746
4.759880451372434	5.599935	2.3664181
4.777422385290215	5.5532446	2.3565323
4.794964431228581	5.593519	2.3650622
4.812506589600768	5.6635313	2.3798175
4.830048860820047	5.5353246	2.352727
4.847591245299709	5.4657407	2.3378923
4.8651337434530655	5.379017	2.3192708
4.882676355693457	5.367773	2.3168454
4.900219082434242	5.31147	2.3046627
4.917761924088813	5.2873526	2.2994244
4.935304881070575	5.3235893	2.3072906
4.952847953792969	5.4421306	2.3328373
4.970391142669449	5.434785	2.3312626
4.9879344481135055	5.3879757	2.3212013
5.005477870538642	5.3192363	2.306347
5.023021410358394	5.2671547	2.2950282
5.040565067986324	5.238467	2.2887697
5.05810884383601	5.1928654	2.278786
5.075652738321066	5.2236104	2.285522
5.09319675185512	5.194911	2.2792346
5.110740884851836	5.1863923	2.2773652
5.128285137724894	5.2217083	2.2851057
5.145829510888007	5.232433	2.2874513
5.163374004754908	5.2911005	2.3002393
5.1809186197393595	5.2156405	2.2837777
5.198463356255145	5.147788	2.2688737
5.216008214716077	5.1418924	2.267574
5.233553195535998	5.12577	2.2640164
5.251098299128764	5.174184	2.2746832
5.268643525908272	5.2190304	2.2845197
5.286188876288432	5.247636	2.290772
5.3037343506831895	5.1660395	2.2728922
5.32127994950651	5.1381435	2.2667472
5.3388256731723915	5.1646433	2.2725852
5.356371522094851	5.146421	2.2685723
5.373917496687938	5.065663	2.2507029
5.391463597365729	4.9806995	2.231748
5.40900982454232	5.0349436	2.243868
5.426556178631843	5.1018085	2.2587183
5.444102660048449	5.1373596	2.2665744
5.4616492692063225	5.1261544	2.2641013
5.479196006519669	5.0223637	2.241063
5.496742872402727	5.0111356	2.2385566
5.514289867269756	4.98676	2.2331054
5.531836991535049	4.936487	2.2218206
5.549384245612924	4.9947305	2.2348893
5.566931629917724	5.015899	2.2396202
5.584479144863822	4.9990816	2.2358625
5.6020267908656205	4.9937124	2.2346616
5.619574568337545	4.969733	2.2292898
5.637122477694054	4.996189	2.2352157
5.654670519349629	5.038966	2.244764
5.672218693718784	5.0068164	2.2375917
5.689767001216059	4.9558706	2.2261784
5.707315442256021	4.8678823	2.2063277
5.724864017253266	4.831813	2.1981385
5.7424127266224225	4.8824987	2.2096376
5.75996157077814	4.934282	2.2213244
5.777510550135105	5.0072446	2.2376873
5.795059665108022	5.017518	2.2399817
5.812608916111639	5.080922	2.25409
5.830158303560715	5.2220855	2.2851882
5.847707827870055	5.2583284	2.2931046
5.86525748945448	5.29685	2.3014886
5.8828072887288485	5.3453083	2.3119922
5.900357226108044	5.421247	2.3283572
5.917907302006979	5.442693	2.332958
5.9354575168406	6.043456	2.4583442
5.9530078710238765	6.6771293	2.5840142
5.970558364971812	7.280049	2.6981566
5.988108999099438	7.6210766	2.7606297
6.005659773821818	8.0595	2.8389258
6.023210689554039	7.799541	2.7927659
6.040761746711227	8.263897	2.8746994
6.058312945708531	7.6809773	2.7714577
6.075864286961132	7.2039604	2.6840196
6.093415770884244	6.486069	2.5467763
6.1109673978931065	5.8905554	2.4270465
6.128519168402993	5.3589635	2.3149436
6.146071082829204	5.239179	2.2889254
6.163623141587075	5.050953	2.2474325
6.181175345091969	4.974411	2.2303388
6.198727693759281	4.9379025	2.2221391
6.216280188004435	4.9974	2.2354865
6.233832828242885	5.0207696	2.2407074
6.251385614890126	5.0729733	2.2523263
6.268938548361669	5.036771	2.244275
6.286491629073067	4.9660153	2.2284558
6.304044857439898	4.942926	2.2232692
6.321598233877777	4.8867645	2.2106028
6.339151758802344	4.838199	2.1995907
6.356705432629277	4.7657127	2.1830513
6.37425925577428	4.7419944	2.177612
6.391813228653095	4.712412	2.170809
6.409367351681486	4.70255	2.1685364
6.426921625275259	4.7182	2.1721418
6.44447604985025	4.7855906	2.1875992
6.46203062582232	4.8279276	2.1972547
6.47958535360737	4.867393	2.2062168
6.497140233621328	4.9091005	2.2156491
6.514695266280161	4.9620132	2.2275577
6.532250451999859	4.9351807	2.2215266
6.549805791196454	4.8604994	2.204654
6.567361284286002	4.888954	2.211098
6.584916931684597	4.8527946	2.202906
6.602472733808367	4.8689733	2.206575
6.6200286910734665	4.8472714	2.201652
6.637584803896092	4.819638	2.1953673
6.655141072692462	4.8187118	2.1951563
6.672697497878842	4.8815217	2.2094166
6.690254079871514	4.9184804	2.2177646
6.707810819086808	4.981302	2.231883
6.725367715941078	4.985333	2.232786
6.742924770850719	4.971683	2.229727
6.760481984232151	4.91208	2.2163212
6.778039356501836	4.868422	2.20645
6.795596888076266	4.8690343	2.2065887
6.813154579371963	4.8641148	2.205474
6.830712430805492	4.909271	2.2156875
6.84827044279344	4.953787	2.2257104
6.865828615752445	4.901919	2.2140276
6.883386950099159	4.8496594	2.2021942
6.900945446250287	4.805918	2.1922405
6.918504104622553	4.816521	2.1946573
6.936062925632727	4.886973	2.21065
6.953621909697607	4.8459964	2.2013624
6.971181057234028	4.908835	2.215589
6.988740368658859	5.0068	2.237588
7.006299844389007	5.067857	2.2511902
7.023859484841407	5.091288	2.2563882
7.041419290433036	5.109351	2.2603874
7.058979261580902	5.2716146	2.2959998
7.0765393987020495	5.474596	2.3397856
7.094099702213559	5.8581386	2.4203591
7.111660172532549	6.188825	2.487735
7.129220810076164	6.5271797	2.5548346
7.146781615261595	7.066193	2.6582313
7.16434258850606	7.3161254	2.7048337
7.181903730226821	7.7597723	2.785637
7.1994650408411704	7.8883433	2.8086195
7.217026520766437	7.9674783	2.8226721
7.234588170419983	8.132534	2.85176
7.252149990219215	8.136331	2.8524253
7.269711980581568	8.09451	2.8450851
7.2872741419245175	7.935326	2.816971
7.304836474665574	7.536588	2.7452848
7.322398979222286	7.1324296	2.670661
7.339961656012233	6.848023	2.6168728
7.357524505453039	6.5575852	2.5607781
7.375087527962357	6.3814316	2.5261495
7.392650723957886	6.120299	2.4739237
7.410214093857353	5.7374578	2.3952992
7.427777638078528	5.425424	2.329254
7.445341357039213	5.2512627	2.2915633
7.4629052511572525	5.14652	2.2685943
7.480469320850524	5.1313562	2.2652497
7.498033566536948	5.1408124	2.267336
7.5155979886344735	5.1472726	2.2687602
7.5331625875610975	5.0794845	2.253771
7.550727363734844	5.0304484	2.242866
7.568292317573788	4.996843	2.2353618
7.585857449496025	4.9674935	2.2287874
7.603422759919705	4.9811325	2.2318451
7.620988249263007	4.987006	2.2331605
7.638553917944147	5.0489984	2.2469976
7.656119766381391	5.0267253	2.2420359
7.673685794993023	5.078336	2.2535162
7.691252004197388	5.077998	2.2534413
7.70881839441285	5.1045012	2.2593143
7.726384966057826	5.103713	2.2591398
7.743951719550762	5.117352	2.2621565
7.761518655310149	5.105046	2.259435
7.779085773754511	5.0990868	2.2581158
7.796653075302419	5.1045055	2.2593153
7.814220560372475	5.080227	2.2539358
7.831788229383323	5.1201544	2.262776
7.8493560827536495	5.090535	2.2562215
7.866924120902174	5.118354	2.262378
7.884492344247663	5.1362557	2.266331
7.9020607532089135	5.153667	2.270169
7.919629348204771	5.160098	2.271585
7.937198129654115	5.1534896	2.27013
7.954767097975865	5.145919	2.2684617
7.972336253588986	5.2360296	2.2882373
7.989905596912472	5.2436743	2.289907
8.007475128365371	5.2223577	2.2852478
8.025044848366756	5.2462287	2.2904646
8.042614757335754	5.3861647	2.3208113
8.060184855691523	5.498461	2.3448796
8.07775514385327	5.5910077	2.3645313
8.095325622240228	5.6061664	2.3677344
8.112896291271687	5.622451	2.3711708
8.130467151366968	5.679143	2.3830953
8.148038202945436	5.700399	2.3875508
8.165609446426497	5.697244	2.3868902
8.183180882229594	5.6938543	2.38618
8.200752510774217	5.6680126	2.3807588
8.218324332479893	5.714545	2.3905115
8.235896347766193	5.768684	2.4018085
8.253468557052724	5.8489313	2.4184563
8.27104096075914	5.8828025	2.425449
8.288613559305137	5.8999243	2.428976
8.306186353110448	5.884751	2.4258506
8.32375934259485	5.893062	2.427563
8.341332528178162	5.9398365	2.437178
8.358905910280246	6.00194	2.4498856
8.376479489321003	5.972658	2.4439023
8.394053265720377	6.0407157	2.4577868
8.411627239898356	6.118994	2.47366
8.42920141227497	6.192386	2.4884505
8.44677578327029	6.181691	2.4863007
8.464350353304427	6.0202026	2.4536102
8.48192512279754	5.9688225	2.4431174
8.499500092169827	5.9727845	2.443928
8.51707526184153	6.0339546	2.456411
8.534650632232934	6.022868	2.4541533
8.552226203764365	6.000593	2.4496107
8.569801976856192	6.022228	2.454023
8.587377951928834	6.0723	2.4642038
8.60495412940274	6.1286325	2.4756074
8.622530509698416	6.1486526	2.4796476
8.6401070932364	6.2583814	2.5016756
8.657683880437283	6.29025	2.508037
8.675260871721695	6.4003587	2.529893
8.692838067510303	6.533987	2.5561664
8.710415468223834	6.7185807	2.5920224
8.727993074283043	6.9086375	2.6284287
8.745570886108737	6.9277244	2.632057
8.763148904121765	6.9933815	2.6445003
8.78072712874302	6.9509087	2.6364577
8.798305560393441	7.191842	2.681761
8.815884199494006	7.333402	2.7080255
8.833463046465745	7.512673	2.7409256
8.851042101729728	7.598399	2.7565193
8.86862136570707	7.913222	2.813045
8.886200838818924	8.0864105	2.8436615
8.903780521486505	8.191082	2.8620067
8.921360414131055	8.25758	2.8736005
8.938940517173874	8.412791	2.9004812
8.956520831036297	8.545009	2.9231846
8.97410135613971	8.771233	2.9616268
8.99168209290554	8.908798	2.984761
9.009263041755265	9.219243	3.0363207
9.026844203110405	9.496371	3.0816183
9.044425577392525	9.650133	3.1064663
9.062007165023239	9.721629	3.1179528
9.079588966424197	9.886614	3.1442986
9.097170982017108	9.975157	3.1583471
9.11475321222372	11.03473	3.3218565
9.132335657465825	12.003537	3.464612
9.149918318165264	12.088232	3.4768136
9.167501194743924	12.718315	3.5662746
9.18508428762374	12.376781	3.518065
9.202667597226693	12.352916	3.5146716
9.220251123974803	11.926819	3.4535227
9.237834868290143	11.622625	3.409197
9.255418830594836	11.43547	3.381637
9.273003011311046	10.916141	3.3039584
9.290587410860985	10.817242	3.2889576
9.308172029666911	10.238054	3.199696
9.32575686815113	9.9297695	3.1511536
9.343341926735997	8.540286	2.9223769
9.360927205843916	8.321556	2.8847108
9.378512705897327	8.158954	2.8563883
9.396098427318728	7.9919515	2.827004
9.413684370530664	7.9100385	2.812479
9.431270535955722	7.801535	2.7931228
9.448856924016539	7.6946297	2.7739196
9.466443535135806	7.535575	2.7451003
9.484030369736251	7.51093	2.7406075
9.501617428240658	7.4493694	2.7293532
9.519204711071852	7.4400544	2.7276464
9.536792218652714	7.480886	2.7351208
9.55437995140617	7.537245	2.7454042
9.571967909755191	7.5827956	2.7536876
9.589556094122802	7.654064	2.766598
9.60714450493207	7.684429	2.7720802
9.624733142606116	7.730112	2.780308
9.642322007568108	7.7341027	2.7810254
9.659911100241267	7.7644434	2.7864752
9.677500421048851	7.84526	2.800939
9.695089970414175	7.9235325	2.814877
9.712679748760609	7.92414	2.8149848
9.730269756511557	7.9541707	2.820314
9.747859994090492	7.967353	2.82265
9.765450461920915	8.0488405	2.8370478
9.78304116042639	8.069578	2.8407004
9.800632090030527	8.159222	2.856435
9.81822325115699	8.091933	2.8446324
9.835814644229481	8.022333	2.8323724
9.853406269671762	7.9272327	2.815534
9.870998127907646	7.9538026	2.8202486
9.888590219360985	8.049739	2.8372061
9.906182544455698	8.093818	2.8449636
9.923775103615734	8.028068	2.8333845
9.941367897265108	8.01188	2.8305264
9.958960925827878	7.992452	2.8270924
9.97655418972816	8.033645	2.8343685
9.994147689390106	8.057988	2.8386595
10.011741425237934	8.077144	2.8420317
10.029335397695904	8.084956	2.8434057
10.04692960718833	8.116838	2.8490067
10.06452405413958	8.008606	2.829948
10.082118738974064	7.994781	2.8275044
10.099713662116246	7.9562507	2.8206828
10.117308823990651	7.956252	2.820683
10.134904225021844	8.061664	2.8393068
10.152499865634445	8.069007	2.8405998
10.170095746253125	8.049169	2.8371058
10.18769186730261	7.9515414	2.8198478
10.205288229207675	7.9306927	2.8161485
10.222884832393145	7.9079494	2.8121076
10.2404816772839	7.9367704	2.8172274
10.258078764304868	7.9222302	2.8146458
10.275676093881035	7.915404	2.8134327
10.293273666437438	7.919902	2.814232
10.310871482399158	7.9870286	2.8261333
10.32846954219134	7.917071	2.813729
10.346067846239173	7.90123	2.8109126
10.363666394967908	7.866741	2.8047712
10.38126518880283	7.8219476	2.7967744
10.398864228169298	7.8481503	2.801455
10.416463513492713	7.883004	2.807669
10.434063045198531	7.923285	2.814833
10.451662823712262	8.003562	2.8290567
10.469262849459467	7.992315	2.8270683
10.486863122865758	7.939628	2.8177345
10.504463644356806	7.8537107	2.8024473
10.522064414358338	7.742624	2.782557
10.539665433296118	7.6235504	2.761078
10.557266701595987	7.563901	2.7502546
10.574868219683818	7.518531	2.741994
10.592469987985552	7.423342	2.724581
10.610072006927185	7.355248	2.7120562
10.627674276934751	7.300974	2.7020314
10.64527679843435	7.2542253	2.693367
10.662879571852143	7.163433	2.676459
10.680482597614331	7.058017	2.6566927
10.698085876147173	6.950619	2.6364026
10.715689407876988	6.861655	2.619476
10.733293193230146	6.7435555	2.5968356
10.750897232633072	6.560153	2.5612795
10.76850152651225	6.4278417	2.5353189
10.786106075294207	6.36286	2.522471
10.803710879405534	6.3743167	2.524741
10.821315939272877	6.327479	2.515448
10.83892125532294	6.2664046	2.5032787
10.856526827982472	6.1533985	2.4806044
10.874132657678285	6.096615	2.4691324
10.891738744837243	6.0745234	2.464655
10.909345089886271	6.052704	2.4602244
10.926951693252343	5.9611807	2.4415529
10.944558555362494	5.8936067	2.4276752
10.96216567664381	5.828224	2.4141715
10.979773057523436	5.7755175	2.4032307
10.997380698428573	5.6698112	2.3811367
11.014988599786477	5.602524	2.366965
11.032596762024461	5.5410724	2.3539484
11.050205185569892	5.529213	2.3514278
11.067813870850198	5.4941106	2.343952
11.085422818292859	5.42822	2.329854
11.10303202832541	5.3477454	2.3125193
11.120641501375454	5.2625775	2.294031
11.138251237870636	5.1496353	2.269281
11.155861238238671	5.0331793	2.2434747
11.173471502907317	5.0042586	2.23702
11.191082032304402	4.962536	2.227675
11.208692826857805	4.926459	2.2195628
11.226303886995465	4.8414464	2.2003286
11.243915213145371	4.794352	2.189601
11.261526805735578	4.7773976	2.185726
11.279138665194196	4.7659163	2.1830978
11.296750791949393	4.761371	2.1820567
11.314363186429393	4.661057	2.1589482
11.331975849062479	4.5698504	2.1377208
11.34958878027699	4.5009346	2.1215405
11.36720198050133	4.4781494	2.1161637
11.384815450163948	4.4854584	2.1178901
11.402429189693366	4.3728185	2.0911286
11.420043199518153	4.304999	2.0748491
11.437657480066942	63.229286	7.9516845
11.455272031768422	84.99468	9.219256
11.472886855051353	107.45994	10.366288
11.490501950344528	99.082275	9.954008
11.508117318076819	84.40337	9.187131
11.52573295867715	45.785393	6.7664905
11.543348872574514	4.069893	2.0173976
11.560965060197946	4.0180607	2.0045102
11.57858152197655	3.9788783	1.9947126
11.59619825833949	3.929438	1.9822811
11.613815269715985	3.8920672	1.9728323
11.631432556535323	38.394455	6.196326
11.649050119226837	82.942795	9.107293
11.666667958219929	93.36205	9.662404
11.68428607394406	107.62205	10.3741045
11.701904466828756	82.46048	9.080775
11.719523137303586	65.26353	8.078585
11.737142085798196	4.525541	2.127332
11.754761312742286	3.6181896	1.902154
11.772380818565619	3.5922263	1.895317
11.790000603698015	3.5482004	1.8836668
11.80762066856935	3.4934382	1.8690742
11.825241013609572	3.4598787	1.8600749
11.842861639248683	3.3885577	1.8408035
11.860482545916748	3.3629706	1.8338404
11.878103734043883	3.3497422	1.8302301
11.895725204060282	3.3392878	1.8273718
11.91334695639619	3.3279889	1.8242776
11.930968991481919	3.3196878	1.8220011
11.948591309747824	3.2793925	1.8109093
11.966213911624347	3.2380092	1.799447
11.98383679754198	3.2057855	1.7904707
12.001459967931268	3.1936817	1.7870874
12.019083423222835	3.1795292	1.7831235
12.036707163847352	3.168624	1.7800629
12.05433119023556	3.1452773	1.7734929
12.071955502818259	3.130494	1.7693202
12.089580102026313	3.105111	1.7621325
12.107204988290643	3.1015875	1.7611325
12.12483016204224	3.0693848	1.751966
12.142455623712152	3.077011	1.7541411
12.16008137373149	3.066242	1.7510688
12.177707412531431	3.0387926	1.7432133
12.19533374054321	2.9979281	1.7314526
12.212960358198126	2.9602172	1.7205282
12.230587265927545	2.9302285	1.711791
12.248214464162889	2.9184723	1.7083536
12.265841953335649	2.9138746	1.7070075
12.283469733877375	2.9166763	1.7078279
12.301097806219685	2.9305222	1.7118767
12.31872617079425	2.9338932	1.7128611
12.336354828032825	2.933762	1.7128228
12.353983778367205	2.9239006	1.7099417
12.371613022229262	2.911917	1.706434
12.389242560050928	2.876055	1.6958935
12.406872392264201	2.840087	1.6852558
12.424502519301143	2.7610278	1.6616341
12.442132941593874	2.7323692	1.652988
12.459763659574586	2.7396317	1.6551833
12.477394673675532	2.791678	1.6708316
12.49502598432903	2.7928867	1.6711932
12.51265759196746	2.7738032	1.6654738
12.530289497023267	2.7561889	1.6601774
12.547921699928967	2.7737334	1.665453
12.565554201117134	2.7643344	1.6626288
12.583187001020404	2.737469	1.6545298
12.600820100071486	2.718661	1.6488363
12.618453498703152	2.7352881	1.6538707
12.636087197348235	2.7580302	1.6607318
12.65372119643964	2.74293	1.6561793
12.671355496410326	2.7163146	1.6481246
12.68899009769333	2.6982152	1.6426245
12.706625000721749	2.7348332	1.6537331
12.724260205928752	2.784544	1.6686953
12.741895713747551	2.7988598	1.6729794
12.759531524611454	2.8557005	1.6898818
12.777167638953818	2.8679183	1.6934929
12.794804057208072	2.8859582	1.6988108
12.812440779807702	2.9036484	1.7040095
12.830077807186271	3.0624783	1.7499938
12.847715139777405	3.1241004	1.7675126
12.865352778014795	3.3305812	1.824988
12.882990722332197	3.4316955	1.8524836
12.90062897316344	3.5303094	1.8789117
12.918267530942412	3.599684	1.8972833
12.935906396103071	3.5016549	1.8712709
12.953545569079449	3.6507576	1.9106956
12.971185050305628	3.4706757	1.862975
12.988824840215775	3.5062046	1.8724862
13.006464939244115	3.499715	1.8707526
13.024105347824943	3.364024	1.8341275
13.041746066392617	3.403288	1.8448002
13.05938709538157	3.2338898	1.7983019
13.077028435226296	3.2470944	1.8019695
13.094670086361363	3.1878607	1.7854581
13.112312049221401	3.1032827	1.7616136
13.129954324241112	2.9821572	1.7268924
13.147596911855258	2.8022735	1.6739993
13.165239812498685	2.7657542	1.6630557
13.182883026606293	2.7009504	1.6434568
13.200526554613058	2.6728413	1.6348827
13.218170396954017	2.6182408	1.6180979
13.235814554064284	2.5948825	1.6108639
13.253459026379034	2.6066399	1.6145092
13.271103814333523	2.6402507	1.6248848
13.288748918363058	2.6713517	1.6344271
13.306394338903031	2.6710854	1.6343455
13.32404007638889	2.6336825	1.6228625
13.341686131256164	2.6391833	1.6245563
13.359332503940449	2.6037195	1.6136045
13.376979194877402	2.6020348	1.6130824
13.394626204502751	2.6423025	1.625516
13.412273533252307	2.6604688	1.6310943
13.429921181561937	2.6875567	1.6393769
13.447569149867581	2.6514003	1.6283121
13.465217438605247	2.6474607	1.6271019
13.482866048211022	2.6299913	1.6217248
13.500514979121052	2.657511	1.6301874
13.518164231771568	2.6306074	1.6219147
13.535813806598844	2.618762	1.618259
13.553463704039254	2.618056	1.6180408
13.571113924529229	2.6330094	1.622655
13.588764468505275	2.636736	1.6238029
13.606415336403956	2.666317	1.632886
13.624066528661917	2.6572301	1.6301013
13.641718045715882	2.7047188	1.6446029
13.659369888002635	2.7523685	1.6590264
13.67702205595903	2.8295085	1.6821144
13.694674550021993	2.9070866	1.705018
13.712327370628532	2.950824	1.7177963
13.729980518215713	3.025906	1.7395132
13.747633993220681	3.0951066	1.7592915
13.765287796080647	3.14686	1.7739391
13.7829419272329	3.215773	1.7932577
13.800596387114801	3.1877809	1.7854358
13.818251176163775	3.2059033	1.7905036
13.835906294817324	3.213331	1.7925767
13.853561743513023	3.2516036	1.8032204
13.871217522688525	3.3170278	1.821271
13.888873632781538	3.3891716	1.8409703
13.906530074229858	3.4470623	1.8566266
13.92418684747135	3.4684153	1.8623682
13.941843952943948	3.473572	1.8637521
13.959501391085665	3.4090626	1.8463647
13.977159162334578	3.3361833	1.8265222
13.994817267128846	3.3290634	1.8245721
14.012475705906693	3.2409043	1.8002511
14.030134479106424	3.1748104	1.7817998
14.047793587166414	3.0740077	1.7532848
14.065453030525108	3.012544	1.7356682
14.083112809621026	2.9335723	1.7127675
14.100772924892766	2.8895655	1.6998721
14.118433376778997	2.8335514	1.6833156
14.136094165718458	2.7874403	1.6695629
14.153755292149969	2.7160325	1.648039
14.171416756512416	2.694528	1.6415018
14.189078559244768	2.6557345	1.6296425
14.20674070078606	2.574324	1.60447
14.224403181575408	2.520155	1.5874996
14.242066002051999	2.463031	1.5694047
14.259729162655093	2.424501	1.5570809
14.277392663824022	2.4102407	1.552495
14.295056505998208	2.3687184	1.5390642
14.312720689617128	2.346966	1.5319811
14.330385215120348	2.3545282	1.5344472
14.348050082947497	2.3445272	1.5311849
14.3657152935383	2.3127804	1.5207828
14.383380847332528	2.2960877	1.5152847
14.401046744770051	2.3338704	1.527701
14.418712986290798	2.3394246	1.5295178
14.436379572334793	2.3265412	1.5253004
14.454046503342123	2.3156507	1.5217263
14.471713779752946	2.3636856	1.5374283
14.489381402007504	2.387877	1.5452757
14.507049370546113	2.3817525	1.5432928
14.524717685809168	2.308996	1.519538
14.542386348237134	2.291046	1.5136201
14.560055358270553	2.3078258	1.519153
14.577724716350051	2.3632329	1.537281
14.595394422916325	2.411369	1.5528584
14.61306447841015	2.4296553	1.5587351
14.63073488327237	2.4783568	1.5742798
14.648405637943917	2.478223	1.5742373
14.6660767428658	2.448208	1.5646751
14.683748198479094	2.4247065	1.5571469
14.701420005224954	2.4645288	1.5698818
14.719092163544628	2.5311172	1.5909486
14.73676467387942	2.609044	1.6152536
14.754437536670727	2.627141	1.6208458
14.772110752360014	2.6308799	1.6219988
14.78978432138882	2.5947003	1.6108073
14.807458244198777	2.6273258	1.6209028
14.82513252123159	2.6505055	1.6280373
14.842807152929028	2.6747305	1.6354604
14.860482139732962	2.6155815	1.617276
14.87815748208531	2.57814	1.6056588
14.8958331804281	2.5801058	1.6062708
14.91350923520342	2.5695238	1.6029735
14.931185646853438	2.6365778	1.6237543
14.948862415820408	2.6495826	1.6277539
14.966539542546656	2.6486464	1.6274662
14.98421702747459	2.5980647	1.6118513
15.001894871046696	2.6094387	1.6153758
15.019573073705542	2.648168	1.6273193
15.037251635893766	2.6200635	1.618661
15.054930558054092	2.644666	1.6262429
15.072609840629323	2.6351388	1.623311
15.090289484062351	2.7093759	1.6460181
15.107969488796124	2.8308818	1.6825224
15.125649855273691	3.0084832	1.7344979
15.14333058393817	3.4034882	1.8448545
15.161011675232768	3.9914806	1.997869
15.17869312960076	4.623472	2.150226
15.196374947485506	5.2677054	2.2951481
15.214057129330447	6.5987005	2.5687935
15.231739675579114	8.6475725	2.9406755
15.249422586675102	13.277793	3.6438706
15.267105863062092	17.934704	4.2349386
15.284789505183847	25.316097	5.0315104
15.302473513484218	30.54195	5.5264773
15.320157888407127	34.87214	5.905264
15.337842630396578	33.67287	5.802833
15.355527739896656	30.667099	5.5377884
15.37321321735153	23.848461	4.8834887
15.39089906320545	16.122133	4.015238
15.408585277902748	10.193994	3.1928034
15.42627186188783	6.2554607	2.501092
15.443958815605198	4.4883375	2.1185696
15.461646139499424	3.7232213	1.9295651
15.479333834015168	3.2570717	1.8047359
15.497021899597165	2.9265745	1.7107234
15.514710336690234	2.695731	1.6418681
15.53239914573928	2.5972939	1.6116122
15.550088327189297	2.510435	1.5844352
15.567777881485336	2.4559658	1.5671521
15.58546780907256	2.4440773	1.5633545
15.6031581103962	2.4625185	1.5692414
15.620848785901568	2.4465911	1.5641583
15.638539836034063	2.443206	1.5630758
15.656231261239173	2.433671	1.5600227
15.673923061962451	2.4294128	1.5586574
15.691615238649552	2.419533	1.5554848
15.709307791746202	2.3783004	1.542174
15.727000721698221	2.368676	1.5390503
15.744694028951498	2.348635	1.5325257
15.76238771395202	2.353438	1.5340918
15.780081777145844	2.3713293	1.5399121
15.797776218979125	2.3808594	1.5430033
15.815471039898094	2.362849	1.5371561
15.833166240349064	2.3653355	1.5379647
15.850861820778437	2.3877454	1.5452331
15.868557781632699	2.4373152	1.5611904
15.886254123358412	2.4605138	1.5686026
15.903950846402232	2.4638999	1.5696814
15.921647951210897	2.4493406	1.5650369
15.939345438231225	2.446481	1.564123
15.957043307910133	2.4616668	1.56897
15.974741560694602	2.480108	1.5748359
15.992440197031714	2.477555	1.5740252
16.01013921736862	2.4853263	1.5764917
16.02783862215259	2.464603	1.5699054
16.045538411830933	2.4498682	1.5652055
16.06323858685107	2.39781	1.5484864
16.080939147660512	2.399444	1.549014
16.09864009470684	2.3460512	1.5316825
16.11634142843774	2.3335907	1.5276095
16.134043149300954	2.3031325	1.5176075
16.15174525774433	2.3064282	1.518693
16.169447754215817	2.2992818	1.5163383
16.18715063916342	2.3386507	1.5292648
16.204853913035244	2.3664327	1.5383214
16.222557576279478	2.3761072	1.5414627
16.240261629344403	22.356356	4.728251
16.257966072678386	42.92519	6.551732
16.275670906729868	38.078724	6.170796
16.293376131947387	2.502957	1.5820737
16.31108174877957	2.4915767	1.5784729
16.328787757675133	2.4971094	1.5802245
16.34649415908287	2.507171	1.5834049
16.364200953451657	2.556132	1.5987908
16.38190814123048	2.6152525	1.6171743
16.39961572286839	2.69377	1.6412709
16.41732369881455	2.725394	1.6508768
16.43503206951817	2.729907	1.652243
16.45274083542859	2.729723	1.6521873
16.47044999699522	2.7691934	1.6640893
16.488159554667558	2.824839	1.6807258
16.505869508895184	2.860974	1.6914414
16.523579860127786	2.8361766	1.6840951
16.541290608815117	2.873647	1.6951835
16.559001755407035	2.9557962	1.7192429
16.57671330035348	3.0998058	1.7606266
16.59442524410448	3.2382116	1.7995032
16.61213758711015	3.4074743	1.8459345
16.629850329820705	3.4716477	1.8632358
16.647563472686436	3.4603052	1.8601896
16.665277016157724	3.342056	1.828129
16.682990960685053	3.3368032	1.8266919
16.70070530671898	3.3496065	1.830193
16.718420054710155	3.4321795	1.8526142
16.736135205109335	3.4789505	1.8651944
16.753850758367335	3.541276	1.8818278
16.771566714935087	3.5898607	1.8946928
16.789283075263597	3.6363058	1.9069101
16.80699983980398	3.6744537	1.9168864
16.82471700900741	3.791391	1.9471494
16.84243458332518	3.89734	1.9741682
16.860152563208665	3.9692533	1.9922985
16.87787094910932	3.931041	1.9826853
16.89558974147871	3.9661322	1.991515
16.913308940768466	4.0045543	2.0011382
16.931028547430333	4.094994	2.0236092
16.94874856191613	4.163655	2.0405035
16.966468984677785	4.2257857	2.0556717
16.98418981616729	4.3194113	2.0783193
17.00191105683676	4.3759494	2.091877
17.019632707138374	4.373114	2.0911992
17.03735476752442	4.371847	2.0908964
17.05507723844728	4.398768	2.097324
17.072800120359403	4.435438	2.106048
17.090523413713353	4.461901	2.1123214
17.108247118961785	4.4756904	2.1155827
17.125971236557437	4.4619184	2.1123254
17.143695766953133	4.541449	2.1310675
17.161420710601806	4.584971	2.1412544
17.179146067956477	4.6080604	2.1466393
17.19687183947025	4.549089	2.1328592
17.21459802559634	4.5856137	2.1414046
17.232324626788028	4.645863	2.1554265
17.25005164349871	4.6403646	2.1541505
17.267779076181863	4.559169	2.135221
17.285506925291074	4.505771	2.1226802
17.30323519127999	4.4614882	2.1122236
17.320963874602384	4.4537406	2.1103888
17.33869297571211	4.4218073	2.1028094
17.356422495063114	4.406573	2.0991838
17.37415243310944	4.4032845	2.0984006
17.391882790305218	4.4256077	2.1037128
17.40961356710468	4.4682302	2.113819
17.42734476396215	4.498469	2.1209595
17.445076381332044	4.571288	2.138057
17.462808419668868	4.617469	2.1488297
17.48054087942723	4.6794133	2.1631951
17.498273761061835	4.7348247	2.1759653
17.51600706502747	5.049659	2.2471447
17.533740791779024	5.661778	2.3794491
17.551474941771485	6.594459	2.567968
17.56920951545993	8.4986725	2.9152482
17.586944513299528	9.700618	3.1145816
17.60467993574556	12.504886	3.5362248
17.622415783253373	15.236657	3.9034162
17.64015205627843	18.229319	4.269581
17.657888755276293	20.85977	4.56725
17.675625880702604	22.50407	4.7438455
17.69336343301311	21.09177	4.592578
17.71110141266366	18.912773	4.3488817
17.728839820110178	16.013723	4.001715
17.746578655808705	12.702346	3.564035
17.764317920215372	10.5237465	3.2440324
17.7820576137864	8.784686	2.9638972
17.79979773697811	7.484962	2.7358658
17.81753829024692	6.11192	2.4722297
17.835279274049356	5.282957	2.2984684
17.85302068884201	4.4438915	2.108054
17.870762535081607	4.0277114	2.0069158
17.888504813224934	3.806085	1.950919
17.90624752372891	3.7072601	1.9254247
17.923990667050536	3.6317887	1.9057252
17.941734243646895	3.5518887	1.8846455
17.959478253975185	3.458642	1.8597424
17.9772226984927	3.355382	1.8317702
17.994967577656833	3.298634	1.8162142
18.01271289192506	3.2900007	1.8138359
18.030458641754965	3.305257	1.8180366
18.04820482760425	3.2988575	1.8162757
18.06595144993067	3.2813616	1.8114529
18.083698509192125	3.2694016	1.8081486
18.101446005846576	3.2359006	1.7988609
18.119193940352105	3.1937206	1.7870984
18.136942313166887	3.1429398	1.7728338
18.1546911247492	3.097248	1.7599
18.1724403755574	3.0801973	1.7550491
18.19019006604997	3.06256	1.7500172
18.207940196685467	3.0348084	1.7420702
18.225690767922575	3.0743814	1.7533914
18.243441780220046	3.0826197	1.7557391
18.261193234036764	3.0437424	1.7446325
18.278945129831676	3.0122876	1.7355943
18.29669746806386	3.0413437	1.7439449
18.314450249192483	3.0508456	1.746667
18.3322034736768	3.0244343	1.7390901
18.349957141976184	2.9878182	1.7285306
18.3677112545501	2.9823442	1.7269465
18.385465811858108	3.021801	1.7383329
18.403220814359884	3.0399795	1.7435536
18.420976262515172	3.0730062	1.7529992
18.43873215678387	3.092386	1.7585181
18.456488497625923	3.1241455	1.7675252
18.474245285501407	3.195662	1.7876415
18.492002520870486	3.261296	1.8059058
18.50976020419343	3.2940288	1.8149459
18.527518335930615	3.556979	1.8859955
18.545276916542516	4.0954027	2.0237103
18.563035946489688	4.260089	2.0639982
18.580795426232832	4.6738267	2.1619034
18.598555356232698	4.593674	2.1432858
18.616315736950185	4.9307823	2.2205365
18.63407656884626	4.59757	2.1441944
18.65183785238201	4.733087	2.175566
18.669599588018617	4.50677	2.1229155
18.68736177621737	4.468293	2.1138337
18.705124417439652	4.4634304	2.1126833
18.72288751214696	4.2965064	2.0728016
18.740651060800886	4.4133425	2.1007957
18.758415063863115	4.1771183	2.0437999
18.77617952179546	4.3145833	2.0771575
18.793944435059814	4.10413	2.025865
18.811709804118184	4.0725207	2.0180488
18.829475629432675	4.030693	2.0076585
18.8472419114655	3.843992	1.9606102
18.86500865067897	3.9275653	1.9818085
18.88277584753551	3.6342452	1.9063697
18.90054350249763	3.6439242	1.9089066
18.918311616027957	3.3687453	1.8354142
18.936080188589226	3.2427218	1.8007559
18.953849220644265	2.9644861	1.7217683
18.971618712656007	2.8134723	1.6773409
18.9893886650875	2.7665884	1.6633065
19.007159078401887	7.9477706	2.819179
19.024929953062408	32.81133	5.7281175
19.042701289532435	32.723248	5.7204237
19.060473088275405	25.234293	5.0233746
19.07824534975489	2.50973	1.5842128
19.096018074434568	2.485837	1.5766537
19.113791262778197	2.4814441	1.57526
19.13156491524966	2.5171654	1.5865577
19.149339032312945	2.542401	1.5944909
19.167113614432136	2.5639691	1.6012399
19.184888662071433	2.5414546	1.594194
19.202664175695123	2.5204985	1.5876077
19.220440155767623	2.5262089	1.5894052
19.238216602753447	2.5345016	1.5920118
19.2559935171172	2.519495	1.5872917
19.27377089932361	2.5166516	1.5863957
19.291548749837514	2.4870486	1.5770379
19.309327069123835	2.4916427	1.5784938
19.32710585764763	2.4605255	1.5686063
19.344885115874032	2.4524136	1.5660183
19.362664844268313	2.4389968	1.5617288
19.380445043295822	2.4411845	1.5624291
19.39822571342203	2.4369624	1.5610774
19.41600685511252	2.4236207	1.5567982
19.43378846883297	2.3914447	1.5464296
19.451570555049173	2.3675559	1.5386864
19.469353114227037	2.3903656	1.5460807
19.48713614683254	2.4329672	1.5597972
19.50491965333182	2.4612577	1.5688396
19.52270363419109	2.4264565	1.5577087
19.540488089876686	2.4014714	1.5496682
19.55827302085503	2.3919647	1.5465977
19.576058427592674	2.4208665	1.5559134
19.593844310556282	2.444687	1.5635494
19.611630670212598	2.418966	1.5553026
19.629417507028506	2.3995638	1.5490526
19.64720482147098	2.432105	1.5595207
19.6649926140071	2.4748948	1.5731798
19.682780885104084	2.4887338	1.5775721
19.70056963522921	2.451474	1.5657183
19.718358864849908	2.4360633	1.5607893
19.7361485744337	2.4285939	1.5583947
19.753938764448215	2.4149096	1.553998
19.771729435361202	2.4306982	1.5590696
19.789520587640506	2.4918895	1.5785719
19.807312221754092	2.552199	1.5975603
19.825104338170043	2.5378842	1.5930738
19.842896937356517	2.5067673	1.5832773
19.860690019781824	2.490021	1.57798
19.87848358591436	2.4829664	1.5757431
19.896277636222635	2.4521806	1.565944
19.914072171175278	2.4349785	1.5604417
19.931867191241015	2.458332	1.5679069
19.94966269688869	2.4930725	1.5789466
19.967458688587264	2.4720864	1.572287
19.985255166805807	2.444897	1.5636166
20.00305213201348	2.3861434	1.5447147
20.020849584679578	2.3738408	1.5407274
20.038647525273507	2.3813424	1.5431598
20.05644595426477	2.389162	1.5456915
20.07424487212299	2.3676102	1.538704
20.092044279317903	2.3954165	1.5477133
20.109844176319353	2.4136107	1.5535799
20.127644563597304	2.4380846	1.5614367
20.145445441621817	2.4013686	1.549635
20.16324681086307	2.3869665	1.544981
20.181048671791373	2.3818364	1.54332
20.198851024877122	2.359156	1.5359544
20.216653870590836	2.3750496	1.5411196
20.234457209403146	2.3230965	1.5241708
20.252261041784802	2.3180988	1.5225304
20.270065368206662	2.2930052	1.5142672
20.287870189139685	2.3029532	1.5175484
20.305675505054968	2.3188534	1.5227782
20.323481316423702	2.335019	1.5280769
20.341287623717207	2.342875	1.5306453
20.359094427406884	2.3428447	1.5306354
20.376901727964288	2.3256772	1.5250171
20.39470952586107	2.3124123	1.5206618
20.41251782156899	2.292457	1.5140862
20.430326615559935	2.2765129	1.5088117
20.448135908305886	2.2567973	1.502264
20.465945700278965	2.250689	1.5002297
20.483755991951384	2.248221	1.4994068
20.50156678379548	2.2811985	1.5103637
20.519378076283708	2.3041835	1.5179538
20.537189869888635	2.3021662	1.5172892
20.55500216508294	2.3214636	1.523635
20.572814962339415	2.297189	1.515648
20.59062826213098	2.2641845	1.5047207
20.60844206493066	2.2326198	1.4941953
20.626256371211593	2.2725275	1.5074904
20.644071181447032	2.2987096	1.5161496
20.66188649611036	2.2702713	1.506742
20.67970231567506	2.2177713	1.4892184
20.697518640614742	2.2158499	1.4885731
20.715335471403122	2.1991932	1.4829677
20.73315280851404	2.2072933	1.4856962
20.750970652421447	2.233751	1.4945738
20.768789003599412	2.261413	1.5037996
20.786607862522136	2.262717	1.504233
20.8044272296639	2.2575474	1.5025136
20.82224710549913	2.2589285	1.5029732
20.84006749050237	2.2630224	1.5043346
20.857888385148268	3.7894058	1.9466397
20.8757097899116	45.890617	6.7742615
20.893531705267254	64.73284	8.045672
20.911354131690224	83.76963	9.1525755
20.92917706965566	69.02156	8.307921
20.94700051963877	50.073853	7.076288
20.96482448211493	29.315256	5.4143567
20.982648957559622	4.032969	2.0082254
21.00047394644843	2.125924	1.4580549
21.01829944925707	2.1564279	1.4684781
21.036125466461375	2.1807523	1.476737
21.053951998537297	2.193822	1.4811556
21.071779045960906	2.1957915	1.4818203
21.089606609208378	2.1902535	1.4799505
21.10743468875603	2.180143	1.4765308
21.12526328508028	2.1841211	1.4778773
21.143092398657675	2.157007	1.4686753
21.16092202996488	2.1425962	1.463761
21.17875217947867	2.1408267	1.4631565
21.19658284767596	2.1556718	1.4682206
21.21441403503377	2.1829426	1.4774785
21.232245742029225	2.17248	1.4739336
21.2500779691396	2.139939	1.4628531
21.26791071684227	2.0956678	1.4476422
21.28574398561475	2.1210265	1.4563744
21.30357777593465	2.144796	1.4645122
21.321412088279704	2.153227	1.4673878
21.339246923127792	2.1091738	1.4522995
21.357082280956888	2.1034029	1.4503113
21.3749181622451	2.0958502	1.4477051
21.392754567470647	2.0887725	1.4452586
21.41059149711187	2.122128	1.4567525
21.42842895164726	2.1288657	1.4590633
21.446266931555378	2.126175	1.458141
21.464105437314945	2.1070313	1.4515617
21.481944469404798	2.1317093	1.4600375
21.49978402830388	2.1241066	1.4574316
21.51762411449127	2.081895	1.4428774
21.53546472844617	2.0210872	1.4216495
21.553305870647876	1.9874113	1.4097557
21.571147541575865	2.0046546	1.4158583
21.58898974170967	2.0074522	1.4168459
21.60683247152899	1.9977044	1.4134017
21.62467573151363	2.0072365	1.4167697
21.642519522143523	2.0285869	1.4242847
21.660363843898722	2.0378475	1.427532
21.6782086972594	2.0336401	1.4260576
21.696054082705864	1.9890989	1.4103541
21.713900000718535	1.9677119	1.4027516
21.73174645177795	1.9951853	1.4125103
21.749593436364794	2.0173213	1.4203243
21.767440954959845	2.00883	1.417332
21.785289008044032	1.9824234	1.4079856
21.803137596098388	2.0006154	1.4144311
21.820986719604086	1.9833847	1.408327
21.838836379042412	1.9776319	1.406283
21.85668657489478	1.9665706	1.4023447
21.87453730764273	1.9615734	1.4005618
21.892388577767914	1.9558148	1.3985045
21.91024038575213	1.9465169	1.3951763
21.928092732077285	1.9438549	1.394222
21.945945617225426	1.9465622	1.3951925
21.963799041678694	1.9712042	1.4039958
21.981653005919398	31.29443	5.5941424
21.999507510429943	78.11709	8.8383875
22.01736255569286	73.07096	8.548156
22.035218142190818	4.1768303	2.0437295
22.05307427040661	1.9934684	1.4119024
22.07093094082315	1.9733444	1.4047577
22.088788153923474	1.9639044	1.4013938
22.106645910190746	1.952216	1.3972173
22.12450421010827	1.9397892	1.3927631
22.142363054159464	1.9539315	1.397831
22.16022244282787	1.9543945	1.3979965
22.178082376597164	1.9616286	1.4005815
22.195942855951145	1.944171	1.3943353
22.213803881373742	1.9353313	1.3911619
22.231665453349002	1.9336473	1.3905565
22.24952757236111	1.928614	1.3887454
22.26739023889438	1.9078501	1.3812494
22.28525345343323	1.8941231	1.3762715
22.30311721646225	1.8847228	1.3728521
22.320981528466113	1.890897	1.375099
22.33884638992964	1.8992145	1.37812
22.356711801337788	1.8755735	1.3695158
22.37457776317561	1.9108602	1.3823386
22.392444275928337	1.9286345	1.3887528
22.410311340081282	1.9440395	1.3942882
22.428178956119904	1.920116	1.3856825
22.446047124529805	1.9175057	1.3847404
22.46391584579669	1.9424634	1.3937229
22.481785120406414	1.9320215	1.3899717
22.49965494884496	1.9117458	1.382659
22.51752533159841	1.8813275	1.3716149
22.53539626915302	1.8885131	1.3742318
22.553267761995137	1.9015738	1.3789756
22.571139810611264	1.9072158	1.3810198
22.589012415488025	1.9066999	1.380833
22.60688557711216	1.9215262	1.3861912
22.624759295970566	1.917326	1.3846754
22.642633572550263	1.9302381	1.3893301
22.660508407338362	1.9368616	1.3917117
22.67838380082217	1.9456917	1.3948805
22.696259753489077	1.9223261	1.3864797
22.714136265826614	1.9105997	1.3822445
22.73201333832246	1.9215522	1.3862007
22.74989097146439	1.892966	1.375851
22.76776916574035	1.865309	1.3657632
22.785647921638393	1.8571683	1.3627796
22.803527239646712	1.8737283	1.368842
22.82140712025363	1.9288661	1.3888363
22.839287563947593	1.944693	1.3945224
22.85716857121719	1.9508619	1.3967326
22.875050142551135	1.9305204	1.3894317
22.892932278438277	1.9386352	1.3923488
22.910814979367604	1.9038167	1.3797886
22.928698245828222	1.8707026	1.3677363
22.946582078309387	1.8313634	1.3532788
22.96446647730047	1.7936366	1.3392671
22.98235144329098	1.7891923	1.3376069
23.000236976770562	1.8390975	1.3561333
23.018123078229	1.8989536	1.3780253
23.03600974815619	1.882928	1.3721982
23.053896987042194	1.8920515	1.3755186
23.071784795377173	1.9220495	1.38638
23.08967317365145	1.9263494	1.3879299
23.10756212235546	1.9159945	1.3841945
23.125451641979787	1.8642145	1.3653624
23.143341733015134	1.8674554	1.3665487
23.161232395952357	1.8848547	1.3729001
23.179123631282426	1.9389411	1.3924587
23.197015439496468	1.9475839	1.3955586
23.214907821085717	1.9340231	1.3906916
23.23280077654157	1.8891065	1.3744477
23.250694306355538	1.8881438	1.3740975
23.268588411019277	1.9089597	1.381651
23.28648309102458	1.9362441	1.3914899
23.304378346863356	1.9410672	1.3932219
23.322274179027676	1.9682037	1.4029268
23.340170588009723	1.9726721	1.4045185
23.358067574301852	1.9090507	1.3816841
23.37596513839651	1.8818516	1.3718059
23.39386328078629	1.8633193	1.3650346
23.411762001963947	1.8516103	1.3607389
23.429661302422353	1.8570365	1.3627312
23.4475611826545	1.8677813	1.366668
23.46546164315356	1.9269472	1.3881452
23.48336268441279	1.9328282	1.3902619
23.501264306925638	1.9088066	1.3815956
23.51916651118564	1.8560317	1.3623625
23.537069297686497	1.8507262	1.360414
23.554972666922037	1.9275867	1.3883755
23.57287661938623	1.9506372	1.3966521
23.59078115557318	1.86738	1.3665211
23.608686275977128	1.816784	1.3478813
23.62659198109246	1.8256365	1.3511611
23.6444982714137	1.8429255	1.357544
23.66240514743549	1.876453	1.3698369
23.68031260965263	1.8509476	1.3604953
23.698220658560068	1.881209	1.3715718
23.716129294652845	1.8608801	1.3641407
23.7340385184262	1.8718928	1.3681713
23.75194833037546	1.852097	1.3609177
23.769858730996123	1.9374299	1.3919159
23.78776972078382	1.9520398	1.3971542
23.80568130023431	1.9865478	1.4094495
23.823593469843495	1.891974	1.3754904
23.841506230107424	1.8256278	1.3511579
23.859419581522275	1.812464	1.3462778
23.87733352458438	1.8695282	1.367307
23.89524805979019	1.9384925	1.3922976
23.913163187636318	1.933449	1.3904852
23.931078908619508	1.9231503	1.3867769
23.948995223236633	1.9746283	1.4052147
23.966912131984735	2.0125852	1.4186561
23.98482963536096	2.0858502	1.4442472
24.002747733862616	2.062803	1.4362462
24.020666427987155	2.046763	1.4306512
24.038585718232156	2.023694	1.422566
24.056505605095353	2.0027916	1.4152002
24.074426089074617	1.9772903	1.4061615
24.092347170667946	2.013269	1.418897
24.110268850373515	2.058314	1.4346826
24.128191128689586	2.0856948	1.4441935
24.146114006114626	2.0434089	1.4294785
24.164037483147187	1.9924936	1.4115572
24.181961560286005	1.9682548	1.402945
24.199886238029926	1.9657997	1.4020698
24.21781151687797	2.0055423	1.4161717
24.235737397329274	1.9887142	1.4102178
24.253663879883135	2.0193784	1.4210484
24.271590965038975	2.047873	1.4310391
24.289518653296376	2.0283897	1.4242154
24.30744694515505	2.0348558	1.4264838
24.32537584111486	2.0301971	1.4248499
24.34330534167581	1.9920678	1.4114063
24.361235447338046	1.9802476	1.4072127
24.379166158601876	1.9896036	1.4105331
24.39709747596772	1.9956702	1.4126819
24.41502939993615	2.0147245	1.4194099
24.432961931007917	1.9966248	1.4130198
24.450895069683856	1.9543638	1.3979856
24.468828816465	1.9184618	1.3850855
24.4867631718525	1.8967669	1.3772316
24.504698136347656	1.9366536	1.391637
24.52263371045192	1.9672772	1.4025966
24.540569894666874	1.9567997	1.3988566
24.558506689494266	1.9307873	1.3895277
24.57644409543597	1.954109	1.3978945
24.594382112994012	1.9210521	1.3860202
24.61232074267057	1.8918924	1.3754609
24.630259984967953	1.868992	1.3671108
24.64819984038863	1.8868927	1.3736421
24.66614030943522	1.9220504	1.3863803
24.684081392610462	1.957618	1.3991491
24.702023090417274	1.9870744	1.4096363
24.7199654033587	2.0043986	1.4157678
24.737908331937927	2.040271	1.4283806
24.755851876658305	2.0773168	1.44129
24.773796038023324	2.0901556	1.445737
24.79174081653661	2.0877855	1.4449171
24.809686212701962	2.0770705	1.4412045
24.827632227023294	2.0390923	1.4279679
24.8455788600047	2.0222013	1.4220413
24.8635261121504	2.101726	1.4497331
24.88147398396475	2.1801252	1.4765247
24.899422475952303	2.1904492	1.4800166
24.917371588617698	2.1447387	1.4644927
24.935321322465768	2.1527023	1.467209
24.953271678001478	2.2296917	1.4932152
24.97122265572994	2.416022	1.5543559
24.989174256156414	2.754155	1.6595647
25.00712647978632	3.293271	1.8147372
25.02507932712521	4.286535	2.0703948
25.043032798678798	5.774824	2.4030864
25.060986894952933	7.4488606	2.7292602
25.078941616453637	8.867152	2.9777763
25.096896963687055	9.791785	3.1291828
25.114852937159508	10.570358	3.2512088
25.132809537377444	10.428312	3.2292898
25.150766764847468	9.649261	3.106326
25.168724620076347	8.118493	2.849297
25.186683103570985	6.920807	2.6307425
25.204642215838426	5.609148	2.368364
25.222601957385894	4.557016	2.1347167
25.24056232872074	3.5003986	1.8709352
25.25852333035048	2.7790112	1.6670367
25.276484962782778	2.3419907	1.5303564
25.294447226525435	2.1233191	1.4571613
25.312410122086423	2.0429528	1.429319
25.330373649973843	1.9380441	1.3921365
25.348337810695988	1.923638	1.3869528
25.366302604761245	1.9235077	1.3869058
25.384268032678207	1.9063803	1.3807173
25.40223409495558	1.9071126	1.3809825
25.420200792102257	1.9161651	1.3842561
25.438168124627246	1.9005905	1.3786191
25.45613609303974	1.8962224	1.377034
25.474104697849057	1.9030548	1.3795125
25.492073939564698	1.9228631	1.3866735
25.510043818696285	1.8845252	1.3727801
25.528014335753614	1.8447126	1.358202
25.54598549124664	1.8178024	1.3482591
25.56395728568544	1.8408165	1.3567669
25.58192971958028	1.8318145	1.3534454
25.59990279344156	1.8310602	1.3531667
25.617876507779833	1.8425194	1.3573943
25.635850863105826	1.8342662	1.3543508
25.653825859930386	1.8095964	1.3452125
25.671801498764548	1.8113251	1.3458548
25.68977778011949	1.7917485	1.3385621
25.707754704506524	1.8103795	1.3455034
25.725732272437153	1.8146383	1.3470851
25.743710484423012	1.8326772	1.353764
25.761689340975888	1.7879746	1.3371516
25.77966884260774	1.795461	1.3399482
25.797648989830662	1.8264064	1.351446
25.815629783156922	1.8682033	1.3668224
25.83361122309895	1.8675317	1.3665767
25.85159331016929	1.8306468	1.353014
25.869576044880695	1.8302495	1.3528671
25.887559427746034	1.8677888	1.3666707
25.90554345927836	1.8482648	1.359509
25.92352813999086	1.8332316	1.3539689
25.94151347039689	1.8225478	1.3500177
25.959499451009965	1.8291881	1.3524748
25.97748608234374	1.8015972	1.3422359
25.995473364912062	1.82169	1.3497
26.013461299228904	1.8369654	1.355347
26.03144988580839	1.8270043	1.3516673
26.04943912516483	1.8002099	1.341719
26.067429017812675	1.7977554	1.340804
26.085419564266537	1.7822433	1.3350068
26.103410765041186	1.8078015	1.3445451
26.12140262065155	1.8317455	1.3534199
26.139395131612723	1.8182212	1.3484143
26.157388298439948	1.7767774	1.3329581
26.17538212164861	1.7390847	1.3187436
26.193376601754295	1.7067932	1.306443
26.211371739272714	1.7292209	1.3149984
26.229367534719746	1.7850143	1.3360443
26.247363988611433	1.8186053	1.3485568
26.26536110146397	1.822111	1.3498559
26.283358873793727	1.8024032	1.3425361
26.301357306117204	1.7999513	1.3416226
26.319356398951104	1.8454225	1.3584633
26.33735615281224	1.8557267	1.3622506
26.35535656821762	1.8146672	1.3470958
26.373357645684404	1.8040593	1.3431528
26.39135938572991	1.7859125	1.3363804
26.409361788871614	1.7968621	1.3404709
26.427364855627165	1.7839218	1.3356354
26.445368586514352	1.7782855	1.3335238
26.46337298205115	1.8073577	1.34438
26.48137804275568	1.7858324	1.3363504
26.499383769146217	1.7919915	1.3386528
26.517390161741215	1.7909573	1.3382665
26.53539722105928	1.7827681	1.3352034
26.553404947619182	1.7481017	1.322158
26.571413341939856	1.720544	1.3116951
26.589422404540397	1.7450161	1.3209906
26.60743213594006	1.7973071	1.3406368
26.62544253665827	1.8182132	1.3484113
26.64345360721459	1.7708635	1.330738
26.66146534812879	1.7120149	1.3084399
26.679477759920758	1.7148558	1.309525
26.69749084311057	1.772758	1.3314496
26.71550459821847	1.7994483	1.3414352
26.733519025764842	1.7894067	1.337687
26.751534126270258	1.7723945	1.3313131
26.769549900255434	1.7782905	1.3335255
26.787566348241267	1.7608418	1.3269671
26.80558347074881	1.7492459	1.3225906
26.823601268299267	1.7609354	1.3270024
26.841619741414036	1.7721864	1.3312349
26.85963889061465	1.7839353	1.3356404
26.877658716422832	1.824808	1.3508545
26.89567921936045	1.8029553	1.3427417
26.913700399949544	1.7960811	1.3401794
26.93172225871233	1.8333358	1.3540072
26.949744796171174	1.8382294	1.3558131
26.967768012848605	1.8246052	1.3507795
26.98579190926733	1.8290855	1.3524369
27.003816485950225	1.8345442	1.3544534
27.021841743420318	1.8387916	1.3560205
27.039867682200814	1.8369178	1.3553294
27.057894302815072	1.8294314	1.3525648
27.07592160578664	1.7793145	1.3339095
27.0939495916392	1.7266188	1.3140087
27.111978260896635	1.7722882	1.3312732
27.13000761408296	1.7950426	1.339792
27.148037651722397	1.8429319	1.3575462
27.166068374339304	1.8465929	1.358894
27.184099782458215	1.8043272	1.3432525
27.20213187660384	1.7613331	1.3271523
27.22016465730105	1.766772	1.3291998
27.23819812507487	1.7336875	1.3166957
27.256232280450533	1.7723559	1.3312986
27.274267123953383	1.8311486	1.3531994
27.292302656108987	1.8142043	1.3469241
27.31033887744306	1.7110914	1.3080869
27.32837578848146	1.6926224	1.3010082
27.34641338975026	1.7456386	1.3212261
27.364451681775673	1.7837242	1.3355614
27.382490665084074	1.8207446	1.3493497
27.400530340202046	1.802049	1.3424042
27.41857070765629	1.7423283	1.3199729
27.436611767973726	1.77252	1.3313602
27.454653521681404	1.7491374	1.3225496
27.472695969306564	1.7415999	1.3196969
27.490739111376627	1.8024813	1.3425652
27.508782948419153	1.862422	1.3647058
27.526827480961902	1.8753462	1.3694328
27.54487270953279	1.8476665	1.3592889
27.562918634659898	1.8341436	1.3543056
27.580965256871508	1.8448827	1.3582646
27.599012576696026	1.8140067	1.3468506
27.617060594662068	1.7857422	1.3363166
27.63510931129842	1.8023368	1.3425114
27.65315872713401	1.8926572	1.3757387
27.67120884269797	1.9178505	1.3848648
27.68925965851958	1.8752548	1.3693994
27.707311175128307	1.7843469	1.3357944
27.725363393053787	1.8216712	1.3496931
27.74341631282583	1.8531674	1.361311
27.7614699349744	1.8391372	1.3561479
27.77952426002968	1.9610392	1.4003711
27.797579288521973	2.0472503	1.4308215
27.815635020981784	2.437428	1.5612265
27.83369145793979	2.5741818	1.6044257
27.85174859992682	2.5238347	1.5886581
27.869806447473923	2.3474305	1.5321326
27.887865001112267	2.0131009	1.4188379
27.905924261373233	1.8605431	1.3640172
27.92398422878836	1.8310468	1.3531618
27.94204490388936	1.8258964	1.3512573
27.96010628720813	1.7909116	1.3382494
27.978168379276728	1.7332764	1.3165395
27.9962311806274	1.7787514	1.3336984
28.014294691792568	1.8761276	1.3697181
28.0323589133048	1.8633046	1.3650292
28.050423845696887	1.7967191	1.3404175
28.068489489501758	1.8094867	1.3451717
28.086555845252523	1.8396748	1.3563461
28.104622913482487	1.8986326	1.3779088
28.122690694725115	1.8881632	1.3741045
28.14075918951405	1.8980271	1.377689
28.15882839838312	1.8960663	1.3769772
28.176898321866304	1.8866371	1.3735491
28.1949689604978	1.8984514	1.377843
28.213040314811945	1.9506699	1.3966638
28.23111238534327	1.9631723	1.4011325
28.249185172626493	1.9466065	1.3952084
28.267258677196473	1.9202862	1.3857439
28.285332899588294	1.8698642	1.3674297
28.303407840337172	1.8994277	1.3781972
28.321483499978545	1.9549599	1.3981988
28.33955987904799	1.9473324	1.3954685
28.357636978081285	1.9642814	1.4015282
28.37571479761439	1.9981068	1.413544
28.393793338183425	2.0049827	1.4159741
28.41187260032469	2.010912	1.4180663
28.429952584574686	2.0308652	1.4250842
28.448033291470065	2.0388298	1.427876
28.46611472154769	2.03713	1.4272807
28.484196875344566	2.037888	1.4275461
28.502279753397914	1.9801577	1.4071808
28.52036335624511	1.9592581	1.399735
28.538447684423716	1.9531183	1.3975401
28.556532738471482	1.964193	1.4014966
28.574618518926325	1.9484041	1.3958524
28.59270502632635	2.0519853	1.4324752
28.61079226120985	2.0926023	1.4465829
28.628880224115274	2.0594409	1.4350752
28.646968915581287	2.0732841	1.4398904
28.66505833614671	2.0900328	1.4456946
28.68314848635055	2.0876951	1.4448858
28.701239366732004	2.0928655	1.446674
28.71933097783044	2.0719383	1.4394228
28.737423320185403	2.043525	1.4295192
28.75551639433665	2.043865	1.429638
28.773610200824074	2.0650797	1.4370385
28.791704740187793	2.0966246	1.4479725
28.80980001296809	2.1120958	1.4533051
28.827896019705413	2.0989215	1.4487655
28.845992760940433	2.0880816	1.4450196
28.86409023721397	2.0746975	1.440381
28.88218844906704	2.110132	1.4526293
28.900287397040845	2.1983066	1.4826688
28.918387081676755	2.2708595	1.5069371
28.936487503516343	2.2467518	1.4989169
28.954588663101365	2.2278414	1.4925956
28.97269056097374	2.2614272	1.5038042
28.990793197675597	2.3174205	1.5223076
29.00889657374923	2.3367531	1.5286442
29.027000689737125	2.3533201	1.5340534
29.04510554618196	2.3836043	1.5438926
29.06321114362659	2.4023058	1.5499374
29.08131748261405	2.3597493	1.5361476
29.099424563687567	2.3702474	1.5395608
29.11753238739057	2.4550054	1.5668457
29.13564095426663	2.52903	1.5902925
29.15375026485954	2.545911	1.5955912
29.171860319713275	2.592262	1.6100503
29.18997111937199	2.6530657	1.6288234
29.20808266438002	2.69687	1.642215
29.226194955281898	2.750903	1.6585846
29.244307992622335	2.8379424	1.6846193
29.26242177694624	2.8551245	1.6897113
29.2805363087987	2.8861675	1.6988724
29.29865158872498	2.875218	1.6956468
29.316767617270557	2.8852758	1.69861
29.334884394981064	2.923682	1.7098777
29.353001922402367	2.9847763	1.7276505
29.37112020008047	3.060059	1.7493025
29.389239228561596	3.1208854	1.7666028
29.407359008392152	3.28662	1.8129038
29.42547954011872	3.5757263	1.8909591
29.44360082428809	4.084302	2.0209656
29.46172286144722	4.942341	2.2231376
29.479845652143283	6.55518	2.5603087
29.497969196923606	9.252845	3.041849
29.516093496335728	13.1158085	3.6215754
29.5342185509274	16.872585	4.1076255
29.55234436124651	20.133883	4.4870796
29.570470927841175	21.444279	4.630797
29.588598251259686	21.220846	4.606609
29.60672633205055	19.540203	4.42043
29.624855170762405	16.609858	4.075519
29.642984767944146	13.165685	3.628455
29.66111512414481	9.622414	3.1020017
29.67924623991366	6.9953365	2.6448698
29.697378115800138	5.0837655	2.2547207
29.71551075235387	4.1658826	2.0410495
29.733644150124675	3.7449908	1.9351978
29.751778309662576	3.5695298	1.8893199
29.769913231517766	3.4839504	1.8665344
29.78804891624066	3.4519076	1.857931
29.806185364381818	3.4192529	1.8491222
29.82432257649206	3.367696	1.8351283
29.842460553122333	3.3546646	1.8315743
29.86059929482382	3.3255394	1.8236061
29.878738802147872	3.306173	1.8182884
29.896879075646048	3.1572483	1.7768648
29.915020115870114	3.083915	1.7561079
29.933161923371976	3.1120193	1.7640916
29.951304498703777	3.1518447	1.7753435
29.969447842417857	3.1813767	1.7836415
29.987591955066733	3.1858184	1.7848861
30.005736837203123	3.1563816	1.7766209
30.023882489379943	3.129014	1.768902
30.04202891215028	3.0971987	1.759886
30.060176106067455	3.081698	1.7554766
30.078324071684946	3.067963	1.7515601
30.09647280955646	3.1041408	1.7618572
30.114622320235863	3.0709252	1.7524055
30.132772604277257	3.0339208	1.7418153
30.1509236622349	3.0223145	1.7384806
30.16907549466328	3.0530508	1.7472981
30.18722810211705	3.0726247	1.7528903
30.205381485151097	3.063671	1.7503346
30.22353564432045	2.9956772	1.7308025
30.241690580180403	2.980171	1.7263172
30.25984629328638	2.9480317	1.7169833
30.278002784194037	3.0065892	1.7339519
30.296160053459246	3.0448434	1.744948
30.314318101638033	2.9390087	1.7143537
30.332476929286646	2.824383	1.68059
30.35063653696153	2.8529456	1.6890665
30.368796925219307	2.830277	1.6823426
30.386958094616844	2.8604517	1.691287
30.40512004571115	2.867395	1.6933384
30.423282779059463	2.831287	1.6826428
30.441446295219233	2.8234627	1.6803162
30.459610594748067	2.8327434	1.6830755
30.47777567820382	2.9105816	1.7060426
30.495941546144504	2.9084322	1.7054126
30.51410819912835	2.806404	1.6752325
30.532275637713795	2.706193	1.645051
30.55044386245946	2.7278683	1.651626
30.56861287392416	2.7739778	1.6655263
30.586782672666956	2.7952325	1.6718949
30.604953259247047	2.753	1.6592166
30.623124634223885	2.7287314	1.6518872
30.641296798157075	2.722685	1.6500561
30.659469751606462	2.7819893	1.6679296
30.677643495132074	2.8353508	1.6838499
30.695818029294152	2.7961462	1.6721681
30.713993354653116	2.6641862	1.6322335
30.73216947176962	2.6855838	1.6387751
30.75034638120448	2.725882	1.6510246
30.768524083518756	2.802982	1.6742109
30.786702579273673	2.8386362	1.6848253
30.80488186903069	2.8862193	1.6988877
30.82306195335144	2.9773827	1.7255094
30.841242832797782	3.243279	1.8009106
30.85942450793176	3.58134	1.892443
30.877606979315637	3.8717728	1.9676821
30.895790247511883	4.1843076	2.045558
30.913974313083134	4.6959567	2.1670156
30.932159176592283	5.2068305	2.281848
30.95034483860237	5.48169	2.341301
30.968531299676698	5.2947106	2.3010237
30.98671856037873	5.081767	2.2542775
31.00490662127215	4.73283	2.1755068
31.023095482920848	4.3126025	2.0766807
31.04128514588892	3.731339	1.9316674
31.059475610740662	3.2235312	1.7954196
31.07766687804056	2.7903059	1.6704209
31.09585894835335	2.5228908	1.588361
31.11405182224393	2.4013815	1.5496391
31.132245500277417	2.4118607	1.5530167
31.15043998301914	2.4774556	1.5739936
31.168635271034628	2.4727411	1.5724952
31.18683136488964	2.4376786	1.5613067
31.20502826515008	2.4262497	1.5576423
31.223225972382135	2.376771	1.541678
31.241424487152155	2.373753	1.5406989
31.259623810026692	2.3948133	1.5475185
31.27782394157253	2.4093816	1.5522183
31.296024882356644	2.4170887	1.554699
31.314226632946237	2.4158232	1.5542918
31.332429193908684	2.4286814	1.5584227
31.350632565811598	2.4465985	1.5641607
31.368836749222787	2.4399457	1.5620326
31.387041744710295	2.5078125	1.5836074
31.40524755284232	2.6319294	1.6223222
31.423454174187317	2.714181	1.6474771
31.441661609313922	2.6044211	1.6138219
31.459869858791002	2.4917247	1.5785198
31.478078923187628	2.401044	1.5495303
31.496288803073064	2.2966835	1.5154812
31.514499499016807	2.296893	1.5155504
31.532711011588546	2.3319871	1.5270845
31.550923341358178	2.260197	1.5033951
31.56913648889584	2.1930096	1.4808813
31.587350454771844	2.213295	1.4877146
31.605565239556732	2.26426	1.5047458
31.62378084382127	2.2060795	1.4852877
31.641997268136382	2.167713	1.4723155
31.660214513073274	2.1827192	1.4774029
31.67843257920331	2.2435431	1.4978461
31.6966514670981	2.33891	1.5293496
31.71487117732944	2.3104155	1.5200051
31.733091710469346	2.2632034	1.5043947
31.751313067090052	2.1873355	1.4789643
31.769535247764008	2.251092	1.500364
31.787758253063878	2.3333695	1.5275371
31.805982083562526	2.3523052	1.5337226
31.824206739833024	2.341534	1.5302072
31.84243222244869	2.3638468	1.5374807
31.860658531983013	2.3680167	1.5388361
31.878885669009737	2.3191612	1.5228792
31.897113634102784	2.1856105	1.478381
31.91534242783632	2.1664357	1.4718817
31.933572050784694	2.2562923	1.5020959
31.951802503522508	2.2889285	1.5129205
31.970033786624548	2.2505226	1.5001742
31.988265900665834	2.2098427	1.4865539
32.006498846221575	2.1472952	1.4653652
32.02473262386724	2.0761015	1.4408684
32.04296723417845	2.1086042	1.4521034
32.0612026777311	2.1258862	1.4580419
32.07943895510129	2.1473012	1.4653672
32.097676066865304	2.1989567	1.482888
32.115914013599685	2.2325063	1.4941574
32.13415279588115	2.2773557	1.509091
32.152392414286666	2.2847457	1.5115376
32.1706328693934	2.144682	1.4644732
32.18887416177875	2.1319184	1.460109
32.20711629202032	2.1713936	1.473565
32.225359260695924	2.2460642	1.4986875
32.243603068383614	2.2468517	1.4989502
32.26184771566166	2.2726846	1.5075426
32.28009320310852	2.3030443	1.5175785
32.2983395313029	2.197647	1.4824463
32.31658670082372	2.0755637	1.4406817
32.33483471225012	2.0308275	1.425071
32.35308356616143	2.0008087	1.4144994
32.371333263137245	2.0395203	1.4281178
32.38958380375734	2.117686	1.4552271
32.407835188601744	2.1165218	1.4548271
32.42608741825067	2.0470588	1.4307547
32.444340493284585	2.1603274	1.4698052
32.46259441428416	2.2469609	1.4989866
32.48084918183028	2.2389874	1.4963247
32.49910479650405	2.1515152	1.4668044
32.51736125888683	2.0926485	1.4465989
32.53561856956014	2.071699	1.4393398
32.5538767291058	2.122501	1.4568806
32.572135738105764	2.1011271	1.4495265
32.59039559714228	1.9807476	1.4073904
32.608656306797776	1.9283947	1.3886665
32.62691786765491	1.9700112	1.4035709
32.645180280296586	1.9875798	1.4098155
32.663443545305896	1.960487	1.4001739
32.68170766326619	1.9302313	1.3893276
32.69997263476099	1.984196	1.4086149
32.7182384603741	1.9998165	1.4141487
32.7365051406895	1.9764247	1.4058537
32.75477267629144	2.081069	1.4425911
32.77304106776434	2.1248643	1.4576914
32.79131031569289	2.1082332	1.4519756
32.809580420661966	2.047683	1.4309727
32.827851383256714	2.0123405	1.4185699
32.84612320406245	1.9488974	1.3960291
32.86439588366476	1.8899395	1.3747507
32.88266942264945	1.9192597	1.3853735
32.9009438216025	2.007609	1.4169011
32.9192190811102	2.0135784	1.4190061
32.937495201758985	1.9722878	1.4043816
32.95577218413556	1.9199404	1.3856192
32.974050028826866	1.9689653	1.4031982
32.992328736420035	2.048217	1.4311594
33.010608307502444	2.0267072	1.4236246
33.02888874266169	1.9841026	1.4085817
33.047170042485604	1.9704902	1.4037415
33.06545220756225	1.9455996	1.3948475
33.083735238479896	1.9461635	1.3950497
33.10201913582707	2.0274882	1.4238989
33.12030390019248	2.1063383	1.4513229
33.138589532165135	2.0105171	1.417927
33.15687603233419	1.9760158	1.4057083
33.17516340128909	1.9462255	1.3950719
33.19345163961947	2.0124419	1.4186056
33.211740747915215	2.0922909	1.4464754
33.23003072676643	2.125168	1.4577956
33.248321576763466	2.0213203	1.4217315
33.266613298496885	1.9337078	1.3905783
33.28490589255747	1.9602007	1.4000716
33.30319935953626	2.027481	1.4238964
33.32149370002451	1.9249431	1.3874232
33.339788914613706	1.8072587	1.3443432
33.358085003895575	1.8174715	1.3481363
33.376381968462034	1.9460721	1.3950169
33.39467980890529	1.9732071	1.4047089
33.41297852581774	1.9251812	1.387509
33.43127811979204	1.8823992	1.3720056
33.44957859142105	1.9179335	1.3848947
33.467879941297866	1.8632432	1.3650067
33.486182170015844	1.9382277	1.3922025
33.50448527816853	2.0446568	1.429915
33.522789266349754	2.1107597	1.4528453
33.541094135153514	2.0366762	1.4271216
33.55939988517411	1.9889517	1.4103019
33.57770651700602	1.9267923	1.3880894
33.59601403124398	1.8406019	1.3566879
33.61432242848296	1.8012798	1.3421177
33.632631709318154	1.8739722	1.368931
33.650941874344994	1.9501394	1.3964739
33.66925292415916	1.9093826	1.3818041
33.68756485935654	1.9144665	1.3836424
33.70587768053328	1.9997365	1.4141204
33.724191388285746	2.0609317	1.4355946
33.74250598321054	1.9873366	1.4097292
33.760821465904506	2.0011501	1.4146202
33.77913783696474	1.997045	1.4131684
33.79745509698852	2.000247	1.4143009
33.815773246573414	2.0271628	1.4237846
33.8340922863172	2.016468	1.4200239
33.852412216817896	1.8963515	1.3770808
33.87073303867377	1.7832428	1.3353812
33.889054752483304	1.9627813	1.400993
33.907377358845245	2.112852	1.4535654
33.92570085835853	2.0340998	1.4262187
33.94402525162239	1.9238263	1.3870207
33.96235053923627	1.8324801	1.3536912
33.980676721799824	1.7813772	1.3346825
33.999003799912984	1.7913287	1.3384053
34.01733177417592	1.7589341	1.3262482
34.03566064518901	1.7673324	1.3294106
34.0539904135529	1.8561423	1.3624032
34.07232107986846	1.9406173	1.3930604
34.090652644736785	1.9179404	1.3848972
34.108985108759235	1.803707	1.3430216
34.12731847253742	1.8174509	1.3481287
34.14565273667313	1.8967534	1.3772267
34.16398790176847	1.8274891	1.3518466
34.18232396842574	1.7767457	1.3329462
34.20066093724749	1.8000122	1.3416454
34.21899880883651	1.8161843	1.3476589
34.23733758379583	1.8461384	1.3587267
34.25567726272874	2.0279253	1.4240524
34.27401784623872	1.9832244	1.40827
34.29235933492957	1.9023721	1.3792651
34.31070172940526	1.9102054	1.3821018
34.32904503027003	1.9480344	1.39572
34.347389238128386	1.9521599	1.3971971
34.36573435358502	2.055604	1.4337378
34.38408037724492	1.9719442	1.4042593
34.402427309713296	1.9163976	1.3843402
34.42077515159559	1.9446971	1.394524
34.43912390349752	1.9124007	1.3828958
34.45747356602499	1.8535184	1.3614398
34.47582413978423	1.9183702	1.3850524
34.49417562538163	1.9326987	1.3902154
34.51252802342388	1.857631	1.3629494
34.53088133451789	1.7816124	1.3347706
34.54923555927084	1.8414183	1.3569887
34.567590698290104	1.9527272	1.3974001
34.58594675218336	1.9556249	1.3984365
34.6043037215585	1.9121367	1.3828003
34.62266160702365	1.8305162	1.3529657
34.641020409187234	1.8730727	1.3686025
34.65938012865785	1.874351	1.3690695
34.677740766044394	1.883141	1.3722758
34.69610232195598	1.9887491	1.4102302
34.714464797002016	2.0463245	1.430498
34.73282819179208	2.0590477	1.4349382
34.751192506936064	2.0545764	1.4333794
34.76955774304408	1.9984998	1.413683
34.7879239007265	1.7693542	1.3301708
34.80629098059391	1.647519	1.2835572
34.824658983257194	1.8670847	1.3664131
34.843027909327446	1.9293064	1.3889947
34.86139775941603	1.8920299	1.3755108
34.879768534134534	1.9083678	1.3814368
34.89814023409483	2.0568023	1.4341556
34.91651285990901	2.0668132	1.4376415
34.93488641218944	1.9926856	1.4116251
34.95326089154871	2.0130665	1.4188257
34.97163629859967	1.9852026	1.4089721
34.99001263395542	1.9875147	1.4097924
35.00838989822934	2.1748993	1.474754
35.02676809203499	2.2791948	1.5097003
35.04514721598624	2.0598133	1.435205
35.063527270697215	2.0022666	1.4150147
35.081908256782256	2.0478501	1.4310311
35.10029017485597	1.8482314	1.3594967
35.11867302553321	1.9198115	1.3855727
35.137056809429104	2.0913236	1.4461409
35.155441527159006	1.9423935	1.3936977
35.173827179338524	1.6134528	1.2702177
35.19221376658354	1.5996141	1.2647586
35.21060128951017	1.6138837	1.2703873
35.2289897487348	1.5712973	1.2535139
35.24737914487405	1.7901351	1.3379593
35.26576947854479	1.8814222	1.3716494
35.28416075036418	1.98568	1.4091415
35.30255296094958	2.2085128	1.4861066
35.32094611091867	2.126898	1.4583888
35.33934020088932	1.8653134	1.3657647
35.35773523147969	1.8857567	1.3732285
35.3761312033082	1.9954739	1.4126124
35.394528116993506	1.7945216	1.3395976
35.41292597315452	2.05231	1.4325886
35.431324772410434	2.3977005	1.5484511
35.449724515380666	2.4881907	1.5774
35.46812520268491	2.2786925	1.5095339
35.486526834943106	2.1748726	1.4747449
35.504929412775454	2.0973015	1.4482063
35.52333293680242	1.9883447	1.4100868
35.54173740764471	2.1260285	1.4580907
35.560142825923286	2.1898556	1.4798161
35.5785491922594	1.7599658	1.326637
35.59695650727454	1.279633	1.1312087
35.61536477159042	0.8484193	0.9210968
