0.008763373481513119	0.56609195	0.7523908
0.026290120649546365	0.18888974	0.43461448
0.043816868432600686	0.0908709	0.30144802
0.06134361724069026	0.0	0.0
0.07887036748382949	0.008567456	0.09256055
0.0963971195720331	0.056627702	0.23796576
0.11392387391531617	0.046409275	0.21542811
0.1314506309236943	0.07739483	0.27819926
0.1489773910071836	0.044103537	0.21000843
0.16650415457580078	0.0312255	0.17670739
0.18403092203956356	0.016316244	0.12773505
0.20155769380849	0.08047358	0.28367865
0.2190844702925996	0.14464061	0.38031647
0.2366112519019124	0.17201407	0.41474578
0.2541380390464497	0.15610436	0.39510044
0.27166483213623416	0.20014101	0.4473712
0.28919163158128947	0.16239378	0.4029811
0.3067184377916406	0.15567328	0.39455453
0.324245251177314	0.11362125	0.3370775
0.34177207214833777	0.102498665	0.32015413
0.3592989011147415	0.07790407	0.279113
0.37682573848655654	0.055660296	0.23592435
0.39435258467381573	0.07277041	0.26975992
0.41187944008655414	0.08570513	0.29275438
0.42940630513480854	0.1448378	0.38057563
0.446933180228618	0.18859385	0.43427393
0.4644600657780234	0.20403703	0.4517046
0.48198696219306775	0.20793137	0.45599493
0.49951386988379676	0.1440625	0.37955567
0.5170407892602581	0.10988574	0.3314902
0.5345677207325025	0.11160076	0.334067
0.5520946647105822	0.13011861	0.36071956
0.5696216216045534	0.13000688	0.36056468
0.5871485918244737	0.11877721	0.3446407
0.6046755757804043	0.12076897	0.3475183
0.6222025738824094	0.1863427	0.4316743
0.6397295865405557	0.21076193	0.45908815
0.6572566141649129	0.22576286	0.4751451
0.6747836571655547	0.20427424	0.45196706
0.6923107159525568	0.21519049	0.4638863
0.7098377909359992	0.20194857	0.4493869
0.7273648825259653	0.2394348	0.48932076
0.7448919911325411	0.22515719	0.4745073
0.762419117165817	0.23018293	0.47977382
0.7799462610358868	0.21981834	0.46884787
0.7974734231528482	0.20213799	0.4495976
0.8150006039268024	0.19743639	0.44433814
0.8325278037678551	0.19020657	0.4361268
0.8500550230861152	0.18481858	0.42990533
0.8675822622916969	0.20173179	0.44914562
0.8851095217947171	0.20993093	0.4581822
0.9026368020052984	0.19656822	0.44336015
0.9201641033335665	0.19948083	0.44663277
0.9376914261896523	0.20311277	0.45068035
0.9552187709836915	0.2517578	0.5017547
0.9727461381258234	0.26691803	0.5166411
0.990273528026193	0.26593506	0.5156889
1.0078009410949496	0.2577678	0.5077084
1.0253283777422473	0.23922971	0.48911116
1.0428558383782454	0.2603249	0.5102204
1.0603833234131086	0.25357273	0.50356007
1.0779108332570058	0.31362155	0.56001925
1.0954383683201119	0.3453107	0.5876314
1.112965929012607	0.40449682	0.63600063
1.1304935157446763	0.4906185	0.70044166
1.1480211289265108	0.5470584	0.739634
1.1655487689683062	1.3498976	1.1618509
1.1830764362802655	1.6171826	1.271685
1.200604131272596	1.9900928	1.4107065
1.2181318543555117	2.3416877	1.5302573
1.235659605939232	2.4097629	1.5523411
1.253187386433982	3.9540446	1.988478
1.270715196249994	6.289929	2.507973
1.2882430357975057	11.880666	3.446834
1.3057709054867608	16.856897	4.1057153
1.3232988057280106	22.649384	4.7591367
1.3408267369315112	27.415232	5.2359557
1.358354699507526	30.755754	5.545787
1.3758826938663256	34.783432	5.897748
1.3934107204181858	37.11866	6.0925083
1.410938779573391	37.628166	6.13418
1.4284668717422309	38.2444	6.1842055
1.4459949973350033	37.9346	6.159107
1.4635231567620117	38.237732	6.1836667
1.4810513504335687	37.600925	6.1319594
1.4985795787599925	37.191	6.0984426
1.5161078421516088	36.61714	6.05121
1.5336361410187505	35.48935	5.957294
1.5511644757717598	34.843323	5.9028234
1.5686928468209842	34.911316	5.90858
1.58622125457678	35.85229	5.987678
1.6037496994495108	37.18611	6.0980415
1.621278181849548	37.58636	6.1307716
1.6388067021872719	38.231407	6.183155
1.6563352608730693	37.859303	6.1529913
1.673863858317336	37.109165	6.091729
1.6913924949304753	36.209316	6.017418
1.7089211711228998	34.771484	5.896735
1.7264498873050296	33.780743	5.8121204
1.7439786438872935	33.200726	5.762007
1.7615074412801288	32.58456	5.7082887
1.779036279893981	32.022984	5.6588855
1.796565160139305	30.62555	5.5340357
1.814094082426564	29.518745	5.4331155
1.8316230471662298	28.555735	5.3437567
1.849152054768784	27.859558	5.2782154
1.8666811056447168	27.381407	5.2327247
1.8842102002045273	26.90054	5.186573
1.901739338858724	26.342146	5.13246
1.9192685220178245	25.928722	5.0920253
1.9367977500923557	25.524319	5.05216
1.9543270234928547	24.846678	4.9846444
1.971856342629867	23.936111	4.8924546
1.9893857079139496	23.419579	4.839378
2.006915119755667	23.039959	4.799996
2.0244445785655945	22.6644	4.760714
2.0419740847543175	22.275238	4.719665
2.0595036387324317	21.722685	4.66076
2.0770332409105414	21.243517	4.609069
2.094562891699263	20.951899	4.5773244
2.1120925915092217	20.216963	4.496328
2.129622340751053	19.947361	4.466247
2.1471521398354043	187.9422	13.709201
2.1646819891729323	444.16174	21.075146
2.182211889174303	440.4249	20.986303
2.1997418402501974	452.826	21.279709
2.2172718428113023	432.92145	20.806765
2.234801897268317	321.0748	17.91856
2.2523320040319548	17.53363	4.187318
2.269862163512935	17.069656	4.131544
2.287392376121992	16.750738	4.092767
2.304922642269869	16.264853	4.032971
2.322452962367322	15.989657	3.998707
2.3399833368251164	15.4298935	3.9280903
2.357513766054032	15.25883	3.9062552
2.3750442504648586	14.970003	3.869109
2.3925747904683963	14.904225	3.860599
2.410105386475459	14.713167	3.8357747
2.4276360388968707	14.288083	3.779958
2.445166748143469	14.095656	3.7544181
2.4626975146261025	13.735939	3.7062027
2.4802283387556323	13.38873	3.6590614
2.4977592209429305	13.089828	3.6179867
2.5152901615988825	12.984376	3.603384
2.5328211611343865	13.005614	3.6063297
2.5503522199603523	12.9360695	3.5966747
2.5678833384877024	12.5992365	3.5495403
2.5854145171273712	12.28833	3.5054715
2.6029457562903064	11.985823	3.4620547
2.620477056387469	11.870372	3.4453406
2.6380084178298326	11.689573	3.4190018
2.655539841028383	11.497937	3.3908608
2.673071326394119	11.158154	3.3403823
2.6906028743380523	10.862418	3.2958183
2.708134485271211	10.689903	3.2695417
2.7256661596046325	10.7029085	3.27153
2.743197897749369	10.704963	3.271844
2.760729700116486	10.626317	3.2598033
2.778261567117063	10.52891	3.2448282
2.795793499162193	10.270261	3.2047248
2.8133254966629817	10.195608	3.1930563
2.830857560030551	10.029392	3.1669216
2.8483896896760337	9.896525	3.1458743
2.865921886010578	9.707726	3.1157224
2.883454149445347	9.52224	3.0858126
2.9009864803915177	9.469231	3.0772116
2.91851887926028	9.457864	3.075364
2.9360513464628384	9.419068	3.06905
2.953583882410413	9.247352	3.0409458
2.9711164875142373	9.045357	3.00755
2.9886491621855606	8.951323	2.9918761
3.0061819068356455	8.792971	2.9652944
3.023714721875769	8.824163	2.9705493
3.041247607717225	8.731993	2.9549944
3.0587805647713213	8.616006	2.9353034
3.0763135934493806	8.539207	2.9221923
3.0938466941627407	8.36106	2.8915498
3.1113798673227544	8.240472	2.8706222
3.1289131133407904	8.153869	2.855498
3.1464464326282315	8.009261	2.8300638
3.1639798255964786	7.9304094	2.8160982
3.1815132926569443	7.898469	2.8104215
3.1990468342210603	7.843543	2.8006327
3.216580450700272	7.696871	2.7743235
3.2341141425060416	7.562327	2.7499685
3.251647910049847	7.376884	2.716042
3.2691817537431813	7.281193	2.6983685
3.286715673997555	7.147612	2.6735017
3.3042496712244938	6.982769	2.642493
3.32178374583554	6.895681	2.6259627
3.339317898242251	6.9182916	2.6302645
3.3568521288562034	6.9673266	2.6395695
3.3743864380889876	6.971413	2.6403434
3.3919208263522127	6.9332542	2.6331074
3.4094552940575023	6.7198806	2.5922732
3.4269898416164972	6.5768056	2.5645282
3.444524469440858	6.499437	2.5493994
3.4620591779422587	6.515499	2.5525475
3.479593967532391	6.614316	2.5718312
3.4971288386229658	6.577187	2.5646026
3.5146637916257086	6.5305123	2.5554867
3.5321988269523628	6.507681	2.5510156
3.5497339450146903	6.382323	2.526326
3.5672691462244708	6.2882266	2.5076337
3.5848044309934988	6.178159	2.4855902
3.60233979973359	6.2932005	2.5086253
3.619875252856575	6.415873	2.5329573
3.6374107907743034	6.4239125	2.5345438
3.6549464138986427	6.2850685	2.5070038
3.6724821226414788	6.249464	2.4998927
3.690017917414714	6.383752	2.5266087
3.7075537986302702	6.425342	2.5348258
3.7250897667000857	6.5683885	2.5628867
3.7426258220361235	6.6771336	2.584015
3.7601619650503553	6.9582253	2.6378448
3.777698196154779	7.463972	2.732027
3.7952345157614067	8.548972	2.9238625
3.8127709242822716	9.302716	3.0500355
3.830307422129425	11.374184	3.3725634
3.847844009714936	30.149239	5.4908323
3.8653806874508954	97.70609	9.884639
3.882917455749409	96.99296	9.8485
3.900454315022606	96.70142	9.833688
3.917991265682631	41.267147	6.423951
3.9355283081416506	10.9374895	3.3071876
3.9530654428118495	8.821154	2.9700427
3.970602670105433	7.6007614	2.7569478
3.9881399904346244	6.603703	2.569767
4.005677404211669	6.4714317	2.543901
4.023214911848827	6.377583	2.5253878
4.0407525137583855	6.467124	2.543054
4.058290210352644	6.5254717	2.5545003
4.075828002043927	6.45404	2.5404804
4.0933658892445814	6.2509975	2.5001996
4.110903872366966	6.115308	2.472915
4.128441951823468	6.03635	2.4568985
4.145980128026488	6.057834	2.4612668
4.163518401388452	6.0042887	2.450365
4.181056772321807	6.0478883	2.4592454
4.1985952412390155	6.1292577	2.4757338
4.216133808552567	6.1941466	2.4888043
4.233672474674966	6.2637243	2.5027432
4.251211240018741	6.413899	2.5325677
4.268750104996445	6.688959	2.5863023
4.286289070020643	7.6698365	2.769447
4.303828135503928	9.166265	3.0275838
4.3213673018589125	29.339327	5.416579
4.3389065694982305	90.42187	9.509042
4.356445938834537	165.75589	12.874622
4.3739854102805085	171.81342	13.107761
4.391524984248844	172.81361	13.145859
4.409064661152262	136.94124	11.702189
4.426604441403504	97.04636	9.851211
4.444144325415337	75.74241	8.7030115
4.461684313600543	21.672123	4.6553326
4.47922440637193	22.038795	4.6945496
4.496764604142329	20.419151	4.5187554
4.5143049073245916	18.609737	4.3139005
4.531845316331589	16.432947	4.053757
4.5493858315762195	13.596084	3.6872869
4.566926453471405	11.339178	3.3673697
4.584467182430081	9.39213	3.0646582
4.602008018865218	8.288404	2.878959
4.619548963189798	7.5679326	2.7509875
4.637090015816834	7.0773864	2.6603358
4.654631177159353	6.880766	2.6231215
4.672172447630417	6.6251674	2.57394
4.689713827643102	6.4704423	2.5437064
4.7072553176105085	6.2118683	2.492362
4.724796917945764	6.069669	2.4636698
4.742338629062015	5.906523	2.430334
4.759880451372434	5.781728	2.4045224
4.777422385290215	5.717027	2.3910306
4.794964431228581	5.635901	2.3740053
4.812506589600768	5.613515	2.3692858
4.830048860820047	5.576422	2.361445
4.847591245299709	5.657782	2.3786092
4.8651337434530655	5.6576676	2.378585
4.882676355693457	5.70503	2.3885205
4.900219082434242	5.6281033	2.3723624
4.917761924088813	5.6052403	2.367539
4.935304881070575	5.530698	2.3517435
4.952847953792969	5.557145	2.35736
4.970391142669449	5.521711	2.349832
4.9879344481135055	5.531941	2.3520079
5.005477870538642	5.5052876	2.346335
5.023021410358394	5.4609685	2.3368716
5.040565067986324	5.5067463	2.3466458
5.05810884383601	5.398264	2.3234165
5.075652738321066	5.3820667	2.3199282
5.09319675185512	5.3609524	2.315373
5.110740884851836	5.428029	2.329813
5.128285137724894	5.428836	2.3299863
5.145829510888007	5.4136477	2.3267248
5.163374004754908	5.4103436	2.3260145
5.1809186197393595	5.387276	2.3210506
5.198463356255145	5.3702464	2.3173792
5.216008214716077	5.3356037	2.3098927
5.233553195535998	5.307911	2.3038905
5.251098299128764	5.2306843	2.2870688
5.268643525908272	5.280625	2.297961
5.286188876288432	5.2705355	2.2957647
5.3037343506831895	5.321685	2.3068776
5.32127994950651	5.3031344	2.3028536
5.3388256731723915	5.3052206	2.3033063
5.356371522094851	5.224005	2.2856083
5.373917496687938	5.165539	2.272782
5.391463597365729	5.114578	2.2615433
5.40900982454232	5.080525	2.254002
5.426556178631843	5.126171	2.2641048
5.444102660048449	5.16244	2.2721002
5.4616492692063225	5.15538	2.2705462
5.479196006519669	5.190047	2.2781675
5.496742872402727	5.226916	2.2862449
5.514289867269756	5.267356	2.295072
5.531836991535049	5.269489	2.2955368
5.549384245612924	5.234069	2.2878087
5.566931629917724	5.152702	2.2699564
5.584479144863822	5.1328907	2.2655883
5.6020267908656205	5.1569676	2.2708957
5.619574568337545	5.200479	2.2804558
5.637122477694054	5.232341	2.287431
5.654670519349629	5.218367	2.2843745
5.672218693718784	5.2246366	2.2857463
5.689767001216059	5.230683	2.2870686
5.707315442256021	5.2315226	2.2872522
5.724864017253266	5.1584244	2.2712164
5.7424127266224225	5.140782	2.2673292
5.75996157077814	5.1373487	2.266572
5.777510550135105	5.1601343	2.2715929
5.795059665108022	5.0701613	2.2517018
5.812608916111639	5.076062	2.2530117
5.830158303560715	5.275059	2.2967496
5.847707827870055	5.4065504	2.325199
5.86525748945448	5.4431477	2.3330555
5.8828072887288485	5.5132375	2.3480284
5.900357226108044	5.5036564	2.3459873
5.917907302006979	5.549299	2.355695
5.9354575168406	6.151805	2.4802833
5.9530078710238765	6.8064175	2.6089113
5.970558364971812	7.4153476	2.7231135
5.988108999099438	7.7393556	2.7819698
6.005659773821818	8.242452	2.870967
6.023210689554039	7.9534135	2.8201797
6.040761746711227	8.375965	2.894126
6.058312945708531	7.7830544	2.7898126
6.075864286961132	7.4074907	2.7216706
6.093415770884244	6.831077	2.613633
6.1109673978931065	6.2865634	2.507302
6.128519168402993	5.620583	2.370777
6.146071082829204	5.423765	2.328898
6.163623141587075	5.223347	2.2854643
6.181175345091969	5.151844	2.2697673
6.198727693759281	5.174052	2.2746542
6.216280188004435	5.209633	2.2824621
6.233832828242885	5.227929	2.2864666
6.251385614890126	5.2336826	2.2877243
6.268938548361669	5.2474737	2.2907364
6.286491629073067	5.1959095	2.2794538
6.304044857439898	5.1920824	2.278614
6.321598233877777	5.0795107	2.253777
6.339151758802344	5.0680423	2.2512312
6.356705432629277	5.053726	2.2480495
6.37425925577428	5.0682473	2.2512767
6.391813228653095	5.0866246	2.2553546
6.409367351681486	5.1048865	2.2593997
6.426921625275259	5.0962768	2.2574935
6.44447604985025	5.054148	2.2481432
6.46203062582232	5.050273	2.2472813
6.47958535360737	5.005825	2.23737
6.497140233621328	5.035853	2.2440705
6.514695266280161	5.015392	2.239507
6.532250451999859	4.9863367	2.2330108
6.549805791196454	5.002766	2.2366865
6.567361284286002	4.9839034	2.2324657
6.584916931684597	5.059902	2.2494226
6.602472733808367	5.074293	2.2526193
6.6200286910734665	5.051433	2.2475393
6.637584803896092	4.975706	2.230629
6.655141072692462	4.961885	2.2275288
6.672697497878842	4.9659605	2.2284436
6.690254079871514	5.013429	2.2390687
6.707810819086808	4.990704	2.2339883
6.725367715941078	5.0046754	2.2371132
6.742924770850719	4.975877	2.2306674
6.760481984232151	4.995857	2.2351413
6.778039356501836	5.032212	2.2432592
6.795596888076266	4.994037	2.2347343
6.813154579371963	5.033678	2.243586
6.830712430805492	5.0200853	2.2405548
6.84827044279344	4.9967504	2.2353413
6.865828615752445	4.979461	2.2314706
6.883386950099159	4.9667983	2.2286315
6.900945446250287	5.0301476	2.242799
6.918504104622553	5.062745	2.2500544
6.936062925632727	5.1239996	2.2636254
6.953621909697607	5.1415215	2.2674923
6.971181057234028	5.0872793	2.2554998
6.988740368658859	5.0905046	2.2562146
7.006299844389007	5.150652	2.2695048
7.023859484841407	5.2440376	2.2899864
7.041419290433036	5.387904	2.3211858
7.058979261580902	5.49995	2.3451972
7.0765393987020495	5.680767	2.383436
7.094099702213559	6.030771	2.4557629
7.111660172532549	6.4021463	2.5302463
7.129220810076164	6.7538877	2.5988243
7.146781615261595	7.4257374	2.7250206
7.16434258850606	7.6696506	2.7694135
7.181903730226821	8.140751	2.8532002
7.1994650408411704	8.2341175	2.8695152
7.217026520766437	8.3447275	2.888724
7.234588170419983	8.565932	2.9267614
7.252149990219215	8.515522	2.9181368
7.269711980581568	8.446601	2.9063036
7.2872741419245175	8.21916	2.8669078
7.304836474665574	7.8272758	2.7977269
7.322398979222286	7.440669	2.727759
7.339961656012233	7.1823797	2.6799963
7.357524505453039	6.9206862	2.6307197
7.375087527962357	6.70044	2.5885208
7.392650723957886	6.4123845	2.5322688
7.410214093857353	6.0462766	2.4589179
7.427777638078528	5.8479457	2.4182527
7.445341357039213	5.679332	2.3831348
7.4629052511572525	5.4928493	2.3436828
7.480469320850524	5.3856196	2.3206937
7.498033566536948	5.2775702	2.2972963
7.5155979886344735	5.2042193	2.2812757
7.5331625875610975	5.165786	2.2728364
7.550727363734844	5.1962123	2.2795203
7.568292317573788	5.1098294	2.2604933
7.585857449496025	5.0995855	2.2582262
7.603422759919705	5.1144624	2.2615178
7.620988249263007	5.160702	2.2717178
7.638553917944147	5.1699758	2.2737582
7.656119766381391	5.1571107	2.2709272
7.673685794993023	5.135298	2.2661195
7.691252004197388	5.178619	2.275658
7.70881839441285	5.181663	2.2763267
7.726384966057826	5.2315326	2.2872543
7.743951719550762	5.270652	2.29579
7.761518655310149	5.323744	2.307324
7.779085773754511	5.316295	2.3057094
7.796653075302419	5.276918	2.2971544
7.814220560372475	5.285925	2.299114
7.831788229383323	5.3240685	2.3073943
7.8493560827536495	5.4052477	2.3249187
7.866924120902174	5.40399	2.3246484
7.884492344247663	5.340199	2.310887
7.9020607532089135	5.3158116	2.3056045
7.919629348204771	5.292518	2.3005474
7.937198129654115	5.331965	2.3091047
7.954767097975865	5.3364973	2.310086
7.972336253588986	5.3485456	2.3126922
7.989905596912472	5.4089055	2.3257053
8.007475128365371	5.449932	2.334509
8.025044848366756	5.505426	2.3463645
8.042614757335754	5.65058	2.3770947
8.060184855691523	5.69768	2.3869812
8.07775514385327	5.8427672	2.4171817
8.095325622240228	5.8753366	2.4239094
8.112896291271687	5.9095974	2.4309664
8.130467151366968	5.9438424	2.4379997
8.148038202945436	6.026454	2.4548838
8.165609446426497	6.060148	2.4617367
8.183180882229594	6.076025	2.4649594
8.200752510774217	6.053147	2.4603143
8.218324332479893	6.0037994	2.4502652
8.235896347766193	5.956985	2.4406936
8.253468557052724	5.914665	2.4320085
8.27104096075914	5.9842753	2.4462779
8.288613559305137	6.0229883	2.4541776
8.306186353110448	6.1707244	2.4840944
8.32375934259485	6.30703	2.5113802
8.341332528178162	6.347986	2.519521
8.358905910280246	6.3834944	2.526558
8.376479489321003	6.281325	2.506257
8.394053265720377	6.325497	2.515054
8.411627239898356	6.35385	2.5206845
8.42920141227497	6.3878026	2.5274103
8.44677578327029	6.4027987	2.5303752
8.464350353304427	6.3447857	2.5188859
8.48192512279754	6.2704787	2.5040925
8.499500092169827	6.2177205	2.4935358
8.51707526184153	6.1907873	2.4881294
8.534650632232934	6.237409	2.4974806
8.552226203764365	6.2600455	2.5020082
8.569801976856192	6.314879	2.5129423
8.587377951928834	6.3403697	2.5180092
8.60495412940274	6.3469763	2.5193205
8.622530509698416	6.362718	2.5224428
8.6401070932364	6.4314294	2.5360262
8.657683880437283	6.4794316	2.5454729
8.675260871721695	6.6630626	2.581291
8.692838067510303	6.860062	2.619172
8.710415468223834	7.1616335	2.676123
8.727993074283043	7.3194795	2.7054536
8.745570886108737	7.2682343	2.6959662
8.763148904121765	7.2986107	2.701594
8.78072712874302	7.3342433	2.708181
8.798305560393441	7.7100782	2.776703
8.815884199494006	7.8303657	2.798279
8.833463046465745	7.985769	2.8259103
8.851042101729728	7.99463	2.8274777
8.86862136570707	8.253995	2.8729768
8.886200838818924	8.394678	2.897357
8.903780521486505	8.486306	2.9131265
8.921360414131055	8.537814	2.921954
8.938940517173874	8.636887	2.938858
8.956520831036297	8.724282	2.9536896
8.97410135613971	8.988581	2.9980962
8.99168209290554	9.151505	3.0251455
9.009263041755265	9.427194	3.0703735
9.026844203110405	9.720353	3.117748
9.044425577392525	9.968189	3.157244
9.062007165023239	10.079548	3.1748304
9.079588966424197	10.295068	3.208593
9.097170982017108	10.31989	3.2124586
9.11475321222372	11.284767	3.3592808
9.132335657465825	12.201404	3.4930508
9.149918318165264	12.352334	3.5145888
9.167501194743924	12.831819	3.5821528
9.18508428762374	12.503778	3.5360682
9.202667597226693	12.422755	3.5245929
9.220251123974803	12.136542	3.4837542
9.237834868290143	11.841925	3.4412098
9.255418830594836	11.681144	3.4177687
9.273003011311046	11.108508	3.332943
9.290587410860985	10.869115	3.296834
9.308172029666911	10.173205	3.1895463
9.32575686815113	9.9994755	3.1621947
9.343341926735997	8.784759	2.9639094
9.360927205843916	8.624372	2.936728
9.378512705897327	8.462923	2.9091103
9.396098427318728	8.224379	2.8678176
9.413684370530664	8.127977	2.8509607
9.431270535955722	8.003438	2.8290348
9.448856924016539	7.936878	2.8172467
9.466443535135806	7.7792044	2.7891226
9.484030369736251	7.7834053	2.7898755
9.501617428240658	7.7562337	2.7850015
9.519204711071852	7.8174214	2.7959652
9.536792218652714	7.7781806	2.788939
9.55437995140617	7.8190513	2.7962565
9.571967909755191	7.795343	2.7920141
9.589556094122802	7.84897	2.8016014
9.60714450493207	7.8995185	2.8106081
9.624733142606116	7.953897	2.8202655
9.642322007568108	8.009675	2.830137
9.659911100241267	8.035978	2.8347802
9.677500421048851	8.095488	2.845257
9.695089970414175	8.13009	2.8513312
9.712679748760609	8.123688	2.8502083
9.730269756511557	8.158702	2.8563442
9.747859994090492	8.233126	2.8693423
9.765450461920915	8.286905	2.8786986
9.78304116042639	8.321289	2.8846645
9.800632090030527	8.323104	2.884979
9.81822325115699	8.304027	2.8816707
9.835814644229481	8.322085	2.8848026
9.853406269671762	8.316129	2.88377
9.870998127907646	8.384267	2.8955598
9.888590219360985	8.376708	2.8942542
9.906182544455698	8.359981	2.8913631
9.923775103615734	8.307087	2.8822017
9.941367897265108	8.2839365	2.878183
9.958960925827878	8.357857	2.8909957
9.97655418972816	8.3835125	2.8954296
9.994147689390106	8.410247	2.9000425
10.011741425237934	8.305455	2.8819187
10.029335397695904	8.321939	2.8847773
10.04692960718833	8.252393	2.8726978
10.06452405413958	8.276843	2.8769503
10.082118738974064	8.274538	2.8765497
10.099713662116246	8.320777	2.8845756
10.117308823990651	8.357654	2.8909607
10.134904225021844	8.330135	2.8861973
10.152499865634445	8.2833395	2.8780792
10.170095746253125	8.27903	2.8773303
10.18769186730261	8.263775	2.8746781
10.205288229207675	8.260121	2.8740427
10.222884832393145	8.21005	2.8653183
10.2404816772839	8.145798	2.8540845
10.258078764304868	8.122175	2.849943
10.275676093881035	8.084876	2.8433917
10.293273666437438	8.0939045	2.8449788
10.310871482399158	8.130743	2.8514457
10.32846954219134	8.137222	2.8525817
10.346067846239173	8.211646	2.865597
10.363666394967908	8.201893	2.8638947
10.38126518880283	8.193369	2.8624063
10.398864228169298	8.280022	2.8775027
10.416463513492713	8.305914	2.8819983
10.434063045198531	8.235932	2.8698313
10.451662823712262	8.157144	2.8560715
10.469262849459467	8.124197	2.8502977
10.486863122865758	8.154823	2.8556652
10.504463644356806	8.170297	2.8583732
10.522064414358338	8.153506	2.8554344
10.539665433296118	8.075261	2.8417003
10.557266701595987	8.023266	2.832537
10.574868219683818	7.9096065	2.8124022
10.592469987985552	7.7929325	2.7915823
10.610072006927185	7.6794133	2.7711754
10.627674276934751	7.605721	2.757847
10.64527679843435	7.500642	2.73873
10.662879571852143	7.305358	2.7028425
10.680482597614331	7.1832876	2.6801655
10.698085876147173	7.093373	2.6633387
10.715689407876988	7.0140815	2.648411
10.733293193230146	6.935444	2.633523
10.750897232633072	6.798674	2.6074266
10.76850152651225	6.7639904	2.6007674
10.786106075294207	6.664802	2.5816278
10.803710879405534	6.519471	2.5533254
10.821315939272877	6.3660827	2.5231097
10.83892125532294	6.2907834	2.5081434
10.856526827982472	6.295716	2.5091264
10.874132657678285	6.311057	2.5121818
10.891738744837243	6.268045	2.5036063
10.909345089886271	6.2038302	2.490749
10.926951693252343	6.1160703	2.473069
10.944558555362494	6.087595	2.4673052
10.96216567664381	5.993081	2.448077
10.979773057523436	5.928607	2.434873
10.997380698428573	5.906267	2.4302814
11.014988599786477	5.9180584	2.4327059
11.032596762024461	5.8912387	2.4271874
11.050205185569892	5.7583075	2.3996475
11.067813870850198	5.6223755	2.3711548
11.085422818292859	5.5456433	2.354919
11.10303202832541	5.491506	2.3433962
11.120641501375454	5.449854	2.3344922
11.138251237870636	5.333057	2.3093412
11.155861238238671	5.2744336	2.2966135
11.173471502907317	5.2142577	2.283475
11.191082032304402	5.1540375	2.2702506
11.208692826857805	5.144546	2.2681592
11.226303886995465	5.097388	2.2577395
11.243915213145371	5.0135584	2.2390976
11.261526805735578	4.970228	2.2294009
11.279138665194196	4.9533772	2.2256184
11.296750791949393	4.9377713	2.2221096
11.314363186429393	4.8883348	2.2109578
11.331975849062479	4.8265853	2.196949
11.34958878027699	4.7610497	2.181983
11.36720198050133	4.732452	2.17542
11.384815450163948	4.650242	2.156442
11.402429189693366	4.62786	2.151246
11.420043199518153	4.5449314	2.1318846
11.437657480066942	63.536892	7.971003
11.455272031768422	85.20071	9.230423
11.472886855051353	107.561066	10.371165
11.490501950344528	99.10698	9.955249
11.508117318076819	84.47978	9.191288
11.52573295867715	45.85098	6.771335
11.543348872574514	4.124874	2.0309787
11.560965060197946	4.0784287	2.019512
11.57858152197655	4.0624275	2.0155466
11.59619825833949	4.034647	2.0086432
11.613815269715985	4.026255	2.006553
11.631432556535323	38.54944	6.2088194
11.649050119226837	83.09208	9.115486
11.666667958219929	93.479935	9.668502
11.68428607394406	107.707924	10.3782425
11.701904466828756	82.52759	9.08447
11.719523137303586	65.325424	8.082415
11.737142085798196	4.5663185	2.1368947
11.754761312742286	3.712612	1.926814
11.772380818565619	3.6631224	1.9139285
11.790000603698015	3.635326	1.906653
11.80762066856935	3.6076102	1.899371
11.825241013609572	3.624875	1.9039105
11.842861639248683	3.5965798	1.8964651
11.860482545916748	3.527481	1.8781589
11.878103734043883	3.493473	1.8690835
11.895725204060282	3.4681554	1.8622984
11.91334695639619	3.46627	1.8617921
11.930968991481919	3.4607487	1.8603088
11.948591309747824	3.4299438	1.8520107
11.966213911624347	3.4209526	1.8495817
11.98383679754198	3.373398	1.8366812
12.001459967931268	3.3319678	1.8253678
12.019083423222835	3.2979734	1.8160323
12.036707163847352	3.2459555	1.8016535
12.05433119023556	3.2333639	1.7981557
12.071955502818259	3.2062464	1.7905995
12.089580102026313	3.1715534	1.7808856
12.107204988290643	3.1362424	1.7709439
12.12483016204224	3.1398857	1.7719723
12.142455623712152	3.1409209	1.7722644
12.16008137373149	3.165529	1.7791934
12.177707412531431	3.161197	1.7779756
12.19533374054321	3.1477923	1.7742019
12.212960358198126	3.1159728	1.7652118
12.230587265927545	3.0908	1.7580671
12.248214464162889	3.046876	1.7455302
12.265841953335649	3.02921	1.7404627
12.283469733877375	3.046106	1.7453097
12.301097806219685	3.0505211	1.7465742
12.31872617079425	3.005503	1.7336386
12.336354828032825	2.9608378	1.7207085
12.353983778367205	2.9562392	1.7193718
12.371613022229262	2.977185	1.7254521
12.389242560050928	2.9851928	1.727771
12.406872392264201	2.9552112	1.7190728
12.424502519301143	2.9367735	1.7137017
12.442132941593874	2.8725698	1.6948657
12.459763659574586	2.8470147	1.6873099
12.477394673675532	2.8471236	1.6873422
12.49502598432903	2.875376	1.6956934
12.51265759196746	2.8933525	1.7009858
12.530289497023267	2.8226686	1.6800799
12.547921699928967	2.8151777	1.6778492
12.565554201117134	2.7922893	1.6710144
12.583187001020404	2.8033218	1.6743124
12.600820100071486	2.8143961	1.6776162
12.618453498703152	2.7830563	1.6682495
12.636087197348235	2.775143	1.665876
12.65372119643964	2.7888622	1.6699886
12.671355496410326	2.816263	1.6781725
12.68899009769333	2.8337805	1.6833837
12.706625000721749	2.8119817	1.6768965
12.724260205928752	2.8616393	1.691638
12.741895713747551	2.9258227	1.7105037
12.759531524611454	3.0154095	1.7364935
12.777167638953818	3.048535	1.7460054
12.794804057208072	3.0225163	1.7385385
12.812440779807702	3.0287585	1.7403328
12.830077807186271	3.1960924	1.7877618
12.847715139777405	3.2509649	1.8030432
12.865352778014795	3.4968534	1.8699875
12.882990722332197	3.6142287	1.9011124
12.90062897316344	3.6679704	1.9151946
12.918267530942412	3.7101815	1.9261831
12.935906396103071	3.6058238	1.8989006
12.953545569079449	3.7590277	1.9388212
12.971185050305628	3.5951407	1.8960856
12.988824840215775	3.5924113	1.8953657
13.006464939244115	3.6528223	1.9112358
13.024105347824943	3.52067	1.8763448
13.041746066392617	3.6214926	1.9030219
13.05938709538157	3.3943694	1.8423815
13.077028435226296	3.400042	1.8439204
13.094670086361363	3.3123317	1.8199812
13.112312049221401	3.2219188	1.7949704
13.129954324241112	3.1343884	1.7704204
13.147596911855258	2.9149864	1.7073331
13.165239812498685	2.838548	1.6847991
13.182883026606293	2.7857404	1.6690538
13.200526554613058	2.7320545	1.6528927
13.218170396954017	2.7411213	1.6556332
13.235814554064284	2.734587	1.6536586
13.253459026379034	2.7436113	1.6563851
13.271103814333523	2.7301757	1.6523243
13.288748918363058	2.685952	1.6388874
13.306394338903031	2.6623042	1.6316569
13.32404007638889	2.6786022	1.6366435
13.341686131256164	2.6868846	1.639172
13.359332503940449	2.6733155	1.6350276
13.376979194877402	2.652788	1.6287382
13.394626204502751	2.7052557	1.6447662
13.412273533252307	2.7178683	1.6485958
13.429921181561937	2.725789	1.6509964
13.447569149867581	2.7447374	1.6567249
13.465217438605247	2.7355466	1.6539488
13.482866048211022	2.708302	1.645692
13.500514979121052	2.7284398	1.651799
13.518164231771568	2.7344868	1.6536283
13.535813806598844	2.6993873	1.6429812
13.553463704039254	2.6601043	1.6309826
13.571113924529229	2.6191301	1.6183727
13.588764468505275	2.6478643	1.627226
13.606415336403956	2.6873543	1.6393152
13.624066528661917	2.7311442	1.6526173
13.641718045715882	2.7996182	1.673206
13.659369888002635	2.8405619	1.6853967
13.67702205595903	2.846449	1.6871423
13.694674550021993	2.8994746	1.7027844
13.712327370628532	2.978555	1.725849
13.729980518215713	3.1352491	1.7706635
13.747633993220681	3.238216	1.7995044
13.765287796080647	3.2764637	1.8101004
13.7829419272329	3.3184438	1.8216596
13.800596387114801	3.3387465	1.8272238
13.818251176163775	3.3535542	1.8312712
13.835906294817324	3.3636384	1.8340225
13.853561743513023	3.4551425	1.8588014
13.871217522688525	3.4926693	1.8688685
13.888873632781538	3.525548	1.8776443
13.906530074229858	3.55377	1.8851446
13.92418684747135	3.5914588	1.8951144
13.941843952943948	3.6003225	1.8974515
13.959501391085665	3.5391426	1.8812609
13.977159162334578	3.4279919	1.8514837
13.994817267128846	3.3481538	1.8297961
14.012475705906693	3.2704957	1.8084512
14.030134479106424	3.1902676	1.786132
14.047793587166414	3.103514	1.7616793
14.065453030525108	3.0640848	1.7504528
14.083112809621026	3.035883	1.7423785
14.100772924892766	2.9768364	1.7253511
14.118433376778997	2.9177465	1.7081412
14.136094165718458	2.862851	1.6919961
14.153755292149969	2.8170066	1.6783941
14.171416756512416	2.774175	1.6655855
14.189078559244768	2.706526	1.6451523
14.20674070078606	2.6167648	1.6176417
14.224403181575408	2.5714083	1.6035612
14.242066002051999	2.5208113	1.5877063
14.259729162655093	2.4619682	1.569066
14.277392663824022	2.422703	1.5565034
14.295056505998208	2.4291627	1.5585772
14.312720689617128	2.428843	1.5584745
14.330385215120348	2.432555	1.559665
14.348050082947497	2.4284086	1.5583352
14.3657152935383	2.4352367	1.5605245
14.383380847332528	2.4171748	1.5547266
14.401046744770051	2.4342582	1.560211
14.418712986290798	2.4203396	1.555744
14.436379572334793	2.4254577	1.5573881
14.454046503342123	2.4064474	1.5512729
14.471713779752946	2.4184127	1.5551246
14.489381402007504	2.400106	1.5492275
14.507049370546113	2.4105859	1.5526061
14.524717685809168	2.4131804	1.5534414
14.542386348237134	2.4572709	1.5675684
14.560055358270553	2.4584036	1.5679297
14.577724716350051	2.4631155	1.5694315
14.595394422916325	2.4836738	1.5759676
14.61306447841015	2.513949	1.5855438
14.63073488327237	2.5028467	1.5820388
14.648405637943917	2.4856827	1.5766048
14.6660767428658	2.456469	1.5673127
14.683748198479094	2.47977	1.5747285
14.701420005224954	2.5271254	1.5896934
14.719092163544628	2.5992875	1.6122307
14.73676467387942	2.6164825	1.6175544
14.754437536670727	2.6086063	1.615118
14.772110752360014	2.6175845	1.6178951
14.78978432138882	2.6385927	1.6243745
14.807458244198777	2.6927524	1.6409608
14.82513252123159	2.6873472	1.639313
14.842807152929028	2.674563	1.6354091
14.860482139732962	2.6638637	1.6321347
14.87815748208531	2.6838415	1.6382434
14.8958331804281	2.7364888	1.6542336
14.91350923520342	2.7034228	1.6442089
14.931185646853438	2.6956446	1.6418419
14.948862415820408	2.706676	1.6451979
14.966539542546656	2.742869	1.656161
14.98421702747459	2.7007706	1.6434021
15.001894871046696	2.6451368	1.6263877
15.019573073705542	2.630739	1.6219553
15.037251635893766	2.671598	1.6345024
15.054930558054092	2.7326026	1.6530585
15.072609840629323	2.7545245	1.659676
15.090289484062351	2.867509	1.693372
15.107969488796124	3.119123	1.7661039
15.125649855273691	3.5730102	1.8902408
15.14333058393817	4.103094	2.0256095
15.161011675232768	5.095544	2.2573311
15.17869312960076	6.4641953	2.542478
15.196374947485506	8.28862	2.8789964
15.214057129330447	11.404261	3.3770194
15.231739675579114	16.037415	4.004674
15.249422586675102	21.012083	4.583894
15.267105863062092	23.97627	4.896557
15.284789505183847	24.096449	4.9088135
15.302473513484218	21.931837	4.683144
15.320157888407127	18.283098	4.275874
15.337842630396578	14.225637	3.771689
15.355527739896656	11.036475	3.322119
15.37321321735153	8.62237	2.9363873
15.39089906320545	6.367372	2.5233653
15.408585277902748	4.8218765	2.195877
15.42627186188783	3.7300482	1.9313333
15.443958815605198	3.1607988	1.7778635
15.461646139499424	2.816041	1.6781064
15.479333834015168	2.7015216	1.6436306
15.497021899597165	2.6563568	1.6298333
15.514710336690234	2.6770427	1.636167
15.53239914573928	2.645641	1.6265427
15.550088327189297	2.6274254	1.6209335
15.567777881485336	2.5597005	1.5999064
15.58546780907256	2.50878	1.5839128
15.6031581103962	2.4691386	1.5713493
15.620848785901568	2.505848	1.5829871
15.638539836034063	2.5510852	1.5972117
15.656231261239173	2.5412061	1.5941161
15.673923061962451	2.495766	1.5797993
15.691615238649552	2.4258742	1.5575218
15.709307791746202	2.4067333	1.551365
15.727000721698221	2.422804	1.556536
15.744694028951498	2.444389	1.5634543
15.76238771395202	2.404973	1.5507976
15.780081777145844	2.3756077	1.5413007
15.797776218979125	2.379486	1.5425583
15.815471039898094	2.4101932	1.5524797
15.833166240349064	2.4132295	1.5534573
15.850861820778437	2.3885055	1.545479
15.868557781632699	2.3781798	1.5421348
15.886254123358412	2.358845	1.5358531
15.903950846402232	2.3455591	1.5315218
15.921647951210897	2.3817568	1.5432942
15.939345438231225	2.3831828	1.543756
15.957043307910133	2.3802798	1.5428156
15.974741560694602	2.338481	1.5292093
15.992440197031714	2.3573267	1.5353588
16.01013921736862	2.3533278	1.534056
16.02783862215259	2.3553689	1.5347211
16.045538411830933	2.3761098	1.5414635
16.06323858685107	2.3993573	1.548986
16.080939147660512	2.4216027	1.55615
16.09864009470684	2.4089575	1.5520817
16.11634142843774	2.3916886	1.5465086
16.134043149300954	2.3650498	1.5378718
16.15174525774433	2.397773	1.5484744
16.169447754215817	2.4223373	1.556386
16.18715063916342	2.4424343	1.5628289
16.204853913035244	2.4334981	1.5599674
16.222557576279478	2.4628525	1.5693477
16.240261629344403	22.46058	4.7392597
16.257966072678386	42.985966	6.5563684
16.275670906729868	38.083927	6.1712174
16.293376131947387	2.495485	1.5797105
16.31108174877957	2.5034297	1.582223
16.328787757675133	2.511086	1.5846406
16.34649415908287	2.5586715	1.5995848
16.364200953451657	2.5934546	1.6104206
16.38190814123048	2.6601143	1.6309857
16.39961572286839	2.703364	1.6441909
16.41732369881455	2.7176216	1.6485211
16.43503206951817	2.7073379	1.645399
16.45274083542859	2.7292128	1.652033
16.47044999699522	2.7591698	1.6610749
16.488159554667558	2.8390164	1.6849381
16.505869508895184	2.8915513	1.7004561
16.523579860127786	2.9299037	1.7116961
16.541290608815117	2.957848	1.7198396
16.559001755407035	2.9952986	1.7306931
16.57671330035348	3.0788095	1.7546537
16.59442524410448	3.1370287	1.771166
16.61213758711015	3.1744778	1.7817065
16.629850329820705	3.2081382	1.7911277
16.647563472686436	3.298557	1.816193
16.665277016157724	3.3616347	1.8334762
16.682990960685053	3.4296293	1.8519258
16.70070530671898	3.4645398	1.8613274
16.718420054710155	3.5144732	1.8746928
16.736135205109335	3.5912385	1.8950564
16.753850758367335	3.6499286	1.9104786
16.771566714935087	3.702348	1.9241487
16.789283075263597	3.7272453	1.9306076
16.80699983980398	3.7800868	1.9442445
16.82471700900741	3.786443	1.9458785
16.84243458332518	3.8472815	1.9614488
16.860152563208665	3.9316218	1.9828317
16.87787094910932	4.031214	2.0077884
16.89558974147871	4.095407	2.0237112
16.913308940768466	4.1862793	2.0460398
16.931028547430333	4.238656	2.0587997
16.94874856191613	4.2982874	2.0732312
16.966468984677785	4.320338	2.0785422
16.98418981616729	4.358628	2.0877328
17.00191105683676	4.3925605	2.0958436
17.019632707138374	4.4576173	2.111307
17.03735476752442	4.5183854	2.1256495
17.05507723844728	4.5534806	2.1338887
17.072800120359403	4.551373	2.1333947
17.090523413713353	4.6290426	2.151521
17.108247118961785	4.676883	2.1626103
17.125971236557437	4.7038255	2.1688304
17.143695766953133	4.709906	2.1702318
17.161420710601806	4.7167196	2.171801
17.179146067956477	4.652108	2.1568747
17.19687183947025	4.6711326	2.1612804
17.21459802559634	4.696147	2.1670594
17.232324626788028	4.698683	2.1676445
17.25005164349871	4.6853867	2.1645753
17.267779076181863	4.6674285	2.1604233
17.285506925291074	4.7064633	2.1694386
17.30323519127999	4.7136884	2.171103
17.320963874602384	4.6836567	2.1641757
17.33869297571211	4.622812	2.1500726
17.356422495063114	4.5922804	2.1429605
17.37415243310944	4.5268183	2.1276321
17.391882790305218	4.4917727	2.1193802
17.40961356710468	4.4761744	2.1156971
17.42734476396215	4.5317383	2.128788
17.445076381332044	4.572504	2.1383414
17.462808419668868	4.641411	2.1543934
17.48054087942723	4.769156	2.1838398
17.498273761061835	5.0923023	2.256613
17.51600706502747	5.5915933	2.364655
17.533740791779024	6.2906313	2.5081131
17.551474941771485	7.6639185	2.7683783
17.56920951545993	8.670626	2.9445927
17.586944513299528	10.753716	3.279286
17.60467993574556	12.424802	3.5248833
17.622415783253373	14.178882	3.7654855
17.64015205627843	15.615865	3.9516914
17.657888755276293	16.62586	4.077482
17.675625880702604	17.036392	4.1275163
17.69336343301311	16.799734	4.0987477
17.71110141266366	15.973407	3.9966745
17.728839820110178	15.10556	3.8865871
17.746578655808705	14.339459	3.786748
17.764317920215372	13.021402	3.6085181
17.7820576137864	11.667805	3.4158168
17.79979773697811	9.714518	3.116812
17.81753829024692	7.725128	2.7794116
17.835279274049356	5.948651	2.4389856
17.85302068884201	4.8392267	2.1998243
17.870762535081607	4.2044177	2.0504677
17.888504813224934	3.8856406	1.9712029
17.90624752372891	3.6411407	1.9081774
17.923990667050536	3.5604844	1.8869246
17.941734243646895	3.5341272	1.8799274
17.959478253975185	3.5461574	1.8831244
17.9772226984927	3.5177987	1.8755796
17.994967577656833	3.4674826	1.8621178
18.01271289192506	3.42923	1.851818
18.030458641754965	3.4104068	1.8467287
18.04820482760425	3.3805106	1.8386165
18.06595144993067	3.3466644	1.8293891
18.083698509192125	3.317172	1.8213105
18.101446005846576	3.2932193	1.8147229
18.119193940352105	3.3048992	1.8179382
18.136942313166887	3.2578754	1.8049586
18.1546911247492	3.2240825	1.795573
18.1724403755574	3.1856532	1.7848399
18.19019006604997	3.1844625	1.7845062
18.207940196685467	3.1849756	1.78465
18.225690767922575	3.137476	1.7712922
18.243441780220046	3.0877452	1.7571981
18.261193234036764	3.0606291	1.7494653
18.278945129831676	3.0767872	1.7540773
18.29669746806386	3.0699534	1.7521282
18.314450249192483	3.0191119	1.7375592
18.3322034736768	3.0182638	1.737315
18.349957141976184	3.0514133	1.7468295
18.3677112545501	3.058314	1.7488036
18.385465811858108	3.0256271	1.739433
18.403220814359884	3.0071673	1.7341186
18.420976262515172	3.0406694	1.7437515
18.43873215678387	3.074316	1.7533728
18.456488497625923	3.10035	1.760781
18.474245285501407	3.192455	1.7867442
18.492002520870486	3.2719152	1.8088436
18.50976020419343	3.3278778	1.8242471
18.527518335930615	3.5949867	1.896045
18.545276916542516	4.189115	2.0467327
18.563035946489688	4.4145517	2.1010835
18.580795426232832	4.919447	2.2179825
18.598555356232698	4.775517	2.1852956
18.616315736950185	5.071474	2.2519934
18.63407656884626	4.6933556	2.1664155
18.65183785238201	4.934013	2.221264
18.669599588018617	4.6731443	2.1617458
18.68736177621737	4.6591587	2.1585085
18.705124417439652	4.661867	2.1591358
18.72288751214696	4.5171742	2.1253645
18.740651060800886	4.6481595	2.1559591
18.758415063863115	4.3352337	2.0821223
18.77617952179546	4.5249968	2.127204
18.793944435059814	4.269104	2.066181
18.811709804118184	4.263081	2.064723
18.829475629432675	4.2415953	2.0595133
18.8472419114655	4.0524273	2.0130641
18.86500865067897	4.124879	2.0309799
18.88277584753551	3.7983246	1.9489291
18.90054350249763	3.7882404	1.9463403
18.918311616027957	3.467119	1.8620201
18.936080188589226	3.3435469	1.8285369
18.953849220644265	3.03425	1.7419099
18.971618712656007	2.8401418	1.685272
18.9893886650875	2.8106158	1.6764891
19.007159078401887	7.999972	2.828422
19.024929953062408	32.89079	5.7350492
19.042701289532435	32.824448	5.7292624
19.060473088275405	25.409618	5.0407953
19.07824534975489	2.6721451	1.6346698
19.096018074434568	2.6792903	1.6368538
19.113791262778197	2.665535	1.6326466
19.13156491524966	2.667297	1.6331861
19.149339032312945	2.6102214	1.615618
19.167113614432136	2.572986	1.6040529
19.184888662071433	2.5148847	1.5858388
19.202664175695123	2.499765	1.5810645
19.220440155767623	2.5099187	1.5842723
19.238216602753447	2.537696	1.5930147
19.2559935171172	2.5786264	1.6058102
19.27377089932361	2.5657809	1.6018054
19.291548749837514	2.5338373	1.5918032
19.309327069123835	2.4977152	1.5804162
19.32710585764763	2.5118418	1.5848792
19.344885115874032	2.5035658	1.582266
19.362664844268313	2.4753573	1.5733268
19.380445043295822	2.4907737	1.5782185
19.39822571342203	2.5005903	1.5813255
19.41600685511252	2.5010688	1.5814768
19.43378846883297	2.5085404	1.5838373
19.451570555049173	2.5121052	1.5849622
19.469353114227037	2.5171194	1.5865432
19.48713614683254	2.5102174	1.5843666
19.50491965333182	2.4793456	1.5745938
19.52270363419109	2.4324343	1.5596263
19.540488089876686	2.4477813	1.5645387
19.55827302085503	2.4814553	1.5752636
19.576058427592674	2.51102	1.5846198
19.593844310556282	2.4940894	1.5792686
19.611630670212598	2.490264	1.578057
19.629417507028506	2.453526	1.5663735
19.64720482147098	2.4753778	1.5733334
19.6649926140071	2.4673967	1.5707949
19.682780885104084	2.4802973	1.574896
19.70056963522921	2.4662201	1.5704204
19.718358864849908	2.4819102	1.575408
19.7361485744337	2.4880397	1.5773522
19.753938764448215	2.499069	1.5808444
19.771729435361202	2.5040178	1.5824089
19.789520587640506	2.5217977	1.5880169
19.807312221754092	2.5496237	1.5967541
19.825104338170043	2.5713108	1.6035308
19.842896937356517	2.5806515	1.6064407
19.860690019781824	2.5452957	1.5953983
19.87848358591436	2.494014	1.5792447
19.896277636222635	2.5031657	1.5821396
19.914072171175278	2.497141	1.5802344
19.931867191241015	2.501415	1.5815862
19.94966269688869	2.5025709	1.5819516
19.967458688587264	2.4890172	1.577662
19.985255166805807	2.4460204	1.5639758
20.00305213201348	2.4272478	1.5579627
20.020849584679578	2.4397907	1.561983
20.038647525273507	2.4466705	1.5641837
20.05644595426477	2.421582	1.5561433
20.07424487212299	2.4258888	1.5575265
20.092044279317903	2.457335	1.5675889
20.109844176319353	2.4869866	1.5770183
20.127644563597304	2.4703662	1.5717399
20.145445441621817	2.425495	1.5574001
20.16324681086307	2.405642	1.5510132
20.181048671791373	2.4143298	1.5538113
20.198851024877122	2.4249	1.557209
20.216653870590836	2.3971515	1.5482737
20.234457209403146	2.3581426	1.5356245
20.252261041784802	2.3228586	1.5240927
20.270065368206662	2.3219237	1.523786
20.287870189139685	2.3156536	1.5217272
20.305675505054968	2.328504	1.5259436
20.323481316423702	2.3427534	1.5306056
20.341287623717207	2.3402057	1.5297731
20.359094427406884	2.3373206	1.5288298
20.376901727964288	2.315416	1.5216491
20.39470952586107	2.3034184	1.5177016
20.41251782156899	2.300774	1.5168303
20.430326615559935	2.352641	1.5338322
20.448135908305886	2.3425155	1.5305278
20.465945700278965	2.3677967	1.5387646
20.483755991951384	2.3734655	1.5406055
20.50156678379548	2.4026568	1.5500506
20.519378076283708	2.3792112	1.5424691
20.537189869888635	2.3594186	1.53604
20.55500216508294	2.3701835	1.53954
20.572814962339415	2.3903675	1.5460813
20.59062826213098	2.4181354	1.5550355
20.60844206493066	2.3877594	1.5452377
20.626256371211593	2.3854825	1.5445007
20.644071181447032	2.3807247	1.5429597
20.66188649611036	2.3352008	1.5281364
20.67970231567506	2.3170016	1.5221701
20.697518640614742	2.333387	1.5275427
20.715335471403122	2.3527746	1.5338757
20.73315280851404	2.3489745	1.5326364
20.750970652421447	2.3505554	1.5331521
20.768789003599412	2.3534064	1.5340816
20.786607862522136	2.3111548	1.5202483
20.8044272296639	2.3042202	1.5179658
20.82224710549913	2.299585	1.5164382
20.84006749050237	2.3243835	1.5245929
20.857888385148268	3.838619	1.9592394
20.8757097899116	45.93648	6.7776456
20.893531705267254	64.79455	8.049506
20.911354131690224	83.81738	9.155184
20.92917706965566	69.03697	8.308849
20.94700051963877	50.082108	7.0768714
20.96482448211493	29.361526	5.4186277
20.982648957559622	4.1264277	2.031361
21.00047394644843	2.2372735	1.4957519
21.01829944925707	2.2347977	1.494924
21.036125466461375	2.2613263	1.5037707
21.053951998537297	2.2594023	1.5031308
21.071779045960906	2.2557433	1.5019132
21.089606609208378	2.2429857	1.49766
21.10743468875603	2.2133477	1.4877324
21.12526328508028	2.194998	1.4815526
21.143092398657675	2.2078526	1.4858844
21.16092202996488	2.2168157	1.4888974
21.17875217947867	2.2358675	1.4952817
21.19658284767596	2.2209551	1.490287
21.21441403503377	2.2077532	1.485851
21.232245742029225	2.2301698	1.4933753
21.2500779691396	2.2270207	1.4923205
21.26791071684227	2.2005107	1.4834119
21.28574398561475	2.1483507	1.4657253
21.30357777593465	2.1624565	1.4705293
21.321412088279704	2.1960633	1.481912
21.339246923127792	2.216851	1.4889094
21.357082280956888	2.1860743	1.4785379
21.3749181622451	2.194706	1.481454
21.392754567470647	2.1768322	1.4754092
21.41059149711187	2.1689138	1.4727232
21.42842895164726	2.1720908	1.4738015
21.446266931555378	2.1923985	1.480675
21.464105437314945	2.1753657	1.474912
21.481944469404798	2.1532693	1.4674022
21.49978402830388	2.1355681	1.4613583
21.51762411449127	2.140662	1.4631001
21.53546472844617	2.1391468	1.4625822
21.553305870647876	2.124377	1.4575243
21.571147541575865	2.1139183	1.453932
21.58898974170967	2.1219726	1.4566993
21.60683247152899	2.1041157	1.450557
21.62467573151363	2.0842483	1.4436926
21.642519522143523	2.0432482	1.4294224
21.660363843898722	2.0277593	1.4239942
21.6782086972594	2.0481303	1.431129
21.696054082705864	2.085408	1.4440942
21.713900000718535	2.071906	1.4394118
21.73174645177795	2.0442708	1.42978
21.749593436364794	2.0424771	1.4291526
21.767440954959845	2.0105925	1.4179536
21.785289008044032	1.9960195	1.4128056
21.803137596098388	2.0247338	1.4229314
21.820986719604086	2.0354028	1.4266754
21.838836379042412	2.0375903	1.4274418
21.85668657489478	2.0440736	1.429711
21.87453730764273	2.0460129	1.430389
21.892388577767914	2.0310628	1.4251536
21.91024038575213	2.0175638	1.4204097
21.928092732077285	2.032436	1.4256352
21.945945617225426	2.0228803	1.42228
21.963799041678694	2.0156338	1.4197302
21.981653005919398	31.354845	5.5995398
21.999507510429943	78.14182	8.839787
22.01736255569286	73.12332	8.551217
22.035218142190818	4.1761184	2.0435553
22.05307427040661	1.999255	1.4139501
22.07093094082315	1.95132	1.3968966
22.088788153923474	1.963973	1.4014182
22.106645910190746	1.9849004	1.408865
22.12450421010827	1.9866221	1.4094758
22.142363054159464	1.989503	1.4104974
22.16022244282787	1.97395	1.4049733
22.178082376597164	2.0061157	1.4163741
22.195942855951145	1.9767157	1.4059572
22.213803881373742	1.9774638	1.4062233
22.231665453349002	1.99962	1.4140792
22.24952757236111	2.0133474	1.4189247
22.26739023889438	2.0011368	1.4146154
22.28525345343323	1.9912319	1.4111102
22.30311721646225	1.9765661	1.405904
22.320981528466113	1.9653239	1.4019
22.33884638992964	1.9505886	1.3966347
22.356711801337788	1.9571846	1.3989941
22.37457776317561	1.9407257	1.3930993
22.392444275928337	1.9579369	1.399263
22.410311340081282	1.9627008	1.4009643
22.428178956119904	1.9453746	1.3947668
22.446047124529805	1.9401705	1.3929
22.46391584579669	1.9249306	1.3874186
22.481785120406414	1.9366857	1.3916485
22.49965494884496	1.9562583	1.398663
22.51752533159841	1.9576547	1.3991622
22.53539626915302	1.9953154	1.4125563
22.553267761995137	2.0234058	1.4224647
22.571139810611264	1.9805402	1.4073167
22.589012415488025	1.9446827	1.3945189
22.60688557711216	1.979624	1.4069911
22.624759295970566	2.000728	1.4144709
22.642633572550263	1.9898275	1.4106125
22.660508407338362	1.9756707	1.4055855
22.67838380082217	1.968866	1.4031628
22.696259753489077	1.9362503	1.3914921
22.714136265826614	1.9215488	1.3861995
22.73201333832246	1.9523346	1.3972597
22.74989097146439	1.9809754	1.4074713
22.76776916574035	2.000016	1.4142193
22.785647921638393	1.9874655	1.409775
22.803527239646712	1.96205	1.4007319
22.82140712025363	1.935079	1.3910712
22.839287563947593	1.9207754	1.3859204
22.85716857121719	1.9253685	1.3875765
22.875050142551135	1.9176717	1.3848002
22.892932278438277	1.8881007	1.3740817
22.910814979367604	1.8834457	1.3723869
22.928698245828222	1.9089799	1.3816584
22.946582078309387	1.9391375	1.3925291
22.96446647730047	1.9158441	1.3841403
22.98235144329098	1.8683934	1.3668919
23.000236976770562	1.8494295	1.3599373
23.018123078229	1.9061453	1.3806323
23.03600974815619	1.946162	1.3950491
23.053896987042194	1.9325237	1.3901525
23.071784795377173	1.9164885	1.384373
23.08967317365145	1.8824865	1.3720373
23.10756212235546	1.8639275	1.3652573
23.125451641979787	1.862463	1.3647208
23.143341733015134	1.8763573	1.3698019
23.161232395952357	1.8854979	1.3731344
23.179123631282426	1.8766341	1.369903
23.197015439496468	1.9076313	1.3811703
23.214907821085717	1.9433388	1.3940369
23.23280077654157	1.9413769	1.3933331
23.250694306355538	1.9455079	1.3948146
23.268588411019277	1.9356693	1.3912833
23.28648309102458	1.9362738	1.3915006
23.304378346863356	1.9249507	1.3874259
23.322274179027676	1.9157183	1.3840947
23.340170588009723	1.9395703	1.3926846
23.358067574301852	1.935027	1.3910525
23.37596513839651	1.9638833	1.4013861
23.39386328078629	1.9561156	1.398612
23.411762001963947	1.9541898	1.3979234
23.429661302422353	1.911878	1.3827068
23.4475611826545	1.9052337	1.3803021
23.46546164315356	1.9067695	1.3808583
23.48336268441279	1.9214051	1.3861476
23.501264306925638	1.9404787	1.3930106
23.51916651118564	1.9355953	1.3912567
23.537069297686497	1.9305521	1.389443
23.554972666922037	1.9129215	1.383084
23.57287661938623	1.8925334	1.3756938
23.59078115557318	1.9095869	1.381878
23.608686275977128	1.9395372	1.3926727
23.62659198109246	1.9725192	1.404464
23.6444982714137	1.9691758	1.4032732
23.66240514743549	1.9564269	1.3987232
23.68031260965263	1.9436096	1.394134
23.698220658560068	1.8919325	1.3754754
23.716129294652845	1.8659434	1.3659954
23.7340385184262	1.8599442	1.3637977
23.75194833037546	1.9046596	1.380094
23.769858730996123	1.9252315	1.3875271
23.78776972078382	1.911292	1.3824948
23.80568130023431	1.909995	1.3820257
23.823593469843495	1.9211866	1.3860687
23.841506230107424	1.9696755	1.4034513
23.859419581522275	1.9805346	1.4073147
23.87733352458438	1.9619322	1.4006898
23.89524805979019	1.9153299	1.3839544
23.913163187636318	1.9012192	1.3788471
23.931078908619508	1.9177002	1.3848106
23.948995223236633	1.9439963	1.3942727
23.966912131984735	1.9609455	1.4003376
23.98482963536096	2.0261319	1.4234226
24.002747733862616	2.0526865	1.43272
24.020666427987155	2.0682812	1.438152
24.038585718232156	2.0951915	1.4474776
24.056505605095353	2.1018817	1.4497868
24.074426089074617	2.1057518	1.4511209
24.092347170667946	2.0723069	1.4395509
24.110268850373515	2.0517802	1.4324037
24.128191128689586	2.0206122	1.4214824
24.146114006114626	2.0187604	1.4208308
24.164037483147187	2.0175374	1.4204004
24.181961560286005	2.0469255	1.430708
24.199886238029926	2.035658	1.4267648
24.21781151687797	1.9928077	1.4116684
24.235737397329274	1.9695415	1.4034035
24.253663879883135	1.9876791	1.4098507
24.271590965038975	2.011953	1.4184333
24.289518653296376	2.0425906	1.4291923
24.30744694515505	2.0483437	1.4312036
24.32537584111486	2.0219312	1.4219463
24.34330534167581	2.002827	1.4152126
24.361235447338046	2.0410662	1.4286588
24.379166158601876	2.0474465	1.4308901
24.39709747596772	2.01436	1.4192815
24.41502939993615	1.9749082	1.4053143
24.432961931007917	1.9753059	1.4054557
24.450895069683856	1.9721262	1.4043242
24.468828816465	1.9678961	1.4028172
24.4867631718525	1.9723054	1.404388
24.504698136347656	1.9487027	1.3959594
24.52263371045192	1.8770493	1.3700545
24.540569894666874	1.8946553	1.3764648
24.558506689494266	1.963409	1.401217
24.57644409543597	1.9907942	1.4109551
24.594382112994012	1.9056425	1.3804501
24.61232074267057	1.8673993	1.3665282
24.630259984967953	1.905181	1.380283
24.64819984038863	1.9289882	1.3888803
24.66614030943522	1.9471661	1.395409
24.684081392610462	1.9687643	1.4031266
24.702023090417274	1.9739815	1.4049845
24.7199654033587	2.019032	1.4209265
24.737908331937927	2.01919	1.4209821
24.755851876658305	1.990371	1.4108051
24.773796038023324	1.978363	1.4065429
24.79174081653661	2.0119677	1.4184384
24.809686212701962	2.0970764	1.4481286
24.827632227023294	2.1286585	1.4589922
24.8455788600047	2.1340303	1.4608321
24.8635261121504	2.1322646	1.4602276
24.88147398396475	2.0858393	1.4442436
24.899422475952303	2.1030228	1.4501803
24.917371588617698	2.0993397	1.4489099
24.935321322465768	2.1380422	1.4622046
24.953271678001478	2.2591405	1.5030438
24.97122265572994	2.4882705	1.5774252
24.989174256156414	2.8549325	1.6896546
25.00712647978632	3.273795	1.8093631
25.02507932712521	3.73991	1.9338846
25.043032798678798	4.28421	2.0698333
25.060986894952933	4.9488792	2.2246077
25.078941616453637	5.672281	2.381655
25.096896963687055	6.472652	2.5441408
25.114852937159508	7.6070886	2.758095
25.132809537377444	8.092795	2.8447838
25.150766764847468	8.176477	2.8594542
25.168724620076347	7.639948	2.7640455
25.186683103570985	6.647342	2.578244
25.204642215838426	5.487139	2.3424644
25.222601957385894	4.1664476	2.0411878
25.24056232872074	3.2327807	1.7979935
25.25852333035048	2.6868834	1.6391716
25.276484962782778	2.293144	1.514313
25.294447226525435	2.0912704	1.4461225
25.312410122086423	1.9931197	1.4117789
25.330373649973843	1.9319578	1.3899488
25.348337810695988	1.8984523	1.3778434
25.366302604761245	1.9333652	1.390455
25.384268032678207	1.9725108	1.404461
25.40223409495558	1.9355887	1.3912544
25.420200792102257	1.9026126	1.3793522
25.438168124627246	1.8871908	1.3737507
25.45613609303974	1.9114879	1.3825657
25.474104697849057	1.9370317	1.3917729
25.492073939564698	1.9302374	1.3893298
25.510043818696285	1.9393321	1.3925991
25.528014335753614	1.944045	1.3942901
25.54598549124664	1.9176931	1.384808
25.56395728568544	1.8346441	1.3544903
25.58192971958028	1.7954663	1.3399501
25.59990279344156	1.8457904	1.3585987
25.617876507779833	1.9284115	1.3886726
25.635850863105826	1.9399099	1.3928065
25.653825859930386	1.8546294	1.3618478
25.671801498764548	1.8498244	1.3600825
25.68977778011949	1.9132242	1.3831935
25.707754704506524	1.9241676	1.3871437
25.725732272437153	1.8544084	1.3617667
25.743710484423012	1.8371238	1.3554053
25.761689340975888	1.8528532	1.3611954
25.77966884260774	1.8401479	1.3565205
25.797648989830662	1.869599	1.3673328
25.815629783156922	1.8633715	1.3650537
25.83361122309895	1.8389133	1.3560654
25.85159331016929	1.8112789	1.3458376
25.869576044880695	1.7904673	1.3380834
25.887559427746034	1.8114295	1.3458936
25.90554345927836	1.8681267	1.3667943
25.92352813999086	1.8801343	1.3711799
25.94151347039689	1.8532343	1.3613355
25.959499451009965	1.7894319	1.3376966
25.97748608234374	1.793024	1.3390385
25.995473364912062	1.8277069	1.3519272
26.013461299228904	1.8507776	1.3604329
26.03144988580839	1.888749	1.3743176
26.04943912516483	1.860882	1.3641415
26.067429017812675	1.8470008	1.3590441
26.085419564266537	1.8304311	1.3529342
26.103410765041186	1.817744	1.3482374
26.12140262065155	1.7942578	1.3394991
26.139395131612723	1.7803189	1.3342859
26.157388298439948	1.7313056	1.3157909
26.17538212164861	1.7476033	1.3219695
26.193376601754295	1.7695129	1.3302304
26.211371739272714	1.8422414	1.3572919
26.229367534719746	1.8996236	1.3782684
26.247363988611433	1.8875895	1.3738958
26.26536110146397	1.8166083	1.3478161
26.283358873793727	1.7743648	1.3320528
26.301357306117204	1.8175877	1.3481795
26.319356398951104	1.8624012	1.3646982
26.33735615281224	1.8610705	1.3642106
26.35535656821762	1.8465114	1.358864
26.373357645684404	1.8196867	1.3489577
26.39135938572991	1.8436588	1.357814
26.409361788871614	1.8382028	1.3558034
26.427364855627165	1.8281797	1.3521019
26.445368586514352	1.7950176	1.3397827
26.46337298205115	1.8016005	1.3422371
26.48137804275568	1.8314921	1.3533263
26.499383769146217	1.8299519	1.3527571
26.517390161741215	1.7937974	1.3393272
26.53539722105928	1.7932813	1.3391346
26.553404947619182	1.8017297	1.3422853
26.571413341939856	1.7768583	1.3329885
26.589422404540397	1.7954037	1.3399267
26.60743213594006	1.8098749	1.3453159
26.62544253665827	1.8262848	1.3514011
26.64345360721459	1.8206131	1.349301
26.66146534812879	1.844213	1.358018
26.679477759920758	1.8989947	1.3780402
26.69749084311057	1.926823	1.3881005
26.71550459821847	1.8641407	1.3653353
26.733519025764842	1.8273356	1.3517898
26.751534126270258	1.8146238	1.3470798
26.769549900255434	1.8241403	1.3506074
26.787566348241267	1.8310977	1.3531806
26.80558347074881	1.8616964	1.36444
26.823601268299267	1.8914496	1.3752998
26.841619741414036	1.8649296	1.3656242
26.85963889061465	1.849115	1.3598217
26.877658716422832	1.8195128	1.3488932
26.89567921936045	1.8384557	1.3558966
26.913700399949544	1.8154315	1.3473794
26.93172225871233	1.8177736	1.3482484
26.949744796171174	1.8342602	1.3543487
26.967768012848605	1.8458586	1.3586237
26.98579190926733	1.8343643	1.354387
27.003816485950225	1.8136065	1.3467021
27.021841743420318	1.7992047	1.3413444
27.039867682200814	1.831724	1.353412
27.057894302815072	1.8190478	1.3487208
27.07592160578664	1.7414405	1.3196365
27.0939495916392	1.7170933	1.310379
27.111978260896635	1.7277998	1.314458
27.13000761408296	1.7159964	1.3099605
27.148037651722397	1.740516	1.3192861
27.166068374339304	1.8031876	1.3428282
27.184099782458215	1.8350898	1.3546549
27.20213187660384	1.8723478	1.3683376
27.22016465730105	1.8627435	1.3648236
27.23819812507487	1.8661836	1.3660833
27.256232280450533	1.8395396	1.3562963
27.274267123953383	1.8187493	1.3486102
27.292302656108987	1.8197433	1.3489786
27.31033887744306	1.8549613	1.3619696
27.32837578848146	1.8593239	1.3635702
27.34641338975026	1.8155222	1.3474132
27.364451681775673	1.7921505	1.3387122
27.382490665084074	1.8407762	1.356752
27.400530340202046	1.8314391	1.3533068
27.41857070765629	1.8247032	1.3508158
27.436611767973726	1.7785184	1.333611
27.454653521681404	1.7672077	1.3293637
27.472695969306564	1.7561518	1.3251988
27.490739111376627	1.7542907	1.3244964
27.508782948419153	1.7750554	1.3323121
27.526827480961902	1.8171021	1.3479993
27.54487270953279	1.8591189	1.3634951
27.562918634659898	1.834683	1.3545047
27.580965256871508	1.7928752	1.3389829
27.599012576696026	1.8337157	1.3541476
27.617060594662068	1.8444717	1.3581133
27.63510931129842	1.8804748	1.371304
27.65315872713401	1.8497229	1.3600452
27.67120884269797	1.802608	1.3426124
27.68925965851958	1.808367	1.3447554
27.707311175128307	1.8211006	1.3494816
27.725363393053787	1.8323689	1.3536502
27.74341631282583	1.8664815	1.3661923
27.7614699349744	1.8578494	1.3630295
27.77952426002968	2.079329	1.4419879
27.797579288521973	2.184228	1.4779134
27.815635020981784	2.6090693	1.6152614
27.83369145793979	2.611507	1.6160158
27.85174859992682	2.474776	1.573142
27.869806447473923	2.3425822	1.5305496
27.887865001112267	2.0231767	1.4223841
27.905924261373233	1.9463521	1.3951173
27.92398422878836	1.9264826	1.3879778
27.94204490388936	1.9383737	1.392255
27.96010628720813	1.9602368	1.4000846
27.978168379276728	1.9038937	1.3798165
27.9962311806274	1.877934	1.3703773
28.014294691792568	1.8565018	1.3625351
28.0323589133048	1.8895546	1.3746107
28.050423845696887	1.8583441	1.3632109
28.068489489501758	1.8273454	1.3517934
28.086555845252523	1.8038989	1.343093
28.104622913482487	1.8392816	1.3562012
28.122690694725115	1.8317032	1.3534043
28.14075918951405	1.8324907	1.3536952
28.15882839838312	1.8556926	1.362238
28.176898321866304	1.9057095	1.3804743
28.1949689604978	1.9103714	1.3821619
28.213040314811945	1.8557736	1.3622679
28.23111238534327	1.8466148	1.3589021
28.249185172626493	1.8669956	1.3663805
28.267258677196473	1.9147412	1.3837417
28.285332899588294	1.876872	1.3699898
28.303407840337172	1.8399127	1.3564337
28.321483499978545	1.8834125	1.3723748
28.33955987904799	1.9633019	1.4011787
28.357636978081285	1.9759346	1.4056795
28.37571479761439	1.9891708	1.4103796
28.393793338183425	1.9672415	1.4025838
28.41187260032469	1.963129	1.4011171
28.429952584574686	1.967182	1.4025626
28.448033291470065	1.988848	1.4102652
28.46611472154769	1.9930612	1.4117582
28.484196875344566	1.9959321	1.4127746
28.502279753397914	1.995476	1.4126132
28.52036335624511	2.0458837	1.4303439
28.538447684423716	2.0123658	1.4185787
28.556532738471482	1.9710215	1.4039308
28.574618518926325	2.008641	1.4172653
28.59270502632635	2.0488315	1.431374
28.61079226120985	2.0676048	1.4379169
28.628880224115274	2.0457337	1.4302914
28.646968915581287	1.9904232	1.4108236
28.66505833614671	1.9592843	1.3997444
28.68314848635055	2.0005968	1.4144245
28.701239366732004	2.0729997	1.4397916
28.71933097783044	2.1269987	1.4584234
28.737423320185403	2.0646727	1.4368969
28.75551639433665	2.0498729	1.4317377
28.773610200824074	2.1229784	1.4570444
28.791704740187793	2.2072394	1.4856781
28.80980001296809	2.2151086	1.488324
28.827896019705413	2.156907	1.4686413
28.845992760940433	2.0992303	1.4488721
28.86409023721397	2.1238437	1.4573413
28.88218844906704	2.176961	1.4754528
28.900287397040845	2.2351892	1.495055
28.918387081676755	2.2495258	1.4998419
28.936487503516343	2.2740963	1.5080107
28.954588663101365	2.3103049	1.5199687
28.97269056097374	2.2979867	1.5159112
28.990793197675597	2.3140726	1.5212076
29.00889657374923	2.356118	1.5349652
29.027000689737125	2.3801475	1.5427727
29.04510554618196	2.3617182	1.5367882
29.06321114362659	2.3863053	1.544767
29.08131748261405	2.4501133	1.5652838
29.099424563687567	2.515845	1.5861416
29.11753238739057	2.474951	1.5731977
29.13564095426663	2.4288726	1.5584841
29.15375026485954	2.4589145	1.5680926
29.171860319713275	2.5761135	1.6050276
29.18997111937199	2.6109579	1.6158459
29.20808266438002	2.6988707	1.6428239
29.226194955281898	2.7900138	1.6703334
29.244307992622335	2.7875314	1.6695902
29.26242177694624	2.7664704	1.663271
29.2805363087987	2.8100564	1.6763223
29.29865158872498	2.887243	1.699189
29.316767617270557	3.000524	1.732202
29.334884394981064	3.004787	1.7334322
29.353001922402367	2.9729562	1.7242262
29.37112020008047	2.9460611	1.7164093
29.389239228561596	3.044806	1.7449373
29.407359008392152	3.3488517	1.8299868
29.42547954011872	3.7237294	1.9296967
29.44360082428809	4.3323464	2.081429
29.46172286144722	5.4340825	2.331112
29.479845652143283	7.032172	2.6518242
29.497969196923606	9.049162	3.0081825
29.516093496335728	11.490789	3.3898067
29.5342185509274	14.080809	3.7524405
29.55234436124651	16.2338	4.029119
29.570470927841175	17.628973	4.198687
29.588598251259686	17.492891	4.1824503
29.60672633205055	16.15831	4.01974
29.624855170762405	13.964117	3.7368593
29.642984767944146	11.335632	3.366843
29.66111512414481	8.688073	2.9475539
29.67924623991366	6.364518	2.5227997
29.697378115800138	4.904473	2.2146044
29.71551075235387	4.0511365	2.0127435
29.733644150124675	3.7501566	1.9365321
29.751778309662576	3.5536046	1.8851007
29.769913231517766	3.4417243	1.8551885
29.78804891624066	3.3740797	1.8368669
29.806185364381818	3.3748055	1.8370644
29.82432257649206	3.3287456	1.8244851
29.842460553122333	3.3426008	1.8282781
29.86059929482382	3.367512	1.8350782
29.878738802147872	3.2866955	1.8129246
29.896879075646048	3.2215567	1.7948695
29.915020115870114	3.171419	1.7808478
29.933161923371976	3.2013056	1.7892193
29.951304498703777	3.2625265	1.8062465
29.969447842417857	3.3035512	1.8175673
29.987591955066733	3.306803	1.8184617
30.005736837203123	3.27262	1.8090384
30.023882489379943	3.231331	1.7975904
30.04202891215028	3.194307	1.7872624
30.060176106067455	3.1803803	1.783362
30.078324071684946	3.1969314	1.7879964
30.09647280955646	3.1891353	1.785815
30.114622320235863	3.1464038	1.7738105
30.132772604277257	3.1404142	1.7721214
30.1509236622349	3.1405375	1.7721561
30.16907549466328	3.058938	1.748982
30.18722810211705	2.992956	1.7300161
30.205381485151097	3.0136108	1.7359755
30.22353564432045	3.0312824	1.7410579
30.241690580180403	3.05744	1.7485538
30.25984629328638	2.9794014	1.7260942
30.278002784194037	2.9648879	1.721885
30.296160053459246	2.9571426	1.7196344
30.314318101638033	2.9457831	1.7163284
30.332476929286646	2.934271	1.7129714
30.35063653696153	2.9658372	1.7221606
30.368796925219307	2.9448712	1.7160627
30.386958094616844	2.8840485	1.6982486
30.40512004571115	2.8605921	1.6913285
30.423282779059463	2.856715	1.690182
30.441446295219233	2.852147	1.6888301
30.459610594748067	2.8978038	1.7022936
30.47777567820382	2.9294152	1.7115535
30.495941546144504	2.8983617	1.7024575
30.51410819912835	2.861599	1.6916261
30.532275637713795	2.8291905	1.6820197
30.55044386245946	2.774537	1.6656941
30.56861287392416	2.7097766	1.64614
30.586782672666956	2.735866	1.6540453
30.604953259247047	2.7430627	1.6562194
30.623124634223885	2.7347317	1.6537024
30.641296798157075	2.7611635	1.6616749
30.659469751606462	2.7486684	1.6579108
30.677643495132074	2.6907558	1.6403524
30.695818029294152	2.670293	1.6341032
30.713993354653116	2.7082148	1.6456654
30.73216947176962	2.739763	1.6552229
30.75034638120448	2.7382934	1.654779
30.768524083518756	2.7441325	1.6565423
30.786702579273673	2.7700713	1.6643531
30.80488186903069	2.754769	1.6597497
30.82306195335144	2.834038	1.6834601
30.841242832797782	3.035846	1.742368
30.85942450793176	3.3267891	1.8239487
30.877606979315637	3.6053243	1.8987691
30.895790247511883	3.9403276	1.9850259
30.913974313083134	4.387748	2.094695
30.932159176592283	4.7305565	2.1749842
30.95034483860237	4.8418646	2.2004237
30.968531299676698	4.6061263	2.1461887
30.98671856037873	4.2641463	2.064981
31.00490662127215	3.8665423	1.9663526
31.023095482920848	3.4542344	1.8585571
31.04128514588892	3.0917492	1.758337
31.059475610740662	2.7551475	1.6598637
31.07766687804056	2.5320606	1.5912449
31.09585894835335	2.4634612	1.5695417
31.11405182224393	2.4751897	1.5732735
31.132245500277417	2.4845252	1.5762377
31.15043998301914	2.4948635	1.5795137
31.168635271034628	2.4713526	1.5720537
31.18683136488964	2.4016607	1.5497292
31.20502826515008	2.4069185	1.5514246
31.223225972382135	2.408538	1.5519465
31.241424487152155	2.3581967	1.5356421
31.259623810026692	2.3454382	1.5314823
31.27782394157253	2.3789897	1.5423974
31.296024882356644	2.4819763	1.575429
31.314226632946237	2.5038347	1.582351
31.332429193908684	2.4421868	1.5627497
31.350632565811598	2.3890984	1.5456709
31.368836749222787	2.4688063	1.5712435
31.387041744710295	2.5105634	1.5844758
31.40524755284232	2.5241513	1.5887578
31.423454174187317	2.4881737	1.5773946
31.441661609313922	2.4727974	1.5725131
31.459869858791002	2.535506	1.5923272
31.478078923187628	2.5038984	1.5823711
31.496288803073064	2.4201686	1.5556891
31.514499499016807	2.3377295	1.5289636
31.532711011588546	2.282379	1.5107545
31.550923341358178	2.294614	1.5147984
31.56913648889584	2.3064	1.5186837
31.587350454771844	2.315059	1.5215318
31.605565239556732	2.2805355	1.5101442
31.62378084382127	2.2585166	1.5028362
31.641997268136382	2.353836	1.5342216
31.660214513073274	2.424337	1.5570282
31.67843257920331	2.398199	1.548612
31.6966514670981	2.3871837	1.5450513
31.71487117732944	2.3847291	1.5442568
31.733091710469346	2.353916	1.5342476
31.751313067090052	2.3477628	1.5322411
31.769535247764008	2.2817123	1.5105338
31.787758253063878	2.2164402	1.4887713
31.805982083562526	2.2416222	1.4972048
31.824206739833024	2.2943246	1.5147028
31.84243222244869	2.3141341	1.5212278
31.860658531983013	2.3055565	1.5184059
31.878885669009737	2.3218484	1.5237613
31.897113634102784	2.294713	1.5148311
31.91534242783632	2.261526	1.5038371
31.933572050784694	2.258562	1.5028514
31.951802503522508	2.2475414	1.4991802
31.970033786624548	2.243336	1.497777
31.988265900665834	2.2020197	1.4839203
32.006498846221575	2.1386342	1.462407
32.02473262386724	2.2235487	1.4911568
32.04296723417845	2.2444434	1.4981467
32.0612026777311	2.211689	1.4871749
32.07943895510129	2.1909328	1.48018
32.097676066865304	2.1872613	1.4789393
32.115914013599685	2.2441044	1.4980335
32.13415279588115	2.219822	1.4899067
32.152392414286666	2.1430295	1.4639089
32.1706328693934	2.101895	1.4497914
32.18887416177875	2.1433349	1.4640132
32.20711629202032	2.1071262	1.4515944
32.225359260695924	2.0566459	1.4341011
32.243603068383614	2.0840094	1.4436098
32.26184771566166	2.1043694	1.4506445
32.28009320310852	2.147174	1.4653238
32.2983395313029	2.1985667	1.4827565
32.31658670082372	2.2058823	1.4852213
32.33483471225012	2.2191648	1.4896861
32.35308356616143	2.16113	1.4700782
32.371333263137245	2.1580093	1.4690164
32.38958380375734	2.1726217	1.4739816
32.407835188601744	2.220574	1.490159
32.42608741825067	2.1374876	1.4620149
32.444340493284585	1.9771879	1.4061251
32.46259441428416	2.0080526	1.4170578
32.48084918183028	2.084796	1.4438822
32.49910479650405	2.0755894	1.4406906
32.51736125888683	2.0779705	1.4415168
32.53561856956014	2.0104122	1.4178901
32.5538767291058	1.942556	1.393756
32.572135738105764	1.9902291	1.4107548
32.59039559714228	2.014449	1.4193128
32.608656306797776	1.9380602	1.3921423
32.62691786765491	1.9237176	1.3869815
32.645180280296586	1.9959425	1.4127783
32.663443545305896	2.0835032	1.4434345
32.68170766326619	2.1011882	1.4495475
32.69997263476099	2.044849	1.4299822
32.7182384603741	2.0248678	1.4229785
32.7365051406895	2.0202336	1.4213493
32.75477267629144	1.9915614	1.4112269
32.77304106776434	1.949375	1.3962002
32.79131031569289	1.9526131	1.3973594
32.809580420661966	1.9880692	1.4099891
32.827851383256714	2.0028315	1.4152143
32.84612320406245	1.9891952	1.4103884
32.86439588366476	2.0228512	1.4222697
32.88266942264945	2.0260186	1.4233828
32.9009438216025	2.033493	1.426006
32.9192190811102	2.034839	1.4264778
32.937495201758985	1.9762241	1.4057823
32.95577218413556	1.9422638	1.3936512
32.974050028826866	1.9572711	1.3990251
32.992328736420035	2.0342934	1.4262866
33.010608307502444	2.085656	1.44418
33.02888874266169	2.0470212	1.4307414
33.047170042485604	1.9747576	1.4052607
33.06545220756225	1.9236586	1.3869601
33.083735238479896	1.9640509	1.401446
33.10201913582707	1.9273542	1.3882918
33.12030390019248	2.0294993	1.424605
33.138589532165135	2.1269593	1.4584099
33.15687603233419	2.1450875	1.4646118
33.17516340128909	2.0075564	1.4168826
33.19345163961947	1.9157609	1.3841101
33.211740747915215	1.9476025	1.3955653
33.23003072676643	1.9645368	1.4016193
33.248321576763466	1.9795413	1.4069617
33.266613298496885	1.968129	1.4029002
33.28490589255747	1.9922996	1.4114884
33.30319935953626	1.9833226	1.4083049
33.32149370002451	1.9728298	1.4045746
33.339788914613706	1.8700678	1.3675042
33.358085003895575	1.8562376	1.3624381
33.376381968462034	1.9391108	1.3925196
33.39467980890529	1.8483558	1.3595425
33.41297852581774	1.841757	1.3571135
33.43127811979204	1.8589473	1.3634322
33.44957859142105	1.8687398	1.3670186
33.467879941297866	1.8714149	1.3679967
33.486182170015844	1.8494216	1.3599344
33.50448527816853	1.9395254	1.3926685
33.522789266349754	2.0198147	1.4212018
33.541094135153514	2.086509	1.4444753
33.55939988517411	2.0584967	1.4347463
33.57770651700602	2.0521922	1.4325475
33.59601403124398	1.9674685	1.4026648
33.61432242848296	2.0376055	1.4274472
33.632631709318154	2.0757911	1.4407606
33.650941874344994	1.9548005	1.3981417
33.66925292415916	1.8004805	1.3418199
33.68756485935654	1.8562437	1.3624403
33.70587768053328	1.9082537	1.3813956
33.724191388285746	2.018865	1.4208677
33.74250598321054	2.0277133	1.423978
33.760821465904506	2.0280042	1.4240801
33.77913783696474	1.9722724	1.4043761
33.79745509698852	2.0603745	1.4354005
33.815773246573414	2.0589106	1.4348905
33.8340922863172	1.9421809	1.3936214
33.852412216817896	1.9677447	1.4027632
33.87073303867377	2.0110455	1.4181134
33.889054752483304	1.948426	1.3958603
33.907377358845245	1.7904797	1.338088
33.92570085835853	1.7698025	1.3303392
33.94402525162239	1.8543396	1.3617414
33.96235053923627	1.8807136	1.371391
33.980676721799824	1.8442796	1.3580426
33.999003799912984	1.8898011	1.3747004
34.01733177417592	1.9273632	1.388295
34.03566064518901	1.7896888	1.3377925
34.0539904135529	1.7511666	1.3233165
34.07232107986846	1.8014033	1.3421637
34.090652644736785	1.807208	1.3443244
34.108985108759235	1.7968647	1.3404719
34.12731847253742	2.002615	1.4151378
34.14565273667313	2.1665287	1.4719133
34.16398790176847	2.0208814	1.4215771
34.18232396842574	1.928031	1.3885355
34.20066093724749	1.9214023	1.3861465
34.21899880883651	1.968642	1.4030831
34.23733758379583	1.948194	1.3957772
34.25567726272874	1.9631792	1.401135
34.27401784623872	1.9692004	1.403282
34.29235933492957	1.9226694	1.3866036
34.31070172940526	1.8936913	1.3761146
34.32904503027003	1.9292952	1.3889908
34.347389238128386	2.0788443	1.4418198
34.36573435358502	2.1329675	1.4604683
34.38408037724492	2.1901383	1.4799116
34.402427309713296	2.1510744	1.4666542
34.42077515159559	2.1269462	1.4584054
34.43912390349752	2.0754116	1.4406289
34.45747356602499	2.0557392	1.433785
34.47582413978423	2.0768697	1.4411349
34.49417562538163	2.1978486	1.4825143
34.51252802342388	2.2417078	1.4972334
34.53088133451789	2.1622825	1.4704702
34.54923555927084	2.0839405	1.443586
34.567590698290104	2.1773612	1.4755884
34.58594675218336	2.183702	1.4777354
34.6043037215585	2.1155298	1.4544861
34.62266160702365	2.019665	1.4211491
34.641020409187234	1.9030777	1.3795208
34.65938012865785	1.9123598	1.382881
34.677740766044394	2.0222595	1.4220617
34.69610232195598	2.0974252	1.448249
34.714464797002016	2.0474768	1.4309007
34.73282819179208	1.9616514	1.4005897
34.751192506936064	1.9764062	1.4058472
34.76955774304408	2.0283854	1.424214
34.7879239007265	1.9618381	1.4006563
34.80629098059391	2.0191896	1.4209819
34.824658983257194	2.0436842	1.4295748
34.843027909327446	1.9187201	1.3851787
34.86139775941603	1.8712859	1.3679495
34.879768534134534	1.9168103	1.3844892
34.89814023409483	1.7434081	1.3203818
34.91651285990901	1.7681677	1.3297247
34.93488641218944	1.9656374	1.4020119
34.95326089154871	1.9634535	1.4012328
34.97163629859967	1.9296864	1.3891315
34.99001263395542	1.9439979	1.3942733
35.00838989822934	2.051243	1.4322162
35.02676809203499	2.1799002	1.4764485
35.04514721598624	2.0823345	1.4430296
35.063527270697215	2.0328085	1.425766
35.081908256782256	2.1066766	1.4514395
35.10029017485597	2.007087	1.4167169
35.11867302553321	2.108761	1.4521574
35.137056809429104	2.180262	1.4765711
35.155441527159006	2.0239556	1.422658
35.173827179338524	1.8254266	1.3510835
35.19221376658354	1.9790435	1.4067848
35.21060128951017	2.1221833	1.4567715
35.2289897487348	2.0501888	1.431848
35.24737914487405	1.798541	1.3410969
35.26576947854479	1.7138109	1.309126
35.28416075036418	1.8373288	1.355481
35.30255296094958	1.9776906	1.4063039
35.32094611091867	1.8510112	1.3605187
35.33934020088932	1.7695193	1.3302329
35.35773523147969	2.1893985	1.4796616
35.3761312033082	2.4348412	1.5603977
35.394528116993506	2.1515224	1.4668069
35.41292597315452	1.9302989	1.389352
35.431324772410434	1.8689085	1.3670803
35.449724515380666	1.7200952	1.311524
35.46812520268491	1.820837	1.349384
35.486526834943106	1.7798215	1.3340995
35.504929412775454	1.9792745	1.4068669
35.52333293680242	2.1835995	1.4777007
35.54173740764471	2.4325423	1.5596609
35.560142825923286	2.1318588	1.4600886
35.5785491922594	2.0054061	1.4161236
35.59695650727454	2.343139	1.5307316
35.61536477159042	2.3253791	1.5249194
