0.008763373481513119	0.0	0.0
0.026290120649546365	0.0	0.0
0.043816868432600686	0.1910755	0.43712184
0.06134361724069026	0.28355643	0.53250015
0.07887036748382949	0.22150825	0.47064662
0.0963971195720331	0.0939445	0.30650365
0.11392387391531617	0.03915608	0.19787896
0.1314506309236943	0.108027525	0.32867542
0.1489773910071836	0.16757983	0.40936515
0.16650415457580078	0.16060643	0.4007573
0.18403092203956356	0.12146928	0.34852442
0.20155769380849	0.0692527	0.26315907
0.2190844702925996	0.085508734	0.29241878
0.2366112519019124	0.15818192	0.3977209
0.2541380390464497	0.16508095	0.40630156
0.27166483213623416	0.21012107	0.45838964
0.28919163158128947	0.15670659	0.39586183
0.3067184377916406	0.12702392	0.35640416
0.324245251177314	0.11331274	0.3366196
0.34177207214833777	0.08504434	0.29162362
0.3592989011147415	0.12162817	0.34875232
0.37682573848655654	0.124724604	0.35316372
0.39435258467381573	0.12094098	0.3477657
0.41187944008655414	0.10532342	0.3245357
0.42940630513480854	0.08138787	0.2852856
0.446933180228618	0.070674874	0.26584747
0.4644600657780234	0.0857989	0.29291448
0.48198696219306775	0.14108174	0.37560847
0.49951386988379676	0.20815477	0.45623982
0.5170407892602581	0.2430605	0.49301165
0.5345677207325025	0.18439458	0.42941192
0.5520946647105822	0.123045474	0.35077837
0.5696216216045534	0.10893619	0.33005482
0.5871485918244737	0.14172475	0.37646347
0.6046755757804043	0.14733149	0.38383785
0.6222025738824094	0.16215397	0.40268347
0.6397295865405557	0.1607196	0.4008985
0.6572566141649129	0.192189	0.43839365
0.6747836571655547	0.22394204	0.47322515
0.6923107159525568	0.24767198	0.49766654
0.7098377909359992	0.21728532	0.46613872
0.7273648825259653	0.16247888	0.4030867
0.7448919911325411	0.13589512	0.36863956
0.762419117165817	0.114157416	0.33787188
0.7799462610358868	0.1316827	0.3628811
0.7974734231528482	0.19219038	0.43839523
0.8150006039268024	0.2228199	0.47203803
0.8325278037678551	0.23670472	0.4865231
0.8500550230861152	0.2644811	0.5142773
0.8675822622916969	0.27957636	0.5287498
0.8851095217947171	0.30207002	0.54960895
0.9026368020052984	0.26492462	0.5147083
0.9201641033335665	0.2505662	0.5005659
0.9376914261896523	0.23300628	0.48270723
0.9552187709836915	0.2422042	0.49214247
0.9727461381258234	0.2436728	0.49363226
0.990273528026193	0.2634676	0.51329094
1.0078009410949496	0.24520168	0.49517843
1.0253283777422473	0.25281858	0.50281066
1.0428558383782454	0.26184678	0.5117097
1.0603833234131086	0.2627229	0.512565
1.0779108332570058	0.2762778	0.52562135
1.0954383683201119	0.31164116	0.5582483
1.112965929012607	0.37710053	0.61408514
1.1304935157446763	0.45710146	0.6760928
1.1480211289265108	0.47352067	0.68812835
1.1655487689683062	1.2731104	1.1283219
1.1830764362802655	1.56388	1.2505518
1.200604131272596	1.9809244	1.4074532
1.2181318543555117	2.3064706	1.5187069
1.235659605939232	2.4163399	1.554458
1.253187386433982	4.0878916	2.0218534
1.270715196249994	6.535344	2.556432
1.2882430357975057	12.011238	3.4657233
1.3057709054867608	16.598276	4.074098
1.3232988057280106	22.556818	4.749402
1.3408267369315112	27.257923	5.220912
1.358354699507526	31.063465	5.5734606
1.3758826938663256	35.07017	5.9220076
1.3934107204181858	36.949352	6.078598
1.410938779573391	37.23078	6.101703
1.4284668717422309	37.272724	6.1051393
1.4459949973350033	36.490215	6.0407133
1.4635231567620117	36.786022	6.0651484
1.4810513504335687	36.35727	6.029699
1.4985795787599925	36.047577	6.0039635
1.5161078421516088	35.366657	5.946987
1.5336361410187505	34.877346	5.9057045
1.5511644757717598	35.13423	5.9274135
1.5686928468209842	35.858547	5.9882007
1.58622125457678	36.53236	6.0442004
1.6037496994495108	37.388145	6.1145844
1.621278181849548	36.989887	6.081931
1.6388067021872719	37.461166	6.120553
1.6563352608730693	36.971844	6.0804477
1.673863858317336	36.296524	6.0246596
1.6913924949304753	35.760918	5.9800434
1.7089211711228998	34.70404	5.8910136
1.7264498873050296	33.772957	5.8114505
1.7439786438872935	32.778137	5.7252192
1.7615074412801288	31.796959	5.6388793
1.779036279893981	31.202978	5.585963
1.796565160139305	30.142256	5.490196
1.814094082426564	29.28875	5.411908
1.8316230471662298	28.45431	5.334258
1.849152054768784	27.63865	5.2572474
1.8666811056447168	27.463776	5.240589
1.8842102002045273	26.716866	5.168836
1.901739338858724	26.39833	5.1379304
1.9192685220178245	25.907652	5.089956
1.9367977500923557	25.38462	5.0383153
1.9543270234928547	24.953337	4.9953313
1.971856342629867	24.332743	4.932823
1.9893857079139496	23.626825	4.8607435
2.006915119755667	22.96507	4.7921886
2.0244445785655945	22.067116	4.697565
2.0419740847543175	21.508324	4.6377068
2.0595036387324317	21.038004	4.5867205
2.0770332409105414	20.580832	4.53661
2.094562891699263	20.155752	4.489516
2.1120925915092217	19.71202	4.439822
2.129622340751053	19.576488	4.4245324
2.1471521398354043	187.96652	13.710089
2.1646819891729323	444.43033	21.081516
2.182211889174303	440.89313	20.997456
2.1997418402501974	453.16956	21.287779
2.2172718428113023	432.86148	20.805323
2.234801897268317	320.71994	17.908655
2.2523320040319548	17.129618	4.1387944
2.269862163512935	16.94776	4.1167655
2.287392376121992	16.670527	4.082956
2.304922642269869	16.307095	4.038204
2.322452962367322	15.989955	3.9987442
2.3399833368251164	15.658282	3.9570549
2.357513766054032	15.334021	3.9158678
2.3750442504648586	14.871101	3.8563068
2.3925747904683963	14.502826	3.8082576
2.410105386475459	14.382769	3.792462
2.4276360388968707	14.286708	3.779776
2.445166748143469	14.266618	3.7771177
2.4626975146261025	13.948629	3.7347863
2.4802283387556323	13.693703	3.7005002
2.4977592209429305	13.325688	3.6504366
2.5152901615988825	13.098746	3.619219
2.5328211611343865	12.920365	3.594491
2.5503522199603523	12.708655	3.5649202
2.5678833384877024	12.405747	3.5221794
2.5854145171273712	12.25098	3.50014
2.6029457562903064	11.938459	3.4552076
2.620477056387469	11.752048	3.4281259
2.6380084178298326	11.584454	3.4035943
2.655539841028383	11.466288	3.3861907
2.673071326394119	11.224096	3.3502383
2.6906028743380523	10.822976	3.2898293
2.708134485271211	10.692655	3.2699625
2.7256661596046325	10.560027	3.2496195
2.743197897749369	10.521626	3.2437057
2.760729700116486	10.390775	3.2234724
2.778261567117063	10.32468	3.2132041
2.795793499162193	10.263198	3.2036226
2.8133254966629817	9.981595	3.1593661
2.830857560030551	9.644984	3.1056376
2.8483896896760337	9.514131	3.0844984
2.865921886010578	9.287665	3.0475671
2.883454149445347	9.213621	3.0353947
2.9009864803915177	8.978761	2.996458
2.91851887926028	9.002994	3.0004988
2.9360513464628384	8.930454	2.9883866
2.953583882410413	8.798267	2.9661872
2.9711164875142373	8.591958	2.931204
2.9886491621855606	8.582743	2.929632
3.0061819068356455	8.473965	2.9110074
3.023714721875769	8.303534	2.8815854
3.041247607717225	8.192349	2.8622282
3.0587805647713213	8.17999	2.860068
3.0763135934493806	8.158747	2.856352
3.0938466941627407	8.010477	2.8302786
3.1113798673227544	7.933965	2.8167295
3.1289131133407904	7.8537526	2.8024547
3.1464464326282315	7.7953124	2.7920086
3.1639798255964786	7.813422	2.79525
3.1815132926569443	7.738576	2.7818296
3.1990468342210603	7.6886363	2.772839
3.216580450700272	7.593247	2.7555847
3.2341141425060416	7.452592	2.7299435
3.251647910049847	7.256497	2.6937885
3.2691817537431813	7.105993	2.6657069
3.286715673997555	7.034693	2.6522996
3.3042496712244938	7.0356936	2.6524882
3.32178374583554	6.8786016	2.6227088
3.339317898242251	6.745731	2.5972545
3.3568521288562034	6.677434	2.584073
3.3743864380889876	6.7483935	2.597767
3.3919208263522127	6.834733	2.6143322
3.4094552940575023	6.8797774	2.622933
3.4269898416164972	6.796288	2.606969
3.444524469440858	6.681065	2.5847757
3.4620591779422587	6.526462	2.5546942
3.479593967532391	6.5179586	2.5530293
3.4971288386229658	6.4333105	2.5363972
3.5146637916257086	6.3328733	2.51652
3.5321988269523628	6.1619797	2.4823334
3.5497339450146903	6.066223	2.4629705
3.5672691462244708	6.0938926	2.4685812
3.5848044309934988	6.1250305	2.47488
3.60233979973359	6.173415	2.4846358
3.619875252856575	6.118835	2.4736278
3.6374107907743034	6.0567203	2.4610405
3.6549464138986427	6.14558	2.479028
3.6724821226414788	6.225491	2.4950933
3.690017917414714	6.326818	2.5153167
3.7075537986302702	6.2770734	2.5054088
3.7250897667000857	6.2691083	2.5038188
3.7426258220361235	6.400032	2.5298285
3.7601619650503553	6.7033076	2.5890746
3.777698196154779	7.389727	2.7184052
3.7952345157614067	8.570646	2.9275665
3.8127709242822716	9.498054	3.0818913
3.830307422129425	11.851958	3.4426672
3.847844009714936	30.551699	5.527359
3.8653806874508954	97.96887	9.8979225
3.882917455749409	97.11488	9.854689
3.900454315022606	96.77722	9.837542
3.917991265682631	41.194775	6.4183154
3.9355283081416506	10.760777	3.2803624
3.9530654428118495	8.612107	2.9346392
3.970602670105433	7.420138	2.723993
3.9881399904346244	6.5583005	2.5609179
4.005677404211669	6.402509	2.530318
4.023214911848827	6.334577	2.5168586
4.0407525137583855	6.3297806	2.5159056
4.058290210352644	6.3624854	2.5223968
4.075828002043927	6.3428693	2.5185053
4.0933658892445814	6.2525096	2.5005019
4.110903872366966	6.2007465	2.4901297
4.128441951823468	6.0514617	2.459972
4.145980128026488	6.0394096	2.457521
4.163518401388452	6.0261908	2.4548302
4.181056772321807	6.0832505	2.4664247
4.1985952412390155	6.1160846	2.4730718
4.216133808552567	6.10535	2.4709005
4.233672474674966	6.215459	2.4930823
4.251211240018741	6.4288936	2.5355263
4.268750104996445	6.607138	2.5704353
4.286289070020643	7.4602404	2.731344
4.303828135503928	8.992158	2.9986928
4.3213673018589125	29.457287	5.427457
4.3389065694982305	90.73405	9.525442
4.356445938834537	166.14304	12.889648
4.3739854102805085	171.30768	13.088456
4.391524984248844	172.13889	13.120171
4.409064661152262	135.99866	11.661846
4.426604441403504	96.24218	9.810309
4.444144325415337	75.448326	8.6861
4.461684313600543	21.56048	4.6433263
4.47922440637193	22.061237	4.696939
4.496764604142329	20.44995	4.522162
4.5143049073245916	18.736156	4.3285284
4.531845316331589	16.728876	4.090095
4.5493858315762195	13.794201	3.7140546
4.566926453471405	11.375274	3.372725
4.584467182430081	9.044942	3.007481
4.602008018865218	7.75877	2.785457
4.619548963189798	7.1671624	2.6771557
4.637090015816834	6.7776647	2.6033947
4.654631177159353	6.6183004	2.5726058
4.672172447630417	6.434143	2.5365613
4.689713827643102	6.3232517	2.5146077
4.7072553176105085	6.084955	2.4667702
4.724796917945764	5.9006443	2.429124
4.742338629062015	5.818338	2.4121232
4.759880451372434	5.835363	2.4156497
4.777422385290215	5.857989	2.4203281
4.794964431228581	5.877191	2.4242918
4.812506589600768	5.7971325	2.4077234
4.830048860820047	5.7432313	2.396504
4.847591245299709	5.675369	2.3823032
4.8651337434530655	5.615151	2.369631
4.882676355693457	5.57949	2.3620944
4.900219082434242	5.5446606	2.3547103
4.917761924088813	5.51856	2.3491616
4.935304881070575	5.438704	2.332103
4.952847953792969	5.408183	2.32555
4.970391142669449	5.402517	2.3243315
4.9879344481135055	5.4580846	2.3362544
5.005477870538642	5.417819	2.327621
5.023021410358394	5.468145	2.3384066
5.040565067986324	5.5255213	2.3506427
5.05810884383601	5.492715	2.3436542
5.075652738321066	5.440963	2.3325872
5.09319675185512	5.3669252	2.3166625
5.110740884851836	5.3205414	2.30663
5.128285137724894	5.3391695	2.3106644
5.145829510888007	5.3043513	2.3031178
5.163374004754908	5.3694744	2.3172126
5.1809186197393595	5.370899	2.3175201
5.198463356255145	5.3844113	2.3204334
5.216008214716077	5.3299336	2.3086648
5.233553195535998	5.258481	2.2931378
5.251098299128764	5.272256	2.2961392
5.268643525908272	5.288851	2.29975
5.286188876288432	5.2861657	2.2991662
5.3037343506831895	5.274811	2.2966957
5.32127994950651	5.3122373	2.3048291
5.3388256731723915	5.333627	2.3094647
5.356371522094851	5.340279	2.3109045
5.373917496687938	5.289659	2.2999258
5.391463597365729	5.273337	2.2963748
5.40900982454232	5.2311373	2.287168
5.426556178631843	5.153487	2.2701294
5.444102660048449	5.079215	2.2537115
5.4616492692063225	5.0755796	2.2529047
5.479196006519669	5.1142197	2.261464
5.496742872402727	5.1512656	2.26964
5.514289867269756	5.158383	2.2712073
5.531836991535049	5.1900587	2.27817
5.549384245612924	5.1846457	2.2769816
5.566931629917724	5.148605	2.2690537
5.584479144863822	5.125299	2.2639122
5.6020267908656205	5.151983	2.269798
5.619574568337545	5.1998754	2.2803235
5.637122477694054	5.1639256	2.2724273
5.654670519349629	5.1445737	2.2681653
5.672218693718784	5.1574893	2.2710106
5.689767001216059	5.1632333	2.272275
5.707315442256021	5.1209373	2.2629488
5.724864017253266	5.068815	2.2514029
5.7424127266224225	5.056048	2.2485657
5.75996157077814	5.04385	2.2458518
5.777510550135105	5.052321	2.247737
5.795059665108022	5.06738	2.251084
5.812608916111639	5.132174	2.2654302
5.830158303560715	5.2581725	2.2930706
5.847707827870055	5.2602215	2.2935174
5.86525748945448	5.3938136	2.3224585
5.8828072887288485	5.494423	2.3440185
5.900357226108044	5.578498	2.3618844
5.917907302006979	5.6445756	2.3758316
5.9354575168406	6.2622027	2.5024393
5.9530078710238765	6.939585	2.6343093
5.970558364971812	7.551844	2.748062
5.988108999099438	7.902189	2.8110833
6.005659773821818	8.377504	2.8943918
6.023210689554039	8.040326	2.835547
6.040761746711227	8.464375	2.90936
6.058312945708531	7.8527646	2.8022785
6.075864286961132	7.4187145	2.7237318
6.093415770884244	6.6341395	2.5756824
6.1109673978931065	6.052402	2.460163
6.128519168402993	5.3819485	2.3199027
6.146071082829204	5.2790623	2.297621
6.163623141587075	5.185824	2.2772405
6.181175345091969	5.1936316	2.278954
6.198727693759281	5.1605773	2.2716904
6.216280188004435	5.1332064	2.2656581
6.233832828242885	5.0894165	2.2559736
6.251385614890126	5.100197	2.2583616
6.268938548361669	5.093453	2.256868
6.286491629073067	5.0485835	2.2469053
6.304044857439898	5.031284	2.2430522
6.321598233877777	4.961437	2.2274284
6.339151758802344	4.9837747	2.232437
6.356705432629277	5.0378304	2.2445111
6.37425925577428	5.0449734	2.2461019
6.391813228653095	4.9765244	2.2308125
6.409367351681486	4.936611	2.2218485
6.426921625275259	4.845327	2.2012103
6.44447604985025	4.9269485	2.2196732
6.46203062582232	4.895783	2.2126417
6.47958535360737	4.95181	2.2252662
6.497140233621328	4.9959354	2.235159
6.514695266280161	5.053161	2.2479239
6.532250451999859	5.0910816	2.2563426
6.549805791196454	5.069439	2.2515414
6.567361284286002	5.0477114	2.2467113
6.584916931684597	4.971776	2.229748
6.602472733808367	4.93975	2.222555
6.6200286910734665	4.926248	2.2195153
6.637584803896092	4.950335	2.2249348
6.655141072692462	4.9855304	2.23283
6.672697497878842	5.057273	2.2488382
6.690254079871514	5.0268173	2.2420566
6.707810819086808	4.9758706	2.230666
6.725367715941078	4.9166856	2.21736
6.742924770850719	4.8658032	2.2058566
6.760481984232151	4.91886	2.2178502
6.778039356501836	4.9439383	2.223497
6.795596888076266	4.9634023	2.2278695
6.813154579371963	4.952967	2.2255263
6.830712430805492	4.9306817	2.2205138
6.84827044279344	5.011523	2.2386432
6.865828615752445	4.971352	2.229653
6.883386950099159	4.9892483	2.2336626
6.900945446250287	4.9819074	2.2320187
6.918504104622553	5.0298085	2.2427235
6.936062925632727	5.0768332	2.253183
6.953621909697607	5.0903125	2.2561722
6.971181057234028	5.05361	2.2480235
6.988740368658859	5.0265746	2.2420022
7.006299844389007	5.055684	2.2484848
7.023859484841407	5.1253805	2.2639303
7.041419290433036	5.2954755	2.30119
7.058979261580902	5.438633	2.3320878
7.0765393987020495	5.693823	2.3861732
7.094099702213559	6.0408263	2.4578092
7.111660172532549	6.2439413	2.4987879
7.129220810076164	6.5504255	2.5593798
7.146781615261595	7.1028495	2.6651173
7.16434258850606	7.4485126	2.7291963
7.181903730226821	7.8947115	2.809753
7.1994650408411704	8.09818	2.84573
7.217026520766437	8.224937	2.8679152
7.234588170419983	8.43172	2.9037423
7.252149990219215	8.420965	2.90189
7.269711980581568	8.318989	2.8842657
7.2872741419245175	8.077051	2.8420153
7.304836474665574	7.6893883	2.7729747
7.322398979222286	7.3875422	2.7180033
7.339961656012233	7.240021	2.6907287
7.357524505453039	6.8832564	2.6235962
7.375087527962357	6.5670633	2.5626283
7.392650723957886	6.2035947	2.4907017
7.410214093857353	5.9055057	2.4301245
7.427777638078528	5.6692753	2.381024
7.445341357039213	5.555619	2.357036
7.4629052511572525	5.3452263	2.3119745
7.480469320850524	5.267866	2.2951832
7.498033566536948	5.1955633	2.279378
7.5155979886344735	5.100163	2.258354
7.5331625875610975	5.089419	2.255974
7.550727363734844	5.082772	2.2545004
7.568292317573788	5.1271906	2.2643301
7.585857449496025	5.1437693	2.267988
7.603422759919705	5.116633	2.2619975
7.620988249263007	5.1004553	2.2584188
7.638553917944147	5.0641694	2.250371
7.656119766381391	5.100325	2.25839
7.673685794993023	5.1479735	2.2689147
7.691252004197388	5.211776	2.2829313
7.70881839441285	5.23807	2.288683
7.726384966057826	5.253138	2.2919726
7.743951719550762	5.1787143	2.2756789
7.761518655310149	5.264027	2.2943468
7.779085773754511	5.2497187	2.2912264
7.796653075302419	5.299805	2.3021305
7.814220560372475	5.2758145	2.296914
7.831788229383323	5.258791	2.2932055
7.8493560827536495	5.254001	2.2921607
7.866924120902174	5.286201	2.299174
7.884492344247663	5.3342743	2.309605
7.9020607532089135	5.3626957	2.3157494
7.919629348204771	5.350275	2.3130662
7.937198129654115	5.3677807	2.316847
7.954767097975865	5.3831606	2.320164
7.972336253588986	5.434625	2.3312283
7.989905596912472	5.4033217	2.3245046
8.007475128365371	5.3748317	2.3183684
8.025044848366756	5.4546275	2.3355143
8.042614757335754	5.556882	2.3573039
8.060184855691523	5.6348553	2.373785
8.07775514385327	5.6948657	2.3863919
8.095325622240228	5.6536083	2.3777318
8.112896291271687	5.6985164	2.3871565
8.130467151366968	5.717765	2.3911848
8.148038202945436	5.7597785	2.3999538
8.165609446426497	5.802336	2.408804
8.183180882229594	5.8222785	2.4129398
8.200752510774217	5.8654366	2.4218664
8.218324332479893	5.8960824	2.428185
8.235896347766193	5.8649917	2.4217744
8.253468557052724	5.883482	2.425589
8.27104096075914	5.934577	2.4360988
8.288613559305137	6.0159626	2.452746
8.306186353110448	6.103308	2.4704874
8.32375934259485	6.141989	2.4783037
8.341332528178162	6.1403294	2.4779687
8.358905910280246	6.2254887	2.4950929
8.376479489321003	6.299806	2.5099413
8.394053265720377	6.382391	2.5263395
8.411627239898356	6.3462906	2.5191846
8.42920141227497	6.317917	2.5135467
8.44677578327029	6.267717	2.5035408
8.464350353304427	6.2691646	2.50383
8.48192512279754	6.1736603	2.4846852
8.499500092169827	6.1463223	2.4791777
8.51707526184153	6.118934	2.4736478
8.534650632232934	6.134476	2.4767876
8.552226203764365	6.152293	2.4803817
8.569801976856192	6.131406	2.4761677
8.587377951928834	6.1829324	2.4865503
8.60495412940274	6.217346	2.4934607
8.622530509698416	6.2292504	2.4958467
8.6401070932364	6.314516	2.51287
8.657683880437283	6.399729	2.5297685
8.675260871721695	6.5555115	2.5603733
8.692838067510303	6.802763	2.6082108
8.710415468223834	6.9531674	2.636886
8.727993074283043	7.1089473	2.666261
8.745570886108737	7.085675	2.6618931
8.763148904121765	7.198478	2.682998
8.78072712874302	7.2314434	2.6891344
8.798305560393441	7.385123	2.7175581
8.815884199494006	7.4809422	2.735131
8.833463046465745	7.626327	2.7615805
8.851042101729728	7.8579917	2.803211
8.86862136570707	8.174548	2.8591166
8.886200838818924	8.305177	2.8818703
8.903780521486505	8.3396	2.8878365
8.921360414131055	8.395904	2.8975685
8.938940517173874	8.493873	2.914425
8.956520831036297	8.579329	2.929049
8.97410135613971	8.904399	2.984024
8.99168209290554	9.17136	3.0284255
9.009263041755265	9.51312	3.0843346
9.026844203110405	9.78558	3.1281912
9.044425577392525	10.008567	3.163632
9.062007165023239	10.084819	3.1756604
9.079588966424197	10.327114	3.2135828
9.097170982017108	10.413939	3.2270637
9.11475321222372	11.454889	3.3845072
9.132335657465825	12.369785	3.5170705
9.149918318165264	12.478174	3.532446
9.167501194743924	13.273338	3.6432593
9.18508428762374	12.942497	3.5975683
9.202667597226693	12.81985	3.5804818
9.220251123974803	12.3683815	3.516871
9.237834868290143	12.029967	3.4684243
9.255418830594836	11.850826	3.442503
9.273003011311046	11.356992	3.3700137
9.290587410860985	11.132586	3.3365529
9.308172029666911	10.451364	3.232857
9.32575686815113	10.089403	3.176382
9.343341926735997	8.63586	2.9386835
9.360927205843916	8.37872	2.8946018
9.378512705897327	8.291394	2.8794782
9.396098427318728	8.119512	2.8494756
9.413684370530664	8.031299	2.8339546
9.431270535955722	7.880297	2.8071866
9.448856924016539	7.8411098	2.800198
9.466443535135806	7.708096	2.7763457
9.484030369736251	7.710297	2.7767422
9.501617428240658	7.6929245	2.7736123
9.519204711071852	7.7378774	2.781704
9.536792218652714	7.7252936	2.7794414
9.55437995140617	7.7935643	2.7916956
9.571967909755191	7.795914	2.7921164
9.589556094122802	7.849721	2.8017354
9.60714450493207	7.923809	2.8149261
9.624733142606116	7.9483485	2.8192816
9.642322007568108	8.07373	2.8414311
9.659911100241267	8.110583	2.8479085
9.677500421048851	8.110598	2.8479111
9.695089970414175	8.123495	2.8501747
9.712679748760609	8.11059	2.8479097
9.730269756511557	8.063509	2.8396318
9.747859994090492	8.074917	2.8416398
9.765450461920915	8.141215	2.8532815
9.78304116042639	8.249882	2.8722608
9.800632090030527	8.213427	2.8659077
9.81822325115699	8.212713	2.8657832
9.835814644229481	8.169642	2.8582587
9.853406269671762	8.226931	2.8682625
9.870998127907646	8.246972	2.8717542
9.888590219360985	8.290771	2.8793697
9.906182544455698	8.345681	2.8888893
9.923775103615734	8.277211	2.8770144
9.941367897265108	8.269771	2.875721
9.958960925827878	8.223091	2.8675933
9.97655418972816	8.163911	2.857256
9.994147689390106	8.155895	2.8558528
10.011741425237934	8.212221	2.8656974
10.029335397695904	8.264362	2.8747804
10.04692960718833	8.2322035	2.8691816
10.06452405413958	8.130912	2.8514755
10.082118738974064	8.116781	2.8489966
10.099713662116246	8.135424	2.8522663
10.117308823990651	8.192016	2.8621697
10.134904225021844	8.230936	2.8689609
10.152499865634445	8.203508	2.8641768
10.170095746253125	8.200259	2.8636096
10.18769186730261	8.131621	2.8515997
10.205288229207675	8.093579	2.8449216
10.222884832393145	8.09024	2.8443346
10.2404816772839	8.151791	2.855134
10.258078764304868	8.15695	2.8560374
10.275676093881035	8.197022	2.8630443
10.293273666437438	8.135367	2.8522565
10.310871482399158	8.194421	2.8625898
10.32846954219134	8.202231	2.8639538
10.346067846239173	8.181306	2.8602982
10.363666394967908	8.12952	2.8512313
10.38126518880283	8.06032	2.8390703
10.398864228169298	8.094109	2.8450146
10.416463513492713	8.125317	2.8504941
10.434063045198531	8.165566	2.8575456
10.451662823712262	8.222084	2.8674176
10.469262849459467	8.266872	2.875217
10.486863122865758	8.206994	2.8647852
10.504463644356806	8.108002	2.8474553
10.522064414358338	8.008669	2.8299592
10.539665433296118	7.929486	2.8159342
10.557266701595987	7.844922	2.8008788
10.574868219683818	7.743	2.7826247
10.592469987985552	7.647068	2.7653332
10.610072006927185	7.5518513	2.748063
10.627674276934751	7.4626355	2.7317824
10.64527679843435	7.342149	2.70964
10.662879571852143	7.2719564	2.6966565
10.680482597614331	7.1262646	2.6695063
10.698085876147173	6.9838877	2.6427047
10.715689407876988	6.864127	2.619948
10.733293193230146	6.7607727	2.6001487
10.750897232633072	6.7204714	2.5923872
10.76850152651225	6.6823463	2.5850234
10.786106075294207	6.627709	2.5744338
10.803710879405534	6.5926757	2.5676205
10.821315939272877	6.525677	2.5545404
10.83892125532294	6.4853926	2.5466435
10.856526827982472	6.44289	2.5382848
10.874132657678285	6.3874207	2.5273347
10.891738744837243	6.338457	2.5176291
10.909345089886271	6.257083	2.5014162
10.926951693252343	6.2025037	2.4904826
10.944558555362494	6.15628	2.4811852
10.96216567664381	6.0578504	2.46127
10.979773057523436	5.9699345	2.4433448
10.997380698428573	5.922331	2.433584
11.014988599786477	5.824379	2.413375
11.032596762024461	5.771305	2.402354
11.050205185569892	5.667645	2.3806815
11.067813870850198	5.607767	2.3680725
11.085422818292859	5.5262113	2.3507895
11.10303202832541	5.4706497	2.338942
11.120641501375454	5.3904524	2.3217347
11.138251237870636	5.280774	2.2979934
11.155861238238671	5.1733966	2.2745101
11.173471502907317	5.108548	2.2602098
11.191082032304402	5.106725	2.2598064
11.208692826857805	5.087698	2.2555926
11.226303886995465	4.965378	2.2283127
11.243915213145371	4.9097137	2.2157874
11.261526805735578	4.812745	2.1937969
11.279138665194196	4.792311	2.1891348
11.296750791949393	4.7722564	2.1845496
11.314363186429393	4.7870307	2.1879284
11.331975849062479	4.817405	2.1948588
11.34958878027699	4.7815657	2.1866791
11.36720198050133	4.7467494	2.1787035
11.384815450163948	4.7083406	2.169871
11.402429189693366	4.605686	2.1460862
11.420043199518153	4.499521	2.1212075
11.437657480066942	63.388145	7.961667
11.455272031768422	85.09101	9.224479
11.472886855051353	107.478355	10.367177
11.490501950344528	99.08407	9.954098
11.508117318076819	84.43061	9.188613
11.52573295867715	45.830864	6.76985
11.543348872574514	4.1389165	2.0344326
11.560965060197946	4.1007123	2.0250216
11.57858152197655	4.065253	2.0162473
11.59619825833949	4.063977	2.0159307
11.613815269715985	4.027534	2.0068717
11.631432556535323	38.53398	6.2075744
11.649050119226837	83.04582	9.112948
11.666667958219929	93.40574	9.664664
11.68428607394406	107.61489	10.373759
11.701904466828756	82.43392	9.079313
11.719523137303586	65.2992	8.080792
11.737142085798196	4.5586224	2.135093
11.754761312742286	3.71556	1.9275788
11.772380818565619	3.6571412	1.9123653
11.790000603698015	3.650121	1.910529
11.80762066856935	3.5813901	1.892456
11.825241013609572	3.566668	1.8885624
11.842861639248683	3.540801	1.8817016
11.860482545916748	3.520109	1.8761953
11.878103734043883	3.4992177	1.8706197
11.895725204060282	3.4558547	1.8589929
11.91334695639619	3.4082692	1.8461498
11.930968991481919	3.37616	1.837433
11.948591309747824	3.3278983	1.8242528
11.966213911624347	3.3011224	1.8168992
11.98383679754198	3.269739	1.808242
12.001459967931268	3.2703235	1.8084036
12.019083423222835	3.2400239	1.8000066
12.036707163847352	3.2122931	1.7922871
12.05433119023556	3.1986125	1.7884665
12.071955502818259	3.190805	1.7862824
12.089580102026313	3.222137	1.7950312
12.107204988290643	3.1988294	1.7885271
12.12483016204224	3.201065	1.789152
12.142455623712152	3.1301756	1.7692302
12.16008137373149	3.0928369	1.7586464
12.177707412531431	3.087492	1.7571261
12.19533374054321	3.0815344	1.75543
12.212960358198126	3.046193	1.7453346
12.230587265927545	3.03067	1.7408819
12.248214464162889	2.996829	1.7311351
12.265841953335649	3.022106	1.7384205
12.283469733877375	2.977378	1.725508
12.301097806219685	2.94133	1.7150306
12.31872617079425	2.9270177	1.7108529
12.336354828032825	2.9257507	1.7104826
12.353983778367205	2.946349	1.7164932
12.371613022229262	2.9326348	1.7124938
12.389242560050928	2.9153626	1.7074432
12.406872392264201	2.910208	1.7059332
12.424502519301143	2.9142017	1.7071034
12.442132941593874	2.8598032	1.6910952
12.459763659574586	2.850565	1.6883616
12.477394673675532	2.8557785	1.6899048
12.49502598432903	2.867634	1.693409
12.51265759196746	2.8504	1.6883128
12.530289497023267	2.8473122	1.6873981
12.547921699928967	2.822914	1.6801529
12.565554201117134	2.8314683	1.6826967
12.583187001020404	2.8110387	1.6766152
12.600820100071486	2.818342	1.6787918
12.618453498703152	2.7913885	1.6707449
12.636087197348235	2.782781	1.6681669
12.65372119643964	2.7784505	1.6668684
12.671355496410326	2.787903	1.6697015
12.68899009769333	2.7928405	1.6711794
12.706625000721749	2.8012512	1.6736939
12.724260205928752	2.8488746	1.687861
12.741895713747551	2.8557673	1.6899016
12.759531524611454	2.914772	1.7072704
12.777167638953818	2.9210346	1.7091035
12.794804057208072	2.9736192	1.7244185
12.812440779807702	3.0376997	1.7428998
12.830077807186271	3.1773787	1.7825203
12.847715139777405	3.2152297	1.7931062
12.865352778014795	3.4136426	1.8476045
12.882990722332197	3.533352	1.8797213
12.90062897316344	3.6387174	1.9075422
12.918267530942412	3.7347977	1.9325625
12.935906396103071	3.6232731	1.9034897
12.953545569079449	3.7521293	1.9370414
12.971185050305628	3.587832	1.8941573
12.988824840215775	3.6318848	1.9057505
13.006464939244115	3.6938033	1.921927
13.024105347824943	3.5303214	1.878915
13.041746066392617	3.6434639	1.9087859
13.05938709538157	3.4154367	1.84809
13.077028435226296	3.4144166	1.847814
13.094670086361363	3.2695742	1.8081964
13.112312049221401	3.1822896	1.7838973
13.129954324241112	3.1119647	1.7640761
13.147596911855258	2.9002812	1.7030212
13.165239812498685	2.8247962	1.680713
13.182883026606293	2.753724	1.6594349
13.200526554613058	2.7312014	1.6526347
13.218170396954017	2.7172885	1.64842
13.235814554064284	2.7367098	1.6543005
13.253459026379034	2.7210793	1.6495694
13.271103814333523	2.7121675	1.646866
13.288748918363058	2.691807	1.6406727
13.306394338903031	2.6673527	1.6332031
13.32404007638889	2.6356184	1.6234587
13.341686131256164	2.6482494	1.6273443
13.359332503940449	2.6412585	1.6251949
13.376979194877402	2.637986	1.6241878
13.394626204502751	2.6788812	1.6367288
13.412273533252307	2.7161596	1.6480775
13.429921181561937	2.7333748	1.6532922
13.447569149867581	2.6971705	1.6423064
13.465217438605247	2.6845791	1.6384685
13.482866048211022	2.6388667	1.6244589
13.500514979121052	2.6392314	1.6245712
13.518164231771568	2.6804585	1.6372106
13.535813806598844	2.7387064	1.6549038
13.553463704039254	2.7282627	1.6517453
13.571113924529229	2.6783822	1.6365763
13.588764468505275	2.6809103	1.6373485
13.606415336403956	2.7320662	1.6528963
13.624066528661917	2.7677073	1.6636428
13.641718045715882	2.8216445	1.6797751
13.659369888002635	2.8595424	1.6910181
13.67702205595903	2.9247546	1.7101914
13.694674550021993	3.007824	1.7343079
13.712327370628532	3.0721407	1.7527523
13.729980518215713	3.1336176	1.7702028
13.747633993220681	3.199163	1.7886204
13.765287796080647	3.2166462	1.7935011
13.7829419272329	3.2625818	1.8062618
13.800596387114801	3.2904692	1.8139651
13.818251176163775	3.321862	1.8225976
13.835906294817324	3.3752332	1.8371807
13.853561743513023	3.4200406	1.8493352
13.871217522688525	3.4526565	1.8581325
13.888873632781538	3.4336925	1.8530226
13.906530074229858	3.4525473	1.8581032
13.92418684747135	3.492488	1.86882
13.941843952943948	3.5425549	1.8821676
13.959501391085665	3.5192943	1.8759782
13.977159162334578	3.4321387	1.8526032
13.994817267128846	3.3782146	1.837992
14.012475705906693	3.2932987	1.8147448
14.030134479106424	3.2292438	1.7970097
14.047793587166414	3.1052678	1.762177
14.065453030525108	3.0268474	1.7397838
14.083112809621026	2.97412	1.7245637
14.100772924892766	2.9472237	1.716748
14.118433376778997	2.9038227	1.7040607
14.136094165718458	2.817924	1.6786673
14.153755292149969	2.7338004	1.6534208
14.171416756512416	2.6499588	1.6278694
14.189078559244768	2.561588	1.6004962
14.20674070078606	2.511361	1.5847274
14.224403181575408	2.4887722	1.5775843
14.242066002051999	2.4989982	1.580822
14.259729162655093	2.4777746	1.5740949
14.277392663824022	2.464247	1.569792
14.295056505998208	2.4233806	1.5567211
14.312720689617128	2.3784719	1.5422295
14.330385215120348	2.3416739	1.5302528
14.348050082947497	2.3590016	1.5359042
14.3657152935383	2.3601668	1.5362835
14.383380847332528	2.3567061	1.5351567
14.401046744770051	2.3430197	1.5306926
14.418712986290798	2.34001	1.5297091
14.436379572334793	2.371996	1.5401286
14.454046503342123	2.3980706	1.5485705
14.471713779752946	2.4323041	1.5595846
14.489381402007504	2.4342816	1.5602185
14.507049370546113	2.4063487	1.551241
14.524717685809168	2.3907382	1.5462012
14.542386348237134	2.3662868	1.5382739
14.560055358270553	2.394717	1.5474873
14.577724716350051	2.4090805	1.5521213
14.595394422916325	2.3849292	1.5443215
14.61306447841015	2.397585	1.5484136
14.63073488327237	2.4169207	1.5546448
14.648405637943917	2.4783103	1.574265
14.6660767428658	2.4812865	1.57521
14.683748198479094	2.5403805	1.593857
14.701420005224954	2.5490468	1.5965735
14.719092163544628	2.5761998	1.6050545
14.73676467387942	2.5751376	1.6047236
14.754437536670727	2.62188	1.619222
14.772110752360014	2.666119	1.6328255
14.78978432138882	2.6597214	1.6308652
14.807458244198777	2.6745894	1.6354172
14.82513252123159	2.6708903	1.6342859
14.842807152929028	2.7172728	1.6484152
14.860482139732962	2.7328029	1.6531191
14.87815748208531	2.7302601	1.6523498
14.8958331804281	2.750209	1.6583754
14.91350923520342	2.7302155	1.6523364
14.931185646853438	2.7546287	1.6597074
14.948862415820408	2.6663857	1.6329072
14.966539542546656	2.6409235	1.6250918
14.98421702747459	2.5962963	1.6113027
15.001894871046696	2.6192122	1.6183981
15.019573073705542	2.6300468	1.6217419
15.037251635893766	2.6108003	1.615797
15.054930558054092	2.6440167	1.6260433
15.072609840629323	2.7185714	1.6488091
15.090289484062351	2.8704586	1.6942428
15.107969488796124	3.1508086	1.7750517
15.125649855273691	3.5183005	1.8757133
15.14333058393817	3.9902954	1.9975724
15.161011675232768	4.9299493	2.2203488
15.17869312960076	6.2205777	2.4941087
15.196374947485506	8.030556	2.8338234
15.214057129330447	11.158482	3.3404315
15.231739675579114	16.043833	4.0054755
15.249422586675102	21.395336	4.6255093
15.267105863062092	24.668423	4.9667315
15.284789505183847	25.111753	5.0111628
15.302473513484218	23.13773	4.810169
15.320157888407127	19.557295	4.422363
15.337842630396578	15.251141	3.9052708
15.355527739896656	11.784903	3.4329145
15.37321321735153	9.098626	3.016393
15.39089906320545	6.5704775	2.5632942
15.408585277902748	4.9004464	2.2136953
15.42627186188783	3.792659	1.9474751
15.443958815605198	3.2221107	1.7950239
15.461646139499424	2.918034	1.7082254
15.479333834015168	2.7590048	1.6610253
15.497021899597165	2.6820092	1.6376841
15.514710336690234	2.5950081	1.6109029
15.53239914573928	2.5357807	1.5924134
15.550088327189297	2.5061316	1.5830766
15.567777881485336	2.5325134	1.5913873
15.58546780907256	2.5302978	1.590691
15.6031581103962	2.4884765	1.5774906
15.620848785901568	2.4558635	1.5671195
15.638539836034063	2.448214	1.564677
15.656231261239173	2.413849	1.5536567
15.673923061962451	2.414236	1.5537813
15.691615238649552	2.4352777	1.5605376
15.709307791746202	2.4315238	1.5593344
15.727000721698221	2.4252796	1.557331
15.744694028951498	2.415686	1.5542477
15.76238771395202	2.4265563	1.5577408
15.780081777145844	2.428078	1.5582291
15.797776218979125	2.3806624	1.5429395
15.815471039898094	2.3535607	1.5341319
15.833166240349064	2.3447511	1.531258
15.850861820778437	2.3843684	1.54414
15.868557781632699	2.399093	1.5489006
15.886254123358412	2.3853545	1.5444593
15.903950846402232	2.3649359	1.5378348
15.921647951210897	2.373904	1.5407479
15.939345438231225	2.4122868	1.5531538
15.957043307910133	2.4473524	1.5644016
15.974741560694602	2.44977	1.5651741
15.992440197031714	2.4432027	1.5630748
16.01013921736862	2.413914	1.5536776
16.02783862215259	2.406508	1.5512923
16.045538411830933	2.388297	1.5454116
16.06323858685107	2.3927057	1.5468373
16.080939147660512	2.3699815	1.5394745
16.09864009470684	2.378104	1.5421102
16.11634142843774	2.4003656	1.5493113
16.134043149300954	2.4007642	1.54944
16.15174525774433	2.372534	1.5403032
16.169447754215817	2.3643355	1.5376396
16.18715063916342	2.392712	1.5468394
16.204853913035244	2.4150734	1.5540507
16.222557576279478	2.4372525	1.5611702
16.240261629344403	22.43227	4.736272
16.257966072678386	42.994987	6.5570564
16.275670906729868	38.09174	6.1718507
16.293376131947387	2.4894764	1.5778074
16.31108174877957	2.480055	1.5748191
16.328787757675133	2.5391285	1.5934644
16.34649415908287	2.5674617	1.6023301
16.364200953451657	2.6213574	1.6190606
16.38190814123048	2.633294	1.6227428
16.39961572286839	2.6735024	1.6350849
16.41732369881455	2.702502	1.6439289
16.43503206951817	2.7216525	1.6497432
16.45274083542859	2.7557473	1.6600444
16.47044999699522	2.7842946	1.6686206
16.488159554667558	2.8114333	1.6767329
16.505869508895184	2.8408926	1.6854948
16.523579860127786	2.8951476	1.7015133
16.541290608815117	2.994153	1.730362
16.559001755407035	3.0263948	1.7396537
16.57671330035348	3.052956	1.7472711
16.59442524410448	3.086511	1.7568469
16.61213758711015	3.1788688	1.7829382
16.629850329820705	3.2807236	1.8112768
16.647563472686436	3.3280485	1.824294
16.665277016157724	3.358454	1.8326085
16.682990960685053	3.3643172	1.8342075
16.70070530671898	3.3841002	1.8395925
16.718420054710155	3.436745	1.853846
16.736135205109335	3.4988701	1.8705267
16.753850758367335	3.575645	1.8909376
16.771566714935087	3.6234205	1.9035285
16.789283075263597	3.7526443	1.9371743
16.80699983980398	3.8179712	1.9539629
16.82471700900741	3.8929465	1.9730551
16.84243458332518	3.902126	1.97538
16.860152563208665	3.990279	1.9975682
16.87787094910932	4.0631833	2.015734
16.89558974147871	4.0996466	2.0247583
16.913308940768466	4.170741	2.0422392
16.931028547430333	4.2404838	2.0592434
16.94874856191613	4.3186564	2.0781376
16.966468984677785	4.3583283	2.087661
16.98418981616729	4.4299393	2.104742
17.00191105683676	4.478877	2.1163359
17.019632707138374	4.4675193	2.1136508
17.03735476752442	4.4820747	2.1170912
17.05507723844728	4.467748	2.113705
17.072800120359403	4.520194	2.1260748
17.090523413713353	4.568478	2.1374
17.108247118961785	4.594953	2.1435843
17.125971236557437	4.5909643	2.1426535
17.143695766953133	4.588423	2.1420605
17.161420710601806	4.645865	2.155427
17.179146067956477	4.6566825	2.1579347
17.19687183947025	4.627588	2.151183
17.21459802559634	4.618477	2.1490643
17.232324626788028	4.6333714	2.1525269
17.25005164349871	4.62984	2.1517062
17.267779076181863	4.6219997	2.1498837
17.285506925291074	4.6107416	2.1472638
17.30323519127999	4.6053066	2.1459978
17.320963874602384	4.5966673	2.143984
17.33869297571211	4.6227646	2.1500616
17.356422495063114	4.617627	2.1488664
17.37415243310944	4.5839067	2.141006
17.391882790305218	4.4839034	2.117523
17.40961356710468	4.4547873	2.1106367
17.42734476396215	4.4451275	2.1083472
17.445076381332044	4.4808946	2.1168125
17.462808419668868	4.530049	2.128391
17.48054087942723	4.6281705	2.1513183
17.498273761061835	4.8469825	2.2015862
17.51600706502747	5.2258134	2.2860038
17.533740791779024	5.8834147	2.425575
17.551474941771485	7.3027396	2.7023582
17.56920951545993	8.4651	2.9094846
17.586944513299528	10.803752	3.2869062
17.60467993574556	12.609252	3.5509508
17.622415783253373	14.405468	3.7954535
17.64015205627843	15.998993	3.999874
17.657888755276293	17.334793	4.1635075
17.675625880702604	18.08949	4.2531743
17.69336343301311	17.974434	4.2396264
17.71110141266366	16.997541	4.1228075
17.728839820110178	15.795949	3.9744117
17.746578655808705	14.593701	3.8201704
17.764317920215372	12.944164	3.5978
17.7820576137864	11.295716	3.36091
17.79979773697811	9.225942	3.0374236
17.81753829024692	7.3027864	2.7023668
17.835279274049356	5.7228956	2.3922575
17.85302068884201	4.7623324	2.182277
17.870762535081607	4.1711884	2.0423486
17.888504813224934	3.8503437	1.9622293
17.90624752372891	3.6697094	1.9156486
17.923990667050536	3.5768268	1.89125
17.941734243646895	3.526406	1.8778727
17.959478253975185	3.5210202	1.8764381
17.9772226984927	3.5019758	1.8713567
17.994967577656833	3.459816	1.8600581
18.01271289192506	3.4383717	1.8542846
18.030458641754965	3.4254417	1.8507949
18.04820482760425	3.4056885	1.8454508
18.06595144993067	3.3606002	1.833194
18.083698509192125	3.2617602	1.8060344
18.101446005846576	3.2287652	1.7968765
18.119193940352105	3.205512	1.7903944
18.136942313166887	3.1916451	1.7865176
18.1546911247492	3.1606507	1.7778219
18.1724403755574	3.1523795	1.7754942
18.19019006604997	3.1735835	1.7814554
18.207940196685467	3.1604757	1.7777727
18.225690767922575	3.1714144	1.7808465
18.243441780220046	3.143476	1.7729851
18.261193234036764	3.1147468	1.7648646
18.278945129831676	3.0794716	1.7548423
18.29669746806386	3.051818	1.7469453
18.314450249192483	3.0452297	1.7450587
18.3322034736768	3.0098479	1.7348913
18.349957141976184	3.0345764	1.7420036
18.3677112545501	3.0798087	1.7549384
18.385465811858108	3.0945647	1.7591375
18.403220814359884	3.0985258	1.760263
18.420976262515172	3.1232393	1.7672689
18.43873215678387	3.162724	1.778405
18.456488497625923	3.1780498	1.7827085
18.474245285501407	3.22353	1.7954192
18.492002520870486	3.2536647	1.8037918
18.50976020419343	3.3226938	1.8228258
18.527518335930615	3.5804582	1.8922099
18.545276916542516	4.1851406	2.0457616
18.563035946489688	4.380862	2.093051
18.580795426232832	4.7902737	2.1886694
18.598555356232698	4.6827264	2.1639607
18.616315736950185	4.962074	2.2275712
18.63407656884626	4.6636424	2.1595469
18.65183785238201	4.811152	2.1934338
18.669599588018617	4.5919995	2.1428952
18.68736177621737	4.570531	2.13788
18.705124417439652	4.6705947	2.161156
18.72288751214696	4.472833	2.1149073
18.740651060800886	4.575079	2.1389434
18.758415063863115	4.2502003	2.0616014
18.77617952179546	4.427759	2.1042242
18.793944435059814	4.238224	2.0586948
18.811709804118184	4.243569	2.0599926
18.829475629432675	4.2231936	2.055041
18.8472419114655	4.0120497	2.00301
18.86500865067897	4.085675	2.0213053
18.88277584753551	3.7587736	1.9387556
18.90054350249763	3.761247	1.9393934
18.918311616027957	3.4239926	1.8504034
18.936080188589226	3.3254535	1.8235826
18.953849220644265	3.0543225	1.747662
18.971618712656007	2.9399507	1.7146285
18.9893886650875	2.9034176	1.7039418
19.007159078401887	8.048563	2.836999
19.024929953062408	32.866955	5.7329707
19.042701289532435	32.78227	5.72558
19.060473088275405	25.348278	5.0347075
19.07824534975489	2.6664927	1.6329399
19.096018074434568	2.6773536	1.636262
19.113791262778197	2.6592152	1.63071
19.13156491524966	2.631855	1.6222993
19.149339032312945	2.6266978	1.6207091
19.167113614432136	2.604156	1.6137397
19.184888662071433	2.5893948	1.6091597
19.202664175695123	2.5515907	1.5973699
19.220440155767623	2.5252492	1.5891033
19.238216602753447	2.497084	1.5802164
19.2559935171172	2.5220778	1.5881051
19.27377089932361	2.5157335	1.5861064
19.291548749837514	2.4772666	1.5739335
19.309327069123835	2.4306114	1.5590419
19.32710585764763	2.418283	1.5550829
19.344885115874032	2.4545968	1.5667152
19.362664844268313	2.4537365	1.5664407
19.380445043295822	2.4690042	1.5713065
19.39822571342203	2.4659448	1.5703326
19.41600685511252	2.5206342	1.5876505
19.43378846883297	2.542817	1.5946213
19.451570555049173	2.507379	1.5834706
19.469353114227037	2.5001583	1.5811889
19.48713614683254	2.5198095	1.5873908
19.50491965333182	2.536578	1.5926638
19.52270363419109	2.4901338	1.5780158
19.540488089876686	2.4565938	1.5673524
19.55827302085503	2.4885805	1.5775235
19.576058427592674	2.5132282	1.5853164
19.593844310556282	2.531629	1.5911094
19.611630670212598	2.4918497	1.5785594
19.629417507028506	2.460462	1.568586
19.64720482147098	2.4257324	1.5574763
19.6649926140071	2.4533522	1.566318
19.682780885104084	2.4706044	1.5718156
19.70056963522921	2.502331	1.5818758
19.718358864849908	2.5299652	1.5905864
19.7361485744337	2.5261438	1.5893847
19.753938764448215	2.4986587	1.5807146
19.771729435361202	2.4970741	1.5802133
19.789520587640506	2.506793	1.5832856
19.807312221754092	2.517358	1.5866184
19.825104338170043	2.53026	1.5906792
19.842896937356517	2.5406952	1.5939559
19.860690019781824	2.5162125	1.5862573
19.87848358591436	2.49644	1.5800127
19.896277636222635	2.5034251	1.5822216
19.914072171175278	2.5088768	1.5839435
19.931867191241015	2.527064	1.5896742
19.94966269688869	2.5527782	1.5977416
19.967458688587264	2.537677	1.5930088
19.985255166805807	2.4681993	1.5710504
20.00305213201348	2.4035828	1.5503492
20.020849584679578	2.3921926	1.5466715
20.038647525273507	2.4124584	1.5532091
20.05644595426477	2.4311953	1.559229
20.07424487212299	2.4563718	1.5672816
20.092044279317903	2.4460537	1.5639865
20.109844176319353	2.439675	1.5619459
20.127644563597304	2.440163	1.5621021
20.145445441621817	2.4178987	1.5549594
20.16324681086307	2.4078517	1.5517254
20.181048671791373	2.401127	1.5495571
20.198851024877122	2.3637996	1.5374653
20.216653870590836	2.349276	1.5327349
20.234457209403146	2.3758283	1.5413722
20.252261041784802	2.4017391	1.5497545
20.270065368206662	2.3897288	1.5458747
20.287870189139685	2.3408067	1.5299696
20.305675505054968	2.3300254	1.526442
20.323481316423702	2.362474	1.5370342
20.341287623717207	2.3852007	1.5444095
20.359094427406884	2.3572261	1.5353261
20.376901727964288	2.3251631	1.5248486
20.39470952586107	2.3254137	1.5249307
20.41251782156899	2.3320642	1.5271097
20.430326615559935	2.3686988	1.5390577
20.448135908305886	2.3929372	1.5469122
20.465945700278965	2.3420587	1.5303786
20.483755991951384	2.2995276	1.5164193
20.50156678379548	2.291624	1.5138111
20.519378076283708	2.3231804	1.5241983
20.537189869888635	2.3466544	1.5318794
20.55500216508294	2.334002	1.527744
20.572814962339415	2.347229	1.532067
20.59062826213098	2.3494065	1.5327774
20.60844206493066	2.3776636	1.5419674
20.626256371211593	2.3650293	1.5378652
20.644071181447032	2.3330464	1.5274314
20.66188649611036	2.3122997	1.5206248
20.67970231567506	2.3169892	1.5221659
20.697518640614742	2.3287864	1.5260361
20.715335471403122	2.3241065	1.524502
20.73315280851404	2.3316293	1.5269673
20.750970652421447	2.303385	1.5176907
20.768789003599412	2.281441	1.5104439
20.786607862522136	2.2828472	1.5109094
20.8044272296639	2.2548149	1.5016041
20.82224710549913	2.2541368	1.5013783
20.84006749050237	2.2830153	1.510965
20.857888385148268	3.8452055	1.9609196
20.8757097899116	45.947712	6.7784743
20.893531705267254	64.79365	8.04945
20.911354131690224	83.809715	9.154764
20.92917706965566	69.07735	8.311278
20.94700051963877	50.156925	7.082155
20.96482448211493	29.426983	5.4246645
20.982648957559622	4.15754	2.0390046
21.00047394644843	2.2337768	1.4945825
21.01829944925707	2.218456	1.4894482
21.036125466461375	2.2405882	1.4968594
21.053951998537297	2.251184	1.5003946
21.071779045960906	2.2534692	1.501156
21.089606609208378	2.2240782	1.4913343
21.10743468875603	2.1756303	1.4750018
21.12526328508028	2.1644933	1.4712217
21.143092398657675	2.174193	1.4745145
21.16092202996488	2.194137	1.481262
21.17875217947867	2.2054853	1.4850876
21.19658284767596	2.1930537	1.4808962
21.21441403503377	2.1993437	1.4830184
21.232245742029225	2.213626	1.4878259
21.2500779691396	2.2002618	1.483328
21.26791071684227	2.1659803	1.471727
21.28574398561475	2.1491017	1.4659815
21.30357777593465	2.1409063	1.4631836
21.321412088279704	2.1628683	1.4706693
21.339246923127792	2.1637678	1.4709752
21.357082280956888	2.1657412	1.4716457
21.3749181622451	2.1429467	1.4638807
21.392754567470647	2.1582139	1.469086
21.41059149711187	2.150355	1.466409
21.42842895164726	2.1275592	1.4586155
21.446266931555378	2.1074176	1.4516947
21.464105437314945	2.0927255	1.4466256
21.481944469404798	2.0814867	1.4427358
21.49978402830388	2.0723574	1.4395685
21.51762411449127	2.0842524	1.443694
21.53546472844617	2.0698345	1.438692
21.553305870647876	2.0896528	1.4455631
21.571147541575865	2.1009893	1.449479
21.58898974170967	2.0805838	1.4424229
21.60683247152899	2.0557978	1.4338053
21.62467573151363	2.0610356	1.4356308
21.642519522143523	2.0438738	1.4296411
21.660363843898722	2.0336778	1.4260708
21.6782086972594	2.0409825	1.4286296
21.696054082705864	2.0613508	1.4357405
21.713900000718535	2.0630243	1.4363232
21.73174645177795	2.0470862	1.4307642
21.749593436364794	2.0212195	1.421696
21.767440954959845	2.0343325	1.4263003
21.785289008044032	2.044343	1.4298053
21.803137596098388	2.0650234	1.437019
21.820986719604086	2.0497005	1.4316775
21.838836379042412	1.9964119	1.4129444
21.85668657489478	1.9560142	1.3985758
21.87453730764273	1.9816407	1.4077076
21.892388577767914	2.0062652	1.4164269
21.91024038575213	2.0145571	1.419351
21.928092732077285	1.9851718	1.4089613
21.945945617225426	1.9927514	1.4116485
21.963799041678694	2.0116012	1.4183093
21.981653005919398	31.34057	5.598265
21.999507510429943	78.139046	8.839629
22.01736255569286	73.118256	8.550921
22.035218142190818	4.2049613	2.0506003
22.05307427040661	2.0072815	1.4167856
22.07093094082315	2.0014548	1.4147278
22.088788153923474	2.0317905	1.4254088
22.106645910190746	2.022455	1.4221305
22.12450421010827	1.9835644	1.4083908
22.142363054159464	1.962274	1.4008119
22.16022244282787	1.9598997	1.3999642
22.178082376597164	1.940948	1.393179
22.195942855951145	1.9220914	1.3863951
22.213803881373742	1.9258496	1.3877498
22.231665453349002	1.9426684	1.3937964
22.24952757236111	1.934512	1.3908674
22.26739023889438	1.9707601	1.4038377
22.28525345343323	1.9424155	1.3937056
22.30311721646225	1.9287798	1.3888052
22.320981528466113	1.8951944	1.3766606
22.33884638992964	1.927902	1.3884891
22.356711801337788	1.9647216	1.4016852
22.37457776317561	1.9892259	1.4103992
22.392444275928337	1.969792	1.4034928
22.410311340081282	1.9558011	1.3984996
22.428178956119904	1.9508618	1.3967326
22.446047124529805	1.9748325	1.4052874
22.46391584579669	1.9711746	1.4039853
22.481785120406414	1.9772513	1.4061477
22.49965494884496	1.9392829	1.3925813
22.51752533159841	1.9234757	1.3868942
22.53539626915302	1.9133545	1.3832406
22.553267761995137	1.9069953	1.38094
22.571139810611264	1.9185618	1.3851216
22.589012415488025	1.9596548	1.3998767
22.60688557711216	1.9952389	1.4125292
22.624759295970566	2.0164022	1.4200008
22.642633572550263	2.0194688	1.4210801
22.660508407338362	2.0156693	1.4197427
22.67838380082217	1.9624864	1.4008877
22.696259753489077	1.9005371	1.3785996
22.714136265826614	1.9082012	1.3813766
22.73201333832246	1.9251853	1.3875104
22.74989097146439	1.9295253	1.3890735
22.76776916574035	1.903001	1.379493
22.785647921638393	1.863612	1.3651417
22.803527239646712	1.8445413	1.3581389
22.82140712025363	1.871146	1.3678983
22.839287563947593	1.913161	1.3831706
22.85716857121719	1.9404074	1.3929851
22.875050142551135	1.928313	1.3886371
22.892932278438277	1.9398153	1.3927726
22.910814979367604	1.9148959	1.3837976
22.928698245828222	1.9005429	1.3786018
22.946582078309387	1.9313356	1.389725
22.96446647730047	1.9628243	1.4010084
22.98235144329098	1.9585955	1.3994983
23.000236976770562	1.9253128	1.3875564
23.018123078229	1.9024668	1.3792994
23.03600974815619	1.8895113	1.3745949
23.053896987042194	1.920043	1.3856561
23.071784795377173	1.8938309	1.3761653
23.08967317365145	1.8694215	1.3672678
23.10756212235546	1.884656	1.3728278
23.125451641979787	1.9229484	1.3867041
23.143341733015134	1.9501892	1.3964918
23.161232395952357	1.9508972	1.3967452
23.179123631282426	1.9496559	1.3963008
23.197015439496468	1.9721321	1.4043262
23.214907821085717	1.9828215	1.408127
23.23280077654157	1.9695975	1.4034234
23.250694306355538	1.9400026	1.3928398
23.268588411019277	1.9105439	1.3822243
23.28648309102458	1.9043307	1.379975
23.304378346863356	1.9117635	1.3826654
23.322274179027676	1.9368747	1.3917165
23.340170588009723	1.9089725	1.3816557
23.358067574301852	1.864354	1.3654135
23.37596513839651	1.8408372	1.3567746
23.39386328078629	1.8611238	1.3642302
23.411762001963947	1.8957025	1.3768451
23.429661302422353	1.8973684	1.37745
23.4475611826545	1.8779202	1.3703723
23.46546164315356	1.9155489	1.3840336
23.48336268441279	1.9429595	1.3939009
23.501264306925638	1.9492009	1.3961378
23.51916651118564	1.9351493	1.3910965
23.537069297686497	1.9469563	1.3953338
23.554972666922037	1.976022	1.4057105
23.57287661938623	1.9616361	1.4005842
23.59078115557318	1.9327084	1.3902189
23.608686275977128	1.8533307	1.3613709
23.62659198109246	1.8622181	1.3646312
23.6444982714137	1.8623148	1.3646666
23.66240514743549	1.9095459	1.3818632
23.68031260965263	1.8720767	1.3682386
23.698220658560068	1.8240265	1.3505652
23.716129294652845	1.8249873	1.3509209
23.7340385184262	1.8601528	1.3638742
23.75194833037546	1.9005474	1.3786035
23.769858730996123	1.9144329	1.3836303
23.78776972078382	1.9439412	1.3942529
23.80568130023431	1.9688228	1.4031475
23.823593469843495	1.9273372	1.3882856
23.841506230107424	1.9015082	1.3789519
23.859419581522275	1.8784316	1.3705589
23.87733352458438	1.8662435	1.3661052
23.89524805979019	1.8605965	1.3640368
23.913163187636318	1.8619419	1.36453
23.931078908619508	1.8898982	1.3747357
23.948995223236633	1.951462	1.3969474
23.966912131984735	2.0017395	1.4148284
23.98482963536096	2.006912	1.4166552
24.002747733862616	2.0162792	1.4199575
24.020666427987155	2.0982795	1.4485439
24.038585718232156	2.1387663	1.4624522
24.056505605095353	2.0925095	1.4465508
24.074426089074617	2.0598874	1.4352307
24.092347170667946	2.0140412	1.4191692
24.110268850373515	2.0190952	1.4209487
24.128191128689586	2.0095413	1.4175829
24.146114006114626	2.0200646	1.4212898
24.164037483147187	2.032866	1.4257861
24.181961560286005	2.0950937	1.4474438
24.199886238029926	2.0607958	1.4355472
24.21781151687797	2.0242162	1.4227495
24.235737397329274	1.9776227	1.4062798
24.253663879883135	2.0088573	1.4173416
24.271590965038975	2.0125127	1.4186306
24.289518653296376	2.001862	1.4148717
24.30744694515505	1.9763881	1.4058408
24.32537584111486	1.9915076	1.4112079
24.34330534167581	2.0356328	1.426756
24.361235447338046	2.0150054	1.4195088
24.379166158601876	1.9928805	1.4116942
24.39709747596772	1.9824498	1.407995
24.41502939993615	2.0449862	1.4300301
24.432961931007917	2.0461159	1.430425
24.450895069683856	2.0296955	1.4246738
24.468828816465	1.9587332	1.3995475
24.4867631718525	1.9411464	1.3932503
24.504698136347656	1.941555	1.393397
24.52263371045192	1.9978143	1.4134406
24.540569894666874	2.021755	1.4218843
24.558506689494266	2.0347576	1.4264493
24.57644409543597	1.9961213	1.4128416
24.594382112994012	1.9164518	1.3843597
24.61232074267057	1.9197232	1.3855407
24.630259984967953	1.936848	1.3917068
24.64819984038863	1.9641682	1.4014878
24.66614030943522	1.984006	1.4085475
24.684081392610462	1.9843577	1.4086723
24.702023090417274	1.9728249	1.4045728
24.7199654033587	1.9728779	1.4045917
24.737908331937927	2.0048957	1.4159434
24.755851876658305	2.0206432	1.4214933
24.773796038023324	2.0294232	1.4245783
24.79174081653661	2.0503983	1.4319212
24.809686212701962	2.0899773	1.4456754
24.827632227023294	2.0899072	1.4456512
24.8455788600047	2.0673616	1.4378322
24.8635261121504	2.0538266	1.4331177
24.88147398396475	2.0381882	1.4276513
24.899422475952303	2.0668974	1.4376708
24.917371588617698	2.1232421	1.457135
24.935321322465768	2.219991	1.4899634
24.953271678001478	2.2733397	1.5077598
24.97122265572994	2.4462388	1.5640457
24.989174256156414	2.7903655	1.6704386
25.00712647978632	3.261283	1.8059022
25.02507932712521	3.832938	1.9577891
25.043032798678798	4.4163117	2.1015022
25.060986894952933	5.090985	2.2563212
25.078941616453637	5.91577	2.4322357
25.096896963687055	6.9422736	2.6348195
25.114852937159508	8.128944	2.8511305
25.132809537377444	8.535685	2.9215894
25.150766764847468	8.479186	2.911904
25.168724620076347	7.786722	2.79047
25.186683103570985	6.753808	2.598809
25.204642215838426	5.59075	2.3644767
25.222601957385894	4.2625914	2.0646045
25.24056232872074	3.2155128	1.7931851
25.25852333035048	2.5903788	1.6094654
25.276484962782778	2.2593658	1.5031186
25.294447226525435	2.110658	1.4528104
25.312410122086423	2.0496187	1.431649
25.330373649973843	1.9917806	1.4113046
25.348337810695988	1.9397099	1.3927346
25.366302604761245	1.931947	1.3899449
25.384268032678207	1.9422954	1.3936626
25.40223409495558	1.9468005	1.395278
25.420200792102257	1.9009374	1.3787448
25.438168124627246	1.8348037	1.3545493
25.45613609303974	1.8088768	1.3449448
25.474104697849057	1.8122134	1.3461847
25.492073939564698	1.8432832	1.3576757
25.510043818696285	1.8516393	1.3607495
25.528014335753614	1.8589482	1.3634325
25.54598549124664	1.8620988	1.3645874
25.56395728568544	1.8903602	1.3749037
25.58192971958028	1.9114578	1.3825548
25.59990279344156	1.9045764	1.3800639
25.617876507779833	1.9111434	1.3824412
25.635850863105826	1.8890425	1.3744245
25.653825859930386	1.8481754	1.3594762
25.671801498764548	1.8222346	1.3499017
25.68977778011949	1.8552762	1.3620852
25.707754704506524	1.8627926	1.3648416
25.725732272437153	1.9007093	1.3786621
25.743710484423012	1.9218829	1.3863199
25.761689340975888	1.9053181	1.3803326
25.77966884260774	1.8909405	1.3751148
25.797648989830662	1.8826951	1.3721133
25.815629783156922	1.8366544	1.3552322
25.83361122309895	1.8242083	1.3506325
25.85159331016929	1.8425804	1.3574169
25.869576044880695	1.8598443	1.3637611
25.887559427746034	1.8794624	1.3709348
25.90554345927836	1.907256	1.3810344
25.92352813999086	1.8815856	1.371709
25.94151347039689	1.8282015	1.35211
25.959499451009965	1.8458133	1.358607
25.97748608234374	1.8588922	1.363412
25.995473364912062	1.8428587	1.3575193
26.013461299228904	1.835262	1.3547184
26.03144988580839	1.8433689	1.3577073
26.04943912516483	1.8746891	1.3691928
26.067429017812675	1.9289111	1.3888525
26.085419564266537	1.8983159	1.3777939
26.103410765041186	1.830673	1.3530236
26.12140262065155	1.8342917	1.3543602
26.139395131612723	1.8864459	1.3734795
26.157388298439948	1.8797485	1.3710392
26.17538212164861	1.8727992	1.3685025
26.193376601754295	1.8663484	1.3661436
26.211371739272714	1.8978064	1.3776089
26.229367534719746	1.8760093	1.3696749
26.247363988611433	1.8588573	1.3633991
26.26536110146397	1.8591832	1.3635187
26.283358873793727	1.8394226	1.3562531
26.301357306117204	1.8361766	1.3550559
26.319356398951104	1.8159909	1.3475871
26.33735615281224	1.772176	1.331231
26.35535656821762	1.7627273	1.3276774
26.373357645684404	1.8054094	1.3436552
26.39135938572991	1.8222495	1.3499073
26.409361788871614	1.8023481	1.3425156
26.427364855627165	1.8135521	1.346682
26.445368586514352	1.768253	1.3297567
26.46337298205115	1.760519	1.3268455
26.48137804275568	1.7903334	1.3380334
26.499383769146217	1.8485658	1.3596197
26.517390161741215	1.8662179	1.3660959
26.53539722105928	1.7959962	1.3401479
26.553404947619182	1.7640982	1.3281935
26.571413341939856	1.7546941	1.3246486
26.589422404540397	1.7756717	1.3325434
26.60743213594006	1.7700377	1.3304276
26.62544253665827	1.7309221	1.3156451
26.64345360721459	1.7443383	1.320734
26.66146534812879	1.741627	1.3197072
26.679477759920758	1.7907821	1.338201
26.69749084311057	1.8604666	1.3639892
26.71550459821847	1.892505	1.3756834
26.733519025764842	1.8366135	1.3552171
26.751534126270258	1.7894276	1.3376949
26.769549900255434	1.7777677	1.3333296
26.787566348241267	1.7842218	1.3357476
26.80558347074881	1.8346509	1.3544929
26.823601268299267	1.9037914	1.3797795
26.841619741414036	1.8769025	1.3700008
26.85963889061465	1.8409402	1.3568125
26.877658716422832	1.816725	1.3478594
26.89567921936045	1.7843965	1.335813
26.913700399949544	1.8150285	1.34723
26.93172225871233	1.7866826	1.3366685
26.949744796171174	1.7870023	1.336788
26.967768012848605	1.8145078	1.3470367
26.98579190926733	1.8143568	1.3469806
27.003816485950225	1.8133491	1.3466065
27.021841743420318	1.7987403	1.3411713
27.039867682200814	1.8049666	1.3434905
27.057894302815072	1.796771	1.3404369
27.07592160578664	1.8015294	1.3422107
27.0939495916392	1.8257256	1.3511941
27.111978260896635	1.8621956	1.3646228
27.13000761408296	1.8642068	1.3653595
27.148037651722397	1.8174732	1.3481369
27.166068374339304	1.7835917	1.3355118
27.184099782458215	1.8227226	1.3500824
27.20213187660384	1.8535188	1.36144
27.22016465730105	1.8212003	1.3495185
27.23819812507487	1.7496362	1.3227382
27.256232280450533	1.763055	1.3278008
27.274267123953383	1.7839811	1.3356576
27.292302656108987	1.7631228	1.3278264
27.31033887744306	1.7947094	1.3396677
27.32837578848146	1.8317474	1.3534206
27.34641338975026	1.835237	1.3547091
27.364451681775673	1.7760508	1.3326856
27.382490665084074	1.7508032	1.3231792
27.400530340202046	1.792501	1.3388431
27.41857070765629	1.8500726	1.3601737
27.436611767973726	1.8448476	1.3582517
27.454653521681404	1.8044641	1.3433034
27.472695969306564	1.8270266	1.3516755
27.490739111376627	1.8677574	1.3666593
27.508782948419153	1.8468255	1.3589796
27.526827480961902	1.8265891	1.3515136
27.54487270953279	1.8087221	1.3448874
27.562918634659898	1.8584661	1.3632557
27.580965256871508	1.8532666	1.3613473
27.599012576696026	1.8094003	1.3451395
27.617060594662068	1.7896929	1.3377941
27.63510931129842	1.7985798	1.3411114
27.65315872713401	1.8164889	1.3477718
27.67120884269797	1.8546783	1.3618658
27.68925965851958	1.8640083	1.365287
27.707311175128307	1.8274636	1.3518372
27.725363393053787	1.7866418	1.3366532
27.74341631282583	1.7793132	1.333909
27.7614699349744	1.8153901	1.3473642
27.77952426002968	2.0158603	1.4198099
27.797579288521973	2.1282513	1.4588528
27.815635020981784	2.5137134	1.5854695
27.83369145793979	2.5505688	1.5970501
27.85174859992682	2.3199775	1.5231472
27.869806447473923	2.1616793	1.470265
27.887865001112267	1.9884639	1.4101291
27.905924261373233	1.9404036	1.3929837
27.92398422878836	1.8927362	1.3757675
27.94204490388936	1.8611287	1.364232
27.96010628720813	1.8443487	1.358068
27.978168379276728	1.864041	1.3652989
27.9962311806274	1.9088247	1.3816022
28.014294691792568	1.921663	1.3862406
28.0323589133048	1.8783156	1.3705165
28.050423845696887	1.8781934	1.370472
28.068489489501758	1.845142	1.35836
28.086555845252523	1.8298061	1.3527032
28.104622913482487	1.847451	1.3592097
28.122690694725115	1.8739645	1.3689282
28.14075918951405	1.9140178	1.3834803
28.15882839838312	1.9243318	1.3872029
28.176898321866304	1.9114497	1.3825519
28.1949689604978	1.8954399	1.3767498
28.213040314811945	1.9057087	1.3804741
28.23111238534327	1.9100319	1.3820391
28.249185172626493	1.9297795	1.389165
28.267258677196473	1.9199797	1.3856333
28.285332899588294	1.9106514	1.3822632
28.303407840337172	1.930956	1.3895885
28.321483499978545	1.9035325	1.3796856
28.33955987904799	1.9014927	1.3789462
28.357636978081285	1.946522	1.3951781
28.37571479761439	1.9938943	1.4120532
28.393793338183425	2.0322626	1.4255744
28.41187260032469	2.034929	1.4265094
28.429952584574686	2.008548	1.4172325
28.448033291470065	2.023537	1.4225107
28.46611472154769	2.0262315	1.4234576
28.484196875344566	2.026028	1.4233861
28.502279753397914	2.0030982	1.4153085
28.52036335624511	1.9938142	1.4120249
28.538447684423716	1.9773314	1.4061762
28.556532738471482	1.9712167	1.4040003
28.574618518926325	2.0032954	1.4153782
28.59270502632635	2.0214522	1.4217778
28.61079226120985	2.0534818	1.4329975
28.628880224115274	2.0551932	1.4335945
28.646968915581287	2.014262	1.4192469
28.66505833614671	2.0375695	1.4274346
28.68314848635055	2.0391772	1.4279976
28.701239366732004	2.0787206	1.4417769
28.71933097783044	2.0827446	1.4431717
28.737423320185403	2.085309	1.44406
28.75551639433665	2.0365503	1.4270775
28.773610200824074	2.0326858	1.4257228
28.791704740187793	2.0740182	1.4401453
28.80980001296809	2.0760665	1.4408562
28.827896019705413	2.114772	1.4542255
28.845992760940433	2.1218393	1.4566535
28.86409023721397	2.1412363	1.4632964
28.88218844906704	2.186907	1.4788195
28.900287397040845	2.1950338	1.4815646
28.918387081676755	2.1780221	1.4758123
28.936487503516343	2.193787	1.4811438
28.954588663101365	2.208389	1.4860649
28.97269056097374	2.2400544	1.4966811
28.990793197675597	2.3126726	1.5207474
29.00889657374923	2.3075333	1.5190567
29.027000689737125	2.3202364	1.5232322
29.04510554618196	2.3757498	1.5413468
29.06321114362659	2.4272413	1.5579606
29.08131748261405	2.4898598	1.577929
29.099424563687567	2.4875543	1.5771983
29.11753238739057	2.4698803	1.5715853
29.13564095426663	2.4832163	1.5758225
29.15375026485954	2.5164292	1.5863256
29.171860319713275	2.5240848	1.5887369
29.18997111937199	2.5419416	1.5943468
29.20808266438002	2.6158352	1.6173544
29.226194955281898	2.7033846	1.6441972
29.244307992622335	2.7938566	1.6714834
29.26242177694624	2.8500824	1.6882187
29.2805363087987	2.8696215	1.6939957
29.29865158872498	2.8966973	1.7019687
29.316767617270557	2.9519234	1.7181163
29.334884394981064	3.0144608	1.7362202
29.353001922402367	3.066285	1.7510811
29.37112020008047	3.0975156	1.759976
29.389239228561596	3.1934786	1.7870307
29.407359008392152	3.3772368	1.837726
29.42547954011872	3.766147	1.9406563
29.44360082428809	4.4132476	2.100773
29.46172286144722	5.3818917	2.3198905
29.479845652143283	6.9208775	2.6307561
29.497969196923606	9.123152	3.0204556
29.516093496335728	11.787461	3.4332871
29.5342185509274	14.830629	3.8510556
29.55234436124651	17.483458	4.1813226
29.570470927841175	19.083466	4.3684626
29.588598251259686	18.804712	4.33644
29.60672633205055	17.292067	4.158373
29.624855170762405	14.976327	3.869926
29.642984767944146	12.02748	3.4680657
29.66111512414481	9.18567	3.030787
29.67924623991366	6.8583264	2.6188407
29.697378115800138	5.2037	2.281162
29.71551075235387	4.2253876	2.0555747
29.733644150124675	3.7638915	1.9400752
29.751778309662576	3.543817	1.8825029
29.769913231517766	3.4176395	1.8486859
29.78804891624066	3.342128	1.8281488
29.806185364381818	3.3016417	1.817042
29.82432257649206	3.2755504	1.8098482
29.842460553122333	3.2405102	1.8001417
29.86059929482382	3.2343898	1.7984409
29.878738802147872	3.290188	1.8138876
29.896879075646048	3.319604	1.821978
29.915020115870114	3.2838488	1.8121393
29.933161923371976	3.2250144	1.7958325
29.951304498703777	3.1895893	1.7859421
29.969447842417857	3.1467261	1.7739013
29.987591955066733	3.1088986	1.763207
30.005736837203123	3.1102042	1.7635771
30.023882489379943	3.2066712	1.7907181
30.04202891215028	3.240396	1.80011
30.060176106067455	3.1873472	1.7853143
30.078324071684946	3.155765	1.7764473
30.09647280955646	3.1454625	1.7735451
30.114622320235863	3.0969634	1.7598191
30.132772604277257	3.1358118	1.7708224
30.1509236622349	3.1508927	1.7750754
30.16907549466328	3.1408653	1.7722486
30.18722810211705	3.0743134	1.753372
30.205381485151097	3.0282648	1.740191
30.22353564432045	3.0278342	1.7400672
30.241690580180403	3.0001702	1.7320999
30.25984629328638	3.0031836	1.7329696
30.278002784194037	2.99677	1.7311181
30.296160053459246	2.9513805	1.7179582
30.314318101638033	2.866874	1.6931846
30.332476929286646	2.8688734	1.6937749
30.35063653696153	2.9420128	1.7152296
30.368796925219307	2.9285493	1.7113005
30.386958094616844	2.888603	1.699589
30.40512004571115	2.892838	1.7008345
30.423282779059463	2.8677092	1.6934311
30.441446295219233	2.8847811	1.6984644
30.459610594748067	2.9281285	1.7111775
30.47777567820382	2.9364812	1.7136164
30.495941546144504	2.977823	1.725637
30.51410819912835	2.9148324	1.707288
30.532275637713795	2.8808255	1.6972995
30.55044386245946	2.9376936	1.7139702
30.56861287392416	2.9119766	1.7064514
30.586782672666956	2.8948605	1.701429
30.604953259247047	2.8941715	1.7012265
30.623124634223885	2.9270964	1.7108759
30.641296798157075	2.9031358	1.7038591
30.659469751606462	2.826004	1.6810722
30.677643495132074	2.7783628	1.6668421
30.695818029294152	2.6953394	1.6417489
30.713993354653116	2.6582725	1.6304209
30.73216947176962	2.709142	1.6459471
30.75034638120448	2.7476149	1.6575931
30.768524083518756	2.6969304	1.6422334
30.786702579273673	2.7198677	1.6492021
30.80488186903069	2.7907836	1.6705638
30.82306195335144	2.9820192	1.7268524
30.841242832797782	3.138089	1.7714652
30.85942450793176	3.462931	1.8608952
30.877606979315637	3.7235172	1.9296417
30.895790247511883	4.0104685	2.0026155
30.913974313083134	4.5746727	2.1388485
30.932159176592283	5.1262317	2.2641182
30.95034483860237	5.2498565	2.2912564
30.968531299676698	4.90293	2.214256
30.98671856037873	4.423183	2.1031365
31.00490662127215	4.057861	2.0144134
31.023095482920848	3.6284204	1.9048413
31.04128514588892	3.074798	1.7535102
31.059475610740662	2.6488676	1.6275343
31.07766687804056	2.531077	1.5909358
31.09585894835335	2.5488458	1.5965105
31.11405182224393	2.5421228	1.5944036
31.132245500277417	2.5126884	1.5851462
31.15043998301914	2.559381	1.5998065
31.168635271034628	2.567934	1.6024774
31.18683136488964	2.5246363	1.5889105
31.20502826515008	2.4832404	1.5758301
31.223225972382135	2.4261234	1.5576018
31.241424487152155	2.4379134	1.5613819
31.259623810026692	2.4486613	1.5648199
31.27782394157253	2.4534726	1.5663564
31.296024882356644	2.4330516	1.5598242
31.314226632946237	2.4094775	1.5522492
31.332429193908684	2.4343882	1.5602525
31.350632565811598	2.3996468	1.5490793
31.368836749222787	2.393157	1.5469832
31.387041744710295	2.4497006	1.5651519
31.40524755284232	2.5575652	1.599239
31.423454174187317	2.5507588	1.5971096
31.441661609313922	2.501423	1.5815887
31.459869858791002	2.4702482	1.5717024
31.478078923187628	2.4403179	1.5621517
31.496288803073064	2.3553092	1.5347017
31.514499499016807	2.273737	1.5078915
31.532711011588546	2.3266525	1.5253369
31.550923341358178	2.3866625	1.5448827
31.56913648889584	2.3064013	1.518684
31.587350454771844	2.1969604	1.4822147
31.605565239556732	2.1381397	1.462238
31.62378084382127	2.2087057	1.4861715
31.641997268136382	2.3122325	1.5206027
31.660214513073274	2.3460634	1.5316864
31.67843257920331	2.291513	1.5137744
31.6966514670981	2.3148606	1.5214666
31.71487117732944	2.3518171	1.5335635
31.733091710469346	2.3097503	1.5197862
31.751313067090052	2.2285914	1.4928467
31.769535247764008	2.2317877	1.4939169
31.787758253063878	2.326312	1.5252253
31.805982083562526	2.4050367	1.5508181
31.824206739833024	2.4086995	1.5519985
31.84243222244869	2.3752532	1.5411856
31.860658531983013	2.359993	1.5362269
31.878885669009737	2.353331	1.534057
31.897113634102784	2.3167357	1.5220827
31.91534242783632	2.260014	1.5033343
31.933572050784694	2.2363536	1.4954443
31.951802503522508	2.2911177	1.5136439
31.970033786624548	2.2728903	1.5076108
31.988265900665834	2.230888	1.4936157
32.006498846221575	2.1552522	1.4680778
32.02473262386724	2.2274969	1.4924802
32.04296723417845	2.2875266	1.5124571
32.0612026777311	2.245634	1.498544
32.07943895510129	2.1863506	1.4786314
32.097676066865304	2.1951036	1.4815882
32.115914013599685	2.196236	1.4819703
32.13415279588115	2.203436	1.4843975
32.152392414286666	2.175081	1.4748156
32.1706328693934	2.1537232	1.467557
32.18887416177875	2.10797	1.451885
32.20711629202032	2.1385658	1.4623836
32.225359260695924	2.1218092	1.4566431
32.243603068383614	2.1224525	1.4568639
32.26184771566166	2.094074	1.4470916
32.28009320310852	2.055064	1.4335494
32.2983395313029	2.050432	1.4319329
32.31658670082372	2.0193553	1.4210402
32.33483471225012	2.0345535	1.4263778
32.35308356616143	2.119168	1.4557363
32.371333263137245	2.153668	1.467538
32.38958380375734	2.126771	1.4583453
32.407835188601744	2.1051342	1.4509081
32.42608741825067	2.0559325	1.4338523
32.444340493284585	2.062856	1.4362646
32.46259441428416	2.1031253	1.4502156
32.48084918183028	2.1704707	1.4732517
32.49910479650405	2.1528015	1.4672428
32.51736125888683	2.0997062	1.4490362
32.53561856956014	2.026837	1.4236703
32.5538767291058	2.0198724	1.4212222
32.572135738105764	2.1128767	1.4535737
32.59039559714228	2.167672	1.4723016
32.608656306797776	2.1230688	1.4570755
32.62691786765491	2.0706685	1.4389818
32.645180280296586	1.9849228	1.4088728
32.663443545305896	1.9368713	1.3917153
32.68170766326619	2.0256462	1.423252
32.69997263476099	2.0434656	1.4294984
32.7182384603741	1.9609321	1.4003328
32.7365051406895	1.8678627	1.3666978
32.75477267629144	1.846579	1.3588889
32.77304106776434	1.8171384	1.3480128
32.79131031569289	1.9482685	1.3958039
32.809580420661966	2.039367	1.4280641
32.827851383256714	1.9811321	1.407527
32.84612320406245	1.9692175	1.4032881
32.86439588366476	2.0090399	1.4174061
32.88266942264945	1.947339	1.3954709
32.9009438216025	1.9017044	1.379023
32.9192190811102	1.898611	1.377901
32.937495201758985	1.9082838	1.3814064
32.95577218413556	1.9499451	1.3964044
32.974050028826866	1.8724468	1.3683738
32.992328736420035	1.9082547	1.3813959
33.010608307502444	1.9393935	1.392621
33.02888874266169	1.94182	1.393492
33.047170042485604	1.9171984	1.3846294
33.06545220756225	1.947932	1.3956833
33.083735238479896	2.0346549	1.4264133
33.10201913582707	2.042052	1.4290038
33.12030390019248	2.016306	1.4199668
33.138589532165135	1.9875579	1.4098078
33.15687603233419	1.8772966	1.3701447
33.17516340128909	1.8145779	1.3470627
33.19345163961947	1.8345984	1.3544735
33.211740747915215	1.8702654	1.3675765
33.23003072676643	1.9117951	1.3826768
33.248321576763466	1.9501177	1.3964661
33.266613298496885	1.9738691	1.4049445
33.28490589255747	1.9716753	1.4041636
33.30319935953626	1.9432019	1.3939878
33.32149370002451	1.9675152	1.4026815
33.339788914613706	1.9515615	1.396983
33.358085003895575	1.9779046	1.4063799
33.376381968462034	1.8850956	1.3729879
33.39467980890529	1.8493365	1.3599031
33.41297852581774	1.863767	1.3651985
33.43127811979204	1.9810774	1.4075075
33.44957859142105	2.0924168	1.4465189
33.467879941297866	2.0015447	1.4147596
33.486182170015844	1.8229386	1.3501624
33.50448527816853	1.7382754	1.3184367
33.522789266349754	1.7156627	1.309833
33.541094135153514	1.7582148	1.325977
33.55939988517411	1.86507	1.3656757
33.57770651700602	1.9294535	1.3890477
33.59601403124398	1.9808201	1.4074161
33.61432242848296	2.050903	1.4320974
33.632631709318154	2.0666528	1.4375857
33.650941874344994	1.9683622	1.4029833
33.66925292415916	1.8726434	1.3684456
33.68756485935654	1.9298126	1.389177
33.70587768053328	1.9317014	1.3898566
33.724191388285746	1.8921473	1.3755535
33.74250598321054	1.8244541	1.3507235
33.760821465904506	1.921775	1.386281
33.77913783696474	2.062564	1.436163
33.79745509698852	2.1053045	1.4509667
33.815773246573414	2.0680141	1.4380592
33.8340922863172	2.0921996	1.4464438
33.852412216817896	1.9860839	1.4092848
33.87073303867377	1.8948686	1.3765422
33.889054752483304	1.8842806	1.372691
33.907377358845245	1.93143	1.389759
33.92570085835853	1.925825	1.387741
33.94402525162239	1.8914483	1.3752993
33.96235053923627	1.8540369	1.3616302
33.980676721799824	1.8990812	1.3780715
33.999003799912984	1.9655727	1.4019889
34.01733177417592	2.0572846	1.4343238
34.03566064518901	2.1430464	1.4639148
34.0539904135529	2.0008886	1.4145277
34.07232107986846	2.0044324	1.4157798
34.090652644736785	2.085313	1.4440613
34.108985108759235	2.058002	1.4345738
34.12731847253742	2.050238	1.4318652
34.14565273667313	2.0761545	1.4408867
34.16398790176847	2.0622325	1.4360476
34.18232396842574	2.0192502	1.4210032
34.20066093724749	1.8682185	1.366828
34.21899880883651	1.833862	1.3542016
34.23733758379583	1.873622	1.3688031
34.25567726272874	1.8502703	1.3602464
34.27401784623872	1.8541191	1.3616604
34.29235933492957	1.8471935	1.359115
34.31070172940526	2.0202622	1.4213593
34.32904503027003	2.1056328	1.4510798
34.347389238128386	2.000522	1.4143981
34.36573435358502	1.8818079	1.37179
34.38408037724492	1.8578348	1.3630241
34.402427309713296	1.9929028	1.411702
34.42077515159559	2.143076	1.4639249
34.43912390349752	2.0806143	1.4424335
34.45747356602499	2.0997515	1.449052
34.47582413978423	2.0531757	1.4328907
34.49417562538163	2.0460637	1.4304068
34.51252802342388	2.013372	1.4189334
34.53088133451789	2.0120769	1.4184769
34.54923555927084	1.92406	1.3871049
34.567590698290104	1.8531196	1.3612933
34.58594675218336	2.0062795	1.4164319
34.6043037215585	2.0211158	1.4216595
34.62266160702365	1.9238086	1.3870143
34.641020409187234	1.8871613	1.3737398
34.65938012865785	1.885149	1.3730073
34.677740766044394	1.9366423	1.3916329
34.69610232195598	1.8731351	1.3686253
34.714464797002016	1.77755	1.3332479
34.73282819179208	1.8932341	1.3759484
34.751192506936064	2.0264142	1.4235218
34.76955774304408	1.9617425	1.4006222
34.7879239007265	1.8964682	1.3771231
34.80629098059391	2.0289736	1.4244205
34.824658983257194	2.1414392	1.4633657
34.843027909327446	2.000325	1.4143285
34.86139775941603	1.8342544	1.3543465
34.879768534134534	1.8190591	1.348725
34.89814023409483	1.9053893	1.3803585
34.91651285990901	1.9072604	1.381036
34.93488641218944	1.9387525	1.392391
34.95326089154871	1.7062612	1.3062394
34.97163629859967	1.6020385	1.2657166
34.99001263395542	1.9619427	1.4006937
35.00838989822934	2.213368	1.4877392
35.02676809203499	2.0876744	1.4448787
35.04514721598624	1.9363818	1.3915393
35.063527270697215	1.9334086	1.3904706
35.081908256782256	1.8997922	1.3783295
35.10029017485597	1.8454539	1.3584749
35.11867302553321	1.967185	1.4025637
35.137056809429104	1.9350042	1.3910443
35.155441527159006	1.779612	1.334021
35.173827179338524	1.7865624	1.3366235
35.19221376658354	2.1282952	1.4588678
35.21060128951017	2.0043464	1.4157494
35.2289897487348	1.7951492	1.3398318
35.24737914487405	1.9264627	1.3879707
35.26576947854479	2.0237987	1.4226028
35.28416075036418	2.0148017	1.4194372
35.30255296094958	1.9520159	1.3971456
35.32094611091867	2.0643306	1.4367778
35.33934020088932	2.1057472	1.4511193
35.35773523147969	1.9067471	1.3808502
35.3761312033082	1.8674549	1.3665485
35.394528116993506	2.070673	1.4389833
35.41292597315452	2.105216	1.4509363
35.431324772410434	2.3096557	1.5197551
35.449724515380666	2.4260046	1.5575637
35.46812520268491	2.2423685	1.497454
35.486526834943106	2.167764	1.4723328
35.504929412775454	2.254027	1.5013417
35.52333293680242	2.3030672	1.517586
35.54173740764471	2.213414	1.4877547
35.560142825923286	2.2607558	1.5035809
35.5785491922594	2.1638145	1.470991
35.59695650727454	1.853264	1.3613464
35.61536477159042	1.4327071	1.1969575
