0.008763373481513119	0.0	0.0
0.026290120649546365	0.17179282	0.414479
0.043816868432600686	0.25175577	0.5017527
0.06134361724069026	0.18205996	0.42668486
0.07887036748382949	0.116217546	0.34090695
0.0963971195720331	0.0036183195	0.060152467
0.11392387391531617	0.031012928	0.17610487
0.1314506309236943	0.07467302	0.27326363
0.1489773910071836	0.07942717	0.28182825
0.16650415457580078	0.09858937	0.31398943
0.18403092203956356	0.06428406	0.25354302
0.20155769380849	0.12963226	0.3600448
0.2190844702925996	0.17712587	0.42086324
0.2366112519019124	0.2327362	0.48242742
0.2541380390464497	0.19560121	0.44226825
0.27166483213623416	0.19609457	0.44282568
0.28919163158128947	0.15749754	0.3968596
0.3067184377916406	0.13844799	0.372086
0.324245251177314	0.10560666	0.3249718
0.34177207214833777	0.08033856	0.2834406
0.3592989011147415	0.07798731	0.2792621
0.37682573848655654	0.09200759	0.30332753
0.39435258467381573	0.104042925	0.32255685
0.41187944008655414	0.12091534	0.34772882
0.42940630513480854	0.14248845	0.37747642
0.446933180228618	0.1695625	0.41177967
0.4644600657780234	0.19946545	0.44661555
0.48198696219306775	0.18070938	0.42509925
0.49951386988379676	0.1631061	0.40386397
0.5170407892602581	0.11066858	0.33266887
0.5345677207325025	0.12834685	0.35825527
0.5520946647105822	0.13990231	0.37403518
0.5696216216045534	0.1824758	0.42717186
0.5871485918244737	0.19418491	0.44066417
0.6046755757804043	0.19382812	0.44025916
0.6222025738824094	0.15217668	0.3900983
0.6397295865405557	0.143185	0.37839794
0.6572566141649129	0.14999743	0.387295
0.6747836571655547	0.1812462	0.4257302
0.6923107159525568	0.20433491	0.4520342
0.7098377909359992	0.1698489	0.4121273
0.7273648825259653	0.14776228	0.3843986
0.7448919911325411	0.14912944	0.3861728
0.762419117165817	0.19229004	0.43850887
0.7799462610358868	0.18609104	0.43138272
0.7974734231528482	0.2231288	0.4723651
0.8150006039268024	0.20757662	0.45560578
0.8325278037678551	0.23210722	0.48177508
0.8500550230861152	0.24756107	0.49755508
0.8675822622916969	0.24120347	0.4911247
0.8851095217947171	0.2362753	0.48608157
0.9026368020052984	0.26780924	0.5175029
0.9201641033335665	0.2829499	0.5319303
0.9376914261896523	0.2667281	0.51645726
0.9552187709836915	0.22060737	0.4696886
0.9727461381258234	0.18685025	0.4322618
0.990273528026193	0.16253634	0.40315795
1.0078009410949496	0.20252624	0.45002916
1.0253283777422473	0.22210187	0.47127685
1.0428558383782454	0.22907315	0.47861588
1.0603833234131086	0.19876562	0.4458314
1.0779108332570058	0.27777934	0.52704775
1.0954383683201119	0.30240163	0.54991055
1.112965929012607	0.37747258	0.614388
1.1304935157446763	0.54991275	0.741561
1.1480211289265108	0.6019737	0.77586967
1.1655487689683062	1.5331169	1.238191
1.1830764362802655	1.7390896	1.3187455
1.200604131272596	2.15861	1.4692209
1.2181318543555117	2.4121046	1.5530952
1.235659605939232	2.4022017	1.5499038
1.253187386433982	3.9541662	1.9885086
1.270715196249994	6.3085475	2.5116823
1.2882430357975057	11.578274	3.4026864
1.3057709054867608	16.210293	4.026201
1.3232988057280106	22.178278	4.709382
1.3408267369315112	27.038269	5.1998334
1.358354699507526	30.865198	5.5556455
1.3758826938663256	34.93867	5.9108944
1.3934107204181858	36.87297	6.072312
1.410938779573391	37.697147	6.1398
1.4284668717422309	38.383945	6.195478
1.4459949973350033	37.87877	6.154573
1.4635231567620117	38.09965	6.1724916
1.4810513504335687	37.474438	6.121637
1.4985795787599925	36.721157	6.0597982
1.5161078421516088	36.495987	6.0411906
1.5336361410187505	35.502876	5.958429
1.5511644757717598	35.692932	5.974356
1.5686928468209842	36.11418	6.0095077
1.58622125457678	36.074326	6.006191
1.6037496994495108	37.33533	6.1102643
1.621278181849548	37.11598	6.0922885
1.6388067021872719	38.06866	6.1699805
1.6563352608730693	37.702236	6.1402144
1.673863858317336	36.927723	6.0768185
1.6913924949304753	35.90781	5.9923124
1.7089211711228998	35.095406	5.9241376
1.7264498873050296	34.277676	5.854714
1.7439786438872935	33.256207	5.7668195
1.7615074412801288	31.980835	5.65516
1.779036279893981	31.265207	5.59153
1.796565160139305	30.233551	5.4985046
1.814094082426564	29.680029	5.447938
1.8316230471662298	29.102896	5.39471
1.849152054768784	28.244184	5.3145256
1.8666811056447168	27.632357	5.256649
1.8842102002045273	26.796299	5.176514
1.901739338858724	26.459799	5.143909
1.9192685220178245	26.06442	5.1053324
1.9367977500923557	25.350952	5.0349727
1.9543270234928547	24.94425	4.994422
1.971856342629867	24.382803	4.937895
1.9893857079139496	23.748283	4.873221
2.006915119755667	23.126347	4.808986
2.0244445785655945	22.36619	4.7292905
2.0419740847543175	22.013884	4.6918955
2.0595036387324317	21.734041	4.6619782
2.0770332409105414	21.280682	4.613099
2.094562891699263	20.85544	4.566776
2.1120925915092217	20.248358	4.4998174
2.129622340751053	19.947067	4.466214
2.1471521398354043	188.10832	13.715259
2.1646819891729323	444.57428	21.08493
2.182211889174303	440.98352	20.999607
2.1997418402501974	453.39368	21.293043
2.2172718428113023	433.02573	20.80927
2.234801897268317	320.90973	17.913954
2.2523320040319548	17.33998	4.16413
2.269862163512935	17.253572	4.153742
2.287392376121992	16.80645	4.099567
2.304922642269869	16.425112	4.0527906
2.322452962367322	15.996464	3.999558
2.3399833368251164	15.74016	3.967387
2.357513766054032	15.616327	3.9517498
2.3750442504648586	15.293454	3.9106846
2.3925747904683963	15.036272	3.8776631
2.410105386475459	14.753436	3.84102
2.4276360388968707	14.476103	3.8047473
2.445166748143469	14.212049	3.769887
2.4626975146261025	13.675458	3.6980343
2.4802283387556323	13.489681	3.67283
2.4977592209429305	13.350323	3.6538093
2.5152901615988825	13.100955	3.6195242
2.5328211611343865	12.947584	3.5982752
2.5503522199603523	12.889224	3.5901566
2.5678833384877024	12.864166	3.5866652
2.5854145171273712	12.747035	3.570299
2.6029457562903064	12.482709	3.5330877
2.620477056387469	12.06711	3.4737747
2.6380084178298326	11.894965	3.4489079
2.655539841028383	11.667473	3.4157681
2.673071326394119	11.721195	3.423623
2.6906028743380523	11.523879	3.3946838
2.708134485271211	11.283418	3.3590798
2.7256661596046325	11.023744	3.3202024
2.743197897749369	10.768001	3.2814631
2.760729700116486	10.680225	3.2680614
2.778261567117063	10.490207	3.238859
2.795793499162193	10.364356	3.219372
2.8133254966629817	10.113105	3.180111
2.830857560030551	9.927664	3.1508195
2.8483896896760337	9.832204	3.1356344
2.865921886010578	9.721887	3.117994
2.883454149445347	9.60254	3.0987966
2.9009864803915177	9.415563	3.0684788
2.91851887926028	9.333995	3.0551586
2.9360513464628384	9.277554	3.0459077
2.953583882410413	9.262185	3.0433838
2.9711164875142373	9.1268	3.0210593
2.9886491621855606	8.95694	2.9928148
3.0061819068356455	8.827779	2.9711578
3.023714721875769	8.753174	2.9585762
3.041247607717225	8.594523	2.9316418
3.0587805647713213	8.558476	2.9254873
3.0763135934493806	8.43268	2.9039078
3.0938466941627407	8.337721	2.8875113
3.1113798673227544	8.119081	2.8494
3.1289131133407904	7.9778614	2.8245108
3.1464464326282315	7.836778	2.7994246
3.1639798255964786	7.815165	2.7955616
3.1815132926569443	7.6087174	2.7583904
3.1990468342210603	7.5849266	2.7540746
3.216580450700272	7.6735296	2.7701137
3.2341141425060416	7.7281923	2.7799625
3.251647910049847	7.6632943	2.7682655
3.2691817537431813	7.4893217	2.7366626
3.286715673997555	7.2754455	2.6973033
3.3042496712244938	7.17152	2.6779695
3.32178374583554	7.117555	2.6678746
3.339317898242251	7.0777493	2.660404
3.3568521288562034	6.883516	2.6236455
3.3743864380889876	6.840043	2.6153476
3.3919208263522127	6.800679	2.6078112
3.4094552940575023	6.8831944	2.6235843
3.4269898416164972	6.8273625	2.6129222
3.444524469440858	6.7162757	2.5915778
3.4620591779422587	6.58854	2.5668151
3.479593967532391	6.4622397	2.5420935
3.4971288386229658	6.4861526	2.5467925
3.5146637916257086	6.467062	2.543042
3.5321988269523628	6.566643	2.5625463
3.5497339450146903	6.5188127	2.5531967
3.5672691462244708	6.4803233	2.5456479
3.5848044309934988	6.381236	2.526111
3.60233979973359	6.313458	2.5126595
3.619875252856575	6.313037	2.5125759
3.6374107907743034	6.332658	2.5164773
3.6549464138986427	6.414498	2.532686
3.6724821226414788	6.3593917	2.5217834
3.690017917414714	6.3366075	2.517262
3.7075537986302702	6.2675653	2.5035105
3.7250897667000857	6.2765846	2.5053113
3.7426258220361235	6.551549	2.5595994
3.7601619650503553	6.8927474	2.6254041
3.777698196154779	7.498707	2.7383766
3.7952345157614067	8.520237	2.9189446
3.8127709242822716	9.334569	3.0552528
3.830307422129425	11.487504	3.389322
3.847844009714936	30.246796	5.4997087
3.8653806874508954	97.70889	9.884781
3.882917455749409	96.86015	9.841756
3.900454315022606	96.58417	9.827724
3.917991265682631	41.288105	6.425582
3.9355283081416506	11.015912	3.3190227
3.9530654428118495	8.922719	2.987092
3.970602670105433	7.6825533	2.7717419
3.9881399904346244	6.663373	2.581351
4.005677404211669	6.504056	2.5503051
4.023214911848827	6.4463506	2.5389664
4.0407525137583855	6.502693	2.5500379
4.058290210352644	6.6502094	2.5788
4.075828002043927	6.567018	2.5626194
4.0933658892445814	6.4946246	2.5484552
4.110903872366966	6.33799	2.5175364
4.128441951823468	6.2416787	2.4983351
4.145980128026488	6.1843643	2.486838
4.163518401388452	6.171938	2.4843385
4.181056772321807	6.169561	2.48386
4.1985952412390155	6.1751647	2.484988
4.216133808552567	6.1817718	2.486317
4.233672474674966	6.2651744	2.503033
4.251211240018741	6.4756494	2.5447297
4.268750104996445	6.722142	2.5927095
4.286289070020643	7.6693764	2.7693639
4.303828135503928	9.245509	3.040643
4.3213673018589125	29.500008	5.431391
4.3389065694982305	90.7606	9.526835
4.356445938834537	165.97655	12.883188
4.3739854102805085	171.59045	13.099254
4.391524984248844	172.53418	13.135226
4.409064661152262	136.91269	11.70097
4.426604441403504	97.39498	9.86889
4.444144325415337	76.432755	8.742583
4.461684313600543	22.199368	4.7116203
4.47922440637193	22.474112	4.740687
4.496764604142329	20.617594	4.54066
4.5143049073245916	18.731665	4.328009
4.531845316331589	16.643593	4.079656
4.5493858315762195	13.836667	3.719767
4.566926453471405	11.608538	3.4071305
4.584467182430081	9.606788	3.0994818
4.602008018865218	8.424427	2.9024863
4.619548963189798	7.6541924	2.766621
4.637090015816834	7.053056	2.655759
4.654631177159353	6.77393	2.6026776
4.672172447630417	6.5408096	2.5575006
4.689713827643102	6.3789167	2.5256517
4.7072553176105085	6.131507	2.476188
4.724796917945764	5.9222517	2.4335678
4.742338629062015	5.7859507	2.4054003
4.759880451372434	5.74023	2.3958778
4.777422385290215	5.7806	2.4042878
4.794964431228581	5.7712693	2.4023466
4.812506589600768	5.82036	2.4125423
4.830048860820047	5.8006268	2.408449
4.847591245299709	5.727044	2.3931243
4.8651337434530655	5.5973945	2.3658814
4.882676355693457	5.5357137	2.3528097
4.900219082434242	5.5806394	2.3623376
4.917761924088813	5.634239	2.3736553
4.935304881070575	5.6711097	2.3814092
4.952847953792969	5.6351027	2.3738372
4.970391142669449	5.6384006	2.3745317
4.9879344481135055	5.6080136	2.3681245
5.005477870538642	5.5857863	2.363427
5.023021410358394	5.6160364	2.3698177
5.040565067986324	5.5427213	2.3542984
5.05810884383601	5.4646654	2.3376625
5.075652738321066	5.463929	2.3375049
5.09319675185512	5.5008082	2.3453803
5.110740884851836	5.532617	2.3521516
5.128285137724894	5.5109787	2.3475473
5.145829510888007	5.4744987	2.3397646
5.163374004754908	5.433257	2.3309348
5.1809186197393595	5.3767257	2.3187768
5.198463356255145	5.329091	2.3084824
5.216008214716077	5.342662	2.31142
5.233553195535998	5.409097	2.3257465
5.251098299128764	5.4492583	2.3343647
5.268643525908272	5.4213023	2.3283691
5.286188876288432	5.429556	2.3301408
5.3037343506831895	5.402036	2.324228
5.32127994950651	5.3594685	2.3150525
5.3388256731723915	5.386909	2.3209715
5.356371522094851	5.3777647	2.3190007
5.373917496687938	5.3698874	2.3173018
5.391463597365729	5.3682837	2.3169558
5.40900982454232	5.2541785	2.2921996
5.426556178631843	5.2461104	2.290439
5.444102660048449	5.157495	2.2710118
5.4616492692063225	5.1852365	2.2771115
5.479196006519669	5.1672835	2.273166
5.496742872402727	5.068983	2.2514403
5.514289867269756	5.062632	2.2500293
5.531836991535049	5.098052	2.2578866
5.549384245612924	5.1857123	2.277216
5.566931629917724	5.205836	2.28163
5.584479144863822	5.138138	2.266746
5.6020267908656205	5.174027	2.2746487
5.619574568337545	5.241023	2.289328
5.637122477694054	5.229352	2.2867777
5.654670519349629	5.1787353	2.2756834
5.672218693718784	5.15138	2.2696652
5.689767001216059	5.222184	2.28521
5.707315442256021	5.2961082	2.3013275
5.724864017253266	5.284958	2.2989037
5.7424127266224225	5.255571	2.292503
5.75996157077814	5.1776323	2.2754412
5.777510550135105	5.200933	2.2805555
5.795059665108022	5.238278	2.2887285
5.812608916111639	5.2658052	2.2947342
5.830158303560715	5.374586	2.3183153
5.847707827870055	5.3369837	2.3101912
5.86525748945448	5.361493	2.3154898
5.8828072887288485	5.4783626	2.3405902
5.900357226108044	5.569874	2.360058
5.917907302006979	5.695168	2.386455
5.9354575168406	6.2660675	2.5032115
5.9530078710238765	6.8359537	2.6145656
5.970558364971812	7.354539	2.7119253
5.988108999099438	7.6917934	2.7734082
6.005659773821818	8.205933	2.8646
6.023210689554039	7.8536777	2.8024414
6.040761746711227	8.253249	2.8728468
6.058312945708531	7.6994157	2.7747822
6.075864286961132	7.3401165	2.709265
6.093415770884244	6.7821183	2.60425
6.1109673978931065	6.224667	2.4949284
6.128519168402993	5.595866	2.3655584
6.146071082829204	5.3677206	2.3168342
6.163623141587075	5.218124	2.2843213
6.181175345091969	5.1486974	2.2690742
6.198727693759281	5.1642795	2.272505
6.216280188004435	5.302558	2.3027284
6.233832828242885	5.3029428	2.3028119
6.251385614890126	5.276718	2.2971108
6.268938548361669	5.2210574	2.2849634
6.286491629073067	5.1451817	2.2682993
6.304044857439898	5.151907	2.2697814
6.321598233877777	5.0562134	2.2486026
6.339151758802344	4.9919744	2.2342727
6.356705432629277	4.965884	2.2284265
6.37425925577428	5.0198455	2.2405012
6.391813228653095	5.0209756	2.2407534
6.409367351681486	5.0751414	2.2528074
6.426921625275259	5.068093	2.2512424
6.44447604985025	5.0727534	2.2522774
6.46203062582232	5.0707226	2.2518265
6.47958535360737	5.0696635	2.2515914
6.497140233621328	5.095988	2.2574294
6.514695266280161	5.0998464	2.2582839
6.532250451999859	5.0537815	2.2480617
6.549805791196454	5.038079	2.2445664
6.567361284286002	5.096518	2.257547
6.584916931684597	5.136511	2.2663872
6.602472733808367	5.1633143	2.2722929
6.6200286910734665	5.1633134	2.2722926
6.637584803896092	5.1468525	2.2686675
6.655141072692462	5.134113	2.2658582
6.672697497878842	5.1080966	2.26011
6.690254079871514	5.0568666	2.2487478
6.707810819086808	5.0266066	2.2420094
6.725367715941078	4.982127	2.2320678
6.742924770850719	5.000723	2.2362297
6.760481984232151	5.076779	2.253171
6.778039356501836	5.117913	2.2622805
6.795596888076266	5.117616	2.262215
6.813154579371963	5.1053734	2.2595074
6.830712430805492	5.102897	2.2589593
6.84827044279344	5.1019335	2.258746
6.865828615752445	5.103146	2.2590144
6.883386950099159	5.1064377	2.2597427
6.900945446250287	5.079296	2.2537293
6.918504104622553	5.046555	2.246454
6.936062925632727	5.0415335	2.245336
6.953621909697607	5.029562	2.2426684
6.971181057234028	5.0830345	2.2545586
6.988740368658859	5.1019707	2.2587543
7.006299844389007	5.16069	2.2717152
7.023859484841407	5.2570744	2.2928312
7.041419290433036	5.386364	2.3208542
7.058979261580902	5.5151296	2.3484313
7.0765393987020495	5.7599087	2.399981
7.094099702213559	6.1320133	2.4762902
7.111660172532549	6.505852	2.5506573
7.129220810076164	6.8941545	2.625672
7.146781615261595	7.5053387	2.7395873
7.16434258850606	7.7817225	2.789574
7.181903730226821	8.220386	2.8671215
7.1994650408411704	8.272308	2.876162
7.217026520766437	8.320058	2.8844512
7.234588170419983	8.486017	2.9130769
7.252149990219215	8.532135	2.920982
7.269711980581568	8.446477	2.9062824
7.2872741419245175	8.342064	2.8882632
7.304836474665574	7.895983	2.8099792
7.322398979222286	7.5354815	2.745083
7.339961656012233	7.2220945	2.6873956
7.357524505453039	6.834279	2.6142454
7.375087527962357	6.588411	2.56679
7.392650723957886	6.355272	2.5209665
7.410214093857353	5.972322	2.4438334
7.427777638078528	5.7530756	2.398557
7.445341357039213	5.5504694	2.3559434
7.4629052511572525	5.4441957	2.33328
7.480469320850524	5.3545837	2.3139973
7.498033566536948	5.2594185	2.293342
7.5155979886344735	5.1499834	2.2693574
7.5331625875610975	5.0983667	2.2579563
7.550727363734844	5.1554365	2.2705586
7.568292317573788	5.185616	2.2771947
7.585857449496025	5.226516	2.2861574
7.603422759919705	5.2341304	2.2878222
7.620988249263007	5.235709	2.2881672
7.638553917944147	5.284897	2.2988904
7.656119766381391	5.2955103	2.3011975
7.673685794993023	5.3345118	2.3096561
7.691252004197388	5.353829	2.3138342
7.70881839441285	5.369011	2.3171127
7.726384966057826	5.3413873	2.311144
7.743951719550762	5.302126	2.3026345
7.761518655310149	5.27455	2.2966387
7.779085773754511	5.284473	2.298798
7.796653075302419	5.2578626	2.2930028
7.814220560372475	5.293491	2.3007588
7.831788229383323	5.2771473	2.2972043
7.8493560827536495	5.271432	2.29596
7.866924120902174	5.2815385	2.2981598
7.884492344247663	5.3244867	2.3074849
7.9020607532089135	5.350822	2.3131843
7.919629348204771	5.3548617	2.3140574
7.937198129654115	5.3625975	2.3157282
7.954767097975865	5.3272448	2.3080826
7.972336253588986	5.3285966	2.3083754
7.989905596912472	5.2923317	2.3005068
8.007475128365371	5.2653666	2.2946386
8.025044848366756	5.33945	2.310725
8.042614757335754	5.496537	2.3444695
8.060184855691523	5.6327357	2.3733385
8.07775514385327	5.808025	2.4099844
8.095325622240228	5.814789	2.4113872
8.112896291271687	5.864428	2.421658
8.130467151366968	5.9058123	2.4301877
8.148038202945436	5.9904685	2.4475434
8.165609446426497	6.03443	2.4565077
8.183180882229594	6.0797534	2.4657156
8.200752510774217	6.056188	2.4609323
8.218324332479893	6.05392	2.4604714
8.235896347766193	6.07196	2.4641347
8.253468557052724	6.084296	2.4666367
8.27104096075914	6.0794525	2.4656546
8.288613559305137	6.1338024	2.4766514
8.306186353110448	6.1645207	2.4828453
8.32375934259485	6.210375	2.4920623
8.341332528178162	6.213621	2.4927137
8.358905910280246	6.290796	2.5081458
8.376479489321003	6.3458734	2.5191016
8.394053265720377	6.423779	2.5345175
8.411627239898356	6.372178	2.5243173
8.42920141227497	6.352014	2.5203202
8.44677578327029	6.3449316	2.5189147
8.464350353304427	6.3516994	2.5202577
8.48192512279754	6.317354	2.5134346
8.499500092169827	6.224546	2.494904
8.51707526184153	6.2246156	2.4949179
8.534650632232934	6.2510595	2.500212
8.552226203764365	6.254497	2.5008993
8.569801976856192	6.225817	2.4951587
8.587377951928834	6.290155	2.508018
8.60495412940274	6.302059	2.5103903
8.622530509698416	6.4165096	2.533083
8.6401070932364	6.50333	2.5501628
8.657683880437283	6.6156178	2.5720844
8.675260871721695	6.766405	2.6012316
8.692838067510303	6.8883805	2.6245725
8.710415468223834	7.0501804	2.6552176
8.727993074283043	7.2063217	2.6844592
8.745570886108737	7.2322598	2.689286
8.763148904121765	7.26325	2.6950417
8.78072712874302	7.257742	2.6940196
8.798305560393441	7.536516	2.7452717
8.815884199494006	7.661286	2.7679029
8.833463046465745	7.809298	2.794512
8.851042101729728	7.916155	2.8135662
8.86862136570707	8.172137	2.858695
8.886200838818924	8.29188	2.8795624
8.903780521486505	8.239546	2.870461
8.921360414131055	8.377535	2.8943973
8.938940517173874	8.51002	2.917194
8.956520831036297	8.799069	2.9663224
8.97410135613971	9.118309	3.0196538
8.99168209290554	9.318384	3.0526028
9.009263041755265	9.613622	3.100584
9.026844203110405	9.831845	3.1355774
9.044425577392525	10.005309	3.163117
9.062007165023239	10.085763	3.1758091
9.079588966424197	10.344135	3.21623
9.097170982017108	10.442539	3.2314918
9.11475321222372	11.424912	3.3800757
9.132335657465825	12.177466	3.4896226
9.149918318165264	12.280902	3.5044117
9.167501194743924	12.794242	3.576904
9.18508428762374	12.5574045	3.5436428
9.202667597226693	12.5688305	3.5452547
9.220251123974803	12.218217	3.4954567
9.237834868290143	12.007701	3.465213
9.255418830594836	11.791525	3.433879
9.273003011311046	11.339076	3.3673544
9.290587410860985	11.062775	3.326075
9.308172029666911	10.40853	3.2262254
9.32575686815113	10.091231	3.1766698
9.343341926735997	8.777535	2.9626906
9.360927205843916	8.541931	2.9226582
9.378512705897327	8.32602	2.8854845
9.396098427318728	8.176473	2.8594532
9.413684370530664	8.076645	2.8419437
9.431270535955722	7.9653583	2.8222966
9.448856924016539	7.8758044	2.8063865
9.466443535135806	7.773267	2.7880578
9.484030369736251	7.7759953	2.7885473
9.501617428240658	7.7596283	2.785611
9.519204711071852	7.838752	2.799777
9.536792218652714	7.9667416	2.8225417
9.55437995140617	7.9857807	2.8259125
9.571967909755191	7.9865026	2.82604
9.589556094122802	8.013838	2.8308723
9.60714450493207	8.129044	2.8511477
9.624733142606116	8.12064	2.8496737
9.642322007568108	8.099459	2.845955
9.659911100241267	8.071411	2.841023
9.677500421048851	8.092425	2.844719
9.695089970414175	8.119428	2.8494608
9.712679748760609	8.097077	2.8455365
9.730269756511557	8.108051	2.847464
9.747859994090492	8.107923	2.8474414
9.765450461920915	8.178413	2.8597925
9.78304116042639	8.243022	2.8710663
9.800632090030527	8.3770275	2.8943095
9.81822325115699	8.469512	2.9102426
9.835814644229481	8.518193	2.9185944
9.853406269671762	8.471055	2.9105077
9.870998127907646	8.373681	2.8937314
9.888590219360985	8.364811	2.8921983
9.906182544455698	8.345853	2.8889189
9.923775103615734	8.368769	2.8928823
9.941367897265108	8.426873	2.9029076
9.958960925827878	8.401786	2.8985834
9.97655418972816	8.336001	2.8872135
9.994147689390106	8.353657	2.8902693
10.011741425237934	8.366776	2.892538
10.029335397695904	8.478506	2.9117875
10.04692960718833	8.454419	2.9076483
10.06452405413958	8.391905	2.8968785
10.082118738974064	8.386318	2.895914
10.099713662116246	8.465137	2.9094908
10.117308823990651	8.484822	2.9128718
10.134904225021844	8.466839	2.9097834
10.152499865634445	8.335776	2.8871744
10.170095746253125	8.219425	2.866954
10.18769186730261	8.161908	2.8569055
10.205288229207675	8.231672	2.8690891
10.222884832393145	8.240936	2.870703
10.2404816772839	8.235582	2.8697705
10.258078764304868	8.16971	2.8582704
10.275676093881035	8.162657	2.8570364
10.293273666437438	8.169805	2.858287
10.310871482399158	8.253433	2.872879
10.32846954219134	8.197904	2.863198
10.346067846239173	8.198313	2.8632696
10.363666394967908	8.161452	2.8568256
10.38126518880283	8.183242	2.8606367
10.398864228169298	8.240534	2.870633
10.416463513492713	8.34135	2.8881395
10.434063045198531	8.3536215	2.8902633
10.451662823712262	8.3894615	2.8964567
10.469262849459467	8.354143	2.8903534
10.486863122865758	8.280108	2.8775177
10.504463644356806	8.235555	2.8697655
10.522064414358338	8.191909	2.8621511
10.539665433296118	8.12153	2.8498297
10.557266701595987	8.050747	2.8373837
10.574868219683818	7.96516	2.8222616
10.592469987985552	7.857287	2.8030853
10.610072006927185	7.7750645	2.7883801
10.627674276934751	7.6504574	2.765946
10.64527679843435	7.505574	2.7396302
10.662879571852143	7.3333025	2.708007
10.680482597614331	7.1425166	2.6725488
10.698085876147173	7.1089296	2.6662576
10.715689407876988	7.0846353	2.6616979
10.733293193230146	7.0715075	2.6592307
10.750897232633072	6.999463	2.64565
10.76850152651225	6.9063754	2.6279984
10.786106075294207	6.7845626	2.6047194
10.803710879405534	6.6089945	2.5707965
10.821315939272877	6.4751687	2.5446353
10.83892125532294	6.423949	2.534551
10.856526827982472	6.395677	2.5289676
10.874132657678285	6.3948193	2.528798
10.891738744837243	6.3940735	2.5286505
10.909345089886271	6.316869	2.513338
10.926951693252343	6.188163	2.4876018
10.944558555362494	6.100021	2.469822
10.96216567664381	6.0514107	2.4599614
10.979773057523436	5.962867	2.441898
10.997380698428573	5.883022	2.4254942
11.014988599786477	5.7714086	2.4023757
11.032596762024461	5.7443366	2.3967345
11.050205185569892	5.726174	2.3929424
11.067813870850198	5.7231603	2.3923128
11.085422818292859	5.6130257	2.3691826
11.10303202832541	5.506699	2.3466356
11.120641501375454	5.454985	2.335591
11.138251237870636	5.4276047	2.329722
11.155861238238671	5.398768	2.323525
11.173471502907317	5.2562203	2.2926447
11.191082032304402	5.1407175	2.2673151
11.208692826857805	5.0429034	2.245641
11.226303886995465	4.986698	2.2330916
11.243915213145371	4.968223	2.2289512
11.261526805735578	4.969254	2.2291825
11.279138665194196	4.9170523	2.2174428
11.296750791949393	4.860635	2.2046847
11.314363186429393	4.784553	2.1873622
11.331975849062479	4.754501	2.180482
11.34958878027699	4.731811	2.1752727
11.36720198050133	4.73994	2.1771405
11.384815450163948	4.7328796	2.1755183
11.402429189693366	4.6727705	2.1616592
11.420043199518153	4.6361575	2.153174
11.437657480066942	63.56213	7.972586
11.455272031768422	85.260765	9.233676
11.472886855051353	107.611206	10.373582
11.490501950344528	99.2331	9.961581
11.508117318076819	84.54363	9.194761
11.52573295867715	45.893494	6.7744737
11.543348872574514	4.178315	2.0440927
11.560965060197946	4.1764364	2.0436332
11.57858152197655	4.1410427	2.0349553
11.59619825833949	4.1007204	2.0250235
11.613815269715985	4.0709395	2.017657
11.631432556535323	38.5823	6.211465
11.649050119226837	83.10629	9.116265
11.666667958219929	93.506226	9.669862
11.68428607394406	107.75348	10.380437
11.701904466828756	82.54273	9.085303
11.719523137303586	65.41516	8.087964
11.737142085798196	4.653477	2.157192
11.754761312742286	3.814463	1.953065
11.772380818565619	3.7645001	1.940232
11.790000603698015	3.706473	1.9252203
11.80762066856935	3.6309881	1.9055152
11.825241013609572	3.55274	1.8848714
11.842861639248683	3.5418425	1.8819784
11.860482545916748	3.5599525	1.8867836
11.878103734043883	3.5605052	1.8869301
11.895725204060282	3.5319586	1.8793505
11.91334695639619	3.459927	1.8600879
11.930968991481919	3.4193993	1.8491617
11.948591309747824	3.3472316	1.8295441
11.966213911624347	3.3747594	1.8370519
11.98383679754198	3.3927536	1.8419429
12.001459967931268	3.3547819	1.8316064
12.019083423222835	3.3090622	1.8190829
12.036707163847352	3.2306588	1.7974033
12.05433119023556	3.2058141	1.7904787
12.071955502818259	3.191222	1.7863991
12.089580102026313	3.1657255	1.7792486
12.107204988290643	3.1788	1.7829189
12.12483016204224	3.1618226	1.7781514
12.142455623712152	3.1761258	1.7821689
12.16008137373149	3.180364	1.7833575
12.177707412531431	3.1775389	1.7825652
12.19533374054321	3.1517155	1.7753072
12.212960358198126	3.1301265	1.7692163
12.230587265927545	3.1114705	1.763936
12.248214464162889	3.0637212	1.7503489
12.265841953335649	3.0416012	1.7440187
12.283469733877375	3.0229163	1.7386535
12.301097806219685	3.015516	1.7365241
12.31872617079425	2.997974	1.7314658
12.336354828032825	2.9850092	1.7277179
12.353983778367205	2.9490893	1.7172912
12.371613022229262	2.926572	1.7107227
12.389242560050928	2.9309304	1.7119961
12.406872392264201	2.9493203	1.7173585
12.424502519301143	2.9474945	1.7168269
12.442132941593874	2.9258375	1.710508
12.459763659574586	2.9051907	1.704462
12.477394673675532	2.910711	1.7060806
12.49502598432903	2.896234	1.7018325
12.51265759196746	2.861886	1.691711
12.530289497023267	2.8510249	1.6884978
12.547921699928967	2.827471	1.6815085
12.565554201117134	2.8510711	1.6885115
12.583187001020404	2.8340116	1.6834522
12.600820100071486	2.8223681	1.6799905
12.618453498703152	2.7753634	1.6659422
12.636087197348235	2.7284603	1.6518052
12.65372119643964	2.7524965	1.6590649
12.671355496410326	2.801049	1.6736335
12.68899009769333	2.8643796	1.6924478
12.706625000721749	2.9007368	1.7031549
12.724260205928752	2.9464395	1.7165196
12.741895713747551	2.9663517	1.72231
12.759531524611454	2.9675205	1.7226492
12.777167638953818	2.9764643	1.7252432
12.794804057208072	2.9952784	1.7306873
12.812440779807702	3.080634	1.7551736
12.830077807186271	3.2317963	1.7977197
12.847715139777405	3.2372427	1.7992339
12.865352778014795	3.4303696	1.8521256
12.882990722332197	3.5026486	1.8715364
12.90062897316344	3.6080062	1.8994752
12.918267530942412	3.7144353	1.927287
12.935906396103071	3.6275308	1.9046078
12.953545569079449	3.7931757	1.9476076
12.971185050305628	3.572675	1.8901521
12.988824840215775	3.5721614	1.8900162
13.006464939244115	3.5885148	1.8943375
13.024105347824943	3.5015845	1.8712522
13.041746066392617	3.6257575	1.9041421
13.05938709538157	3.4513526	1.8577816
13.077028435226296	3.4442499	1.855869
13.094670086361363	3.3387384	1.8272215
13.112312049221401	3.2071865	1.790862
13.129954324241112	3.097644	1.7600125
13.147596911855258	2.9052856	1.7044898
13.165239812498685	2.8766403	1.6960661
13.182883026606293	2.7806532	1.6675291
13.200526554613058	2.7094045	1.6460268
13.218170396954017	2.6976018	1.6424378
13.235814554064284	2.7406445	1.6554892
13.253459026379034	2.7704659	1.6644716
13.271103814333523	2.7331128	1.6532129
13.288748918363058	2.7242699	1.6505362
13.306394338903031	2.722874	1.6501133
13.32404007638889	2.747444	1.6575415
13.341686131256164	2.7737541	1.6654592
13.359332503940449	2.7611372	1.661667
13.376979194877402	2.7063987	1.6451136
13.394626204502751	2.7046125	1.6445706
13.412273533252307	2.7040524	1.6444004
13.429921181561937	2.6845036	1.6384455
13.447569149867581	2.7227488	1.6500754
13.465217438605247	2.7473123	1.6575018
13.482866048211022	2.7562947	1.6602093
13.500514979121052	2.7332325	1.653249
13.518164231771568	2.7284248	1.6517944
13.535813806598844	2.7564027	1.6602417
13.553463704039254	2.7262628	1.6511399
13.571113924529229	2.69453	1.6415024
13.588764468505275	2.675608	1.6357286
13.606415336403956	2.7047515	1.6446129
13.624066528661917	2.725099	1.6507875
13.641718045715882	2.7835379	1.6683939
13.659369888002635	2.8303032	1.6823505
13.67702205595903	2.8954227	1.7015941
13.694674550021993	2.9928396	1.7299825
13.712327370628532	3.0432577	1.7444935
13.729980518215713	3.1393492	1.7718209
13.747633993220681	3.243768	1.8010464
13.765287796080647	3.306799	1.8184606
13.7829419272329	3.324215	1.823243
13.800596387114801	3.357353	1.832308
13.818251176163775	3.3751144	1.8371484
13.835906294817324	3.4478006	1.8568255
13.853561743513023	3.4464953	1.8564739
13.871217522688525	3.4282897	1.8515642
13.888873632781538	3.4039555	1.8449812
13.906530074229858	3.4686234	1.862424
13.92418684747135	3.5558114	1.8856859
13.941843952943948	3.5786457	1.8917309
13.959501391085665	3.546449	1.8832018
13.977159162334578	3.43351	1.8529733
13.994817267128846	3.3504303	1.8304181
14.012475705906693	3.2226272	1.7951677
14.030134479106424	3.1518016	1.7753314
14.047793587166414	3.0919497	1.7583941
14.065453030525108	3.0949638	1.7592509
14.083112809621026	3.020816	1.7380495
14.100772924892766	2.9612215	1.72082
14.118433376778997	2.8988957	1.7026144
14.136094165718458	2.8480299	1.6876107
14.153755292149969	2.8107753	1.6765367
14.171416756512416	2.744184	1.6565579
14.189078559244768	2.6600091	1.6309534
14.20674070078606	2.6000118	1.6124552
14.224403181575408	2.5518687	1.5974569
14.242066002051999	2.5385509	1.593283
14.259729162655093	2.489386	1.5777788
14.277392663824022	2.4915364	1.5784601
14.295056505998208	2.513709	1.585468
14.312720689617128	2.5177839	1.5867527
14.330385215120348	2.4722784	1.572348
14.348050082947497	2.4186146	1.5551896
14.3657152935383	2.3898864	1.5459257
14.383380847332528	2.3782113	1.542145
14.401046744770051	2.402748	1.5500801
14.418712986290798	2.430351	1.5589583
14.436379572334793	2.4465256	1.5641373
14.454046503342123	2.4674659	1.570817
14.471713779752946	2.4498308	1.5651935
14.489381402007504	2.4219263	1.5562539
14.507049370546113	2.4018035	1.5497754
14.524717685809168	2.404683	1.5507041
14.542386348237134	2.411724	1.5529727
14.560055358270553	2.4516425	1.5657722
14.577724716350051	2.4955294	1.5797244
14.595394422916325	2.4991376	1.5808661
14.61306447841015	2.5295837	1.5904665
14.63073488327237	2.5018911	1.5817368
14.648405637943917	2.5054317	1.5828556
14.6660767428658	2.4749153	1.5731864
14.683748198479094	2.4563549	1.5672762
14.701420005224954	2.507847	1.5836184
14.719092163544628	2.5845244	1.6076456
14.73676467387942	2.662579	1.6317412
14.754437536670727	2.7083058	1.6456931
14.772110752360014	2.682391	1.6378007
14.78978432138882	2.6704237	1.6341431
14.807458244198777	2.6914363	1.6405598
14.82513252123159	2.7000692	1.6431887
14.842807152929028	2.715105	1.6477575
14.860482139732962	2.6820168	1.6376865
14.87815748208531	2.675841	1.6357999
14.8958331804281	2.6766624	1.6360508
14.91350923520342	2.608537	1.6150966
14.931185646853438	2.6077673	1.6148583
14.948862415820408	2.5905113	1.6095065
14.966539542546656	2.6475635	1.6271335
14.98421702747459	2.671254	1.6343971
15.001894871046696	2.7031627	1.6441298
15.019573073705542	2.6998105	1.64311
15.037251635893766	2.6655455	1.6326498
15.054930558054092	2.6835523	1.6381551
15.072609840629323	2.7092123	1.6459686
15.090289484062351	2.8874953	1.6992632
15.107969488796124	3.2245693	1.7957085
15.125649855273691	3.6871083	1.9201845
15.14333058393817	4.203503	2.0502446
15.161011675232768	5.1433992	2.2679064
15.17869312960076	6.4509993	2.5398817
15.196374947485506	8.198439	2.8632915
15.214057129330447	11.262001	3.3558905
15.231739675579114	15.99099	3.9988735
15.249422586675102	21.02631	4.5854454
15.267105863062092	24.134943	4.9127326
15.284789505183847	24.431652	4.9428387
15.302473513484218	22.333729	4.7258573
15.320157888407127	18.735737	4.32848
15.337842630396578	14.64251	3.8265533
15.355527739896656	11.437566	3.381947
15.37321321735153	8.906813	2.9844284
15.39089906320545	6.460921	2.541834
15.408585277902748	4.8773427	2.2084706
15.42627186188783	3.7384255	1.9335009
15.443958815605198	3.2267385	1.7963125
15.461646139499424	2.9416823	1.7151333
15.479333834015168	2.8388505	1.6848888
15.497021899597165	2.7493598	1.6581193
15.514710336690234	2.6739645	1.6352261
15.53239914573928	2.6417298	1.6253399
15.550088327189297	2.5830765	1.6071953
15.567777881485336	2.5481262	1.5962851
15.58546780907256	2.495759	1.5797971
15.6031581103962	2.474014	1.5728999
15.620848785901568	2.4618077	1.5690149
15.638539836034063	2.489932	1.5779519
15.656231261239173	2.4982736	1.5805928
15.673923061962451	2.5055878	1.5829048
15.691615238649552	2.499334	1.5809282
15.709307791746202	2.496177	1.5799295
15.727000721698221	2.4648209	1.5699748
15.744694028951498	2.431038	1.5591786
15.76238771395202	2.4127605	1.5533063
15.780081777145844	2.4300723	1.5588689
15.797776218979125	2.4217	1.5561812
15.815471039898094	2.4545994	1.5667161
15.833166240349064	2.455302	1.5669403
15.850861820778437	2.4571369	1.5675257
15.868557781632699	2.4115345	1.5529116
15.886254123358412	2.3647304	1.537768
15.903950846402232	2.3788648	1.5423568
15.921647951210897	2.380778	1.542977
15.939345438231225	2.398653	1.5487585
15.957043307910133	2.3824172	1.543508
15.974741560694602	2.3950386	1.5475912
15.992440197031714	2.4207482	1.5558754
16.01013921736862	2.4246137	1.5571171
16.02783862215259	2.4166987	1.5545735
16.045538411830933	2.3612154	1.5366247
16.06323858685107	2.3500605	1.5329907
16.080939147660512	2.3967192	1.5481341
16.09864009470684	2.453183	1.566264
16.11634142843774	2.4712355	1.5720164
16.134043149300954	2.4558065	1.5671014
16.15174525774433	2.407933	1.5517516
16.169447754215817	2.4224133	1.5564104
16.18715063916342	2.4224575	1.5564246
16.204853913035244	2.441218	1.5624397
16.222557576279478	2.4682493	1.5710663
16.240261629344403	22.48992	4.742354
16.257966072678386	43.036892	6.5602508
16.275670906729868	38.143272	6.176024
16.293376131947387	2.5155017	1.5860333
16.31108174877957	2.527695	1.5898726
16.328787757675133	2.564249	1.6013273
16.34649415908287	2.6167674	1.6176425
16.364200953451657	2.652796	1.6287407
16.38190814123048	2.6657236	1.6327044
16.39961572286839	2.6622906	1.6316527
16.41732369881455	2.6614199	1.6313859
16.43503206951817	2.6768267	1.6361011
16.45274083542859	2.6892214	1.6398846
16.47044999699522	2.719685	1.6491468
16.488159554667558	2.8044033	1.6746353
16.505869508895184	2.9145248	1.7071979
16.523579860127786	3.0104735	1.7350717
16.541290608815117	3.0355446	1.7422814
16.559001755407035	3.0513778	1.7468194
16.57671330035348	3.092487	1.7585468
16.59442524410448	3.1545331	1.7761005
16.61213758711015	3.1780255	1.7827017
16.629850329820705	3.245529	1.8015351
16.647563472686436	3.3616457	1.8334792
16.665277016157724	3.4530885	1.8582488
16.682990960685053	3.458612	1.8597344
16.70070530671898	3.4324389	1.8526843
16.718420054710155	3.451638	1.8578584
16.736135205109335	3.5261023	1.8777919
16.753850758367335	3.5884917	1.8943315
16.771566714935087	3.6573062	1.9124085
16.789283075263597	3.6930845	1.9217399
16.80699983980398	3.7793746	1.9440614
16.82471700900741	3.8772423	1.9690714
16.84243458332518	3.9835045	1.9958719
16.860152563208665	4.0852923	2.0212107
16.87787094910932	4.1320534	2.0327454
16.89558974147871	4.197419	2.0487604
16.913308940768466	4.2212553	2.0545695
16.931028547430333	4.295075	2.0724564
16.94874856191613	4.3788934	2.0925806
16.966468984677785	4.432073	2.105249
16.98418981616729	4.434682	2.1058683
17.00191105683676	4.4179173	2.1018841
17.019632707138374	4.4686694	2.1139228
17.03735476752442	4.5283055	2.1279817
17.05507723844728	4.60219	2.1452715
17.072800120359403	4.6313	2.1520455
17.090523413713353	4.654718	2.1574795
17.108247118961785	4.6988845	2.167691
17.125971236557437	4.7379684	2.1766875
17.143695766953133	4.756216	2.180875
17.161420710601806	4.7590914	2.1815343
17.179146067956477	4.7710366	2.1842704
17.19687183947025	4.7386613	2.1768467
17.21459802559634	4.7129154	2.170925
17.232324626788028	4.709742	2.170194
17.25005164349871	4.7215147	2.1729047
17.267779076181863	4.72971	2.1747897
17.285506925291074	4.655732	2.1577146
17.30323519127999	4.6128035	2.1477437
17.320963874602384	4.5586286	2.1350944
17.33869297571211	4.5308785	2.128586
17.356422495063114	4.5480323	2.1326115
17.37415243310944	4.587258	2.1417885
17.391882790305218	4.5464272	2.1322353
17.40961356710468	4.510124	2.1237054
17.42734476396215	4.557381	2.1348023
17.445076381332044	4.579795	2.1400456
17.462808419668868	4.5767016	2.1393228
17.48054087942723	4.6700444	2.1610286
17.498273761061835	5.033235	2.2434874
17.51600706502747	5.531941	2.3520079
17.533740791779024	6.212953	2.4925797
17.551474941771485	7.6030035	2.7573545
17.56920951545993	8.70693	2.9507508
17.586944513299528	10.904283	3.3021634
17.60467993574556	12.588262	3.5479941
17.622415783253373	14.275135	3.778245
17.64015205627843	15.707321	3.9632463
17.657888755276293	16.714575	4.088346
17.675625880702604	17.1863	4.145636
17.69336343301311	16.95462	4.117599
17.71110141266366	16.231194	4.0287957
17.728839820110178	15.334272	3.9159
17.746578655808705	14.48219	3.8055472
17.764317920215372	12.999572	3.6054919
17.7820576137864	11.553665	3.3990684
17.79979773697811	9.571342	3.0937586
17.81753829024692	7.6984696	2.7746117
17.835279274049356	5.984422	2.446308
17.85302068884201	4.9034915	2.214383
17.870762535081607	4.253045	2.0622911
17.888504813224934	3.9759815	1.9939864
17.90624752372891	3.8140073	1.9529483
17.923990667050536	3.7392738	1.9337202
17.941734243646895	3.5650058	1.8881223
17.959478253975185	3.4957175	1.8696839
17.9772226984927	3.4487333	1.8570765
17.994967577656833	3.3931918	1.8420619
18.01271289192506	3.3418145	1.828063
18.030458641754965	3.3675437	1.8350868
18.04820482760425	3.3747833	1.8370583
18.06595144993067	3.3751538	1.8371592
18.083698509192125	3.3158414	1.8209453
18.101446005846576	3.2710779	1.8086121
18.119193940352105	3.2295294	1.7970891
18.136942313166887	3.2250228	1.7958349
18.1546911247492	3.2043366	1.7900661
18.1724403755574	3.1793413	1.7830708
18.19019006604997	3.1593199	1.7774476
18.207940196685467	3.109488	1.7633741
18.225690767922575	3.077236	1.7542052
18.243441780220046	3.1433523	1.7729502
18.261193234036764	3.162889	1.7784513
18.278945129831676	3.1718569	1.7809708
18.29669746806386	3.125538	1.7679192
18.314450249192483	3.1081119	1.7629838
18.3322034736768	3.0792525	1.7547799
18.349957141976184	3.063965	1.7504185
18.3677112545501	3.0614986	1.7497139
18.385465811858108	3.0491438	1.7461798
18.403220814359884	3.0653112	1.750803
18.420976262515172	3.106824	1.7626185
18.43873215678387	3.137616	1.7713317
18.456488497625923	3.0983214	1.7602049
18.474245285501407	3.1513188	1.7751955
18.492002520870486	3.205113	1.790283
18.50976020419343	3.3125408	1.8200387
18.527518335930615	3.6330473	1.9060555
18.545276916542516	4.2384477	2.058749
18.563035946489688	4.416167	2.1014678
18.580795426232832	4.8604717	2.2046478
18.598555356232698	4.743656	2.1779935
18.616315736950185	5.09516	2.257246
18.63407656884626	4.7374983	2.1765795
18.65183785238201	4.9180727	2.2176728
18.669599588018617	4.6317263	2.1521447
18.68736177621737	4.6245494	2.1504765
18.705124417439652	4.57153	2.1381137
18.72288751214696	4.439439	2.1069975
18.740651060800886	4.6290703	2.1515274
18.758415063863115	4.4089327	2.0997458
18.77617952179546	4.5300746	2.1283972
18.793944435059814	4.266184	2.0654743
18.811709804118184	4.2406125	2.0592747
18.829475629432675	4.2276363	2.0561216
18.8472419114655	4.0356536	2.0088937
18.86500865067897	4.085672	2.0213046
18.88277584753551	3.7342439	1.9324192
18.90054350249763	3.7541547	1.9375641
18.918311616027957	3.4589584	1.8598275
18.936080188589226	3.381423	1.8388646
18.953849220644265	3.0792482	1.7547786
18.971618712656007	2.9263847	1.7106678
18.9893886650875	2.8325882	1.6830294
19.007159078401887	8.015705	2.831202
19.024929953062408	32.90331	5.7361407
19.042701289532435	32.86193	5.7325325
19.060473088275405	25.41077	5.04091
19.07824534975489	2.6790411	1.6367776
19.096018074434568	2.7046022	1.6445675
19.113791262778197	2.6978936	1.6425266
19.13156491524966	2.7134929	1.6472683
19.149339032312945	2.661751	1.6314874
19.167113614432136	2.6526911	1.6287085
19.184888662071433	2.6277943	1.6210473
19.202664175695123	2.6119971	1.6161674
19.220440155767623	2.5855212	1.6079556
19.238216602753447	2.5445893	1.5951769
19.2559935171172	2.5194683	1.5872833
19.27377089932361	2.5047903	1.5826529
19.291548749837514	2.4827724	1.5756816
19.309327069123835	2.4579759	1.5677934
19.32710585764763	2.4680607	1.5710063
19.344885115874032	2.5220592	1.5880992
19.362664844268313	2.533863	1.5918113
19.380445043295822	2.5304463	1.5907377
19.39822571342203	2.5129516	1.5852292
19.41600685511252	2.4671	1.5707004
19.43378846883297	2.4457529	1.5638903
19.451570555049173	2.4656756	1.5702469
19.469353114227037	2.5277007	1.5898744
19.48713614683254	2.525932	1.5893182
19.50491965333182	2.5305114	1.5907581
19.52270363419109	2.4968948	1.5801566
19.540488089876686	2.4936934	1.5791433
19.55827302085503	2.4844255	1.5762061
19.576058427592674	2.4811115	1.5751544
19.593844310556282	2.4677103	1.5708947
19.611630670212598	2.4757903	1.5734644
19.629417507028506	2.495493	1.579713
19.64720482147098	2.5211294	1.5878065
19.6649926140071	2.5146892	1.5857772
19.682780885104084	2.49878	1.580753
19.70056963522921	2.4858289	1.5766512
19.718358864849908	2.5106585	1.5845058
19.7361485744337	2.542501	1.5945221
19.753938764448215	2.5416005	1.5942398
19.771729435361202	2.532602	1.5914152
19.789520587640506	2.53227	1.5913107
19.807312221754092	2.5578587	1.5993307
19.825104338170043	2.5507061	1.597093
19.842896937356517	2.5548036	1.5983753
19.860690019781824	2.5289366	1.590263
19.87848358591436	2.516395	1.5863149
19.896277636222635	2.4995668	1.5810019
19.914072171175278	2.5351045	1.5922011
19.931867191241015	2.5414312	1.5941867
19.94966269688869	2.5634315	1.601072
19.967458688587264	2.5242958	1.5888033
19.985255166805807	2.4736433	1.572782
20.00305213201348	2.482638	1.5756389
20.020849584679578	2.4858518	1.5766584
20.038647525273507	2.4962046	1.5799382
20.05644595426477	2.4617043	1.5689819
20.07424487212299	2.468855	1.571259
20.092044279317903	2.4587317	1.5680343
20.109844176319353	2.484155	1.5761203
20.127644563597304	2.4892366	1.5777315
20.145445441621817	2.465956	1.5703362
20.16324681086307	2.4423754	1.5628101
20.181048671791373	2.4474635	1.5644372
20.198851024877122	2.4541013	1.5665572
20.216653870590836	2.4429777	1.5630028
20.234457209403146	2.3817503	1.543292
20.252261041784802	2.3746145	1.5409784
20.270065368206662	2.393562	1.5471141
20.287870189139685	2.3977873	1.5484791
20.305675505054968	2.3828967	1.5436634
20.323481316423702	2.3987648	1.5487946
20.341287623717207	2.394821	1.5475209
20.359094427406884	2.3938665	1.5472125
20.376901727964288	2.393508	1.5470966
20.39470952586107	2.3850229	1.5443519
20.41251782156899	2.3772488	1.5418329
20.430326615559935	2.3591928	1.5359664
20.448135908305886	2.3872316	1.5450668
20.465945700278965	2.3779845	1.5420715
20.483755991951384	2.3900619	1.5459825
20.50156678379548	2.3613946	1.536683
20.519378076283708	2.326434	1.5252652
20.537189869888635	2.3021107	1.5172708
20.55500216508294	2.329775	1.52636
20.572814962339415	2.3694339	1.5392965
20.59062826213098	2.3718421	1.5400786
20.60844206493066	2.3752732	1.5411922
20.626256371211593	2.3738272	1.540723
20.644071181447032	2.3662686	1.5382681
20.66188649611036	2.3773108	1.5418531
20.67970231567506	2.3595853	1.5360942
20.697518640614742	2.3952246	1.5476513
20.715335471403122	2.389785	1.545893
20.73315280851404	2.3487813	1.5325735
20.750970652421447	2.3144746	1.5213398
20.768789003599412	2.3240154	1.5244721
20.786607862522136	2.3484528	1.5324663
20.8044272296639	2.3251324	1.5248384
20.82224710549913	2.2962399	1.5153348
20.84006749050237	2.2955008	1.5150911
20.857888385148268	3.8556168	1.9635725
20.8757097899116	45.959187	6.7793207
20.893531705267254	64.81087	8.05052
20.911354131690224	83.831024	9.155929
20.92917706965566	69.097435	8.312487
20.94700051963877	50.17504	7.083434
20.96482448211493	29.447554	5.42656
20.982648957559622	4.153292	2.0379627
21.00047394644843	2.2213674	1.4904252
21.01829944925707	2.2122796	1.4873734
21.036125466461375	2.230074	1.4933432
21.053951998537297	2.244632	1.4982096
21.071779045960906	2.2303195	1.4934254
21.089606609208378	2.222189	1.4907008
21.10743468875603	2.2176237	1.4891688
21.12526328508028	2.219003	1.4896318
21.143092398657675	2.2486687	1.4995562
21.16092202996488	2.2564158	1.5021371
21.17875217947867	2.219745	1.4898808
21.19658284767596	2.2316537	1.493872
21.21441403503377	2.2026253	1.4841244
21.232245742029225	2.2173939	1.4890916
21.2500779691396	2.2130356	1.4876275
21.26791071684227	2.234526	1.4948331
21.28574398561475	2.2170925	1.4889904
21.30357777593465	2.182052	1.477177
21.321412088279704	2.1709177	1.4734035
21.339246923127792	2.1938155	1.4811534
21.357082280956888	2.1964934	1.4820571
21.3749181622451	2.150214	1.4663608
21.392754567470647	2.1170528	1.4550096
21.41059149711187	2.0762055	1.4409044
21.42842895164726	2.0815234	1.4427485
21.446266931555378	2.0988433	1.4487386
21.464105437314945	2.1207464	1.4562782
21.481944469404798	2.1250734	1.4577632
21.49978402830388	2.118329	1.455448
21.51762411449127	2.1241138	1.4574339
21.53546472844617	2.1228354	1.4569954
21.553305870647876	2.143241	1.4639812
21.571147541575865	2.15387	1.4676069
21.58898974170967	2.092004	1.4463762
21.60683247152899	2.086571	1.4444968
21.62467573151363	2.0704217	1.438896
21.642519522143523	2.098542	1.4486345
21.660363843898722	2.0523214	1.4325925
21.6782086972594	2.0385509	1.4277782
21.696054082705864	2.0376358	1.4274578
21.713900000718535	2.1094408	1.4523914
21.73174645177795	2.1206496	1.4562451
21.749593436364794	2.1012204	1.4495587
21.767440954959845	2.0754085	1.4406278
21.785289008044032	2.0525062	1.432657
21.803137596098388	2.0099978	1.4177439
21.820986719604086	2.0160716	1.4198843
21.838836379042412	1.9993376	1.4139793
21.85668657489478	1.9735067	1.4048156
21.87453730764273	1.9893638	1.4104481
21.892388577767914	2.0064805	1.416503
21.91024038575213	1.9928681	1.4116898
21.928092732077285	1.9891543	1.4103738
21.945945617225426	2.0041075	1.415665
21.963799041678694	2.025224	1.4231037
21.981653005919398	31.333683	5.5976496
21.999507510429943	78.12089	8.838602
22.01736255569286	73.09822	8.549749
22.035218142190818	4.1985936	2.049047
22.05307427040661	2.0179107	1.4205319
22.07093094082315	2.0178502	1.4205105
22.088788153923474	2.0229647	1.4223096
22.106645910190746	2.025281	1.4231237
22.12450421010827	2.0148344	1.4194486
22.142363054159464	2.0053728	1.4161118
22.16022244282787	2.0056117	1.4161962
22.178082376597164	2.0457308	1.4302905
22.195942855951145	2.0554264	1.4336758
22.213803881373742	2.0689633	1.4383892
22.231665453349002	2.0474515	1.4308919
22.24952757236111	2.0427895	1.4292618
22.26739023889438	2.0236378	1.4225463
22.28525345343323	2.0251343	1.4230721
22.30311721646225	2.0319557	1.4254669
22.320981528466113	2.0240674	1.4226972
22.33884638992964	1.9827212	1.4080913
22.356711801337788	1.9483526	1.395834
22.37457776317561	1.9598787	1.3999567
22.392444275928337	1.9769499	1.4060405
22.410311340081282	1.9662427	1.4022278
22.428178956119904	1.922083	1.3863921
22.446047124529805	1.9128706	1.3830657
22.46391584579669	1.9428561	1.3938637
22.481785120406414	1.9673991	1.4026401
22.49965494884496	1.9565039	1.3987508
22.51752533159841	1.9332601	1.3904172
22.53539626915302	1.9368613	1.3917116
22.553267761995137	1.9185765	1.3851268
22.571139810611264	1.9090759	1.3816931
22.589012415488025	1.9050189	1.3802242
22.60688557711216	1.9422286	1.3936386
22.624759295970566	1.9882989	1.4100705
22.642633572550263	1.9755857	1.4055552
22.660508407338362	1.9538529	1.3978028
22.67838380082217	1.9699547	1.4035507
22.696259753489077	1.9660739	1.4021676
22.714136265826614	1.980719	1.4073802
22.73201333832246	1.9525332	1.3973308
22.74989097146439	1.9429443	1.3938954
22.76776916574035	1.9060352	1.3805923
22.785647921638393	1.9249038	1.387409
22.803527239646712	1.9014108	1.3789165
22.82140712025363	1.9011992	1.3788399
22.839287563947593	1.9169257	1.3845309
22.85716857121719	1.9445504	1.3944714
22.875050142551135	1.9229232	1.386695
22.892932278438277	1.9102678	1.3821244
22.910814979367604	1.8896551	1.3746473
22.928698245828222	1.905094	1.3802514
22.946582078309387	1.9102987	1.3821355
22.96446647730047	1.9309024	1.3895692
22.98235144329098	1.9488137	1.3959992
23.000236976770562	1.9390975	1.3925148
23.018123078229	1.9352678	1.391139
23.03600974815619	1.9534767	1.3976682
23.053896987042194	1.9502072	1.3964982
23.071784795377173	1.9248282	1.3873818
23.08967317365145	1.9268229	1.3881005
23.10756212235546	1.9422251	1.3936374
23.125451641979787	1.9235663	1.3869269
23.143341733015134	1.9181834	1.384985
23.161232395952357	1.9404783	1.3930105
23.179123631282426	1.94258	1.3937647
23.197015439496468	1.9659878	1.4021369
23.214907821085717	1.9897897	1.4105991
23.23280077654157	1.979743	1.4070334
23.250694306355538	1.9481544	1.395763
23.268588411019277	1.9635876	1.4012808
23.28648309102458	1.9760343	1.4057149
23.304378346863356	1.969591	1.4034212
23.322274179027676	1.9315369	1.3897974
23.340170588009723	1.932333	1.3900838
23.358067574301852	1.9684147	1.403002
23.37596513839651	1.9649196	1.4017559
23.39386328078629	1.9454067	1.3947784
23.411762001963947	1.9535149	1.397682
23.429661302422353	1.9649937	1.4017824
23.4475611826545	1.9438121	1.3942066
23.46546164315356	1.9197845	1.3855629
23.48336268441279	1.9134382	1.3832709
23.501264306925638	1.9071507	1.3809963
23.51916651118564	1.9156919	1.3840852
23.537069297686497	1.9385898	1.3923326
23.554972666922037	2.01487	1.4194611
23.57287661938623	2.0217893	1.4218963
23.59078115557318	2.0211608	1.4216753
23.608686275977128	2.0144043	1.4192971
23.62659198109246	2.0121005	1.4184853
23.6444982714137	1.966158	1.4021976
23.66240514743549	1.9132624	1.3832073
23.68031260965263	1.9077305	1.3812062
23.698220658560068	1.8891138	1.3744503
23.716129294652845	1.9237548	1.3869948
23.7340385184262	1.9496857	1.3963114
23.75194833037546	1.9410381	1.3932115
23.769858730996123	1.9131273	1.3831584
23.78776972078382	1.9172505	1.3846482
23.80568130023431	1.9033008	1.3796017
23.823593469843495	1.8765315	1.3698655
23.841506230107424	1.886871	1.3736342
23.859419581522275	1.9017818	1.3790511
23.87733352458438	1.8868809	1.3736378
23.89524805979019	1.9139935	1.3834715
23.913163187636318	1.9375063	1.3919433
23.931078908619508	1.9709625	1.4039097
23.948995223236633	2.004193	1.4156953
23.966912131984735	2.043757	1.4296002
23.98482963536096	2.0635512	1.4365066
24.002747733862616	2.0433743	1.4294665
24.020666427987155	2.074797	1.4404155
24.038585718232156	2.0710275	1.4391065
24.056505605095353	2.034836	1.4264768
24.074426089074617	2.0454235	1.430183
24.092347170667946	2.0521615	1.4325367
24.110268850373515	2.0758822	1.4407922
24.128191128689586	2.0908601	1.4459807
24.146114006114626	2.112358	1.4533954
24.164037483147187	2.1035783	1.4503717
24.181961560286005	2.040548	1.4284775
24.199886238029926	1.9828514	1.4081376
24.21781151687797	1.9862148	1.4093313
24.235737397329274	2.042095	1.4290189
24.253663879883135	2.06833	1.438169
24.271590965038975	2.0688539	1.438351
24.289518653296376	2.0591846	1.4349859
24.30744694515505	2.0661676	1.437417
24.32537584111486	2.0367274	1.4271396
24.34330534167581	2.0334058	1.4259753
24.361235447338046	2.0300488	1.4247978
24.379166158601876	2.0296884	1.4246713
24.39709747596772	2.0033176	1.4153861
24.41502939993615	1.9865819	1.4094616
24.432961931007917	1.9823545	1.4079611
24.450895069683856	2.0490515	1.4314508
24.468828816465	2.0956433	1.4476336
24.4867631718525	2.1032965	1.4502746
24.504698136347656	2.0192206	1.4209929
24.52263371045192	1.9923507	1.4115065
24.540569894666874	1.9640765	1.4014552
24.558506689494266	1.9421712	1.393618
24.57644409543597	1.9520086	1.397143
24.594382112994012	1.9436314	1.3941418
24.61232074267057	1.9318264	1.3899015
24.630259984967953	1.9280851	1.388555
24.64819984038863	1.9254205	1.3875952
24.66614030943522	1.9657831	1.4020638
24.684081392610462	2.0360324	1.4268961
24.702023090417274	2.0942113	1.447139
24.7199654033587	2.0679762	1.438046
24.737908331937927	1.9635592	1.4012705
24.755851876658305	1.9493519	1.396192
24.773796038023324	1.9809554	1.4074641
24.79174081653661	2.0030107	1.4152776
24.809686212701962	2.048759	1.4313487
24.827632227023294	2.068211	1.4381276
24.8455788600047	2.0956838	1.4476477
24.8635261121504	2.0953476	1.4475316
24.88147398396475	2.128106	1.4588029
24.899422475952303	2.1272528	1.4585105
24.917371588617698	2.15658	1.4685298
24.935321322465768	2.1713657	1.4735554
24.953271678001478	2.253485	1.5011612
24.97122265572994	2.4554718	1.5669945
24.989174256156414	2.738144	1.6547338
25.00712647978632	3.1842358	1.7844427
25.02507932712521	3.7431426	1.9347203
25.043032798678798	4.322912	2.0791614
25.060986894952933	4.969346	2.229203
25.078941616453637	5.7189226	2.3914268
25.096896963687055	6.640068	2.576833
25.114852937159508	7.7247777	2.7793484
25.132809537377444	8.230791	2.8689356
25.150766764847468	8.309524	2.8826244
25.168724620076347	7.8630013	2.8041043
25.186683103570985	6.8703613	2.6211374
25.204642215838426	5.695759	2.3865788
25.222601957385894	4.2813206	2.0691352
25.24056232872074	3.2409465	1.8002629
25.25852333035048	2.6519089	1.6284683
25.276484962782778	2.3179626	1.5224857
25.294447226525435	2.1504316	1.466435
25.312410122086423	2.0496273	1.431652
25.330373649973843	1.9714748	1.4040922
25.348337810695988	1.9715503	1.404119
25.366302604761245	1.9534599	1.3976623
25.384268032678207	1.9053388	1.3803401
25.40223409495558	1.8878876	1.3740042
25.420200792102257	1.8977877	1.3776021
25.438168124627246	1.9302939	1.3893502
25.45613609303974	1.9127795	1.3830327
25.474104697849057	1.8978571	1.3776274
25.492073939564698	1.8823011	1.3719698
25.510043818696285	1.8745824	1.3691539
25.528014335753614	1.858031	1.3630961
25.54598549124664	1.910417	1.3821783
25.56395728568544	1.9267993	1.3880919
25.58192971958028	1.9399835	1.3928329
25.59990279344156	1.9238509	1.3870295
25.617876507779833	1.9060895	1.380612
25.635850863105826	1.8907399	1.3750418
25.653825859930386	1.8423487	1.3573315
25.671801498764548	1.8389136	1.3560655
25.68977778011949	1.8768373	1.3699771
25.707754704506524	1.8707596	1.3677572
25.725732272437153	1.8582072	1.3631607
25.743710484423012	1.8794432	1.3709278
25.761689340975888	1.878702	1.3706576
25.77966884260774	1.853856	1.3615638
25.797648989830662	1.8523644	1.3610159
25.815629783156922	1.8685911	1.3669642
25.83361122309895	1.8722266	1.3682933
25.85159331016929	1.8525386	1.3610799
25.869576044880695	1.8260506	1.3513144
25.887559427746034	1.7782165	1.3334979
25.90554345927836	1.7963254	1.3402706
25.92352813999086	1.8122163	1.3461858
25.94151347039689	1.825108	1.3509656
25.959499451009965	1.8133179	1.3465949
25.97748608234374	1.8073647	1.3443826
25.995473364912062	1.8173199	1.34808
26.013461299228904	1.8302039	1.3528503
26.03144988580839	1.8450413	1.358323
26.04943912516483	1.8694521	1.367279
26.067429017812675	1.9066262	1.3808063
26.085419564266537	1.8711575	1.3679026
26.103410765041186	1.8379486	1.3557097
26.12140262065155	1.8519981	1.3608813
26.139395131612723	1.8907709	1.375053
26.157388298439948	1.9327003	1.3902159
26.17538212164861	1.9312885	1.389708
26.193376601754295	1.8575162	1.3629073
26.211371739272714	1.8154485	1.3473858
26.229367534719746	1.8773097	1.3701495
26.247363988611433	1.8503313	1.3602688
26.26536110146397	1.8268837	1.3516226
26.283358873793727	1.7948112	1.3397057
26.301357306117204	1.8112398	1.345823
26.319356398951104	1.8498803	1.360103
26.33735615281224	1.8689035	1.3670784
26.35535656821762	1.8045962	1.3433526
26.373357645684404	1.7843442	1.3357935
26.39135938572991	1.7366861	1.3178339
26.409361788871614	1.7602367	1.3267392
26.427364855627165	1.7769251	1.3330135
26.445368586514352	1.8357944	1.3549149
26.46337298205115	1.8286649	1.3522813
26.48137804275568	1.7790488	1.3338099
26.499383769146217	1.7954291	1.3399363
26.517390161741215	1.8472532	1.3591369
26.53539722105928	1.8286186	1.3522643
26.553404947619182	1.7653548	1.3286666
26.571413341939856	1.7578623	1.325844
26.589422404540397	1.8001753	1.3417062
26.60743213594006	1.8515736	1.3607254
26.62544253665827	1.895112	1.3766307
26.64345360721459	1.8662606	1.3661115
26.66146534812879	1.8264755	1.3514717
26.679477759920758	1.7841381	1.3357164
26.69749084311057	1.7915229	1.3384778
26.71550459821847	1.837995	1.3557267
26.733519025764842	1.8490793	1.3598086
26.751534126270258	1.843118	1.3576148
26.769549900255434	1.8506744	1.360395
26.787566348241267	1.8734068	1.3687245
26.80558347074881	1.8351457	1.3546755
26.823601268299267	1.806647	1.3441156
26.841619741414036	1.8095981	1.345213
26.85963889061465	1.8081038	1.3446575
26.877658716422832	1.8018737	1.3423389
26.89567921936045	1.7593231	1.3263948
26.913700399949544	1.8004217	1.341798
26.93172225871233	1.8105636	1.3455719
26.949744796171174	1.8279046	1.3520002
26.967768012848605	1.824775	1.3508424
26.98579190926733	1.8199015	1.3490373
27.003816485950225	1.7981613	1.3409554
27.021841743420318	1.8157486	1.3474971
27.039867682200814	1.8067015	1.344136
27.057894302815072	1.7966199	1.3403805
27.07592160578664	1.8048825	1.3434591
27.0939495916392	1.8246132	1.3507824
27.111978260896635	1.795964	1.3401358
27.13000761408296	1.7611868	1.3270972
27.148037651722397	1.7533858	1.3241547
27.166068374339304	1.7515869	1.3234754
27.184099782458215	1.7917941	1.3385792
27.20213187660384	1.7721198	1.3312099
27.22016465730105	1.7732432	1.3316318
27.23819812507487	1.8613989	1.364331
27.256232280450533	1.8933073	1.375975
27.274267123953383	1.8375543	1.3555642
27.292302656108987	1.8034862	1.3429394
27.31033887744306	1.7956167	1.3400062
27.32837578848146	1.8086305	1.3448533
27.34641338975026	1.8060338	1.3438876
27.364451681775673	1.8259159	1.3512646
27.382490665084074	1.8901409	1.3748239
27.400530340202046	1.8971231	1.3773609
27.41857070765629	1.845735	1.3585783
27.436611767973726	1.7748073	1.332219
27.454653521681404	1.8077935	1.3445421
27.472695969306564	1.8143286	1.3469701
27.490739111376627	1.8141103	1.3468891
27.508782948419153	1.7718713	1.3311166
27.526827480961902	1.8189071	1.3486687
27.54487270953279	1.8393248	1.3562171
27.562918634659898	1.8733699	1.368711
27.580965256871508	1.8343636	1.3543868
27.599012576696026	1.8229778	1.3501769
27.617060594662068	1.7956514	1.3400192
27.63510931129842	1.8049682	1.3434911
27.65315872713401	1.815348	1.3473486
27.67120884269797	1.8546715	1.3618633
27.68925965851958	1.8650885	1.3656824
27.707311175128307	1.8685881	1.3669631
27.725363393053787	1.853532	1.3614448
27.74341631282583	1.8143138	1.3469646
27.7614699349744	1.8310131	1.3531493
27.77952426002968	2.060743	1.4355289
27.797579288521973	2.21296	1.4876021
27.815635020981784	2.6371362	1.6239262
27.83369145793979	2.6883016	1.6396041
27.85174859992682	2.493743	1.5791589
27.869806447473923	2.326861	1.5254052
27.887865001112267	2.0066001	1.4165452
27.905924261373233	1.9076606	1.3811809
27.92398422878836	1.8484275	1.3595688
27.94204490388936	1.8583057	1.3631968
27.96010628720813	1.8397024	1.3563563
27.978168379276728	1.81444	1.3470116
27.9962311806274	1.8300748	1.3528025
28.014294691792568	1.8978798	1.3776356
28.0323589133048	1.8850476	1.3729703
28.050423845696887	1.882998	1.3722237
28.068489489501758	1.858926	1.3634244
28.086555845252523	1.8840063	1.372591
28.104622913482487	1.8844721	1.3727608
28.122690694725115	1.9148773	1.383791
28.14075918951405	1.9174088	1.3847053
28.15882839838312	1.883335	1.3723465
28.176898321866304	1.8713425	1.3679702
28.1949689604978	1.8886878	1.3742954
28.213040314811945	1.9441777	1.3943378
28.23111238534327	1.9622645	1.4008086
28.249185172626493	1.9483732	1.3958414
28.267258677196473	1.9018345	1.3790702
28.285332899588294	1.8917657	1.3754147
28.303407840337172	1.912653	1.382987
28.321483499978545	1.897475	1.3774886
28.33955987904799	1.9066274	1.3808068
28.357636978081285	1.9405261	1.3930277
28.37571479761439	1.9437402	1.3941809
28.393793338183425	1.9251497	1.3874977
28.41187260032469	1.9318312	1.3899033
28.429952584574686	1.9230157	1.3867284
28.448033291470065	1.8798199	1.3710653
28.46611472154769	1.9018339	1.3790699
28.484196875344566	1.9390776	1.3925077
28.502279753397914	1.9846611	1.40878
28.52036335624511	2.024269	1.4227681
28.538447684423716	2.0511706	1.4321908
28.556532738471482	2.005844	1.4162782
28.574618518926325	1.9305005	1.3894246
28.59270502632635	1.9251837	1.3875098
28.61079226120985	1.9863837	1.4093913
28.628880224115274	1.9881966	1.4100343
28.646968915581287	2.017184	1.420276
28.66505833614671	2.0309136	1.4251013
28.68314848635055	2.0439794	1.4296781
28.701239366732004	2.061213	1.4356925
28.71933097783044	2.072346	1.4395645
28.737423320185403	2.0596297	1.435141
28.75551639433665	2.0562208	1.4339528
28.773610200824074	2.0871227	1.4446877
28.791704740187793	2.129211	1.4591815
28.80980001296809	2.132051	1.4601544
28.827896019705413	2.1673822	1.4722031
28.845992760940433	2.2259684	1.4919679
28.86409023721397	2.2664316	1.5054672
28.88218844906704	2.2491713	1.4997237
28.900287397040845	2.2387724	1.4962528
28.918387081676755	2.285605	1.5118217
28.936487503516343	2.3183944	1.5226275
28.954588663101365	2.333544	1.5275942
28.97269056097374	2.3649096	1.5378263
28.990793197675597	2.349683	1.5328676
29.00889657374923	2.3298035	1.5263693
29.027000689737125	2.3188016	1.5227612
29.04510554618196	2.3712673	1.539892
29.06321114362659	2.4618268	1.569021
29.08131748261405	2.511879	1.5848908
29.099424563687567	2.5139074	1.5855306
29.11753238739057	2.5004869	1.5812927
29.13564095426663	2.5576613	1.599269
29.15375026485954	2.6416647	1.6253198
29.171860319713275	2.7182531	1.6487125
29.18997111937199	2.784884	1.6687971
29.20808266438002	2.8370667	1.6843594
29.226194955281898	2.8959184	1.7017398
29.244307992622335	2.9455235	1.7162528
29.26242177694624	2.978614	1.7258662
29.2805363087987	2.93462	1.7130733
29.29865158872498	2.8666215	1.69311
29.316767617270557	2.8514843	1.6886338
29.334884394981064	2.916905	1.7078949
29.353001922402367	3.0073504	1.7341714
29.37112020008047	3.1023774	1.7613567
29.389239228561596	3.1977386	1.7882222
29.407359008392152	3.3924785	1.8418682
29.42547954011872	3.8066657	1.9510678
29.44360082428809	4.398119	2.0971692
29.46172286144722	5.3313932	2.308981
29.479845652143283	6.7974877	2.6071992
29.497969196923606	8.910317	2.9850154
29.516093496335728	11.449364	3.3836908
29.5342185509274	14.265961	3.7770307
29.55234436124651	16.561693	4.069606
29.570470927841175	17.946053	4.236278
29.588598251259686	17.666273	4.2031264
29.60672633205055	16.308388	4.0383644
29.624855170762405	14.434599	3.7992892
29.642984767944146	11.726412	3.4243848
29.66111512414481	8.88408	2.9806173
29.67924623991366	6.6093125	2.5708582
29.697378115800138	5.1039643	2.2591956
29.71551075235387	4.2626996	2.0646305
29.733644150124675	3.8511703	1.9624399
29.751778309662576	3.5836658	1.8930572
29.769913231517766	3.4183705	1.8488836
29.78804891624066	3.363882	1.8340889
29.806185364381818	3.4213438	1.8496875
29.82432257649206	3.391701	1.8416572
29.842460553122333	3.354748	1.8315971
29.86059929482382	3.3783793	1.8380368
29.878738802147872	3.422929	1.850116
29.896879075646048	3.4108734	1.846855
29.915020115870114	3.3984158	1.8434793
29.933161923371976	3.4319336	1.8525479
29.951304498703777	3.387258	1.8404505
29.969447842417857	3.318976	1.8218057
29.987591955066733	3.1644423	1.778888
30.005736837203123	3.122191	1.7669723
30.023882489379943	3.1602468	1.7777083
30.04202891215028	3.1722915	1.7810928
30.060176106067455	3.1732688	1.7813671
30.078324071684946	3.1079345	1.7629335
30.09647280955646	3.0579565	1.7487013
30.114622320235863	3.0787394	1.7546337
30.132772604277257	3.053991	1.7475672
30.1509236622349	3.0844932	1.7562726
30.16907549466328	3.0581675	1.7487617
30.18722810211705	3.04662	1.7454569
30.205381485151097	3.070863	1.7523878
30.22353564432045	3.0799878	1.7549894
30.241690580180403	3.0370188	1.7427044
30.25984629328638	3.0209231	1.7380803
30.278002784194037	3.015127	1.736412
30.296160053459246	3.029999	1.7406893
30.314318101638033	2.9935374	1.7301842
30.332476929286646	2.9396234	1.714533
30.35063653696153	2.8779278	1.6964456
30.368796925219307	2.8638182	1.692282
30.386958094616844	2.8762696	1.6959568
30.40512004571115	2.9045565	1.704276
30.423282779059463	2.9281313	1.7111783
30.441446295219233	2.9873157	1.7283853
30.459610594748067	3.0083315	1.7344543
30.47777567820382	2.9233148	1.7097704
30.495941546144504	2.8359036	1.6840142
30.51410819912835	2.7933793	1.6713406
30.532275637713795	2.812075	1.6769242
30.55044386245946	2.856916	1.6902413
30.56861287392416	2.9437327	1.7157309
30.586782672666956	2.9280083	1.7111424
30.604953259247047	2.830316	1.6823543
30.623124634223885	2.7826788	1.6681364
30.641296798157075	2.7892249	1.6700972
30.659469751606462	2.7586718	1.660925
30.677643495132074	2.7049625	1.644677
30.695818029294152	2.7029383	1.6440616
30.713993354653116	2.7129982	1.6471181
30.73216947176962	2.6972122	1.6423192
30.75034638120448	2.6104782	1.6156974
30.768524083518756	2.6426625	1.6256268
30.786702579273673	2.8360722	1.6840641
30.80488186903069	2.8716688	1.6945999
30.82306195335144	2.9348674	1.7131455
30.841242832797782	3.0971909	1.7598838
30.85942450793176	3.354658	1.8315725
30.877606979315637	3.7057483	1.925032
30.895790247511883	4.0108523	2.0027113
30.913974313083134	4.4341545	2.1057432
30.932159176592283	4.8682923	2.2064207
30.95034483860237	4.926901	2.2196624
30.968531299676698	4.656398	2.1578689
30.98671856037873	4.2635517	2.064837
31.00490662127215	3.9718678	1.9929545
31.023095482920848	3.6363335	1.9069172
31.04128514588892	3.2004457	1.7889789
31.059475610740662	2.8008738	1.6735811
31.07766687804056	2.5897243	1.609262
31.09585894835335	2.5252736	1.589111
31.11405182224393	2.4529774	1.5661983
31.132245500277417	2.4726985	1.5724816
31.15043998301914	2.5026553	1.5819783
31.168635271034628	2.4797628	1.5747262
31.18683136488964	2.4206557	1.5558456
31.20502826515008	2.460597	1.568629
31.223225972382135	2.451454	1.565712
31.241424487152155	2.385479	1.5444996
31.259623810026692	2.3039446	1.5178751
31.27782394157253	2.282431	1.5107716
31.296024882356644	2.3544018	1.5344061
31.314226632946237	2.4938674	1.5791984
31.332429193908684	2.5443847	1.5951128
31.350632565811598	2.4883785	1.5774596
31.368836749222787	2.4388437	1.5616797
31.387041744710295	2.5308769	1.590873
31.40524755284232	2.5899386	1.6093286
31.423454174187317	2.574962	1.6046687
31.441661609313922	2.5067215	1.5832629
31.459869858791002	2.4831264	1.5757939
31.478078923187628	2.4385016	1.5615703
31.496288803073064	2.4056756	1.5510241
31.514499499016807	2.408583	1.551961
31.532711011588546	2.371875	1.5400892
31.550923341358178	2.3995988	1.5490638
31.56913648889584	2.3635786	1.5373935
31.587350454771844	2.2737083	1.5078821
31.605565239556732	2.2428558	1.4976166
31.62378084382127	2.1668687	1.4720287
31.641997268136382	2.242378	1.4974571
31.660214513073274	2.366825	1.5384489
31.67843257920331	2.396064	1.5479225
31.6966514670981	2.320309	1.5232561
31.71487117732944	2.2683003	1.5060878
31.733091710469346	2.2248855	1.491605
31.751313067090052	2.235437	1.4951378
31.769535247764008	2.258287	1.5027598
31.787758253063878	2.3053439	1.5183359
31.805982083562526	2.3825183	1.5435408
31.824206739833024	2.3113906	1.5203258
31.84243222244869	2.275646	1.5085244
31.860658531983013	2.3039386	1.517873
31.878885669009737	2.302897	1.5175298
31.897113634102784	2.245224	1.4984071
31.91534242783632	2.282417	1.5107671
31.933572050784694	2.3431857	1.5307468
31.951802503522508	2.3717446	1.5400469
31.970033786624548	2.3385282	1.5292246
31.988265900665834	2.310465	1.5200214
32.006498846221575	2.2292528	1.4930682
32.02473262386724	2.185296	1.4782747
32.04296723417845	2.1773527	1.4755856
32.0612026777311	2.179777	1.4764068
32.07943895510129	2.2062306	1.4853386
32.097676066865304	2.2472284	1.4990759
32.115914013599685	2.234571	1.4948481
32.13415279588115	2.2383285	1.4961045
32.152392414286666	2.2140162	1.487957
32.1706328693934	2.1264439	1.4582331
32.18887416177875	2.148167	1.4656626
32.20711629202032	2.107423	1.4516966
32.225359260695924	2.1326246	1.4603509
32.243603068383614	2.1445389	1.4644244
32.26184771566166	2.226045	1.4919935
32.28009320310852	2.195873	1.4818479
32.2983395313029	2.116912	1.4549612
32.31658670082372	2.0783713	1.4416558
32.33483471225012	2.1076539	1.4517761
32.35308356616143	2.1397789	1.4627982
32.371333263137245	2.0953274	1.4475245
32.38958380375734	2.1803806	1.4766111
32.407835188601744	2.191158	1.4802561
32.42608741825067	2.1251504	1.4577895
32.444340493284585	2.0740209	1.4401461
32.46259441428416	2.05473	1.4334329
32.48084918183028	1.9945886	1.412299
32.49910479650405	2.0133073	1.4189106
32.51736125888683	2.051375	1.4322622
32.53561856956014	2.064657	1.4368914
32.5538767291058	2.045861	1.430336
32.572135738105764	2.035748	1.4267964
32.59039559714228	2.1055336	1.4510456
32.608656306797776	2.1170442	1.4550066
32.62691786765491	2.081599	1.4427748
32.645180280296586	2.0529296	1.4328048
32.663443545305896	2.0868702	1.4446003
32.68170766326619	2.0403612	1.4284121
32.69997263476099	2.0153065	1.4196149
32.7182384603741	2.055632	1.4337475
32.7365051406895	2.140982	1.4632095
32.75477267629144	2.0740035	1.4401401
32.77304106776434	2.0036223	1.4154936
32.79131031569289	1.9168617	1.3845078
32.809580420661966	1.9551494	1.3982666
32.827851383256714	1.9675483	1.4026933
32.84612320406245	1.9618018	1.4006433
32.86439588366476	1.946744	1.3952577
32.88266942264945	2.0108075	1.4180294
32.9009438216025	2.0039766	1.4156188
32.9192190811102	2.037666	1.4274684
32.937495201758985	2.0608044	1.4355502
32.95577218413556	2.0642414	1.4367468
32.974050028826866	1.9873327	1.4097279
32.992328736420035	1.9340307	1.3906943
33.010608307502444	1.8620956	1.3645862
33.02888874266169	1.9199271	1.3856144
33.047170042485604	2.0130627	1.4188244
33.06545220756225	2.0444477	1.4298419
33.083735238479896	2.003076	1.4153007
33.10201913582707	1.874789	1.3692293
33.12030390019248	1.8185213	1.3485256
33.138589532165135	1.8767846	1.3699579
33.15687603233419	1.8863996	1.3734627
33.17516340128909	1.9295497	1.3890823
33.19345163961947	1.9432024	1.3939879
33.211740747915215	1.8917758	1.3754184
33.23003072676643	1.8443143	1.3580554
33.248321576763466	1.896465	1.3771219
33.266613298496885	1.9085625	1.3815074
33.28490589255747	1.9278558	1.3884724
33.30319935953626	1.9657203	1.4020414
33.32149370002451	1.9955446	1.4126375
33.339788914613706	1.9488927	1.3960274
33.358085003895575	1.9974467	1.4133105
33.376381968462034	2.0801551	1.4422743
33.39467980890529	2.067158	1.4377614
33.41297852581774	2.0323007	1.4255879
33.43127811979204	2.028272	1.4241741
33.44957859142105	1.9642808	1.401528
33.467879941297866	1.8837796	1.3725085
33.486182170015844	1.900134	1.3784535
33.50448527816853	1.957522	1.3991147
33.522789266349754	1.9365039	1.3915832
33.541094135153514	1.8192534	1.3487971
33.55939988517411	1.7494646	1.3226733
33.57770651700602	1.7821482	1.3349713
33.59601403124398	1.929141	1.3889352
33.61432242848296	1.9765558	1.4059004
33.632631709318154	1.9241804	1.3871483
33.650941874344994	1.9687048	1.4031054
33.66925292415916	1.9840988	1.4085804
33.68756485935654	1.9747027	1.4052411
33.70587768053328	2.0329688	1.4258221
33.724191388285746	1.9978621	1.4134575
33.74250598321054	2.0242817	1.4227725
33.760821465904506	2.01287	1.4187565
33.77913783696474	1.8987645	1.3779566
33.79745509698852	1.7946792	1.3396564
33.815773246573414	1.8335766	1.3540962
33.8340922863172	1.8611352	1.3642343
33.852412216817896	1.8805825	1.3713433
33.87073303867377	1.9391785	1.3925439
33.889054752483304	1.9516747	1.3970236
33.907377358845245	1.923398	1.3868662
33.92570085835853	1.9943762	1.4122238
33.94402525162239	2.0378451	1.4275311
33.96235053923627	1.9341635	1.3907421
33.980676721799824	1.9566293	1.3987956
33.999003799912984	1.9748641	1.4052986
34.01733177417592	2.0316367	1.425355
34.03566064518901	2.015033	1.4195186
34.0539904135529	2.0162401	1.4199437
34.07232107986846	2.0731716	1.4398513
34.090652644736785	1.9338617	1.3906336
34.108985108759235	1.854231	1.3617015
34.12731847253742	2.0135064	1.4189807
34.14565273667313	2.1470978	1.4652978
34.16398790176847	2.1694627	1.4729096
34.18232396842574	2.0145097	1.4193343
34.20066093724749	1.8847653	1.3728676
34.21899880883651	1.9794676	1.4069356
34.23733758379583	1.9271091	1.3882035
34.25567726272874	1.928049	1.388542
34.27401784623872	2.1602163	1.4697675
34.29235933492957	2.1551013	1.4680263
34.31070172940526	2.076946	1.4411614
34.32904503027003	1.8646235	1.3655121
34.347389238128386	1.8132952	1.3465865
34.36573435358502	1.9979556	1.4134905
34.38408037724492	2.1402342	1.4629539
34.402427309713296	2.161033	1.4700452
34.42077515159559	2.1120052	1.453274
34.43912390349752	2.1222966	1.4568104
34.45747356602499	2.1770709	1.4754901
34.47582413978423	2.1723273	1.4738817
34.49417562538163	2.2862608	1.5120386
34.51252802342388	2.1553254	1.4681027
34.53088133451789	1.9714497	1.4040833
34.54923555927084	1.8352361	1.3547089
34.567590698290104	1.9046199	1.3800796
34.58594675218336	2.0333056	1.4259403
34.6043037215585	2.0332606	1.4259244
34.62266160702365	2.0088055	1.4173234
34.641020409187234	2.0231054	1.4223591
34.65938012865785	2.032453	1.4256413
34.677740766044394	2.1029918	1.4501696
34.69610232195598	2.1787739	1.4760671
34.714464797002016	2.1233003	1.4571549
34.73282819179208	2.0078673	1.4169923
34.751192506936064	1.954399	1.3979982
34.76955774304408	1.9201288	1.3856871
34.7879239007265	1.8473145	1.3591595
34.80629098059391	1.8979989	1.3776789
34.824658983257194	1.9948688	1.4123982
34.843027909327446	2.0417285	1.4288907
34.86139775941603	2.1323972	1.460273
34.879768534134534	2.2416422	1.4972115
34.89814023409483	2.148876	1.4659045
34.91651285990901	2.0617023	1.4358629
34.93488641218944	2.0902236	1.4457605
34.95326089154871	2.1872835	1.4789468
34.97163629859967	2.0670824	1.4377352
34.99001263395542	1.9443376	1.3943951
35.00838989822934	2.0571404	1.4342735
35.02676809203499	2.2098472	1.4865555
35.04514721598624	2.1591933	1.4694194
35.063527270697215	2.0433052	1.4294423
35.081908256782256	1.9702007	1.4036384
35.10029017485597	1.9016718	1.3790112
35.11867302553321	1.9452494	1.394722
35.137056809429104	1.9913446	1.4111501
35.155441527159006	1.9498663	1.3963761
35.173827179338524	1.7775284	1.3332398
35.19221376658354	1.8936961	1.3761163
35.21060128951017	2.0796103	1.4420854
35.2289897487348	2.070113	1.4387887
35.24737914487405	1.8838086	1.372519
35.26576947854479	1.8186249	1.348564
35.28416075036418	1.888824	1.374345
35.30255296094958	1.9525023	1.3973197
35.32094611091867	1.8949544	1.3765734
35.33934020088932	1.9298345	1.3891848
35.35773523147969	1.8260998	1.3513325
35.3761312033082	1.8043249	1.3432516
35.394528116993506	2.1447988	1.4645132
35.41292597315452	2.2184608	1.4894499
35.431324772410434	2.0960915	1.4477885
35.449724515380666	1.847522	1.3592358
35.46812520268491	1.6234943	1.2741642
35.486526834943106	1.8593019	1.3635622
35.504929412775454	2.0882838	1.4450896
35.52333293680242	1.9931251	1.4117808
35.54173740764471	1.8704336	1.367638
35.560142825923286	1.6050433	1.266903
35.5785491922594	1.5397798	1.2408786
35.59695650727454	2.084157	1.443661
35.61536477159042	3.0240254	1.7389725
