0.008763373481513119	0.0	0.0
0.026290120649546365	0.17179282	0.414479
0.043816868432600686	0.12005361	0.34648752
0.06134361724069026	0.12761769	0.35723618
0.07887036748382949	0.10857105	0.3295012
0.0963971195720331	0.057742476	0.24029665
0.11392387391531617	0.09364692	0.30601785
0.1314506309236943	0.1607043	0.4008794
0.1489773910071836	0.16605821	0.4075024
0.16650415457580078	0.21032868	0.45861605
0.18403092203956356	0.14402325	0.37950397
0.20155769380849	0.17311351	0.41606912
0.2190844702925996	0.14586723	0.38192567
0.2366112519019124	0.15299392	0.39114437
0.2541380390464497	0.13281219	0.36443406
0.27166483213623416	0.12217546	0.34953606
0.28919163158128947	0.120935984	0.3477585
0.3067184377916406	0.104724586	0.3236118
0.324245251177314	0.09122759	0.30203906
0.34177207214833777	0.09190691	0.30316153
0.3592989011147415	0.10176855	0.31901184
0.37682573848655654	0.106026314	0.3256168
0.39435258467381573	0.12225111	0.34964427
0.41187944008655414	0.16679841	0.40840963
0.42940630513480854	0.19461098	0.44114736
0.446933180228618	0.17249812	0.41532892
0.4644600657780234	0.1597769	0.39972103
0.48198696219306775	0.12151338	0.3485877
0.49951386988379676	0.14479102	0.38051414
0.5170407892602581	0.18087259	0.42529118
0.5345677207325025	0.16863881	0.41065657
0.5520946647105822	0.1562456	0.39527914
0.5696216216045534	0.09679673	0.31112173
0.5871485918244737	0.092861556	0.30473194
0.6046755757804043	0.12093158	0.34775218
0.6222025738824094	0.15403289	0.39247024
0.6397295865405557	0.17070591	0.41316572
0.6572566141649129	0.1595324	0.39941508
0.6747836571655547	0.15889779	0.39861986
0.6923107159525568	0.15381585	0.39219365
0.7098377909359992	0.16790782	0.40976557
0.7273648825259653	0.1971458	0.44401103
0.7448919911325411	0.18954897	0.43537223
0.762419117165817	0.18781988	0.43338192
0.7799462610358868	0.17781535	0.42168158
0.7974734231528482	0.15574473	0.39464507
0.8150006039268024	0.15301493	0.39117122
0.8325278037678551	0.17614904	0.41970113
0.8500550230861152	0.2161528	0.46492237
0.8675822622916969	0.25817895	0.50811315
0.8851095217947171	0.22476342	0.47409222
0.9026368020052984	0.22100745	0.4701143
0.9201641033335665	0.20239252	0.44988057
0.9376914261896523	0.20527475	0.45307255
0.9552187709836915	0.19432388	0.44082183
0.9727461381258234	0.2088923	0.45704737
0.990273528026193	0.20259547	0.45010605
1.0078009410949496	0.21892887	0.46789837
1.0253283777422473	0.22671328	0.4761442
1.0428558383782454	0.23583482	0.48562828
1.0603833234131086	0.2603386	0.5102339
1.0779108332570058	0.28250042	0.5315077
1.0954383683201119	0.30706462	0.55413413
1.112965929012607	0.33001056	0.57446545
1.1304935157446763	0.48682475	0.6977283
1.1480211289265108	0.5774466	0.7598991
1.1655487689683062	1.461357	1.208866
1.1830764362802655	1.7007315	1.304121
1.200604131272596	2.068243	1.4381387
1.2181318543555117	2.2732546	1.5077317
1.235659605939232	2.3338015	1.5276785
1.253187386433982	3.8980486	1.9743476
1.270715196249994	6.237845	2.497568
1.2882430357975057	11.777145	3.4317846
1.3057709054867608	16.713575	4.088224
1.3232988057280106	22.65097	4.7593036
1.3408267369315112	27.459324	5.2401643
1.358354699507526	31.078064	5.5747705
1.3758826938663256	35.400436	5.9498267
1.3934107204181858	37.20309	6.0994334
1.410938779573391	37.773014	6.1459756
1.4284668717422309	38.371643	6.1944847
1.4459949973350033	37.92873	6.1586304
1.4635231567620117	38.085953	6.171382
1.4810513504335687	37.276405	6.1054406
1.4985795787599925	36.4794	6.039818
1.5161078421516088	35.93238	5.9943624
1.5336361410187505	35.009346	5.9168696
1.5511644757717598	35.151516	5.928871
1.5686928468209842	36.122234	6.0101776
1.58622125457678	37.064293	6.088045
1.6037496994495108	37.974445	6.162341
1.621278181849548	37.22357	6.1011124
1.6388067021872719	37.6668	6.1373286
1.6563352608730693	37.37898	6.113835
1.673863858317336	36.841644	6.0697317
1.6913924949304753	36.248436	6.0206676
1.7089211711228998	35.096497	5.9242296
1.7264498873050296	34.187496	5.8470073
1.7439786438872935	33.009117	5.745356
1.7615074412801288	32.140415	5.669252
1.779036279893981	31.41118	5.604568
1.796565160139305	30.326366	5.506938
1.814094082426564	29.85517	5.4639883
1.8316230471662298	29.130411	5.3972597
1.849152054768784	28.349302	5.324406
1.8666811056447168	27.748339	5.267669
1.8842102002045273	26.747726	5.1718206
1.901739338858724	26.409164	5.1389847
1.9192685220178245	25.81201	5.080552
1.9367977500923557	25.286684	5.028587
1.9543270234928547	25.08344	5.008337
1.971856342629867	24.169113	4.916209
1.9893857079139496	23.884548	4.887182
2.006915119755667	23.303333	4.8273525
2.0244445785655945	22.545843	4.748246
2.0419740847543175	22.102413	4.70132
2.0595036387324317	21.706198	4.658991
2.0770332409105414	21.273594	4.6123304
2.094562891699263	20.825184	4.563462
2.1120925915092217	20.111778	4.484616
2.129622340751053	19.786089	4.448156
2.1471521398354043	187.87523	13.7067585
2.1646819891729323	444.31726	21.078835
2.182211889174303	440.6749	20.992258
2.1997418402501974	453.07693	21.285604
2.2172718428113023	432.80945	20.804073
2.234801897268317	320.7727	17.910128
2.2523320040319548	17.298595	4.159158
2.269862163512935	17.051437	4.1293387
2.287392376121992	16.75933	4.0938163
2.304922642269869	16.46511	4.0577226
2.322452962367322	16.188196	4.0234556
2.3399833368251164	15.83635	3.9794912
2.357513766054032	15.677378	3.959467
2.3750442504648586	15.308727	3.9126368
2.3925747904683963	14.920998	3.8627708
2.410105386475459	14.740285	3.8393078
2.4276360388968707	14.320467	3.7842393
2.445166748143469	14.347589	3.787821
2.4626975146261025	14.059714	3.7496285
2.4802283387556323	13.64227	3.6935444
2.4977592209429305	13.155058	3.6269903
2.5152901615988825	12.720821	3.566626
2.5328211611343865	12.574025	3.5459871
2.5503522199603523	12.555423	3.543363
2.5678833384877024	12.558814	3.5438416
2.5854145171273712	12.448081	3.5281837
2.6029457562903064	12.138081	3.483975
2.620477056387469	11.840142	3.4409509
2.6380084178298326	11.646165	3.4126477
2.655539841028383	11.361179	3.3706348
2.673071326394119	11.25975	3.355555
2.6906028743380523	11.139161	3.3375382
2.708134485271211	11.049529	3.324083
2.7256661596046325	10.989847	3.3150938
2.743197897749369	10.818049	3.2890804
2.760729700116486	10.745616	3.2780507
2.778261567117063	10.594104	3.2548585
2.795793499162193	10.447965	3.232331
2.8133254966629817	10.113088	3.180108
2.830857560030551	9.713834	3.1167023
2.8483896896760337	9.535791	3.0880077
2.865921886010578	9.435182	3.071674
2.883454149445347	9.4751	3.078165
2.9009864803915177	9.31339	3.0517848
2.91851887926028	9.1865	3.0309238
2.9360513464628384	9.095927	3.0159454
2.953583882410413	9.031352	3.005221
2.9711164875142373	8.986343	2.997723
2.9886491621855606	8.884107	2.9806218
3.0061819068356455	8.7648945	2.9605565
3.023714721875769	8.775543	2.9623544
3.041247607717225	8.641781	2.9396906
3.0587805647713213	8.367872	2.8927274
3.0763135934493806	8.16458	2.857373
3.0938466941627407	8.086886	2.8437452
3.1113798673227544	8.114116	2.8485286
3.1289131133407904	8.114381	2.848575
3.1464464326282315	8.105043	2.8469357
3.1639798255964786	7.993285	2.8272398
3.1815132926569443	7.854652	2.8026152
3.1990468342210603	7.7053237	2.7758465
3.216580450700272	7.645985	2.7651374
3.2341141425060416	7.4519777	2.729831
3.251647910049847	7.375809	2.7158442
3.2691817537431813	7.211091	2.6853476
3.286715673997555	7.1789184	2.6793504
3.3042496712244938	7.057823	2.6566565
3.32178374583554	6.9770975	2.6414196
3.339317898242251	6.9655595	2.6392345
3.3568521288562034	6.921626	2.6308982
3.3743864380889876	6.897264	2.6262643
3.3919208263522127	6.754444	2.5989313
3.4094552940575023	6.674608	2.5835264
3.4269898416164972	6.623689	2.573653
3.444524469440858	6.537392	2.5568326
3.4620591779422587	6.573376	2.5638597
3.479593967532391	6.5717564	2.5635438
3.4971288386229658	6.537049	2.5567653
3.5146637916257086	6.5091724	2.551308
3.5321988269523628	6.496924	2.5489063
3.5497339450146903	6.489391	2.5474284
3.5672691462244708	6.432674	2.5362716
3.5848044309934988	6.3441763	2.5187647
3.60233979973359	6.301472	2.5102732
3.619875252856575	6.260627	2.5021245
3.6374107907743034	6.2965117	2.509285
3.6549464138986427	6.3022184	2.510422
3.6724821226414788	6.362651	2.5224295
3.690017917414714	6.403584	2.5305305
3.7075537986302702	6.41676	2.5331326
3.7250897667000857	6.4342217	2.5365767
3.7426258220361235	6.570654	2.5633287
3.7601619650503553	6.914981	2.629635
3.777698196154779	7.6451664	2.7649894
3.7952345157614067	8.684614	2.946967
3.8127709242822716	9.519935	3.0854392
3.830307422129425	11.631765	3.4105375
3.847844009714936	30.46554	5.51956
3.8653806874508954	97.94263	9.896597
3.882917455749409	97.21539	9.859787
3.900454315022606	96.89206	9.843376
3.917991265682631	41.349552	6.4303617
3.9355283081416506	10.846454	3.2933955
3.9530654428118495	8.655181	2.941969
3.970602670105433	7.3883147	2.7181454
3.9881399904346244	6.4544373	2.5405583
4.005677404211669	6.5006757	2.5496423
4.023214911848827	6.65866	2.580438
4.0407525137583855	6.754084	2.5988622
4.058290210352644	6.7536917	2.5987866
4.075828002043927	6.551831	2.5596545
4.0933658892445814	6.4306455	2.5358717
4.110903872366966	6.354086	2.5207312
4.128441951823468	6.287115	2.507412
4.145980128026488	6.3570666	2.5213225
4.163518401388452	6.340374	2.51801
4.181056772321807	6.3737683	2.5246322
4.1985952412390155	6.3175173	2.513467
4.216133808552567	6.306025	2.51118
4.233672474674966	6.375137	2.5249033
4.251211240018741	6.4734616	2.5442998
4.268750104996445	6.6306167	2.5749984
4.286289070020643	7.4785886	2.734701
4.303828135503928	9.180933	3.0300055
4.3213673018589125	29.626068	5.442983
4.3389065694982305	90.76337	9.526981
4.356445938834537	166.01059	12.88451
4.3739854102805085	171.44374	13.093653
4.391524984248844	172.35725	13.12849
4.409064661152262	136.53096	11.684647
4.426604441403504	96.91567	9.844576
4.444144325415337	75.91652	8.713009
4.461684313600543	21.890741	4.6787543
4.47922440637193	22.098225	4.700875
4.496764604142329	20.39546	4.5161333
4.5143049073245916	18.552828	4.307299
4.531845316331589	16.473297	4.058731
4.5493858315762195	13.579189	3.6849952
4.566926453471405	11.236152	3.352037
4.584467182430081	9.162464	3.0269563
4.602008018865218	8.0718775	2.841105
4.619548963189798	7.445502	2.7286446
4.637090015816834	6.9466615	2.635652
4.654631177159353	6.7257643	2.5934079
4.672172447630417	6.464033	2.5424464
4.689713827643102	6.319998	2.5139606
4.7072553176105085	6.089562	2.4677038
4.724796917945764	5.895311	2.4280262
4.742338629062015	5.808967	2.4101799
4.759880451372434	5.7006946	2.3876128
4.777422385290215	5.6813946	2.3835676
4.794964431228581	5.6366034	2.3741531
4.812506589600768	5.608525	2.3682325
4.830048860820047	5.601192	2.3666837
4.847591245299709	5.563787	2.3587682
4.8651337434530655	5.5491714	2.3556678
4.882676355693457	5.5590854	2.3577712
4.900219082434242	5.628754	2.3724995
4.917761924088813	5.7198844	2.391628
4.935304881070575	5.728475	2.3934233
4.952847953792969	5.6762295	2.382484
4.970391142669449	5.6431065	2.3755224
4.9879344481135055	5.646987	2.376339
5.005477870538642	5.5882325	2.3639443
5.023021410358394	5.4752088	2.3399165
5.040565067986324	5.3881593	2.321241
5.05810884383601	5.3189974	2.3062952
5.075652738321066	5.3291674	2.3084989
5.09319675185512	5.356143	2.3143342
5.110740884851836	5.4089713	2.3257196
5.128285137724894	5.418572	2.3277826
5.145829510888007	5.3650346	2.3162544
5.163374004754908	5.3689384	2.317097
5.1809186197393595	5.3537664	2.3138208
5.198463356255145	5.3945932	2.3226264
5.216008214716077	5.359791	2.3151221
5.233553195535998	5.327205	2.308074
5.251098299128764	5.3207865	2.306683
5.268643525908272	5.2772818	2.2972336
5.286188876288432	5.2761807	2.2969937
5.3037343506831895	5.237254	2.2885048
5.32127994950651	5.2897305	2.2999415
5.3388256731723915	5.270875	2.2958386
5.356371522094851	5.240591	2.2892337
5.373917496687938	5.219106	2.2845364
5.391463597365729	5.200117	2.2803764
5.40900982454232	5.192767	2.2787645
5.426556178631843	5.125408	2.2639365
5.444102660048449	5.1287847	2.264682
5.4616492692063225	5.1683207	2.273394
5.479196006519669	5.186329	2.2773514
5.496742872402727	5.1737685	2.274592
5.514289867269756	5.166568	2.2730086
5.531836991535049	5.1714125	2.274074
5.549384245612924	5.178643	2.2756631
5.566931629917724	5.194088	2.2790542
5.584479144863822	5.132865	2.2655828
5.6020267908656205	5.132413	2.265483
5.619574568337545	5.1797733	2.2759116
5.637122477694054	5.234398	2.2878807
5.654670519349629	5.2927904	2.3006065
5.672218693718784	5.2556667	2.292524
5.689767001216059	5.277402	2.2972596
5.707315442256021	5.241402	2.2894108
5.724864017253266	5.1907043	2.2783117
5.7424127266224225	5.170948	2.2739718
5.75996157077814	5.129057	2.2647421
5.777510550135105	5.162858	2.2721922
5.795059665108022	5.2378025	2.2886245
5.812608916111639	5.2985096	2.3018491
5.830158303560715	5.4301934	2.3302774
5.847707827870055	5.3829484	2.3201182
5.86525748945448	5.4201407	2.3281195
5.8828072887288485	5.4937854	2.3438826
5.900357226108044	5.593952	2.3651538
5.917907302006979	5.678899	2.383044
5.9354575168406	6.3403945	2.518014
5.9530078710238765	7.0074935	2.647167
5.970558364971812	7.5186725	2.74202
5.988108999099438	7.839146	2.7998476
6.005659773821818	8.422465	2.9021485
6.023210689554039	8.194686	2.862636
6.040761746711227	8.578814	2.9289613
6.058312945708531	7.880863	2.8072875
6.075864286961132	7.3744326	2.7155907
6.093415770884244	6.776687	2.603207
6.1109673978931065	6.266888	2.5033753
6.128519168402993	5.622514	2.371184
6.146071082829204	5.5123024	2.3478293
6.163623141587075	5.3903537	2.3217134
6.181175345091969	5.3013034	2.302456
6.198727693759281	5.3150516	2.3054395
6.216280188004435	5.320568	2.3066356
6.233832828242885	5.305582	2.303385
6.251385614890126	5.2171316	2.284104
6.268938548361669	5.1863523	2.2773564
6.286491629073067	5.124482	2.263732
6.304044857439898	5.1071877	2.2599087
6.321598233877777	5.016622	2.2397816
6.339151758802344	5.0244236	2.2415226
6.356705432629277	5.023696	2.2413602
6.37425925577428	5.028446	2.2424197
6.391813228653095	5.042978	2.2456574
6.409367351681486	5.0690002	2.251444
6.426921625275259	5.0383563	2.2446284
6.44447604985025	5.0123386	2.2388253
6.46203062582232	5.044705	2.246042
6.47958535360737	5.1077332	2.2600296
6.497140233621328	5.112739	2.2611368
6.514695266280161	5.026296	2.2419403
6.532250451999859	5.047853	2.2467427
6.549805791196454	5.1149087	2.2616165
6.567361284286002	5.1414776	2.2674828
6.584916931684597	5.117597	2.2622106
6.602472733808367	5.0501103	2.247245
6.6200286910734665	5.057867	2.2489703
6.637584803896092	5.0990767	2.2581136
6.655141072692462	5.1280475	2.2645192
6.672697497878842	5.1018486	2.2587273
6.690254079871514	4.988333	2.2334576
6.707810819086808	4.959537	2.227002
6.725367715941078	4.9843755	2.2325716
6.742924770850719	5.027669	2.2422464
6.760481984232151	4.9926653	2.2344272
6.778039356501836	4.9922214	2.234328
6.795596888076266	5.0640283	2.2503395
6.813154579371963	5.076994	2.2532187
6.830712430805492	5.125418	2.2639387
6.84827044279344	5.168016	2.273327
6.865828615752445	5.1982765	2.279973
6.883386950099159	5.1520796	2.2698193
6.900945446250287	5.078486	2.2535496
6.918504104622553	5.031693	2.2431436
6.936062925632727	5.1042004	2.2592478
6.953621909697607	5.1623755	2.2720861
6.971181057234028	5.2081237	2.2821314
6.988740368658859	5.2228947	2.2853653
7.006299844389007	5.26587	2.2947483
7.023859484841407	5.354683	2.3140187
7.041419290433036	5.3552637	2.3141444
7.058979261580902	5.444849	2.33342
7.0765393987020495	5.6347203	2.3737566
7.094099702213559	6.042924	2.458236
7.111660172532549	6.4525685	2.5401907
7.129220810076164	6.781327	2.604098
7.146781615261595	7.372314	2.7152004
7.16434258850606	7.645307	2.765015
7.181903730226821	8.039263	2.8353593
7.1994650408411704	8.140042	2.853076
7.217026520766437	8.145491	2.8540306
7.234588170419983	8.411651	2.9002845
7.252149990219215	8.437276	2.9046988
7.269711980581568	8.429592	2.903376
7.2872741419245175	8.260149	2.8740475
7.304836474665574	7.8781104	2.8067973
7.322398979222286	7.524076	2.743005
7.339961656012233	7.2398047	2.6906886
7.357524505453039	6.811443	2.609874
7.375087527962357	6.548107	2.558927
7.392650723957886	6.250626	2.5001252
7.410214093857353	5.944526	2.43814
7.427777638078528	5.7258787	2.392881
7.445341357039213	5.5241666	2.3503547
7.4629052511572525	5.3954883	2.322819
7.480469320850524	5.2861686	2.299167
7.498033566536948	5.2630754	2.2941394
7.5155979886344735	5.236222	2.2882793
7.5331625875610975	5.204096	2.2812488
7.550727363734844	5.219651	2.2846556
7.568292317573788	5.200035	2.2803586
7.585857449496025	5.2197843	2.2846847
7.603422759919705	5.208227	2.282154
7.620988249263007	5.192697	2.278749
7.638553917944147	5.2050033	2.2814476
7.656119766381391	5.1372504	2.2665503
7.673685794993023	5.1461678	2.2685165
7.691252004197388	5.1657395	2.2728264
7.70881839441285	5.207968	2.2820973
7.726384966057826	5.2042	2.2812715
7.743951719550762	5.2327957	2.2875304
7.761518655310149	5.2925406	2.3005521
7.779085773754511	5.3720407	2.3177664
7.796653075302419	5.416224	2.3272781
7.814220560372475	5.3605394	2.3152838
7.831788229383323	5.326193	2.3078547
7.8493560827536495	5.32442	2.3074706
7.866924120902174	5.342645	2.3114164
7.884492344247663	5.3762903	2.318683
7.9020607532089135	5.330487	2.3087847
7.919629348204771	5.3748856	2.3183799
7.937198129654115	5.3623223	2.3156688
7.954767097975865	5.433751	2.3310409
7.972336253588986	5.407087	2.3253143
7.989905596912472	5.456023	2.3358133
8.007475128365371	5.5191226	2.3492813
8.025044848366756	5.520853	2.3496497
8.042614757335754	5.6028504	2.3670342
8.060184855691523	5.604679	2.3674204
8.07775514385327	5.7515855	2.3982463
8.095325622240228	5.8508067	2.418844
8.112896291271687	5.9127502	2.4316146
8.130467151366968	5.935973	2.4363852
8.148038202945436	5.9753156	2.4444458
8.165609446426497	5.9437556	2.4379818
8.183180882229594	5.942493	2.437723
8.200752510774217	5.9239845	2.4339237
8.218324332479893	5.907868	2.4306107
8.235896347766193	5.8895693	2.4268434
8.253468557052724	5.9394417	2.437097
8.27104096075914	6.0092397	2.451375
8.288613559305137	6.035638	2.4567535
8.306186353110448	6.0684047	2.4634132
8.32375934259485	6.13061	2.4760067
8.341332528178162	6.2170243	2.493396
8.358905910280246	6.335077	2.5169578
8.376479489321003	6.3217435	2.5143077
8.394053265720377	6.353827	2.52068
8.411627239898356	6.3192763	2.513817
8.42920141227497	6.320965	2.514153
8.44677578327029	6.289213	2.5078304
8.464350353304427	6.2877593	2.5075405
8.48192512279754	6.327425	2.5154374
8.499500092169827	6.3590274	2.521711
8.51707526184153	6.3277574	2.5155034
8.534650632232934	6.293917	2.508768
8.552226203764365	6.2490587	2.4998116
8.569801976856192	6.275891	2.5051727
8.587377951928834	6.234932	2.4969845
8.60495412940274	6.21703	2.4933972
8.622530509698416	6.172042	2.4843595
8.6401070932364	6.288946	2.5077772
8.657683880437283	6.4594383	2.5415425
8.675260871721695	6.670192	2.5826714
8.692838067510303	6.9309015	2.6326606
8.710415468223834	7.065909	2.6581779
8.727993074283043	7.1990404	2.6831028
8.745570886108737	7.137939	2.6716921
8.763148904121765	7.2039304	2.6840138
8.78072712874302	7.250388	2.6926544
8.798305560393441	7.524644	2.7431085
8.815884199494006	7.706558	2.776069
8.833463046465745	7.8138676	2.7953296
8.851042101729728	7.92944	2.815926
8.86862136570707	8.222343	2.8674629
8.886200838818924	8.382602	2.8952723
8.903780521486505	8.42017	2.901753
8.921360414131055	8.497882	2.9151127
8.938940517173874	8.643209	2.9399335
8.956520831036297	8.790815	2.964931
8.97410135613971	9.105065	3.01746
8.99168209290554	9.236743	3.039201
9.009263041755265	9.499663	3.0821524
9.026844203110405	9.654728	3.1072059
9.044425577392525	9.821466	3.1339219
9.062007165023239	9.909645	3.147959
9.079588966424197	10.255535	3.2024264
9.097170982017108	10.308546	3.2106924
9.11475321222372	11.395785	3.3757644
9.132335657465825	12.280353	3.5043335
9.149918318165264	12.408125	3.5225167
9.167501194743924	13.115362	3.6215138
9.18508428762374	12.818171	3.5802472
9.202667597226693	12.881303	3.5890532
9.220251123974803	12.533186	3.540224
9.237834868290143	12.134489	3.4834592
9.255418830594836	11.917589	3.452186
9.273003011311046	11.341279	3.3676815
9.290587410860985	11.139539	3.3375947
9.308172029666911	10.527264	3.2445745
9.32575686815113	10.197487	3.1933503
9.343341926735997	8.829217	2.9713998
9.360927205843916	8.562601	2.9261923
9.378512705897327	8.33079	2.8863108
9.396098427318728	8.165321	2.8575027
9.413684370530664	7.9711757	2.823327
9.431270535955722	7.897722	2.8102887
9.448856924016539	7.8094397	2.7945375
9.466443535135806	7.7414894	2.7823532
9.484030369736251	7.7380414	2.7817335
9.501617428240658	7.7363133	2.7814229
9.519204711071852	7.750162	2.7839112
9.536792218652714	7.830897	2.798374
9.55437995140617	7.8756757	2.8063633
9.571967909755191	7.917911	2.8138783
9.589556094122802	7.985653	2.8258898
9.60714450493207	7.9695616	2.8230412
9.624733142606116	7.953838	2.820255
9.642322007568108	8.034449	2.8345103
9.659911100241267	8.094342	2.8450558
9.677500421048851	8.164419	2.8573449
9.695089970414175	8.157054	2.8560557
9.712679748760609	8.123398	2.8501575
9.730269756511557	8.139365	2.8529572
9.747859994090492	8.209082	2.8651495
9.765450461920915	8.241814	2.8708558
9.78304116042639	8.239647	2.8704786
9.800632090030527	8.21946	2.86696
9.81822325115699	8.184421	2.8608427
9.835814644229481	8.242397	2.8709576
9.853406269671762	8.271777	2.8760698
9.870998127907646	8.325986	2.8854785
9.888590219360985	8.349358	2.8895254
9.906182544455698	8.33529	2.8870902
9.923775103615734	8.367303	2.8926291
9.941367897265108	8.355695	2.890622
9.958960925827878	8.414702	2.9008107
9.97655418972816	8.439002	2.9049962
9.994147689390106	8.392342	2.8969538
10.011741425237934	8.338206	2.8875952
10.029335397695904	8.291897	2.8795655
10.04692960718833	8.307012	2.8821888
10.06452405413958	8.340444	2.8879826
10.082118738974064	8.327576	2.8857539
10.099713662116246	8.282556	2.877943
10.117308823990651	8.296982	2.880448
10.134904225021844	8.375565	2.8940568
10.152499865634445	8.390197	2.8965836
10.170095746253125	8.374875	2.8939376
10.18769186730261	8.314522	2.8834913
10.205288229207675	8.220994	2.8672276
10.222884832393145	8.2069645	2.86478
10.2404816772839	8.116653	2.848974
10.258078764304868	8.14336	2.8536572
10.275676093881035	8.161329	2.8568041
10.293273666437438	8.208489	2.8650463
10.310871482399158	8.196398	2.862935
10.32846954219134	8.064507	2.8398075
10.346067846239173	8.034709	2.8345563
10.363666394967908	8.027901	2.833355
10.38126518880283	8.085282	2.8434632
10.398864228169298	8.131665	2.8516076
10.416463513492713	8.251352	2.8725166
10.434063045198531	8.263051	2.8745522
10.451662823712262	8.286643	2.878653
10.469262849459467	8.217838	2.8666773
10.486863122865758	8.151803	2.8551362
10.504463644356806	8.176479	2.8594544
10.522064414358338	8.133121	2.8518627
10.539665433296118	8.021165	2.8321662
10.557266701595987	7.985528	2.8258677
10.574868219683818	7.9025607	2.8111494
10.592469987985552	7.785446	2.7902412
10.610072006927185	7.6181765	2.7601044
10.627674276934751	7.520945	2.7424343
10.64527679843435	7.4163966	2.7233062
10.662879571852143	7.342532	2.7097106
10.680482597614331	7.22755	2.6884103
10.698085876147173	7.1239758	2.6690776
10.715689407876988	7.062569	2.6575494
10.733293193230146	7.0041876	2.6465425
10.750897232633072	6.8675275	2.620597
10.76850152651225	6.7710385	2.6021218
10.786106075294207	6.737029	2.5955787
10.803710879405534	6.673899	2.583389
10.821315939272877	6.5606046	2.5613678
10.83892125532294	6.4868417	2.546928
10.856526827982472	6.410861	2.5319679
10.874132657678285	6.311085	2.5121872
10.891738744837243	6.223291	2.4946525
10.909345089886271	6.1422462	2.4783556
10.926951693252343	6.1237183	2.4746149
10.944558555362494	6.1093245	2.4717047
10.96216567664381	5.9806657	2.44554
10.979773057523436	5.90059	2.429113
10.997380698428573	5.80029	2.408379
11.014988599786477	5.7545643	2.3988674
11.032596762024461	5.7329655	2.3943613
11.050205185569892	5.633026	2.3733997
11.067813870850198	5.5668964	2.3594272
11.085422818292859	5.504875	2.346247
11.10303202832541	5.511827	2.347728
11.120641501375454	5.5074086	2.346787
11.138251237870636	5.429615	2.3301535
11.155861238238671	5.3526335	2.313576
11.173471502907317	5.2566066	2.2927291
11.191082032304402	5.2166247	2.2839932
11.208692826857805	5.130205	2.2649956
11.226303886995465	5.113746	2.2613595
11.243915213145371	5.07004	2.251675
11.261526805735578	4.9791646	2.231404
11.279138665194196	4.864684	2.205603
11.296750791949393	4.787591	2.1880565
11.314363186429393	4.8043175	2.1918752
11.331975849062479	4.819833	2.1954117
11.34958878027699	4.768474	2.1836836
11.36720198050133	4.6864066	2.164811
11.384815450163948	4.636608	2.1532784
11.402429189693366	4.559574	2.135316
11.420043199518153	4.52434	2.1270497
11.437657480066942	63.45244	7.965704
11.455272031768422	85.14557	9.227436
11.472886855051353	107.488464	10.367664
11.490501950344528	99.11967	9.955886
11.508117318076819	84.48425	9.191531
11.52573295867715	45.911858	6.775829
11.543348872574514	4.2214656	2.0546205
11.560965060197946	4.1866813	2.046138
11.57858152197655	4.1837807	2.0454292
11.59619825833949	4.0881624	2.0219204
11.613815269715985	4.0754347	2.0187707
11.631432556535323	38.576332	6.2109847
11.649050119226837	83.14895	9.118605
11.666667958219929	93.51875	9.670509
11.68428607394406	107.7268	10.379152
11.701904466828756	82.526634	9.084417
11.719523137303586	65.3817	8.085895
11.737142085798196	4.6074347	2.1464937
11.754761312742286	3.7350419	1.9326257
11.772380818565619	3.682554	1.9189981
11.790000603698015	3.6747088	1.916953
11.80762066856935	3.6243966	1.9037848
11.825241013609572	3.6214123	1.9030008
11.842861639248683	3.6171334	1.9018763
11.860482545916748	3.5971775	1.8966227
11.878103734043883	3.547741	1.8835448
11.895725204060282	3.519325	1.8759865
11.91334695639619	3.4675736	1.8621422
11.930968991481919	3.4777186	1.8648642
11.948591309747824	3.4405768	1.8548791
11.966213911624347	3.4270124	1.8512192
11.98383679754198	3.375958	1.837378
12.001459967931268	3.3144357	1.8205591
12.019083423222835	3.3303266	1.8249183
12.036707163847352	3.2985196	1.8161827
12.05433119023556	3.2885842	1.8134454
12.071955502818259	3.2131934	1.7925383
12.089580102026313	3.1941848	1.7872282
12.107204988290643	3.1764803	1.7822683
12.12483016204224	3.1983743	1.7883999
12.142455623712152	3.1642978	1.7788473
12.16008137373149	3.1381116	1.7714716
12.177707412531431	3.099596	1.760567
12.19533374054321	3.0556116	1.7480308
12.212960358198126	3.0660539	1.7510151
12.230587265927545	3.0693507	1.7519562
12.248214464162889	3.0330024	1.7415518
12.265841953335649	2.9956431	1.7307926
12.283469733877375	3.0054572	1.7336254
12.301097806219685	2.9882705	1.7286615
12.31872617079425	2.9932873	1.730112
12.336354828032825	3.0073407	1.7341685
12.353983778367205	2.9653454	1.7220178
12.371613022229262	2.8978713	1.7023135
12.389242560050928	2.8477466	1.6875268
12.406872392264201	2.8882477	1.6994846
12.424502519301143	2.8834934	1.6980852
12.442132941593874	2.8868463	1.6990722
12.459763659574586	2.890865	1.7002544
12.477394673675532	2.899547	1.7028056
12.49502598432903	2.9131699	1.706801
12.51265759196746	2.9023557	1.7036301
12.530289497023267	2.8866093	1.6990025
12.547921699928967	2.8683324	1.6936152
12.565554201117134	2.8682663	1.6935956
12.583187001020404	2.8506339	1.688382
12.600820100071486	2.8578072	1.690505
12.618453498703152	2.8509572	1.6884778
12.636087197348235	2.8426423	1.6860137
12.65372119643964	2.820064	1.6793046
12.671355496410326	2.8186116	1.6788721
12.68899009769333	2.838273	1.6847175
12.706625000721749	2.8978276	1.7023007
12.724260205928752	2.9524117	1.7182583
12.741895713747551	3.0027332	1.7328396
12.759531524611454	3.0481691	1.7459006
12.777167638953818	3.047836	1.7458053
12.794804057208072	3.043186	1.744473
12.812440779807702	3.0623157	1.7499473
12.830077807186271	3.2542803	1.8039623
12.847715139777405	3.2927408	1.814591
12.865352778014795	3.55427	1.8852772
12.882990722332197	3.6538174	1.9114962
12.90062897316344	3.7376752	1.9333068
12.918267530942412	3.8283482	1.9566165
12.935906396103071	3.7070355	1.9253663
12.953545569079449	3.8783858	1.9693618
12.971185050305628	3.666793	1.9148872
12.988824840215775	3.6436276	1.9088289
13.006464939244115	3.692884	1.9216878
13.024105347824943	3.5603008	1.886876
13.041746066392617	3.647358	1.9098058
13.05938709538157	3.419392	1.8491598
13.077028435226296	3.4458752	1.8563069
13.094670086361363	3.3859708	1.8401008
13.112312049221401	3.2597442	1.8054762
13.129954324241112	3.1234841	1.7673382
13.147596911855258	2.8846476	1.698425
13.165239812498685	2.8316872	1.6827618
13.182883026606293	2.805	1.6748134
13.200526554613058	2.7610793	1.6616496
13.218170396954017	2.7292554	1.6520458
13.235814554064284	2.7290366	1.6519796
13.253459026379034	2.7104607	1.6463476
13.271103814333523	2.6986208	1.642748
13.288748918363058	2.6903615	1.6402322
13.306394338903031	2.6919582	1.6407188
13.32404007638889	2.6648273	1.6324298
13.341686131256164	2.6517584	1.628422
13.359332503940449	2.6367214	1.6237985
13.376979194877402	2.65163	1.6283826
13.394626204502751	2.7229483	1.6501359
13.412273533252307	2.789474	1.6701719
13.429921181561937	2.811497	1.6767519
13.447569149867581	2.7750723	1.6658548
13.465217438605247	2.7118526	1.6467704
13.482866048211022	2.661152	1.6313038
13.500514979121052	2.658729	1.630561
13.518164231771568	2.6467686	1.6268892
13.535813806598844	2.6559632	1.6297126
13.553463704039254	2.6593518	1.630752
13.571113924529229	2.6688173	1.6336515
13.588764468505275	2.7058277	1.64494
13.606415336403956	2.7378178	1.6546352
13.624066528661917	2.7469676	1.6573979
13.641718045715882	2.7724998	1.6650826
13.659369888002635	2.8026822	1.6741213
13.67702205595903	2.836849	1.6842948
13.694674550021993	2.9154778	1.707477
13.712327370628532	3.0110931	1.7352501
13.729980518215713	3.1237433	1.7674115
13.747633993220681	3.1962929	1.787818
13.765287796080647	3.2503839	1.8028821
13.7829419272329	3.2981486	1.8160806
13.800596387114801	3.3234308	1.823028
13.818251176163775	3.3308666	1.8250662
13.835906294817324	3.3772476	1.8377289
13.853561743513023	3.4560783	1.859053
13.871217522688525	3.4852684	1.8668873
13.888873632781538	3.5268195	1.8779829
13.906530074229858	3.5006943	1.8710142
13.92418684747135	3.5194302	1.8760145
13.941843952943948	3.538756	1.8811581
13.959501391085665	3.5320642	1.8793787
13.977159162334578	3.4589288	1.8598195
13.994817267128846	3.3820221	1.8390275
14.012475705906693	3.2856836	1.8126454
14.030134479106424	3.1879852	1.785493
14.047793587166414	3.1540644	1.7759686
14.065453030525108	3.1015394	1.7611188
14.083112809621026	3.048081	1.7458754
14.100772924892766	2.9617817	1.7209828
14.118433376778997	2.9033127	1.703911
14.136094165718458	2.8292499	1.6820374
14.153755292149969	2.8136518	1.6773944
14.171416756512416	2.755602	1.6600006
14.189078559244768	2.674589	1.6354171
14.20674070078606	2.592058	1.6099869
14.224403181575408	2.5644965	1.6014045
14.242066002051999	2.5497358	1.5967892
14.259729162655093	2.5114412	1.5847527
14.277392663824022	2.4951813	1.5796143
14.295056505998208	2.470601	1.5718145
14.312720689617128	2.447014	1.5642935
14.330385215120348	2.4255893	1.5574304
14.348050082947497	2.410584	1.5526055
14.3657152935383	2.4250476	1.5572565
14.383380847332528	2.4171143	1.5547072
14.401046744770051	2.419622	1.5555134
14.418712986290798	2.3756278	1.5413072
14.436379572334793	2.4085934	1.5519644
14.454046503342123	2.4074507	1.5515962
14.471713779752946	2.4297955	1.5587801
14.489381402007504	2.3859756	1.5446603
14.507049370546113	2.3996222	1.5490714
14.524717685809168	2.4325252	1.5596554
14.542386348237134	2.4421957	1.5627526
14.560055358270553	2.4494712	1.5650786
14.577724716350051	2.4639342	1.5696924
14.595394422916325	2.4646482	1.5699198
14.61306447841015	2.4843976	1.5761973
14.63073488327237	2.4967775	1.5801195
14.648405637943917	2.528526	1.590134
14.6660767428658	2.5284002	1.5900944
14.683748198479094	2.5304492	1.5907385
14.701420005224954	2.5694463	1.6029493
14.719092163544628	2.6172802	1.6178011
14.73676467387942	2.667236	1.6331675
14.754437536670727	2.6776516	1.6363531
14.772110752360014	2.7293196	1.6520653
14.78978432138882	2.691057	1.6404442
14.807458244198777	2.670186	1.6340704
14.82513252123159	2.6305783	1.6219058
14.842807152929028	2.6609674	1.6312472
14.860482139732962	2.6742854	1.6353242
14.87815748208531	2.6670086	1.6330979
14.8958331804281	2.6820629	1.6377004
14.91350923520342	2.6068428	1.614572
14.931185646853438	2.6319618	1.6223322
14.948862415820408	2.5958028	1.6111495
14.966539542546656	2.6257906	1.6204292
14.98421702747459	2.6330595	1.6226705
15.001894871046696	2.6880078	1.6395146
15.019573073705542	2.7562327	1.6601906
15.037251635893766	2.7695186	1.6641871
15.054930558054092	2.7416208	1.655784
15.072609840629323	2.7224045	1.649971
15.090289484062351	2.8167	1.6783028
15.107969488796124	3.0477455	1.7457793
15.125649855273691	3.435087	1.8533988
15.14333058393817	3.9713423	1.9928226
15.161011675232768	4.949014	2.224638
15.17869312960076	6.3853817	2.5269313
15.196374947485506	8.348634	2.8894002
15.214057129330447	11.5326	3.3959682
15.231739675579114	16.420845	4.052264
15.249422586675102	21.596073	4.6471577
15.267105863062092	24.706043	4.9705176
15.284789505183847	24.913713	4.991364
15.302473513484218	22.649994	4.759201
15.320157888407127	19.133434	4.374178
15.337842630396578	14.877157	3.857092
15.355527739896656	11.593452	3.4049158
15.37321321735153	8.938123	2.9896693
15.39089906320545	6.4425735	2.5382226
15.408585277902748	4.7935667	2.1894217
15.42627186188783	3.6980124	1.9230217
15.443958815605198	3.2194035	1.7942697
15.461646139499424	2.951511	1.7179962
15.479333834015168	2.8281755	1.681718
15.497021899597165	2.7648962	1.6627977
15.514710336690234	2.7447016	1.6567141
15.53239914573928	2.725586	1.6509348
15.550088327189297	2.6305282	1.6218903
15.567777881485336	2.5757165	1.6049039
15.58546780907256	2.5420437	1.5943788
15.6031581103962	2.5263348	1.5894448
15.620848785901568	2.5032315	1.5821604
15.638539836034063	2.4768817	1.5738112
15.656231261239173	2.496661	1.5800825
15.673923061962451	2.487891	1.577305
15.691615238649552	2.467404	1.5707972
15.709307791746202	2.4644356	1.5698521
15.727000721698221	2.4451337	1.5636923
15.744694028951498	2.4290476	1.5585402
15.76238771395202	2.3728344	1.5404007
15.780081777145844	2.3709261	1.5397812
15.797776218979125	2.3577464	1.5354955
15.815471039898094	2.367545	1.5386828
15.833166240349064	2.3889277	1.5456157
15.850861820778437	2.401004	1.5495174
15.868557781632699	2.3993747	1.5489916
15.886254123358412	2.392187	1.5466697
15.903950846402232	2.402945	1.5501436
15.921647951210897	2.408415	1.551907
15.939345438231225	2.451634	1.5657694
15.957043307910133	2.4536695	1.5664194
15.974741560694602	2.421312	1.5560566
15.992440197031714	2.3624504	1.5370265
16.01013921736862	2.3682926	1.5389258
16.02783862215259	2.4171703	1.5547252
16.045538411830933	2.4475358	1.5644602
16.06323858685107	2.4840739	1.5760945
16.080939147660512	2.454294	1.5666187
16.09864009470684	2.4386132	1.5616059
16.11634142843774	2.4330914	1.559837
16.134043149300954	2.3939877	1.5472517
16.15174525774433	2.4387772	1.5616585
16.169447754215817	2.4627	1.5692992
16.18715063916342	2.469606	1.571498
16.204853913035244	2.4331627	1.5598599
16.222557576279478	2.385057	1.544363
16.240261629344403	22.378529	4.730595
16.257966072678386	42.954266	6.5539503
16.275670906729868	38.13943	6.175713
16.293376131947387	2.5958292	1.6111578
16.31108174877957	2.6256077	1.6203728
16.328787757675133	2.6237996	1.6198146
16.34649415908287	2.6090574	1.6152577
16.364200953451657	2.584364	1.6075957
16.38190814123048	2.5646245	1.6014445
16.39961572286839	2.5853262	1.607895
16.41732369881455	2.676541	1.6360137
16.43503206951817	2.7305193	1.6524283
16.45274083542859	2.8096395	1.6761979
16.47044999699522	2.8438785	1.6863803
16.488159554667558	2.8780015	1.6964674
16.505869508895184	2.917556	1.7080855
16.523579860127786	2.9556403	1.7191976
16.541290608815117	3.0103152	1.735026
16.559001755407035	3.0557582	1.7480727
16.57671330035348	3.0788412	1.7546628
16.59442524410448	3.1390617	1.7717397
16.61213758711015	3.2142127	1.7928225
16.629850329820705	3.26117	1.805871
16.647563472686436	3.2969255	1.8157438
16.665277016157724	3.3710065	1.8360301
16.682990960685053	3.446577	1.8564959
16.70070530671898	3.4701388	1.8628309
16.718420054710155	3.5000246	1.8708353
16.736135205109335	3.533198	1.8796803
16.753850758367335	3.5539196	1.8851842
16.771566714935087	3.5934987	1.8956525
16.789283075263597	3.666662	1.914853
16.80699983980398	3.7549741	1.9377756
16.82471700900741	3.8909893	1.9725591
16.84243458332518	3.9947507	1.9986873
16.860152563208665	4.066369	2.016524
16.87787094910932	4.120347	2.0298638
16.89558974147871	4.159394	2.0394592
16.913308940768466	4.1766615	2.0436883
16.931028547430333	4.266752	2.0656116
16.94874856191613	4.3504095	2.0857635
16.966468984677785	4.4395733	2.1070294
16.98418981616729	4.459764	2.1118155
17.00191105683676	4.5008554	2.121522
17.019632707138374	4.4972315	2.1206677
17.03735476752442	4.513214	2.1244326
17.05507723844728	4.509007	2.1234422
17.072800120359403	4.5273004	2.1277454
17.090523413713353	4.561005	2.1356509
17.108247118961785	4.599538	2.1446533
17.125971236557437	4.645161	2.1552637
17.143695766953133	4.675944	2.162393
17.161420710601806	4.718963	2.1723175
17.179146067956477	4.689595	2.1655474
17.19687183947025	4.6678224	2.1605144
17.21459802559634	4.6706753	2.1611745
17.232324626788028	4.7404737	2.177263
17.25005164349871	4.731358	2.1751685
17.267779076181863	4.727728	2.1743338
17.285506925291074	4.6461287	2.155488
17.30323519127999	4.6033025	2.1455307
17.320963874602384	4.5675726	2.137188
17.33869297571211	4.550449	2.1331782
17.356422495063114	4.532344	2.1289303
17.37415243310944	4.5247407	2.1271439
17.391882790305218	4.510017	2.12368
17.40961356710468	4.5255027	2.127323
17.42734476396215	4.5911465	2.1426961
17.445076381332044	4.6047897	2.1458774
17.462808419668868	4.6220355	2.149892
17.48054087942723	4.700528	2.16807
17.498273761061835	5.014923	2.2394023
17.51600706502747	5.5324435	2.3521147
17.533740791779024	6.2436156	2.4987228
17.551474941771485	7.751667	2.7841816
17.56920951545993	8.909741	2.984919
17.586944513299528	11.173034	3.342609
17.60467993574556	12.849113	3.584566
17.622415783253373	14.56725	3.8167067
17.64015205627843	15.967889	3.995984
17.657888755276293	17.143047	4.140416
17.675625880702604	17.61032	4.196465
17.69336343301311	17.51079	4.1845894
17.71110141266366	16.751541	4.0928645
17.728839820110178	15.742675	3.967704
17.746578655808705	14.703267	3.8344839
17.764317920215372	13.110684	3.620868
17.7820576137864	11.505454	3.391969
17.79979773697811	9.375757	3.0619857
17.81753829024692	7.438978	2.727449
17.835279274049356	5.7961836	2.4075265
17.85302068884201	4.822516	2.1960227
17.870762535081607	4.258166	2.0635324
17.888504813224934	3.8963668	1.9739217
17.90624752372891	3.6963727	1.9225953
17.923990667050536	3.5421185	1.8820517
17.941734243646895	3.521058	1.8764483
17.959478253975185	3.479454	1.8653295
17.9772226984927	3.4704843	1.8629236
17.994967577656833	3.4513752	1.8577877
18.01271289192506	3.4146936	1.847889
18.030458641754965	3.3720498	1.8363142
18.04820482760425	3.359318	1.8328443
18.06595144993067	3.3022728	1.8172157
18.083698509192125	3.2755702	1.8098537
18.101446005846576	3.2375436	1.7993175
18.119193940352105	3.282748	1.8118355
18.136942313166887	3.3039055	1.8176649
18.1546911247492	3.2822905	1.8117093
18.1724403755574	3.2236426	1.7954506
18.19019006604997	3.1694355	1.7802908
18.207940196685467	3.1439145	1.7731087
18.225690767922575	3.1206017	1.7665225
18.243441780220046	3.1015253	1.7611148
18.261193234036764	3.1279018	1.7685875
18.278945129831676	3.1098773	1.7634845
18.29669746806386	3.0781956	1.7544787
18.314450249192483	3.0285392	1.7402699
18.3322034736768	3.0082023	1.734417
18.349957141976184	3.0074532	1.7342011
18.3677112545501	3.0284505	1.7402444
18.385465811858108	3.0554311	1.7479792
18.403220814359884	3.0993505	1.7604972
18.420976262515172	3.1348515	1.7705512
18.43873215678387	3.1604574	1.7777675
18.456488497625923	3.1908095	1.7862837
18.474245285501407	3.2530375	1.8036178
18.492002520870486	3.3347535	1.8261307
18.50976020419343	3.4268837	1.8511844
18.527518335930615	3.775806	1.9431434
18.545276916542516	4.333681	2.0817494
18.563035946489688	4.4854608	2.1178906
18.580795426232832	4.8562346	2.2036865
18.598555356232698	4.7449226	2.1782844
18.616315736950185	5.1490083	2.2691426
18.63407656884626	4.8478665	2.2017872
18.65183785238201	5.023961	2.2414193
18.669599588018617	4.7261844	2.173979
18.68736177621737	4.7422194	2.1776638
18.705124417439652	4.7332234	2.1755972
18.72288751214696	4.521391	2.1263564
18.740651060800886	4.6521745	2.15689
18.758415063863115	4.4020853	2.0981147
18.77617952179546	4.552362	2.1336265
18.793944435059814	4.261943	2.0644474
18.811709804118184	4.2996073	2.0735495
18.829475629432675	4.2654014	2.0652847
18.8472419114655	4.017457	2.0043595
18.86500865067897	4.103589	2.0257318
18.88277584753551	3.8215482	1.9548781
18.90054350249763	3.8558989	1.9636443
18.918311616027957	3.450715	1.85761
18.936080188589226	3.3358002	1.8264173
18.953849220644265	3.052134	1.7470357
18.971618712656007	2.8973014	1.7021462
18.9893886650875	2.8473506	1.6874094
19.007159078401887	7.994977	2.827539
19.024929953062408	32.842346	5.730824
19.042701289532435	32.768024	5.724336
19.060473088275405	25.358093	5.035682
19.07824534975489	2.6467636	1.6268877
19.096018074434568	2.6418533	1.6253779
19.113791262778197	2.6541946	1.62917
19.13156491524966	2.680338	1.6371738
19.149339032312945	2.6561162	1.6297596
19.167113614432136	2.6407926	1.6250516
19.184888662071433	2.6259508	1.6204786
19.202664175695123	2.6348412	1.6232194
19.220440155767623	2.592852	1.6102335
19.238216602753447	2.5609632	1.6003009
19.2559935171172	2.5664463	1.6020132
19.27377089932361	2.5570512	1.5990782
19.291548749837514	2.5619571	1.6006114
19.309327069123835	2.551302	1.5972795
19.32710585764763	2.5553696	1.5985523
19.344885115874032	2.5644357	1.6013856
19.362664844268313	2.5826101	1.6070502
19.380445043295822	2.639951	1.6247926
19.39822571342203	2.6530828	1.6288286
19.41600685511252	2.6108568	1.6158146
19.43378846883297	2.5333037	1.5916356
19.451570555049173	2.51158	1.5847965
19.469353114227037	2.5092392	1.5840578
19.48713614683254	2.479685	1.5747015
19.50491965333182	2.4437106	1.5632372
19.52270363419109	2.4571526	1.5675308
19.540488089876686	2.4910166	1.5782955
19.55827302085503	2.497338	1.5802969
19.576058427592674	2.4921553	1.5786562
19.593844310556282	2.5151918	1.5859356
19.611630670212598	2.5277123	1.5898781
19.629417507028506	2.532521	1.5913897
19.64720482147098	2.5099602	1.5842854
19.6649926140071	2.5237937	1.5886452
19.682780885104084	2.5096364	1.5841832
19.70056963522921	2.48493	1.5763661
19.718358864849908	2.504686	1.58262
19.7361485744337	2.4809165	1.5750926
19.753938764448215	2.5153122	1.5859736
19.771729435361202	2.5430777	1.594703
19.789520587640506	2.5417137	1.5942752
19.807312221754092	2.5137262	1.5854735
19.825104338170043	2.4650993	1.5700635
19.842896937356517	2.4496999	1.5651517
19.860690019781824	2.4633605	1.5695096
19.87848358591436	2.4989166	1.5807962
19.896277636222635	2.530093	1.5906266
19.914072171175278	2.5293984	1.5904082
19.931867191241015	2.5180519	1.586837
19.94966269688869	2.5121913	1.5849893
19.967458688587264	2.5011103	1.5814899
19.985255166805807	2.4900522	1.5779899
20.00305213201348	2.490041	1.5779864
20.020849584679578	2.466008	1.5703528
20.038647525273507	2.4731324	1.5726196
20.05644595426477	2.4476364	1.5644923
20.07424487212299	2.4192033	1.5553788
20.092044279317903	2.4023342	1.5499465
20.109844176319353	2.4135578	1.5535629
20.127644563597304	2.4283528	1.5583173
20.145445441621817	2.434582	1.5603147
20.16324681086307	2.448052	1.5646251
20.181048671791373	2.4438736	1.5632894
20.198851024877122	2.4536734	1.5664206
20.216653870590836	2.4548652	1.566801
20.234457209403146	2.4451783	1.5637066
20.252261041784802	2.3963103	1.548002
20.270065368206662	2.3729084	1.5404247
20.287870189139685	2.3383977	1.5291821
20.305675505054968	2.35932	1.5360078
20.323481316423702	2.3584566	1.5357268
20.341287623717207	2.3631501	1.5372541
20.359094427406884	2.3753245	1.5412087
20.376901727964288	2.3981745	1.548604
20.39470952586107	2.3676422	1.5387144
20.41251782156899	2.3746524	1.5409907
20.430326615559935	2.3529062	1.5339186
20.448135908305886	2.33756	1.5289081
20.465945700278965	2.3304608	1.5265846
20.483755991951384	2.336788	1.5286556
20.50156678379548	2.3534968	1.534111
20.519378076283708	2.3785446	1.5422531
20.537189869888635	2.385812	1.5446074
20.55500216508294	2.3944225	1.5473921
20.572814962339415	2.3877041	1.5452198
20.59062826213098	2.343115	1.5307237
20.60844206493066	2.3071468	1.5189295
20.626256371211593	2.3344667	1.5278962
20.644071181447032	2.3645499	1.5377092
20.66188649611036	2.3615391	1.53673
20.67970231567506	2.359501	1.5360667
20.697518640614742	2.3669174	1.538479
20.715335471403122	2.367613	1.538705
20.73315280851404	2.3272235	1.525524
20.750970652421447	2.3113055	1.5202979
20.768789003599412	2.2879744	1.5126052
20.786607862522136	2.3178933	1.5224628
20.8044272296639	2.2825203	1.5108012
20.82224710549913	2.291408	1.5137397
20.84006749050237	2.3040278	1.5179024
20.857888385148268	3.8484955	1.9617583
20.8757097899116	45.945183	6.7782874
20.893531705267254	64.830246	8.0517235
20.911354131690224	83.8528	9.157117
20.92917706965566	69.09154	8.312132
20.94700051963877	50.134247	7.080554
20.96482448211493	29.38034	5.4203634
20.982648957559622	4.1105595	2.0274515
21.00047394644843	2.1922488	1.4806244
21.01829944925707	2.213846	1.4878999
21.036125466461375	2.2393575	1.4964483
21.053951998537297	2.2858565	1.511905
21.071779045960906	2.2587204	1.5029039
21.089606609208378	2.2380836	1.4960226
21.10743468875603	2.2205918	1.490165
21.12526328508028	2.2197812	1.489893
21.143092398657675	2.2056413	1.4851402
21.16092202996488	2.2123685	1.4874033
21.17875217947867	2.2207272	1.4902104
21.19658284767596	2.2134736	1.4877747
21.21441403503377	2.1892686	1.4796177
21.232245742029225	2.2477825	1.4992607
21.2500779691396	2.2859273	1.5119283
21.26791071684227	2.2791843	1.5096967
21.28574398561475	2.2651496	1.5050414
21.30357777593465	2.2022974	1.4840139
21.321412088279704	2.169505	1.4729239
21.339246923127792	2.1309843	1.4597892
21.357082280956888	2.1533422	1.4674271
21.3749181622451	2.1637666	1.4709747
21.392754567470647	2.193336	1.4809916
21.41059149711187	2.1831627	1.4775529
21.42842895164726	2.1295614	1.4593017
21.446266931555378	2.076381	1.4409653
21.464105437314945	2.0707064	1.4389949
21.481944469404798	2.1105611	1.452777
21.49978402830388	2.1275685	1.4586186
21.51762411449127	2.121172	1.4564244
21.53546472844617	2.115622	1.4545178
21.553305870647876	2.1140718	1.4539849
21.571147541575865	2.097509	1.448278
21.58898974170967	2.104251	1.4506036
21.60683247152899	2.1207983	1.4562961
21.62467573151363	2.132452	1.4602917
21.642519522143523	2.133416	1.4606217
21.660363843898722	2.1024525	1.4499836
21.6782086972594	2.1111815	1.4529905
21.696054082705864	2.0566943	1.4341179
21.713900000718535	2.016477	1.4200271
21.73174645177795	2.010856	1.4180465
21.749593436364794	2.0375926	1.4274427
21.767440954959845	2.054244	1.4332634
21.785289008044032	2.066962	1.4376932
21.803137596098388	2.0787838	1.4417988
21.820986719604086	2.04814	1.4311324
21.838836379042412	1.9991741	1.4139216
21.85668657489478	2.003478	1.4154427
21.87453730764273	2.016482	1.4200289
21.892388577767914	2.0055912	1.416189
21.91024038575213	1.9749639	1.4053341
21.928092732077285	1.9738148	1.4049252
21.945945617225426	1.9814891	1.4076537
21.963799041678694	2.0240486	1.4226906
21.981653005919398	31.350388	5.5991416
21.999507510429943	78.13387	8.839336
22.01736255569286	73.081345	8.548762
22.035218142190818	4.202574	2.050018
22.05307427040661	2.0142848	1.419255
22.07093094082315	1.9922906	1.4114852
22.088788153923474	1.9989088	1.4138277
22.106645910190746	2.0180037	1.4205645
22.12450421010827	1.9935174	1.4119197
22.142363054159464	1.9479519	1.3956904
22.16022244282787	1.9444178	1.3944238
22.178082376597164	1.9449341	1.394609
22.195942855951145	1.9713827	1.4040594
22.213803881373742	1.9905607	1.4108723
22.231665453349002	2.0170548	1.4202305
22.24952757236111	1.9852284	1.4089813
22.26739023889438	1.9929749	1.4117277
22.28525345343323	1.9603635	1.4001298
22.30311721646225	1.9790822	1.4067986
22.320981528466113	1.9324737	1.3901345
22.33884638992964	1.9570031	1.3989292
22.356711801337788	1.9700782	1.4035947
22.37457776317561	2.0049942	1.4159782
22.392444275928337	2.0143018	1.419261
22.410311340081282	1.9963852	1.412935
22.428178956119904	1.9790158	1.406775
22.446047124529805	1.98573	1.4091593
22.46391584579669	1.9633493	1.4011956
22.481785120406414	1.9700127	1.4035714
22.49965494884496	1.9504273	1.396577
22.51752533159841	1.9110503	1.3824074
22.53539626915302	1.8800356	1.3711439
22.553267761995137	1.912821	1.3830477
22.571139810611264	1.976086	1.4057332
22.589012415488025	1.9869473	1.4095912
22.60688557711216	1.9960136	1.4128034
22.624759295970566	1.9887574	1.4102331
22.642633572550263	1.9818903	1.4077963
22.660508407338362	1.9709617	1.4039094
22.67838380082217	1.9259697	1.3877931
22.696259753489077	1.9086288	1.3815314
22.714136265826614	1.9120128	1.3827555
22.73201333832246	1.9639349	1.4014046
22.74989097146439	1.9839276	1.4085196
22.76776916574035	1.9758229	1.4056396
22.785647921638393	1.9568883	1.3988882
22.803527239646712	1.9615219	1.4005435
22.82140712025363	1.9577073	1.3991809
22.839287563947593	1.9138205	1.383409
22.85716857121719	1.9123216	1.3828671
22.875050142551135	1.9585893	1.3994961
22.892932278438277	1.9706917	1.4038132
22.910814979367604	1.9636157	1.4012907
22.928698245828222	1.9295207	1.389072
22.946582078309387	1.9085271	1.3814945
22.96446647730047	1.9106708	1.3822701
22.98235144329098	1.8866273	1.3735455
23.000236976770562	1.8842825	1.3726916
23.018123078229	1.8955235	1.3767802
23.03600974815619	1.9358329	1.3913422
23.053896987042194	1.9506528	1.3966577
23.071784795377173	1.9312912	1.389709
23.08967317365145	1.914704	1.3837283
23.10756212235546	1.9436083	1.3941336
23.125451641979787	1.9189837	1.3852738
23.143341733015134	1.912113	1.3827918
23.161232395952357	1.9244697	1.3872526
23.179123631282426	1.92586	1.3877536
23.197015439496468	1.9068043	1.3808708
23.214907821085717	1.9063017	1.3806889
23.23280077654157	1.910047	1.3820446
23.250694306355538	1.9596629	1.3998796
23.268588411019277	1.9635444	1.4012653
23.28648309102458	1.9801832	1.4071898
23.304378346863356	1.9850224	1.4089082
23.322274179027676	2.000957	1.4145519
23.340170588009723	2.0182004	1.4206338
23.358067574301852	2.0121129	1.4184897
23.37596513839651	1.9477164	1.395606
23.39386328078629	1.8739138	1.3689097
23.411762001963947	1.858024	1.3630935
23.429661302422353	1.9167215	1.3844571
23.4475611826545	1.9283961	1.388667
23.46546164315356	1.9068	1.3808693
23.48336268441279	1.8799134	1.3710994
23.501264306925638	1.932142	1.3900151
23.51916651118564	1.9025145	1.3793167
23.537069297686497	1.9366063	1.39162
23.554972666922037	1.9599749	1.399991
23.57287661938623	1.9422982	1.3936635
23.59078115557318	1.9283063	1.3886347
23.608686275977128	1.9083236	1.3814209
23.62659198109246	1.9219205	1.3863335
23.6444982714137	1.9033359	1.3796145
23.66240514743549	1.9020014	1.3791306
23.68031260965263	1.8961196	1.3769966
23.698220658560068	1.9154278	1.3839898
23.716129294652845	1.9244694	1.3872524
23.7340385184262	1.9106203	1.3822519
23.75194833037546	1.9137247	1.3833743
23.769858730996123	1.9052529	1.380309
23.78776972078382	1.8882124	1.3741224
23.80568130023431	1.8461763	1.3587407
23.823593469843495	1.8531429	1.3613019
23.841506230107424	1.8581609	1.3631437
23.859419581522275	1.8914263	1.3752913
23.87733352458438	1.923402	1.3868676
23.89524805979019	1.9447745	1.3945518
23.913163187636318	1.9289908	1.3888812
23.931078908619508	1.938322	1.3922364
23.948995223236633	1.9790956	1.4068034
23.966912131984735	2.0018609	1.4148713
23.98482963536096	2.044607	1.4298975
24.002747733862616	2.0533257	1.432943
24.020666427987155	2.0602064	1.435342
24.038585718232156	2.0377798	1.4275082
24.056505605095353	2.0543	1.433283
24.074426089074617	2.1063926	1.4513416
24.092347170667946	2.1051702	1.4509205
24.110268850373515	2.0959406	1.4477364
24.128191128689586	2.075043	1.440501
24.146114006114626	2.0151973	1.4195764
24.164037483147187	2.016476	1.4200268
24.181961560286005	2.045907	1.4303521
24.199886238029926	2.1021502	1.4498794
24.21781151687797	2.1055572	1.4510539
24.235737397329274	2.1173828	1.455123
24.253663879883135	2.1111507	1.4529799
24.271590965038975	2.05727	1.4343187
24.289518653296376	2.022541	1.4221607
24.30744694515505	2.0441298	1.4297307
24.32537584111486	2.0450149	1.4300401
24.34330534167581	2.065228	1.4370902
24.361235447338046	2.1038806	1.450476
24.379166158601876	2.099765	1.4490566
24.39709747596772	2.1051357	1.4509085
24.41502939993615	2.0774412	1.4413332
24.432961931007917	2.0247	1.4229195
24.450895069683856	2.0140305	1.4191654
24.468828816465	2.0585232	1.4347554
24.4867631718525	2.0484858	1.4312532
24.504698136347656	1.9947351	1.4123509
24.52263371045192	1.9284166	1.3886744
24.540569894666874	1.9481173	1.3957497
24.558506689494266	2.0108113	1.4180307
24.57644409543597	2.0608943	1.4355814
24.594382112994012	2.0200343	1.4212791
24.61232074267057	1.9896135	1.4105366
24.630259984967953	1.9586126	1.3995044
24.64819984038863	1.9519985	1.3971394
24.66614030943522	1.9430957	1.3939496
24.684081392610462	1.9427856	1.3938384
24.702023090417274	2.0019841	1.4149148
24.7199654033587	1.9898652	1.4106258
24.737908331937927	1.9945211	1.4122752
24.755851876658305	2.043164	1.4293929
24.773796038023324	2.0578432	1.4345185
24.79174081653661	2.0776963	1.4414216
24.809686212701962	2.1026967	1.4500678
24.827632227023294	2.1744304	1.474595
24.8455788600047	2.204082	1.4846151
24.8635261121504	2.2047033	1.4848243
24.88147398396475	2.1751041	1.4748235
24.899422475952303	2.1156886	1.4545407
24.917371588617698	2.1041236	1.4505597
24.935321322465768	2.15919	1.4694183
24.953271678001478	2.3460767	1.5316908
24.97122265572994	2.542728	1.5945934
24.989174256156414	2.8551075	1.6897063
25.00712647978632	3.3022916	1.8172208
25.02507932712521	3.8722892	1.9678133
25.043032798678798	4.454181	2.1104932
25.060986894952933	5.1870446	2.2775085
25.078941616453637	5.981826	2.4457772
25.096896963687055	6.9033656	2.6274257
25.114852937159508	7.983387	2.8254888
25.132809537377444	8.46294	2.9091134
25.150766764847468	8.484397	2.912799
25.168724620076347	7.7309265	2.7804544
25.186683103570985	6.598273	2.5687103
25.204642215838426	5.4172745	2.327504
25.222601957385894	4.1160836	2.0288134
25.24056232872074	3.1324916	1.7698846
25.25852333035048	2.5658975	1.6018419
25.276484962782778	2.198463	1.4827214
25.294447226525435	1.9826404	1.4080626
25.312410122086423	1.9477853	1.3956307
25.330373649973843	1.9549804	1.3982061
25.348337810695988	1.9656565	1.4020188
25.366302604761245	1.9317116	1.3898603
25.384268032678207	1.9195542	1.3854798
25.40223409495558	1.9082526	1.3813952
25.420200792102257	1.9072379	1.3810278
25.438168124627246	1.8753592	1.3694376
25.45613609303974	1.8841164	1.3726312
25.474104697849057	1.9023536	1.3792584
25.492073939564698	1.9188733	1.385234
25.510043818696285	1.8786345	1.3706329
25.528014335753614	1.9063858	1.3807193
25.54598549124664	1.954457	1.398019
25.56395728568544	1.9343227	1.3907993
25.58192971958028	1.8692241	1.3671957
25.59990279344156	1.9015539	1.3789684
25.617876507779833	1.9244756	1.3872547
25.635850863105826	1.941619	1.3934199
25.653825859930386	1.9085319	1.3814963
25.671801498764548	1.8817337	1.371763
25.68977778011949	1.8692641	1.3672104
25.707754704506524	1.871361	1.367977
25.725732272437153	1.89676	1.3772291
25.743710484423012	1.858288	1.3631904
25.761689340975888	1.81415	1.3469038
25.77966884260774	1.783404	1.3354415
25.797648989830662	1.805529	1.3436997
25.815629783156922	1.8354996	1.3548062
25.83361122309895	1.861821	1.3644856
25.85159331016929	1.8736653	1.368819
25.869576044880695	1.8918409	1.375442
25.887559427746034	1.8901112	1.3748132
25.90554345927836	1.9102753	1.3821272
25.92352813999086	1.8968979	1.3772792
25.94151347039689	1.8988211	1.3779771
25.959499451009965	1.8728905	1.3685359
25.97748608234374	1.8407801	1.3567536
25.995473364912062	1.8574855	1.362896
26.013461299228904	1.8857005	1.373208
26.03144988580839	1.8832737	1.3723242
26.04943912516483	1.8415455	1.3570355
26.067429017812675	1.8005855	1.341859
26.085419564266537	1.8421082	1.357243
26.103410765041186	1.8525616	1.3610884
26.12140262065155	1.8496516	1.360019
26.139395131612723	1.8552107	1.3620611
26.157388298439948	1.8540783	1.3616455
26.17538212164861	1.8381194	1.3557726
26.193376601754295	1.8466239	1.3589054
26.211371739272714	1.8762485	1.3697622
26.229367534719746	1.892522	1.3756896
26.247363988611433	1.9029729	1.3794829
26.26536110146397	1.8905526	1.3749737
26.283358873793727	1.8808591	1.3714442
26.301357306117204	1.8655719	1.3658594
26.319356398951104	1.8646172	1.3655099
26.33735615281224	1.8538251	1.3615525
26.35535656821762	1.8387027	1.3559877
26.373357645684404	1.8384234	1.3558847
26.39135938572991	1.7933044	1.3391432
26.409361788871614	1.7696829	1.3302943
26.427364855627165	1.7853168	1.3361574
26.445368586514352	1.8349713	1.3546112
26.46337298205115	1.7959846	1.3401436
26.48137804275568	1.810451	1.34553
26.499383769146217	1.882791	1.3721483
26.517390161741215	1.9294355	1.3890412
26.53539722105928	1.8807546	1.3714061
26.553404947619182	1.8402102	1.3565434
26.571413341939856	1.821621	1.3496743
26.589422404540397	1.7995682	1.3414799
26.60743213594006	1.7991636	1.341329
26.62544253665827	1.8479958	1.35941
26.64345360721459	1.8945502	1.3764266
26.66146534812879	1.8676295	1.3666124
26.679477759920758	1.8151516	1.3472756
26.69749084311057	1.795444	1.3399417
26.71550459821847	1.7812784	1.3346454
26.733519025764842	1.7481115	1.3221617
26.751534126270258	1.7699155	1.3303818
26.769549900255434	1.7780302	1.333428
26.787566348241267	1.787987	1.3371563
26.80558347074881	1.8100051	1.3453643
26.823601268299267	1.8290067	1.3524077
26.841619741414036	1.8274345	1.3518264
26.85963889061465	1.802806	1.3426862
26.877658716422832	1.7882651	1.3372602
26.89567921936045	1.7976838	1.3407773
26.913700399949544	1.8584678	1.3632563
26.93172225871233	1.8622974	1.3646601
26.949744796171174	1.8182118	1.3484108
26.967768012848605	1.7860991	1.3364502
26.98579190926733	1.8151702	1.3472825
27.003816485950225	1.8179312	1.3483068
27.021841743420318	1.8446356	1.3581736
27.039867682200814	1.8329569	1.3538674
27.057894302815072	1.8126391	1.3463429
27.07592160578664	1.7910978	1.3383191
27.0939495916392	1.8012304	1.3420993
27.111978260896635	1.802422	1.3425431
27.13000761408296	1.860757	1.3640957
27.148037651722397	1.8694515	1.3672789
27.166068374339304	1.8277601	1.3519468
27.184099782458215	1.7803382	1.3342931
27.20213187660384	1.8004411	1.3418052
27.22016465730105	1.8172038	1.348037
27.23819812507487	1.7726959	1.3314263
27.256232280450533	1.7908652	1.3382322
27.274267123953383	1.8356185	1.3548499
27.292302656108987	1.8670933	1.3664162
27.31033887744306	1.82042	1.3492295
27.32837578848146	1.8584472	1.3632487
27.34641338975026	1.8936213	1.3760891
27.364451681775673	1.8758346	1.3696111
27.382490665084074	1.8912308	1.3752203
27.400530340202046	1.8595527	1.3636541
27.41857070765629	1.8462021	1.3587502
27.436611767973726	1.8625336	1.3647467
27.454653521681404	1.8549918	1.3619808
27.472695969306564	1.832766	1.353797
27.490739111376627	1.806461	1.3440465
27.508782948419153	1.8040575	1.343152
27.526827480961902	1.7841362	1.3357157
27.54487270953279	1.7780255	1.3334262
27.562918634659898	1.7839283	1.3356378
27.580965256871508	1.7841303	1.3357134
27.599012576696026	1.8370528	1.3553792
27.617060594662068	1.8279377	1.3520125
27.63510931129842	1.7850832	1.3360701
27.65315872713401	1.8080494	1.3446373
27.67120884269797	1.8858848	1.3732752
27.68925965851958	1.8688741	1.3670677
27.707311175128307	1.8367271	1.3552591
27.725363393053787	1.792438	1.3388196
27.74341631282583	1.8238635	1.3505049
27.7614699349744	1.8962371	1.3770393
27.77952426002968	2.125222	1.4578141
27.797579288521973	2.2062	1.4853282
27.815635020981784	2.6310067	1.6220379
27.83369145793979	2.6714978	1.6344718
27.85174859992682	2.477129	1.5738897
27.869806447473923	2.3247247	1.5247048
27.887865001112267	2.0093737	1.4175237
27.905924261373233	1.8852355	1.3730388
27.92398422878836	1.8649267	1.3656232
27.94204490388936	1.8225807	1.35003
27.96010628720813	1.8126419	1.3463439
27.978168379276728	1.8480587	1.3594332
27.9962311806274	1.9299679	1.3892329
28.014294691792568	1.9198868	1.3855999
28.0323589133048	1.862703	1.3648088
28.050423845696887	1.8458737	1.3586293
28.068489489501758	1.863243	1.3650066
28.086555845252523	1.8792771	1.3708673
28.104622913482487	1.8962301	1.3770367
28.122690694725115	1.9346583	1.3909199
28.14075918951405	1.979798	1.4070529
28.15882839838312	2.000057	1.4142337
28.176898321866304	1.9900725	1.4106992
28.1949689604978	1.9732605	1.4047279
28.213040314811945	1.9690441	1.4032263
28.23111238534327	1.9655874	1.4019941
28.249185172626493	1.9331319	1.3903712
28.267258677196473	1.8950183	1.3765967
28.285332899588294	1.8794233	1.3709205
28.303407840337172	1.8623004	1.3646612
28.321483499978545	1.8816034	1.3717154
28.33955987904799	1.8757615	1.3695844
28.357636978081285	1.9391071	1.3925183
28.37571479761439	1.9643278	1.4015448
28.393793338183425	1.952928	1.397472
28.41187260032469	1.9534632	1.3976635
28.429952584574686	2.009488	1.4175642
28.448033291470065	2.0316	1.4253421
28.46611472154769	2.0119727	1.4184402
28.484196875344566	2.0049267	1.4159544
28.502279753397914	1.9726913	1.4045253
28.52036335624511	1.9704351	1.4037219
28.538447684423716	1.9726746	1.4045193
28.556532738471482	1.9696238	1.4034328
28.574618518926325	1.9793646	1.406899
28.59270502632635	1.9840943	1.4085788
28.61079226120985	1.9652007	1.4018562
28.628880224115274	1.9852685	1.4089955
28.646968915581287	2.0243006	1.4227792
28.66505833614671	2.0499284	1.4317571
28.68314848635055	2.0486014	1.4312936
28.701239366732004	2.102975	1.4501637
28.71933097783044	2.1422498	1.4636426
28.737423320185403	2.1264222	1.4582257
28.75551639433665	2.122452	1.4568638
28.773610200824074	2.0645788	1.4368643
28.791704740187793	2.0330186	1.4258397
28.80980001296809	2.0843308	1.4437212
28.827896019705413	2.1908941	1.4801669
28.845992760940433	2.2558198	1.5019387
28.86409023721397	2.2446318	1.4982095
28.88218844906704	2.1754644	1.4749455
28.900287397040845	2.2004821	1.4834023
28.918387081676755	2.1991951	1.4829683
28.936487503516343	2.270649	1.5068673
28.954588663101365	2.2929006	1.5142326
28.97269056097374	2.3335369	1.5275918
28.990793197675597	2.358764	1.5358268
29.00889657374923	2.411952	1.553046
29.027000689737125	2.4325376	1.5596595
29.04510554618196	2.446988	1.5642852
29.06321114362659	2.442904	1.5629792
29.08131748261405	2.4052486	1.5508864
29.099424563687567	2.4062438	1.5512072
29.11753238739057	2.460047	1.5684537
29.13564095426663	2.5289197	1.5902578
29.15375026485954	2.6148276	1.6170429
29.171860319713275	2.6618898	1.6315299
29.18997111937199	2.668208	1.633465
29.20808266438002	2.7222886	1.649936
29.226194955281898	2.7470055	1.6574093
29.244307992622335	2.7704186	1.6644574
29.26242177694624	2.8247113	1.6806878
29.2805363087987	2.8717065	1.6946111
29.29865158872498	2.911789	1.7063965
29.316767617270557	2.9556382	1.7191969
29.334884394981064	2.9401724	1.7146931
29.353001922402367	2.9891262	1.728909
29.37112020008047	3.1311114	1.7694947
29.389239228561596	3.2688174	1.8079871
29.407359008392152	3.4519575	1.8579444
29.42547954011872	3.8458793	1.9610914
29.44360082428809	4.4420757	2.1076233
29.46172286144722	5.46053	2.3367777
29.479845652143283	7.1830835	2.6801276
29.497969196923606	9.476991	3.0784721
29.516093496335728	12.085127	3.476367
29.5342185509274	14.907506	3.861024
29.55234436124651	17.17381	4.1441293
29.570470927841175	18.499285	4.3010793
29.588598251259686	17.995407	4.2420993
29.60672633205055	16.703382	4.086977
29.624855170762405	14.468546	3.803754
29.642984767944146	11.494568	3.390364
29.66111512414481	8.652299	2.941479
29.67924623991366	6.451199	2.539921
29.697378115800138	5.016901	2.239844
29.71551075235387	4.122375	2.0303633
29.733644150124675	3.6746771	1.9169447
29.751778309662576	3.4744568	1.8639895
29.769913231517766	3.409831	1.8465728
29.78804891624066	3.393736	1.8422095
29.806185364381818	3.3648045	1.8343403
29.82432257649206	3.3894439	1.8410442
29.842460553122333	3.3597562	1.8329638
29.86059929482382	3.272853	1.8091028
29.878738802147872	3.2783146	1.8106116
29.896879075646048	3.307735	1.818718
29.915020115870114	3.2611556	1.805867
29.933161923371976	3.2672837	1.807563
29.951304498703777	3.2968013	1.8157096
29.969447842417857	3.3227844	1.8228506
29.987591955066733	3.2645354	1.8068025
30.005736837203123	3.2264926	1.796244
30.023882489379943	3.1718113	1.7809579
30.04202891215028	3.1529667	1.7756596
30.060176106067455	3.165724	1.7792481
30.078324071684946	3.2002032	1.7889112
30.09647280955646	3.1730602	1.7813085
30.114622320235863	3.1558783	1.7764792
30.132772604277257	3.1684246	1.7800069
30.1509236622349	3.1515174	1.7752514
30.16907549466328	3.1020753	1.761271
30.18722810211705	3.0524516	1.7471267
30.205381485151097	3.0671713	1.7513342
30.22353564432045	3.070189	1.7521955
30.241690580180403	3.0787888	1.7546477
30.25984629328638	3.0268557	1.7397861
30.278002784194037	3.0019476	1.732613
30.296160053459246	2.983066	1.7271554
30.314318101638033	2.9823434	1.7269462
30.332476929286646	2.8830543	1.6979558
30.35063653696153	2.84047	1.6853694
30.368796925219307	2.9314244	1.7121403
30.386958094616844	2.9901273	1.7291985
30.40512004571115	2.9822493	1.726919
30.423282779059463	2.9481506	1.7170179
30.441446295219233	2.9630148	1.721341
30.459610594748067	2.9393811	1.7144624
30.47777567820382	2.9496493	1.7174543
30.495941546144504	2.8859537	1.6988095
30.51410819912835	2.8475714	1.6874748
30.532275637713795	2.8368254	1.6842878
30.55044386245946	2.8450398	1.6867245
30.56861287392416	2.830642	1.6824511
30.586782672666956	2.7950284	1.6718339
30.604953259247047	2.778851	1.6669886
30.623124634223885	2.842386	1.6859378
30.641296798157075	2.8745143	1.6954392
30.659469751606462	2.8755047	1.6957313
30.677643495132074	2.851503	1.6886394
30.695818029294152	2.8141797	1.6775516
30.713993354653116	2.7463815	1.6572211
30.73216947176962	2.6930485	1.641051
30.75034638120448	2.711853	1.6467705
30.768524083518756	2.7212331	1.649616
30.786702579273673	2.714559	1.647592
30.80488186903069	2.7528832	1.6591815
30.82306195335144	2.8811224	1.6973869
30.841242832797782	3.0936358	1.7588735
30.85942450793176	3.4072263	1.8458674
30.877606979315637	3.7930565	1.9475771
30.895790247511883	4.1561728	2.0386693
30.913974313083134	4.570607	2.1378977
30.932159176592283	4.8705716	2.206937
30.95034483860237	4.881195	2.2093427
30.968531299676698	4.6227417	2.1500561
30.98671856037873	4.353554	2.086517
31.00490662127215	4.0162873	2.0040677
31.023095482920848	3.5996404	1.8972719
31.04128514588892	3.1153255	1.7650285
31.059475610740662	2.7013204	1.6435695
31.07766687804056	2.5969145	1.6114945
31.09585894835335	2.6027994	1.6133194
31.11405182224393	2.520753	1.587688
31.132245500277417	2.4146745	1.5539223
31.15043998301914	2.4584708	1.5679512
31.168635271034628	2.5189822	1.5871302
31.18683136488964	2.519544	1.5873071
31.20502826515008	2.535516	1.5923303
31.223225972382135	2.5153813	1.5859954
31.241424487152155	2.5241764	1.5887656
31.259623810026692	2.4817207	1.5753478
31.27782394157253	2.409449	1.55224
31.296024882356644	2.4291725	1.5585803
31.314226632946237	2.4514694	1.5657169
31.332429193908684	2.443155	1.5630596
31.350632565811598	2.449024	1.5649358
31.368836749222787	2.4430416	1.5630232
31.387041744710295	2.5289478	1.5902666
31.40524755284232	2.5853024	1.6078875
31.423454174187317	2.5799723	1.6062292
31.441661609313922	2.5273178	1.589754
31.459869858791002	2.5120125	1.5849329
31.478078923187628	2.4519057	1.5658562
31.496288803073064	2.3637576	1.5374516
31.514499499016807	2.364017	1.537536
31.532711011588546	2.3572443	1.535332
31.550923341358178	2.3383057	1.5291519
31.56913648889584	2.353514	1.5341166
31.587350454771844	2.2782252	1.509379
31.605565239556732	2.191074	1.4802277
31.62378084382127	2.1364489	1.4616597
31.641997268136382	2.1774657	1.4756238
31.660214513073274	2.2444723	1.4981563
31.67843257920331	2.315622	1.5217168
31.6966514670981	2.4099188	1.5523913
31.71487117732944	2.388321	1.5454193
31.733091710469346	2.3273337	1.5255601
31.751313067090052	2.3491888	1.5327064
31.769535247764008	2.3284545	1.5259274
31.787758253063878	2.3255131	1.5249633
31.805982083562526	2.3368716	1.528683
31.824206739833024	2.328346	1.5258919
31.84243222244869	2.2706954	1.5068827
31.860658531983013	2.2359765	1.4953182
31.878885669009737	2.2554762	1.5018243
31.897113634102784	2.3508928	1.5332621
31.91534242783632	2.2822254	1.5107036
31.933572050784694	2.2653713	1.505115
31.951802503522508	2.257392	1.5024619
31.970033786624548	2.3063586	1.51867
31.988265900665834	2.2719762	1.5073076
32.006498846221575	2.2163067	1.4887265
32.02473262386724	2.1861074	1.4785491
32.04296723417845	2.1961112	1.4819282
32.0612026777311	2.2209778	1.4902946
32.07943895510129	2.1848776	1.4781332
32.097676066865304	2.0665512	1.4375504
32.115914013599685	2.0371437	1.4272854
32.13415279588115	2.1238163	1.4573319
32.152392414286666	2.1625957	1.4705766
32.1706328693934	2.184647	1.4780551
32.18887416177875	2.179045	1.4761589
32.20711629202032	2.158436	1.4691616
32.225359260695924	2.149469	1.4661068
32.243603068383614	2.1076095	1.4517609
32.26184771566166	2.0536873	1.4330692
32.28009320310852	2.0327237	1.4257362
32.2983395313029	2.042204	1.429057
32.31658670082372	2.0746205	1.4403543
32.33483471225012	2.0163295	1.4199752
32.35308356616143	2.0645564	1.4368564
32.371333263137245	2.1169748	1.4549828
32.38958380375734	2.16161	1.4702414
32.407835188601744	2.1528633	1.4672638
32.42608741825067	2.1401548	1.4629269
32.444340493284585	2.1625829	1.4705724
32.46259441428416	2.162939	1.4706933
32.48084918183028	2.067747	1.4379663
32.49910479650405	2.0254567	1.4231853
32.51736125888683	2.0759482	1.4408151
32.53561856956014	2.1081755	1.4519558
32.5538767291058	2.1763897	1.4752592
32.572135738105764	2.1957355	1.4818014
32.59039559714228	2.1476853	1.4654983
32.608656306797776	2.0762808	1.4409305
32.62691786765491	2.0132866	1.4189034
32.645180280296586	2.0280745	1.4241048
32.663443545305896	2.010391	1.4178826
32.68170766326619	2.0051184	1.4160221
32.69997263476099	1.9954122	1.4125906
32.7182384603741	1.9741868	1.4050575
32.7365051406895	2.0462484	1.4304714
32.75477267629144	2.0899308	1.4456593
32.77304106776434	2.049075	1.431459
32.79131031569289	2.0063908	1.4164712
32.809580420661966	1.9417706	1.3934742
32.827851383256714	1.9057825	1.3805008
32.84612320406245	1.8832589	1.3723189
32.86439588366476	1.9606055	1.4002162
32.88266942264945	2.0228822	1.4222807
32.9009438216025	2.0094464	1.4175494
32.9192190811102	2.0190258	1.4209243
32.937495201758985	2.0375285	1.4274203
32.95577218413556	1.930259	1.3893377
32.974050028826866	1.7997749	1.3415569
32.992328736420035	1.836308	1.3551044
33.010608307502444	1.906518	1.3807672
33.02888874266169	1.9125283	1.3829418
33.047170042485604	1.9643219	1.4015427
33.06545220756225	2.0232575	1.4224125
33.083735238479896	2.0990188	1.4487991
33.10201913582707	2.031604	1.4253435
33.12030390019248	1.9757742	1.4056224
33.138589532165135	1.9915817	1.4112341
33.15687603233419	1.98513	1.4089464
33.17516340128909	1.9176784	1.3848027
33.19345163961947	1.910704	1.3822821
33.211740747915215	1.9405941	1.3930521
33.23003072676643	1.9624373	1.4008702
33.248321576763466	1.9490031	1.396067
33.266613298496885	1.9017206	1.3790289
33.28490589255747	1.8536694	1.3614953
33.30319935953626	1.8309349	1.3531204
33.32149370002451	1.9373397	1.3918835
33.339788914613706	1.951038	1.3967956
33.358085003895575	2.0485299	1.4312686
33.376381968462034	2.0802004	1.44229
33.39467980890529	2.0920012	1.4463753
33.41297852581774	2.1272252	1.458501
33.43127811979204	2.1510992	1.4666626
33.44957859142105	2.0239851	1.4226683
33.467879941297866	1.9627026	1.4009649
33.486182170015844	1.9266956	1.3880546
33.50448527816853	1.8561171	1.3623939
33.522789266349754	1.9230082	1.3867257
33.541094135153514	1.9819541	1.4078189
33.55939988517411	1.9926431	1.4116101
33.57770651700602	2.0056279	1.416202
33.59601403124398	2.0156627	1.4197403
33.61432242848296	1.9047742	1.3801355
33.632631709318154	1.8966205	1.3771784
33.650941874344994	1.9447249	1.394534
33.66925292415916	2.0052845	1.4160807
33.68756485935654	1.9595546	1.399841
33.70587768053328	1.9262673	1.3879004
33.724191388285746	1.9265231	1.3879925
33.74250598321054	1.9542384	1.3979408
33.760821465904506	2.0025659	1.4151205
33.77913783696474	1.9649365	1.4017619
33.79745509698852	1.8506527	1.360387
33.815773246573414	1.9664553	1.4023036
33.8340922863172	1.9325632	1.3901666
33.852412216817896	1.8270255	1.351675
33.87073303867377	1.9218973	1.3863251
33.889054752483304	2.0654142	1.4371549
33.907377358845245	2.0678551	1.4380039
33.92570085835853	1.929892	1.3892055
33.94402525162239	1.8913374	1.375259
33.96235053923627	1.9553746	1.3983471
33.980676721799824	1.9757373	1.4056093
33.999003799912984	1.9877192	1.4098649
34.01733177417592	2.0378094	1.4275186
34.03566064518901	2.1043508	1.450638
34.0539904135529	2.0851176	1.4439936
34.07232107986846	2.043455	1.4294946
34.090652644736785	1.9485065	1.3958892
34.108985108759235	1.95611	1.39861
34.12731847253742	1.9409624	1.3931843
34.14565273667313	1.7976673	1.3407712
34.16398790176847	1.7187512	1.3110116
34.18232396842574	1.8421955	1.357275
34.20066093724749	2.0410292	1.428646
34.21899880883651	2.049648	1.4316592
34.23733758379583	1.9235296	1.3869137
34.25567726272874	1.8269169	1.3516349
34.27401784623872	1.8208696	1.349396
34.29235933492957	1.9761895	1.4057701
34.31070172940526	2.0008154	1.4145018
34.32904503027003	1.8946857	1.3764758
34.347389238128386	1.9845425	1.4087379
34.36573435358502	2.0976474	1.4483258
34.38408037724492	1.9870048	1.4096116
34.402427309713296	1.9111625	1.382448
34.42077515159559	1.8741796	1.3690068
34.43912390349752	1.8970451	1.3773326
34.45747356602499	1.8142931	1.346957
34.47582413978423	1.8421553	1.3572602
34.49417562538163	1.9309835	1.3895984
34.51252802342388	1.8836281	1.3724533
34.53088133451789	1.7564723	1.3253198
34.54923555927084	1.792732	1.3389294
34.567590698290104	2.005167	1.4160392
34.58594675218336	2.056553	1.4340687
34.6043037215585	1.9442564	1.3943659
34.62266160702365	1.9863975	1.4093962
34.641020409187234	1.962594	1.4009261
34.65938012865785	1.7416062	1.3196993
34.677740766044394	1.7658863	1.3288666
34.69610232195598	1.9434466	1.3940755
34.714464797002016	1.8520521	1.3609012
34.73282819179208	1.7185019	1.3109164
34.751192506936064	1.7678057	1.3295885
34.76955774304408	1.9539927	1.3978529
34.7879239007265	1.9833204	1.4083041
34.80629098059391	2.004972	1.4159703
34.824658983257194	2.0182238	1.420642
34.843027909327446	2.001918	1.4148916
34.86139775941603	1.934504	1.3908645
34.879768534134534	1.9943137	1.4122018
34.89814023409483	1.9922824	1.4114823
34.91651285990901	2.0711358	1.4391441
34.93488641218944	1.9731156	1.4046763
34.95326089154871	1.8847151	1.3728492
34.97163629859967	2.0251923	1.4230925
34.99001263395542	2.0710151	1.4391022
35.00838989822934	1.9332011	1.390396
35.02676809203499	1.9067163	1.380839
35.04514721598624	1.8832695	1.3723227
35.063527270697215	1.7876636	1.3370354
35.081908256782256	1.6972868	1.3027996
35.10029017485597	1.5811845	1.2574515
35.11867302553321	1.6144059	1.2705927
35.137056809429104	1.7156397	1.3098243
35.155441527159006	2.016654	1.4200895
35.173827179338524	1.9754514	1.4055076
35.19221376658354	1.6930119	1.301158
35.21060128951017	1.5720913	1.2538307
35.2289897487348	1.8639467	1.3652643
35.24737914487405	2.0063505	1.416457
35.26576947854479	1.8331764	1.3539485
35.28416075036418	1.9223491	1.3864881
35.30255296094958	2.1686754	1.4726423
35.32094611091867	2.105474	1.4510251
35.33934020088932	1.9145433	1.3836702
35.35773523147969	2.0604718	1.4354343
35.3761312033082	2.1040008	1.4505174
35.394528116993506	1.9882091	1.4100387
35.41292597315452	1.9148558	1.3837831
35.431324772410434	2.1383042	1.4622942
35.449724515380666	2.0633514	1.436437
35.46812520268491	1.7697616	1.3303238
35.486526834943106	1.6960398	1.302321
35.504929412775454	1.7546365	1.3246269
35.52333293680242	1.5379215	1.2401296
35.54173740764471	1.5275507	1.2359412
35.560142825923286	1.4149961	1.1895361
35.5785491922594	1.1390285	1.0672528
35.59695650727454	1.461377	1.2088742
35.61536477159042	2.1756063	1.4749936
