0.008763373481513119	0.0	0.0
0.026290120649546365	0.0	0.0
0.043816868432600686	0.0	0.0
0.06134361724069026	0.07129023	0.2670023
0.07887036748382949	0.06477356	0.2545065
0.0963971195720331	0.1343594	0.36655068
0.11392387391531617	0.1984727	0.44550273
0.1314506309236943	0.24015903	0.49006024
0.1489773910071836	0.20997946	0.45823514
0.16650415457580078	0.21027769	0.45856047
0.18403092203956356	0.14736913	0.38388687
0.20155769380849	0.12213907	0.349484
0.2190844702925996	0.06470553	0.2543728
0.2366112519019124	0.06892936	0.262544
0.2541380390464497	0.063738294	0.25246444
0.27166483213623416	0.09967173	0.3157083
0.28919163158128947	0.16391534	0.40486458
0.3067184377916406	0.17311187	0.41606715
0.324245251177314	0.13370495	0.36565688
0.34177207214833777	0.09501934	0.30825207
0.3592989011147415	0.06379828	0.2525832
0.37682573848655654	0.0791205	0.28128368
0.39435258467381573	0.1297312	0.36018217
0.41187944008655414	0.1717524	0.4144302
0.42940630513480854	0.22151218	0.47065082
0.446933180228618	0.18873833	0.43444026
0.4644600657780234	0.18050005	0.42485297
0.48198696219306775	0.19834892	0.44536382
0.49951386988379676	0.2001883	0.44742405
0.5170407892602581	0.23017755	0.47976822
0.5345677207325025	0.2585526	0.50848067
0.5520946647105822	0.24726194	0.4972544
0.5696216216045534	0.2179852	0.46688884
0.5871485918244737	0.17419374	0.41736522
0.6046755757804043	0.1702414	0.4126032
0.6222025738824094	0.16379778	0.40471938
0.6397295865405557	0.13507392	0.36752403
0.6572566141649129	0.103565	0.32181516
0.6747836571655547	0.14023495	0.37447956
0.6923107159525568	0.16840015	0.41036588
0.7098377909359992	0.18171176	0.42627662
0.7273648825259653	0.14034739	0.37462968
0.7448919911325411	0.14210282	0.37696528
0.762419117165817	0.16223757	0.40278724
0.7799462610358868	0.20656566	0.45449495
0.7974734231528482	0.20613582	0.45402184
0.8150006039268024	0.21142207	0.45980656
0.8325278037678551	0.19328082	0.43963715
0.8500550230861152	0.19362634	0.44002995
0.8675822622916969	0.1847822	0.429863
0.8851095217947171	0.17683758	0.4205206
0.9026368020052984	0.17518143	0.41854683
0.9201641033335665	0.18371432	0.4286191
0.9376914261896523	0.18789446	0.43346795
0.9552187709836915	0.2214296	0.47056305
0.9727461381258234	0.24203084	0.4919663
0.990273528026193	0.23983668	0.48973122
1.0078009410949496	0.24735884	0.49735183
1.0253283777422473	0.2764046	0.52574193
1.0428558383782454	0.30541036	0.5526394
1.0603833234131086	0.31605884	0.5621911
1.0779108332570058	0.33382243	0.5777737
1.0954383683201119	0.31739002	0.5633738
1.112965929012607	0.3317663	0.5759916
1.1304935157446763	0.4117403	0.6416699
1.1480211289265108	0.46213716	0.6798067
1.1655487689683062	1.3676556	1.169468
1.1830764362802655	1.7019223	1.3045775
1.200604131272596	2.100802	1.4494144
1.2181318543555117	2.3514633	1.5334482
1.235659605939232	2.3116508	1.5204114
1.253187386433982	3.7301838	1.9313684
1.270715196249994	6.1493835	2.479795
1.2882430357975057	11.763526	3.4297998
1.3057709054867608	16.781952	4.096578
1.3232988057280106	22.773474	4.7721562
1.3408267369315112	27.549677	5.248779
1.358354699507526	30.858746	5.5550647
1.3758826938663256	34.716293	5.8920536
1.3934107204181858	36.57029	6.0473375
1.410938779573391	37.06459	6.0880694
1.4284668717422309	37.384193	6.1142616
1.4459949973350033	36.89634	6.074236
1.4635231567620117	37.020832	6.0844746
1.4810513504335687	36.4211	6.03499
1.4985795787599925	35.988194	5.999016
1.5161078421516088	35.441944	5.953314
1.5336361410187505	34.664402	5.887648
1.5511644757717598	34.29111	5.855861
1.5686928468209842	34.88018	5.9059443
1.58622125457678	35.527153	5.960466
1.6037496994495108	36.819798	6.067932
1.621278181849548	36.676094	6.056079
1.6388067021872719	37.47988	6.1220813
1.6563352608730693	36.67958	6.056367
1.673863858317336	35.889725	5.9908032
1.6913924949304753	35.73195	5.9776206
1.7089211711228998	35.152058	5.928917
1.7264498873050296	34.764606	5.896152
1.7439786438872935	33.602108	5.7967324
1.7615074412801288	32.377666	5.690138
1.779036279893981	31.156355	5.5817876
1.796565160139305	30.066685	5.4833097
1.814094082426564	29.134756	5.397662
1.8316230471662298	28.794268	5.3660293
1.849152054768784	28.014494	5.292872
1.8666811056447168	27.695202	5.2626233
1.8842102002045273	26.824028	5.179192
1.901739338858724	26.529198	5.15065
1.9192685220178245	25.896677	5.0888777
1.9367977500923557	25.07857	5.0078506
1.9543270234928547	24.520508	4.9518185
1.971856342629867	23.67658	4.8658586
1.9893857079139496	22.972754	4.79299
2.006915119755667	22.357632	4.728386
2.0244445785655945	21.876007	4.6771793
2.0419740847543175	21.64518	4.652438
2.0595036387324317	21.1328	4.5970426
2.0770332409105414	20.721003	4.552033
2.094562891699263	20.227776	4.49753
2.1120925915092217	19.822048	4.452196
2.129622340751053	19.650885	4.432932
2.1471521398354043	187.81909	13.704711
2.1646819891729323	444.06296	21.072802
2.182211889174303	440.21725	20.981356
2.1997418402501974	452.46585	21.271244
2.2172718428113023	432.35666	20.793188
2.234801897268317	320.31946	17.89747
2.2523320040319548	16.876255	4.108072
2.269862163512935	16.662907	4.082022
2.287392376121992	16.357357	4.044423
2.304922642269869	15.974711	3.9968376
2.322452962367322	15.791481	3.9738495
2.3399833368251164	15.605087	3.9503274
2.357513766054032	15.420852	3.9269392
2.3750442504648586	15.135087	3.890384
2.3925747904683963	14.579486	3.8183093
2.410105386475459	14.41485	3.7966893
2.4276360388968707	14.128478	3.7587867
2.445166748143469	13.984076	3.739529
2.4626975146261025	13.5481415	3.68078
2.4802283387556323	13.225115	3.636635
2.4977592209429305	13.015588	3.6077123
2.5152901615988825	12.711861	3.5653696
2.5328211611343865	12.604618	3.5502982
2.5503522199603523	12.471577	3.531512
2.5678833384877024	12.3497925	3.5142272
2.5854145171273712	12.169125	3.4884272
2.6029457562903064	11.911781	3.451345
2.620477056387469	11.690191	3.4190922
2.6380084178298326	11.640544	3.4118242
2.655539841028383	11.477012	3.3877738
2.673071326394119	11.3311405	3.366176
2.6906028743380523	11.148458	3.3389306
2.708134485271211	10.972243	3.3124378
2.7256661596046325	10.933742	3.3066208
2.743197897749369	10.714008	3.273226
2.760729700116486	10.538061	3.246238
2.778261567117063	10.29945	3.2092757
2.795793499162193	10.193985	3.192802
2.8133254966629817	10.243205	3.2005007
2.830857560030551	10.116424	3.1806326
2.8483896896760337	9.867095	3.1411932
2.865921886010578	9.393587	3.0648959
2.883454149445347	9.345472	3.0570366
2.9009864803915177	9.263106	3.0435352
2.91851887926028	9.165324	3.0274286
2.9360513464628384	9.09691	3.0161085
2.953583882410413	9.057072	3.009497
2.9711164875142373	8.875719	2.9792144
2.9886491621855606	8.763843	2.960379
3.0061819068356455	8.574648	2.92825
3.023714721875769	8.431027	2.903623
3.041247607717225	8.289442	2.8791392
3.0587805647713213	8.1785965	2.8598247
3.0763135934493806	8.179928	2.8600574
3.0938466941627407	8.017991	2.8316057
3.1113798673227544	7.925047	2.815146
3.1289131133407904	7.8628345	2.8040745
3.1464464326282315	7.865549	2.8045585
3.1639798255964786	7.7987466	2.7926235
3.1815132926569443	7.604535	2.7576323
3.1990468342210603	7.507501	2.739982
3.216580450700272	7.437618	2.7271996
3.2341141425060416	7.463117	2.7318707
3.251647910049847	7.3787527	2.716386
3.2691817537431813	7.2716603	2.6966016
3.286715673997555	7.117228	2.6678133
3.3042496712244938	7.1447945	2.6729748
3.32178374583554	7.0700555	2.6589575
3.339317898242251	7.0248833	2.6504498
3.3568521288562034	6.877028	2.6224089
3.3743864380889876	6.8394914	2.6152422
3.3919208263522127	6.8107724	2.6097457
3.4094552940575023	6.6906905	2.586637
3.4269898416164972	6.6807203	2.584709
3.444524469440858	6.5431094	2.5579503
3.4620591779422587	6.4029408	2.5304034
3.479593967532391	6.2621045	2.5024197
3.4971288386229658	6.2804413	2.5060809
3.5146637916257086	6.3354044	2.5170228
3.5321988269523628	6.3617024	2.5222416
3.5497339450146903	6.2615404	2.502307
3.5672691462244708	6.1946673	2.4889088
3.5848044309934988	6.2189956	2.4937913
3.60233979973359	6.2728257	2.504561
3.619875252856575	6.3107777	2.5121262
3.6374107907743034	6.2771235	2.5054188
3.6549464138986427	6.278309	2.5056553
3.6724821226414788	6.3396854	2.5178733
3.690017917414714	6.405161	2.5308418
3.7075537986302702	6.457466	2.5411544
3.7250897667000857	6.4350443	2.5367389
3.7426258220361235	6.4150686	2.5327985
3.7601619650503553	6.7174215	2.5917988
3.777698196154779	7.2355294	2.689894
3.7952345157614067	8.338062	2.8875704
3.8127709242822716	9.240747	3.0398598
3.830307422129425	11.556675	3.399511
3.847844009714936	30.321604	5.5065055
3.8653806874508954	97.78393	9.888576
3.882917455749409	96.96104	9.84688
3.900454315022606	96.73485	9.835387
3.917991265682631	41.393406	6.4337707
3.9355283081416506	11.100967	3.3318114
3.9530654428118495	8.846929	2.9743786
3.970602670105433	7.575734	2.7524052
3.9881399904346244	6.5695286	2.5631092
4.005677404211669	6.4939737	2.5483277
4.023214911848827	6.467512	2.5431304
4.0407525137583855	6.5435424	2.558035
4.058290210352644	6.485583	2.5466807
4.075828002043927	6.3225846	2.514475
4.0933658892445814	6.2194405	2.4938805
4.110903872366966	6.137726	2.4774435
4.128441951823468	6.1007085	2.4699612
4.145980128026488	6.0610027	2.4619105
4.163518401388452	6.018995	2.453364
4.181056772321807	6.0981927	2.469452
4.1985952412390155	6.1899	2.487951
4.216133808552567	6.2410626	2.4982119
4.233672474674966	6.317577	2.513479
4.251211240018741	6.5233154	2.554078
4.268750104996445	6.706904	2.5897691
4.286289070020643	7.5983787	2.7565157
4.303828135503928	9.242815	3.0401998
4.3213673018589125	29.619066	5.4423404
4.3389065694982305	90.8544	9.531757
4.356445938834537	166.03326	12.885389
4.3739854102805085	171.27913	13.087365
4.391524984248844	172.10193	13.118762
4.409064661152262	136.10384	11.666355
4.426604441403504	96.4501	9.820901
4.444144325415337	75.54244	8.691516
4.461684313600543	21.671711	4.6552887
4.47922440637193	22.093203	4.7003407
4.496764604142329	20.500158	4.52771
4.5143049073245916	18.790453	4.3347955
4.531845316331589	16.736662	4.0910463
4.5493858315762195	13.84842	3.7213466
4.566926453471405	11.344459	3.3681536
4.584467182430081	9.187143	3.0310302
4.602008018865218	8.073148	2.8413286
4.619548963189798	7.5596876	2.7494886
4.637090015816834	7.073421	2.6595905
4.654631177159353	6.826324	2.6127236
4.672172447630417	6.496105	2.5487459
4.689713827643102	6.416724	2.5331254
4.7072553176105085	6.153284	2.4805813
4.724796917945764	5.985351	2.4464977
4.742338629062015	5.8726935	2.4233642
4.759880451372434	5.72677	2.3930671
4.777422385290215	5.641928	2.3752744
4.794964431228581	5.5489316	2.355617
4.812506589600768	5.556361	2.3571935
4.830048860820047	5.629066	2.3725653
4.847591245299709	5.6709995	2.381386
4.8651337434530655	5.6567097	2.3783839
4.882676355693457	5.521764	2.3498433
4.900219082434242	5.387027	2.320997
4.917761924088813	5.2899833	2.2999964
4.935304881070575	5.382305	2.3199797
4.952847953792969	5.4432096	2.3330686
4.970391142669449	5.4738793	2.3396323
4.9879344481135055	5.4693847	2.3386714
5.005477870538642	5.4519496	2.334941
5.023021410358394	5.4495907	2.334436
5.040565067986324	5.3554144	2.3141768
5.05810884383601	5.2932925	2.3007157
5.075652738321066	5.267542	2.2951126
5.09319675185512	5.2890015	2.299783
5.110740884851836	5.2685575	2.2953339
5.128285137724894	5.2839828	2.2986915
5.145829510888007	5.2713857	2.29595
5.163374004754908	5.3987045	2.3235114
5.1809186197393595	5.449839	2.334489
5.198463356255145	5.474272	2.3397162
5.216008214716077	5.473134	2.339473
5.233553195535998	5.406658	2.3252223
5.251098299128764	5.386131	2.3208039
5.268643525908272	5.319217	2.3063428
5.286188876288432	5.2686934	2.2953634
5.3037343506831895	5.1136174	2.2613308
5.32127994950651	5.140296	2.2672222
5.3388256731723915	5.1048794	2.259398
5.356371522094851	5.161135	2.2718132
5.373917496687938	5.1524334	2.2698972
5.391463597365729	5.160233	2.2716146
5.40900982454232	5.185851	2.2772465
5.426556178631843	5.2202206	2.2847803
5.444102660048449	5.1321597	2.265427
5.4616492692063225	5.139525	2.267052
5.479196006519669	5.1460147	2.268483
5.496742872402727	5.1302295	2.265001
5.514289867269756	5.0652065	2.2506013
5.531836991535049	5.028772	2.2424924
5.549384245612924	5.028606	2.2424552
5.566931629917724	5.0313	2.243056
5.584479144863822	4.9906077	2.2339668
5.6020267908656205	4.954674	2.2259097
5.619574568337545	4.991586	2.2341857
5.637122477694054	5.0580635	2.249014
5.654670519349629	5.1106005	2.2606637
5.672218693718784	5.1383333	2.2667892
5.689767001216059	5.0907793	2.2562757
5.707315442256021	5.0800695	2.253901
5.724864017253266	5.0270777	2.2421145
5.7424127266224225	5.048619	2.2469132
5.75996157077814	5.0949597	2.2572017
5.777510550135105	5.0668297	2.250962
5.795059665108022	5.0310707	2.2430048
5.812608916111639	5.090628	2.256242
5.830158303560715	5.271476	2.2959695
5.847707827870055	5.298023	2.3017435
5.86525748945448	5.365476	2.3163497
5.8828072887288485	5.399024	2.32358
5.900357226108044	5.463717	2.3374596
5.917907302006979	5.58282	2.3627992
5.9354575168406	6.288515	2.5076911
5.9530078710238765	6.994571	2.644725
5.970558364971812	7.5760136	2.752456
5.988108999099438	7.844649	2.8008301
6.005659773821818	8.282048	2.8778548
6.023210689554039	7.9842257	2.8256373
6.040761746711227	8.3611145	2.8915591
6.058312945708531	7.739224	2.7819462
6.075864286961132	7.252792	2.6931007
6.093415770884244	6.619675	2.5728729
6.1109673978931065	6.1043944	2.4707072
6.128519168402993	5.5105653	2.3474593
6.146071082829204	5.299808	2.3021312
6.163623141587075	5.0916386	2.256466
6.181175345091969	5.055983	2.2485514
6.198727693759281	5.0972185	2.257702
6.216280188004435	5.182291	2.2764647
6.233832828242885	5.193717	2.2789729
6.251385614890126	5.145738	2.268422
6.268938548361669	5.073384	2.2524173
6.286491629073067	5.001534	2.2364109
6.304044857439898	5.002596	2.2366483
6.321598233877777	4.961522	2.2274475
6.339151758802344	5.006927	2.2376163
6.356705432629277	5.0321956	2.2432556
6.37425925577428	4.9983296	2.2356944
6.391813228653095	4.9626355	2.2276974
6.409367351681486	4.924281	2.219072
6.426921625275259	4.86994	2.206794
6.44447604985025	4.9027085	2.214206
6.46203062582232	4.922505	2.2186718
6.47958535360737	5.033755	2.243603
6.497140233621328	5.088984	2.2558777
6.514695266280161	5.0436645	2.2458105
6.532250451999859	5.042276	2.2455013
6.549805791196454	5.0022607	2.2365735
6.567361284286002	5.000647	2.2362127
6.584916931684597	4.9332805	2.221099
6.602472733808367	4.908951	2.2156153
6.6200286910734665	4.933952	2.22125
6.637584803896092	4.9871154	2.233185
6.655141072692462	4.989499	2.2337186
6.672697497878842	5.0056705	2.2373357
6.690254079871514	4.973525	2.2301402
6.707810819086808	5.0218487	2.2409482
6.725367715941078	4.995499	2.2350614
6.742924770850719	4.9635386	2.2279
6.760481984232151	4.94694	2.2241716
6.778039356501836	4.9205775	2.2182374
6.795596888076266	4.925465	2.219339
6.813154579371963	4.9010944	2.2138414
6.830712430805492	4.869946	2.2067955
6.84827044279344	4.882654	2.209673
6.865828615752445	4.9104533	2.2159543
6.883386950099159	4.934548	2.2213843
6.900945446250287	4.9711747	2.229613
6.918504104622553	5.026371	2.241957
6.936062925632727	5.1106014	2.260664
6.953621909697607	5.100592	2.258449
6.971181057234028	5.155192	2.2705047
6.988740368658859	5.1935716	2.278941
7.006299844389007	5.223628	2.2855258
7.023859484841407	5.2835016	2.2985868
7.041419290433036	5.353294	2.3137186
7.058979261580902	5.504764	2.3462234
7.0765393987020495	5.6361537	2.3740585
7.094099702213559	5.9141603	2.4319046
7.111660172532549	6.160421	2.4820194
7.129220810076164	6.5673256	2.5626793
7.146781615261595	7.177575	2.6790998
7.16434258850606	7.465758	2.732354
7.181903730226821	7.9566007	2.8207448
7.1994650408411704	8.027996	2.8333719
7.217026520766437	8.177818	2.8596885
7.234588170419983	8.443548	2.9057784
7.252149990219215	8.411302	2.9002244
7.269711980581568	8.304217	2.8817039
7.2872741419245175	8.028996	2.8335483
7.304836474665574	7.596634	2.7561991
7.322398979222286	7.31204	2.7040784
7.339961656012233	7.128714	2.6699653
7.357524505453039	6.8496685	2.617187
7.375087527962357	6.538059	2.556963
7.392650723957886	6.2651	2.5030181
7.410214093857353	5.93989	2.4371889
7.427777638078528	5.8113484	2.4106739
7.445341357039213	5.623778	2.3714507
7.4629052511572525	5.446526	2.3337793
7.480469320850524	5.302493	2.3027143
7.498033566536948	5.2126412	2.2831209
7.5155979886344735	5.1998425	2.2803164
7.5331625875610975	5.1153035	2.2617037
7.550727363734844	5.0731473	2.2523649
7.568292317573788	5.049946	2.2472084
7.585857449496025	5.0241647	2.2414649
7.603422759919705	5.0177603	2.2400358
7.620988249263007	5.0152564	2.239477
7.638553917944147	5.0703554	2.251745
7.656119766381391	5.0577984	2.248955
7.673685794993023	5.05839	2.2490866
7.691252004197388	5.0264173	2.2419672
7.70881839441285	5.074257	2.2526112
7.726384966057826	5.0735135	2.2524462
7.743951719550762	5.0994506	2.2581964
7.761518655310149	5.1377053	2.2666507
7.779085773754511	5.230245	2.286973
7.796653075302419	5.246253	2.2904701
7.814220560372475	5.2330265	2.287581
7.831788229383323	5.2233315	2.285461
7.8493560827536495	5.271566	2.295989
7.866924120902174	5.288956	2.299773
7.884492344247663	5.323101	2.3071847
7.9020607532089135	5.290881	2.3001916
7.919629348204771	5.284819	2.2988734
7.937198129654115	5.3147116	2.3053658
7.954767097975865	5.3131533	2.3050277
7.972336253588986	5.3301606	2.3087142
7.989905596912472	5.3370976	2.310216
8.007475128365371	5.3543215	2.3139408
8.025044848366756	5.389516	2.3215332
8.042614757335754	5.4497995	2.3344805
8.060184855691523	5.5132203	2.3480248
8.07775514385327	5.655806	2.3781939
8.095325622240228	5.7953806	2.4073596
8.112896291271687	5.913988	2.4318693
8.130467151366968	5.9620667	2.4417343
8.148038202945436	5.9560905	2.4405103
8.165609446426497	5.850759	2.4188342
8.183180882229594	5.843318	2.4172957
8.200752510774217	5.772511	2.402605
8.218324332479893	5.844221	2.4174824
8.235896347766193	5.8792644	2.4247193
8.253468557052724	5.933748	2.4359286
8.27104096075914	5.9825153	2.445918
8.288613559305137	6.05075	2.4598272
8.306186353110448	6.121659	2.4741986
8.32375934259485	6.1341376	2.4767191
8.341332528178162	6.136225	2.4771404
8.358905910280246	6.173385	2.4846299
8.376479489321003	6.2641163	2.5028217
8.394053265720377	6.3571067	2.5213304
8.411627239898356	6.371971	2.5242763
8.42920141227497	6.2853174	2.5070536
8.44677578327029	6.218263	2.4936445
8.464350353304427	6.1506944	2.4800594
8.48192512279754	6.137954	2.4774895
8.499500092169827	6.127935	2.4754667
8.51707526184153	6.1202717	2.4739182
8.534650632232934	6.157099	2.4813502
8.552226203764365	6.1374025	2.4773781
8.569801976856192	6.1478124	2.4794784
8.587377951928834	6.1865335	2.4872744
8.60495412940274	6.2330422	2.496606
8.622530509698416	6.2939987	2.5087843
8.6401070932364	6.3870883	2.527269
8.657683880437283	6.514827	2.5524158
8.675260871721695	6.6710215	2.582832
8.692838067510303	6.799698	2.607623
8.710415468223834	6.9507365	2.636425
8.727993074283043	7.0809383	2.6610034
8.745570886108737	7.049201	2.655033
8.763148904121765	7.0593104	2.6569362
8.78072712874302	7.0484705	2.6548955
8.798305560393441	7.278483	2.6978664
8.815884199494006	7.4277134	2.7253833
8.833463046465745	7.6024966	2.7572625
8.851042101729728	7.7716703	2.7877715
8.86862136570707	7.979473	2.8247962
8.886200838818924	8.112852	2.848307
8.903780521486505	8.212867	2.86581
8.921360414131055	8.435509	2.9043946
8.938940517173874	8.570955	2.9276195
8.956520831036297	8.6755295	2.9454253
8.97410135613971	8.872072	2.9786024
8.99168209290554	8.990532	2.9984217
9.009263041755265	9.352103	3.058121
9.026844203110405	9.565979	3.0928917
9.044425577392525	9.735402	3.1201606
9.062007165023239	9.759251	3.12398
9.079588966424197	10.051801	3.1704576
9.097170982017108	10.218645	3.1966615
9.11475321222372	11.34855	3.3687608
9.132335657465825	12.1675005	3.4881945
9.149918318165264	12.235465	3.497923
9.167501194743924	12.819563	3.5804417
9.18508428762374	12.61478	3.5517292
9.202667597226693	12.703337	3.5641742
9.220251123974803	12.418842	3.5240378
9.237834868290143	12.055202	3.4720602
9.255418830594836	11.6865015	3.4185526
9.273003011311046	11.034734	3.321857
9.290587410860985	10.751948	3.2790163
9.308172029666911	10.110556	3.17971
9.32575686815113	9.891319	3.1450467
9.343341926735997	8.691148	2.9480753
9.360927205843916	8.459087	2.908451
9.378512705897327	8.263572	2.8746428
9.396098427318728	8.072944	2.8412926
9.413684370530664	7.9838057	2.825563
9.431270535955722	7.828949	2.7980258
9.448856924016539	7.7073135	2.7762048
9.466443535135806	7.5660925	2.750653
9.484030369736251	7.63374	2.7629223
9.501617428240658	7.6165404	2.759808
9.519204711071852	7.6170206	2.759895
9.536792218652714	7.662383	2.768101
9.55437995140617	7.7459073	2.783147
9.571967909755191	7.796431	2.792209
9.589556094122802	7.786533	2.790436
9.60714450493207	7.8251543	2.7973478
9.624733142606116	7.9188213	2.81404
9.642322007568108	7.9847684	2.8257332
9.659911100241267	8.019483	2.8318691
9.677500421048851	8.010105	2.8302128
9.695089970414175	8.009064	2.830029
9.712679748760609	7.978284	2.8245857
9.730269756511557	8.002758	2.8289146
9.747859994090492	8.075025	2.8416588
9.765450461920915	8.130115	2.8513355
9.78304116042639	8.2176695	2.8666477
9.800632090030527	8.152492	2.8552568
9.81822325115699	8.189524	2.8617344
9.835814644229481	8.105066	2.8469398
9.853406269671762	8.086482	2.843674
9.870998127907646	8.043417	2.8360918
9.888590219360985	8.062914	2.8395271
9.906182544455698	8.122239	2.8499541
9.923775103615734	8.20542	2.8645103
9.941367897265108	8.22158	2.8673296
9.958960925827878	8.206917	2.8647716
9.97655418972816	8.130078	2.8513293
9.994147689390106	8.167416	2.8578691
10.011741425237934	8.133255	2.8518863
10.029335397695904	8.218842	2.8668523
10.04692960718833	8.230764	2.8689308
10.06452405413958	8.235297	2.8697207
10.082118738974064	8.308693	2.8824804
10.099713662116246	8.332019	2.8865237
10.117308823990651	8.385453	2.8957646
10.134904225021844	8.410302	2.900052
10.152499865634445	8.307356	2.8822484
10.170095746253125	8.221117	2.867249
10.18769186730261	8.164623	2.8573804
10.205288229207675	8.123108	2.8501067
10.222884832393145	8.09503	2.8451767
10.2404816772839	8.041311	2.8357205
10.258078764304868	8.077563	2.8421054
10.275676093881035	7.990062	2.82667
10.293273666437438	8.018688	2.831729
10.310871482399158	8.027473	2.8332796
10.32846954219134	8.06328	2.8395915
10.346067846239173	8.0767975	2.8419707
10.363666394967908	8.091879	2.8446229
10.38126518880283	8.144965	2.8539386
10.398864228169298	8.160128	2.8565936
10.416463513492713	8.13856	2.852816
10.434063045198531	8.05208	2.8376188
10.451662823712262	8.059039	2.8388448
10.469262849459467	8.100731	2.8461783
10.486863122865758	8.124868	2.8504155
10.504463644356806	8.077849	2.8421557
10.522064414358338	7.9505916	2.8196793
10.539665433296118	7.7839885	2.78998
10.557266701595987	7.70093	2.775055
10.574868219683818	7.700716	2.7750163
10.592469987985552	7.6752934	2.770432
10.610072006927185	7.6183333	2.7601328
10.627674276934751	7.4977646	2.7382047
10.64527679843435	7.3749404	2.7156842
10.662879571852143	7.2211313	2.6872163
10.680482597614331	7.1667576	2.6770802
10.698085876147173	7.0648227	2.6579735
10.715689407876988	6.9538236	2.6370103
10.733293193230146	6.8937564	2.6255963
10.750897232633072	6.785232	2.604848
10.76850152651225	6.7436237	2.5968487
10.786106075294207	6.667428	2.5821364
10.803710879405534	6.5396767	2.557279
10.821315939272877	6.4064627	2.531099
10.83892125532294	6.301007	2.5101807
10.856526827982472	6.2295904	2.4959147
10.874132657678285	6.2647085	2.50294
10.891738744837243	6.248182	2.4996364
10.909345089886271	6.1728344	2.484519
10.926951693252343	6.085368	2.4668539
10.944558555362494	6.038981	2.4574337
10.96216567664381	5.9762497	2.4446368
10.979773057523436	5.8824096	2.4253678
10.997380698428573	5.7880645	2.4058397
11.014988599786477	5.7315235	2.3940601
11.032596762024461	5.7353935	2.3948681
11.050205185569892	5.654969	2.378018
11.067813870850198	5.5530944	2.3565004
11.085422818292859	5.426362	2.3294554
11.10303202832541	5.3621607	2.315634
11.120641501375454	5.380947	2.319687
11.138251237870636	5.282691	2.2984107
11.155861238238671	5.2264214	2.2861369
11.173471502907317	5.171419	2.2740755
11.191082032304402	5.1432257	2.267868
11.208692826857805	5.092241	2.2565994
11.226303886995465	5.032833	2.2433977
11.243915213145371	4.952586	2.2254407
11.261526805735578	4.9039245	2.2144806
11.279138665194196	4.8890047	2.2111094
11.296750791949393	4.81077	2.1933467
11.314363186429393	4.732771	2.1754932
11.331975849062479	4.6903534	2.1657224
11.34958878027699	4.6248164	2.1505387
11.36720198050133	4.581379	2.1404157
11.384815450163948	4.491434	2.1193004
11.402429189693366	4.4443545	2.1081638
11.420043199518153	4.4428587	2.107809
11.437657480066942	63.4491	7.965494
11.455272031768422	85.19028	9.229857
11.472886855051353	107.52791	10.369567
11.490501950344528	99.16128	9.957975
11.508117318076819	84.46754	9.190622
11.52573295867715	45.851173	6.7713494
11.543348872574514	4.136872	2.03393
11.560965060197946	4.0644846	2.0160568
11.57858152197655	4.073203	2.0182178
11.59619825833949	4.0523252	2.0130389
11.613815269715985	4.0299807	2.007481
11.631432556535323	38.49747	6.204633
11.649050119226837	83.00045	9.110458
11.666667958219929	93.39246	9.663978
11.68428607394406	107.63459	10.374709
11.701904466828756	82.407616	9.077864
11.719523137303586	65.24062	8.077167
11.737142085798196	4.492774	2.1196165
11.754761312742286	3.6603198	1.9131962
11.772380818565619	3.6816463	1.9187616
11.790000603698015	3.6625032	1.9137667
11.80762066856935	3.6168985	1.9018146
11.825241013609572	3.5840912	1.8931696
11.842861639248683	3.5587673	1.8864695
11.860482545916748	3.4994597	1.8706843
11.878103734043883	3.4640677	1.8612006
11.895725204060282	3.4423738	1.8553635
11.91334695639619	3.4282603	1.8515562
11.930968991481919	3.4107459	1.8468205
11.948591309747824	3.3346627	1.8261058
11.966213911624347	3.2871046	1.8130374
11.98383679754198	3.2527063	1.803526
12.001459967931268	3.239742	1.7999283
12.019083423222835	3.171346	1.7808273
12.036707163847352	3.171046	1.7807431
12.05433119023556	3.150597	1.7749921
12.071955502818259	3.180546	1.7834085
12.089580102026313	3.1399455	1.7719891
12.107204988290643	3.1595445	1.7775108
12.12483016204224	3.110189	1.7635728
12.142455623712152	3.1310465	1.7694763
12.16008137373149	3.1376932	1.7713535
12.177707412531431	3.14037	1.7721089
12.19533374054321	3.0911016	1.758153
12.212960358198126	3.0643408	1.7505258
12.230587265927545	3.0452974	1.7450781
12.248214464162889	2.98605	1.7280191
12.265841953335649	2.954167	1.718769
12.283469733877375	2.988079	1.7286061
12.301097806219685	2.9991302	1.7317997
12.31872617079425	2.9988477	1.7317182
12.336354828032825	2.9668717	1.722461
12.353983778367205	2.9792616	1.7260538
12.371613022229262	2.9616144	1.7209342
12.389242560050928	2.959948	1.7204499
12.406872392264201	2.9469695	1.716674
12.424502519301143	2.9186423	1.7084035
12.442132941593874	2.9125376	1.7066158
12.459763659574586	2.921952	1.7093718
12.477394673675532	2.9183667	1.7083228
12.49502598432903	2.873404	1.6951118
12.51265759196746	2.815373	1.6779073
12.530289497023267	2.8173816	1.6785058
12.547921699928967	2.8335462	1.6833141
12.565554201117134	2.879532	1.6969184
12.583187001020404	2.837371	1.6844498
12.600820100071486	2.821979	1.6798747
12.618453498703152	2.7652977	1.6629184
12.636087197348235	2.7602468	1.661399
12.65372119643964	2.7680326	1.6637405
12.671355496410326	2.7879045	1.6697019
12.68899009769333	2.8197637	1.6792152
12.706625000721749	2.8386793	1.684838
12.724260205928752	2.9239635	1.7099601
12.741895713747551	2.944902	1.7160716
12.759531524611454	2.9883683	1.7286898
12.777167638953818	2.9658716	1.7221706
12.794804057208072	2.9915128	1.729599
12.812440779807702	3.0328038	1.7414947
12.830077807186271	3.2064512	1.7906567
12.847715139777405	3.2238631	1.795512
12.865352778014795	3.4065306	1.8456789
12.882990722332197	3.5185187	1.8757715
12.90062897316344	3.6109369	1.9002465
12.918267530942412	3.7030299	1.9243258
12.935906396103071	3.5756438	1.8909373
12.953545569079449	3.7498014	1.9364403
12.971185050305628	3.587494	1.8940681
12.988824840215775	3.5895596	1.8946133
13.006464939244115	3.5822747	1.8926898
13.024105347824943	3.4026208	1.8446194
13.041746066392617	3.4948094	1.8694409
13.05938709538157	3.333745	1.8258545
13.077028435226296	3.3736773	1.8367573
13.094670086361363	3.3086796	1.8189776
13.112312049221401	3.2270308	1.7963939
13.129954324241112	3.083809	1.7560776
13.147596911855258	2.8822668	1.697724
13.165239812498685	2.8293302	1.6820613
13.182883026606293	2.7778566	1.6666903
13.200526554613058	2.7519784	1.6589088
13.218170396954017	2.728255	1.651743
13.235814554064284	2.7065632	1.6451635
13.253459026379034	2.6918166	1.6406757
13.271103814333523	2.7239957	1.6504532
13.288748918363058	2.7504797	1.658457
13.306394338903031	2.7432954	1.6562897
13.32404007638889	2.7075272	1.6454566
13.341686131256164	2.696074	1.6419725
13.359332503940449	2.695819	1.6418949
13.376979194877402	2.6869235	1.6391838
13.394626204502751	2.7093782	1.6460189
13.412273533252307	2.7022195	1.6438429
13.429921181561937	2.7075837	1.6454737
13.447569149867581	2.736091	1.6541133
13.465217438605247	2.7504401	1.6584451
13.482866048211022	2.7257104	1.6509726
13.500514979121052	2.7003074	1.6432612
13.518164231771568	2.6651037	1.6325145
13.535813806598844	2.6789362	1.6367456
13.553463704039254	2.6933846	1.6411535
13.571113924529229	2.7026594	1.6439767
13.588764468505275	2.6755335	1.6357058
13.606415336403956	2.6980722	1.642581
13.624066528661917	2.7334824	1.6533246
13.641718045715882	2.8111117	1.676637
13.659369888002635	2.8323185	1.6829493
13.67702205595903	2.864551	1.6924984
13.694674550021993	2.9105546	1.7060348
13.712327370628532	2.9555855	1.7191817
13.729980518215713	3.0540485	1.7475836
13.747633993220681	3.1146023	1.7648236
13.765287796080647	3.1702583	1.7805219
13.7829419272329	3.2028513	1.7896512
13.800596387114801	3.2286506	1.7968446
13.818251176163775	3.2833374	1.8119981
13.835906294817324	3.36845	1.8353337
13.853561743513023	3.4352016	1.8534297
13.871217522688525	3.439845	1.854682
13.888873632781538	3.4490597	1.8571644
13.906530074229858	3.4750268	1.8641424
13.92418684747135	3.5076265	1.8728659
13.941843952943948	3.4813042	1.8658253
13.959501391085665	3.4546847	1.8586782
13.977159162334578	3.3993785	1.8437403
13.994817267128846	3.3438156	1.8286103
14.012475705906693	3.2246377	1.7957276
14.030134479106424	3.1567838	1.776734
14.047793587166414	3.0711796	1.7524781
14.065453030525108	3.0103583	1.7350384
14.083112809621026	2.99374	1.7302427
14.100772924892766	2.9404583	1.7147765
14.118433376778997	2.8783324	1.6965649
14.136094165718458	2.7714028	1.6647531
14.153755292149969	2.6961622	1.6419995
14.171416756512416	2.6653502	1.63259
14.189078559244768	2.5975168	1.6116813
14.20674070078606	2.5630145	1.6009418
14.224403181575408	2.5593636	1.5998011
14.242066002051999	2.556644	1.5989509
14.259729162655093	2.5315423	1.5910821
14.277392663824022	2.4928608	1.5788796
14.295056505998208	2.4420247	1.5626979
14.312720689617128	2.3879943	1.5453136
14.330385215120348	2.3541067	1.5343099
14.348050082947497	2.3792741	1.5424895
14.3657152935383	2.408456	1.5519202
14.383380847332528	2.413635	1.5535878
14.401046744770051	2.39064	1.5461695
14.418712986290798	2.349297	1.5327417
14.436379572334793	2.3365128	1.5285656
14.454046503342123	2.345465	1.531491
14.471713779752946	2.347114	1.5320294
14.489381402007504	2.3539898	1.5342717
14.507049370546113	2.3694558	1.5393037
14.524717685809168	2.37067	1.539698
14.542386348237134	2.3690462	1.5391706
14.560055358270553	2.3607302	1.5364668
14.577724716350051	2.4165592	1.5545286
14.595394422916325	2.4534364	1.5663449
14.61306447841015	2.5048323	1.5826662
14.63073488327237	2.5062482	1.5831134
14.648405637943917	2.504019	1.5824093
14.6660767428658	2.4912434	1.5783674
14.683748198479094	2.525656	1.5892313
14.701420005224954	2.5436378	1.5948786
14.719092163544628	2.5704775	1.6032709
14.73676467387942	2.5989447	1.6121243
14.754437536670727	2.6651525	1.6325295
14.772110752360014	2.660115	1.6309859
14.78978432138882	2.6697786	1.6339457
14.807458244198777	2.6846972	1.6385045
14.82513252123159	2.6513863	1.6283078
14.842807152929028	2.669544	1.6338739
14.860482139732962	2.6505625	1.6280549
14.87815748208531	2.6668317	1.6330436
14.8958331804281	2.6706665	1.6342174
14.91350923520342	2.6194909	1.6184841
14.931185646853438	2.6171043	1.6177467
14.948862415820408	2.6028335	1.6133299
14.966539542546656	2.6368978	1.6238527
14.98421702747459	2.5900111	1.6093512
15.001894871046696	2.6231673	1.6196195
15.019573073705542	2.6500483	1.6278969
15.037251635893766	2.6788597	1.6367222
15.054930558054092	2.699783	1.6431017
15.072609840629323	2.7269783	1.6513565
15.090289484062351	2.8296711	1.6821626
15.107969488796124	3.0704122	1.7522591
15.125649855273691	3.5009131	1.8710728
15.14333058393817	4.018344	2.0045807
15.161011675232768	4.9914794	2.2341619
15.17869312960076	6.383878	2.5266337
15.196374947485506	8.302099	2.8813365
15.214057129330447	11.457188	3.3848467
15.231739675579114	16.201008	4.025048
15.249422586675102	21.339489	4.6194687
15.267105863062092	24.575754	4.957394
15.284789505183847	24.894539	4.989443
15.302473513484218	22.687372	4.7631264
15.320157888407127	18.935019	4.3514385
15.337842630396578	14.602214	3.8212843
15.355527739896656	11.351573	3.3692095
15.37321321735153	8.784256	2.9638245
15.39089906320545	6.393839	2.528604
15.408585277902748	4.749953	2.1794386
15.42627186188783	3.6754985	1.917159
15.443958815605198	3.1280382	1.7686261
15.461646139499424	2.8984766	1.7024913
15.479333834015168	2.7634945	1.6623762
15.497021899597165	2.7076125	1.6454824
15.514710336690234	2.599469	1.6122869
15.53239914573928	2.5533504	1.5979207
15.550088327189297	2.5205872	1.5876358
15.567777881485336	2.512956	1.5852306
15.58546780907256	2.4966497	1.5800791
15.6031581103962	2.4571793	1.5675392
15.620848785901568	2.4511847	1.565626
15.638539836034063	2.454211	1.5665922
15.656231261239173	2.4609056	1.5687274
15.673923061962451	2.4540849	1.5665519
15.691615238649552	2.4365065	1.5609313
15.709307791746202	2.4128683	1.553341
15.727000721698221	2.386077	1.5446931
15.744694028951498	2.392945	1.5469147
15.76238771395202	2.4073112	1.5515512
15.780081777145844	2.4013898	1.5496418
15.797776218979125	2.403935	1.5504628
15.815471039898094	2.3726852	1.5403523
15.833166240349064	2.3497794	1.532899
15.850861820778437	2.3658097	1.5381188
15.868557781632699	2.365526	1.5380267
15.886254123358412	2.3821845	1.5434327
15.903950846402232	2.3628182	1.5371461
15.921647951210897	2.3470068	1.5319943
15.939345438231225	2.3302178	1.5265051
15.957043307910133	2.3247771	1.524722
15.974741560694602	2.3639147	1.5375028
15.992440197031714	2.3794317	1.5425407
16.01013921736862	2.3897552	1.5458833
16.02783862215259	2.381888	1.5433366
16.045538411830933	2.3921933	1.5466717
16.06323858685107	2.3840966	1.544052
16.080939147660512	2.347448	1.5321385
16.09864009470684	2.3367214	1.5286338
16.11634142843774	2.3578298	1.5355227
16.134043149300954	2.3623734	1.5370014
16.15174525774433	2.355202	1.5346668
16.169447754215817	2.3299704	1.526424
16.18715063916342	2.3390954	1.5294101
16.204853913035244	2.3837194	1.5439298
16.222557576279478	2.473578	1.5727613
16.240261629344403	22.456564	4.738836
16.257966072678386	42.976017	6.5556097
16.275670906729868	38.04581	6.1681285
16.293376131947387	2.472083	1.5722859
16.31108174877957	2.495721	1.5797851
16.328787757675133	2.5582163	1.5994425
16.34649415908287	2.5796134	1.6061175
16.364200953451657	2.5607152	1.6002235
16.38190814123048	2.5665028	1.6020309
16.39961572286839	2.5785856	1.6057975
16.41732369881455	2.626027	1.6205021
16.43503206951817	2.6518047	1.6284363
16.45274083542859	2.690212	1.6401865
16.47044999699522	2.7318912	1.6528434
16.488159554667558	2.757617	1.6606075
16.505869508895184	2.8356457	1.6839375
16.523579860127786	2.8655238	1.6927859
16.541290608815117	2.8621857	1.6917995
16.559001755407035	2.888891	1.6996738
16.57671330035348	2.9461544	1.7164365
16.59442524410448	3.0921118	1.7584401
16.61213758711015	3.189475	1.7859101
16.629850329820705	3.2328877	1.7980233
16.647563472686436	3.2861516	1.8127745
16.665277016157724	3.34271	1.828308
16.682990960685053	3.4033275	1.844811
16.70070530671898	3.4433627	1.85563
16.718420054710155	3.4613495	1.8604702
16.736135205109335	3.5019202	1.8713418
16.753850758367335	3.5115862	1.8739227
16.771566714935087	3.558828	1.8864857
16.789283075263597	3.6113498	1.9003552
16.80699983980398	3.7355812	1.9327651
16.82471700900741	3.8187418	1.9541601
16.84243458332518	3.921362	1.9802428
16.860152563208665	4.02133	2.0053253
16.87787094910932	4.0802183	2.019955
16.89558974147871	4.1398644	2.0346656
16.913308940768466	4.1831017	2.0452633
16.931028547430333	4.249156	2.0613482
16.94874856191613	4.275187	2.0676525
16.966468984677785	4.2863374	2.070347
16.98418981616729	4.382854	2.0935266
17.00191105683676	4.4328184	2.1054258
17.019632707138374	4.4603686	2.1119585
17.03735476752442	4.461405	2.1122038
17.05507723844728	4.52839	2.1280015
17.072800120359403	4.5869	2.141705
17.090523413713353	4.604164	2.1457317
17.108247118961785	4.59726	2.1441221
17.125971236557437	4.6133957	2.1478817
17.143695766953133	4.593555	2.143258
17.161420710601806	4.5873394	2.1418076
17.179146067956477	4.583967	2.14102
17.19687183947025	4.5977554	2.1442378
17.21459802559634	4.5722084	2.1382723
17.232324626788028	4.586448	2.1415994
17.25005164349871	4.609319	2.1469326
17.267779076181863	4.668686	2.1607141
17.285506925291074	4.650951	2.1566064
17.30323519127999	4.6368713	2.1533396
17.320963874602384	4.586751	2.1416702
17.33869297571211	4.5632205	2.1361697
17.356422495063114	4.5310783	2.128633
17.37415243310944	4.469843	2.1142004
17.391882790305218	4.437174	2.10646
17.40961356710468	4.439279	2.1069596
17.42734476396215	4.4944324	2.1200078
17.445076381332044	4.483849	2.11751
17.462808419668868	4.557128	2.134743
17.48054087942723	4.6835737	2.1641567
17.498273761061835	5.0225773	2.2411108
17.51600706502747	5.4958677	2.3443267
17.533740791779024	6.2615795	2.5023148
17.551474941771485	7.7563314	2.7850192
17.56920951545993	8.96321	2.9938622
17.586944513299528	11.263611	3.3561304
17.60467993574556	13.035457	3.6104648
17.622415783253373	14.927075	3.8635573
17.64015205627843	16.353275	4.043918
17.657888755276293	17.417091	4.173379
17.675625880702604	17.843155	4.224116
17.69336343301311	17.532701	4.1872067
17.71110141266366	16.731434	4.0904074
17.728839820110178	15.876087	3.9844809
17.746578655808705	14.991923	3.8719406
17.764317920215372	13.418293	3.6630988
17.7820576137864	11.71212	3.4222975
17.79979773697811	9.527633	3.0866864
17.81753829024692	7.537718	2.7454906
17.835279274049356	5.771271	2.402347
17.85302068884201	4.745479	2.178412
17.870762535081607	4.1123075	2.0278826
17.888504813224934	3.794996	1.9480749
17.90624752372891	3.6558096	1.9120171
17.923990667050536	3.6161861	1.9016272
17.941734243646895	3.5324504	1.8794814
17.959478253975185	3.4880054	1.8676202
17.9772226984927	3.4345415	1.8532516
17.994967577656833	3.4392688	1.8545265
18.01271289192506	3.4081767	1.8461248
18.030458641754965	3.3647826	1.8343344
18.04820482760425	3.2879558	1.8132721
18.06595144993067	3.2773817	1.810354
18.083698509192125	3.258444	1.805116
18.101446005846576	3.2457824	1.8016055
18.119193940352105	3.2096612	1.7915528
18.136942313166887	3.154023	1.7759569
18.1546911247492	3.1215599	1.7667936
18.1724403755574	3.1344163	1.7704283
18.19019006604997	3.1369607	1.7711468
18.207940196685467	3.0858905	1.7566704
18.225690767922575	3.0577333	1.7486376
18.243441780220046	3.0253282	1.7393471
18.261193234036764	3.041449	1.743975
18.278945129831676	3.0342073	1.7418976
18.29669746806386	3.055146	1.7478976
18.314450249192483	3.0281088	1.7401462
18.3322034736768	3.0375042	1.7428437
18.349957141976184	3.0405805	1.743726
18.3677112545501	3.0098972	1.7349055
18.385465811858108	3.0099943	1.7349335
18.403220814359884	3.0359874	1.7424085
18.420976262515172	3.0651557	1.7507586
18.43873215678387	3.0993795	1.7605054
18.456488497625923	3.121157	1.7666796
18.474245285501407	3.2024148	1.7895292
18.492002520870486	3.2677467	1.807691
18.50976020419343	3.3012338	1.8169298
18.527518335930615	3.6075397	1.8993524
18.545276916542516	4.183602	2.0453856
18.563035946489688	4.338539	2.082916
18.580795426232832	4.772721	2.1846557
18.598555356232698	4.6791296	2.1631296
18.616315736950185	4.9817543	2.2319844
18.63407656884626	4.6510057	2.156619
18.65183785238201	4.815657	2.1944606
18.669599588018617	4.586043	2.1415048
18.68736177621737	4.5618706	2.1358535
18.705124417439652	4.5292606	2.128206
18.72288751214696	4.3569508	2.087331
18.740651060800886	4.4852943	2.1178513
18.758415063863115	4.19906	2.0491607
18.77617952179546	4.382425	2.093424
18.793944435059814	4.2309484	2.056927
18.811709804118184	4.2406344	2.0592802
18.829475629432675	4.184167	2.0455236
18.8472419114655	3.9479716	1.9869503
18.86500865067897	4.014033	2.0035052
18.88277584753551	3.6926634	1.9216304
18.90054350249763	3.7373905	1.9332331
18.918311616027957	3.4365726	1.8537995
18.936080188589226	3.3311121	1.8251334
18.953849220644265	3.0382762	1.7430651
18.971618712656007	2.8642585	1.692412
18.9893886650875	2.8029032	1.6741873
19.007159078401887	7.9705806	2.8232217
19.024929953062408	32.876713	5.733822
19.042701289532435	32.82576	5.729377
19.060473088275405	25.399736	5.039815
19.07824534975489	2.6531374	1.6288455
19.096018074434568	2.6384232	1.6243224
19.113791262778197	2.6198728	1.6186022
19.13156491524966	2.6158547	1.6173605
19.149339032312945	2.6577039	1.6302465
19.167113614432136	2.6404324	1.6249408
19.184888662071433	2.5905116	1.6095066
19.202664175695123	2.573928	1.6043466
19.220440155767623	2.5423937	1.5944885
19.238216602753447	2.5195692	1.5873151
19.2559935171172	2.484144	1.5761167
19.27377089932361	2.4745839	1.573081
19.291548749837514	2.4931066	1.5789574
19.309327069123835	2.4737184	1.5728059
19.32710585764763	2.516242	1.5862666
19.344885115874032	2.5322027	1.5912896
19.362664844268313	2.5568032	1.5990007
19.380445043295822	2.5277662	1.589895
19.39822571342203	2.5138037	1.585498
19.41600685511252	2.489965	1.5779623
19.43378846883297	2.4796405	1.5746875
19.451570555049173	2.4607184	1.5686678
19.469353114227037	2.4313707	1.5592853
19.48713614683254	2.4399247	1.5620258
19.50491965333182	2.4314167	1.5593001
19.52270363419109	2.4635832	1.5695806
19.540488089876686	2.4683528	1.5710993
19.55827302085503	2.4618979	1.5690436
19.576058427592674	2.4380248	1.5614176
19.593844310556282	2.4405153	1.5622149
19.611630670212598	2.4829242	1.5757297
19.629417507028506	2.4816449	1.5753237
19.64720482147098	2.4414577	1.5625165
19.6649926140071	2.4293408	1.5586343
19.682780885104084	2.4510043	1.5655683
19.70056963522921	2.4803286	1.5749059
19.718358864849908	2.4791656	1.5745366
19.7361485744337	2.51491	1.5858468
19.753938764448215	2.5366561	1.5926883
19.771729435361202	2.5138297	1.5855061
19.789520587640506	2.4779854	1.5741618
19.807312221754092	2.461289	1.5688496
19.825104338170043	2.4746838	1.5731127
19.842896937356517	2.4606872	1.5686578
19.860690019781824	2.4722242	1.5723308
19.87848358591436	2.4754052	1.5733421
19.896277636222635	2.5012472	1.5815332
19.914072171175278	2.505011	1.5827227
19.931867191241015	2.4994066	1.5809512
19.94966269688869	2.467327	1.5707728
19.967458688587264	2.430271	1.5589327
19.985255166805807	2.4576468	1.5676883
20.00305213201348	2.5021396	1.5818152
20.020849584679578	2.4807844	1.5750506
20.038647525273507	2.4583657	1.5679176
20.05644595426477	2.426697	1.557786
20.07424487212299	2.4132397	1.5534606
20.092044279317903	2.3973308	1.5483316
20.109844176319353	2.4134328	1.5535227
20.127644563597304	2.418607	1.5551871
20.145445441621817	2.4235177	1.5567652
20.16324681086307	2.410153	1.5524668
20.181048671791373	2.3754346	1.5412445
20.198851024877122	2.3246531	1.5246813
20.216653870590836	2.3289487	1.5260893
20.234457209403146	2.3609896	1.5365512
20.252261041784802	2.3840897	1.5440497
20.270065368206662	2.3865693	1.5448525
20.287870189139685	2.392025	1.5466173
20.305675505054968	2.3837903	1.5439528
20.323481316423702	2.340486	1.5298647
20.341287623717207	2.3282218	1.5258511
20.359094427406884	2.344298	1.53111
20.376901727964288	2.3613558	1.5366703
20.39470952586107	2.3666923	1.5384058
20.41251782156899	2.3825896	1.543564
20.430326615559935	2.368618	1.5390315
20.448135908305886	2.3646984	1.5377576
20.465945700278965	2.331688	1.5269866
20.483755991951384	2.3122528	1.5206094
20.50156678379548	2.2940807	1.5146223
20.519378076283708	2.3319209	1.5270628
20.537189869888635	2.328531	1.5259525
20.55500216508294	2.3425105	1.5305262
20.572814962339415	2.3020957	1.5172658
20.59062826213098	2.31587	1.5217983
20.60844206493066	2.3302784	1.5265249
20.626256371211593	2.322303	1.5239104
20.644071181447032	2.2792213	1.509709
20.66188649611036	2.2444131	1.4981365
20.67970231567506	2.2952747	1.5150164
20.697518640614742	2.3239765	1.5244594
20.715335471403122	2.3096588	1.5197562
20.73315280851404	2.2772222	1.5090468
20.750970652421447	2.269225	1.5063946
20.768789003599412	2.2777662	1.509227
20.786607862522136	2.3232822	1.5242317
20.8044272296639	2.2928545	1.5142175
20.82224710549913	2.2622004	1.5040613
20.84006749050237	2.2406847	1.4968917
20.857888385148268	3.8237565	1.9554428
20.8757097899116	45.937386	6.7777123
20.893531705267254	64.78569	8.048956
20.911354131690224	83.82966	9.155854
20.92917706965566	69.08911	8.311986
20.94700051963877	50.146946	7.081451
20.96482448211493	29.396362	5.421841
20.982648957559622	4.1272593	2.0315657
21.00047394644843	2.2072458	1.4856802
21.01829944925707	2.2123687	1.4874034
21.036125466461375	2.2034657	1.4844075
21.053951998537297	2.219992	1.4899638
21.071779045960906	2.2235966	1.4911729
21.089606609208378	2.2619941	1.5039927
21.10743468875603	2.2562008	1.5020655
21.12526328508028	2.209766	1.4865282
21.143092398657675	2.1775262	1.4756444
21.16092202996488	2.193853	1.481166
21.17875217947867	2.226534	1.4921575
21.19658284767596	2.2183363	1.489408
21.21441403503377	2.2125196	1.487454
21.232245742029225	2.2186959	1.4895288
21.2500779691396	2.2017078	1.4838153
21.26791071684227	2.1973855	1.4823581
21.28574398561475	2.2148805	1.4882474
21.30357777593465	2.1961899	1.4819547
21.321412088279704	2.1768556	1.4754171
21.339246923127792	2.1432257	1.463976
21.357082280956888	2.115072	1.4543287
21.3749181622451	2.0975354	1.448287
21.392754567470647	2.0947087	1.4473108
21.41059149711187	2.0857399	1.4442091
21.42842895164726	2.0953724	1.4475402
21.446266931555378	2.0992665	1.4488846
21.464105437314945	2.1095808	1.4524395
21.481944469404798	2.1369557	1.461833
21.49978402830388	2.1421332	1.4636028
21.51762411449127	2.1191268	1.4557221
21.53546472844617	2.0933425	1.4468389
21.553305870647876	2.0590227	1.4349295
21.571147541575865	2.048946	1.431414
21.58898974170967	2.0402052	1.4283575
21.60683247152899	2.063708	1.4365612
21.62467573151363	2.0850422	1.4439676
21.642519522143523	2.0504923	1.431954
21.660363843898722	2.0381324	1.4276317
21.6782086972594	2.069324	1.4385145
21.696054082705864	2.0543776	1.43331
21.713900000718535	2.0107622	1.4180135
21.73174645177795	2.0042808	1.4157263
21.749593436364794	2.048788	1.4313588
21.767440954959845	2.0633416	1.4364337
21.785289008044032	2.046222	1.4304621
21.803137596098388	2.020198	1.4213368
21.820986719604086	2.0031278	1.415319
21.838836379042412	1.996773	1.4130722
21.85668657489478	1.9858165	1.40919
21.87453730764273	1.999092	1.4138925
21.892388577767914	1.9969951	1.4131508
21.91024038575213	2.0050776	1.4160076
21.928092732077285	1.9859023	1.4092205
21.945945617225426	1.9823524	1.4079604
21.963799041678694	1.9956459	1.4126734
21.981653005919398	31.367926	5.6007075
21.999507510429943	78.15549	8.840559
22.01736255569286	73.10181	8.549959
22.035218142190818	4.161554	2.0399888
22.05307427040661	1.974885	1.405306
22.07093094082315	1.9938709	1.4120449
22.088788153923474	1.99572	1.4126996
22.106645910190746	2.0048175	1.4159157
22.12450421010827	1.9910308	1.4110389
22.142363054159464	1.9700058	1.403569
22.16022244282787	1.9607716	1.4002756
22.178082376597164	1.9464569	1.3951548
22.195942855951145	1.9573255	1.3990445
22.213803881373742	1.9368492	1.3917073
22.231665453349002	1.9495538	1.3962642
22.24952757236111	1.9469836	1.3953435
22.26739023889438	1.9513925	1.3969225
22.28525345343323	1.9208261	1.3859386
22.30311721646225	1.9404035	1.3929837
22.320981528466113	1.95998	1.3999928
22.33884638992964	1.9749945	1.405345
22.356711801337788	1.9588722	1.3995972
22.37457776317561	1.9328246	1.3902606
22.392444275928337	1.9370582	1.3917824
22.410311340081282	1.9120584	1.382772
22.428178956119904	1.8838791	1.3725448
22.446047124529805	1.8651103	1.3656904
22.46391584579669	1.9277569	1.3884369
22.481785120406414	1.9978973	1.4134699
22.49965494884496	2.0322735	1.4255784
22.51752533159841	1.9716712	1.404162
22.53539626915302	1.9353671	1.3911747
22.553267761995137	1.9234698	1.3868921
22.571139810611264	1.9029655	1.3794801
22.589012415488025	1.8938572	1.3761748
22.60688557711216	1.9093827	1.3818041
22.624759295970566	1.9420358	1.3935695
22.642633572550263	1.9374766	1.3919327
22.660508407338362	1.9129324	1.383088
22.67838380082217	1.9328572	1.3902724
22.696259753489077	1.9550166	1.3982191
22.714136265826614	1.93684	1.391704
22.73201333832246	1.9268737	1.3881187
22.74989097146439	1.9102794	1.3821286
22.76776916574035	1.922337	1.3864837
22.785647921638393	1.8802979	1.3712395
22.803527239646712	1.8649782	1.3656421
22.82140712025363	1.8652145	1.3657285
22.839287563947593	1.8679017	1.366712
22.85716857121719	1.8488376	1.3597196
22.875050142551135	1.8544282	1.3617738
22.892932278438277	1.8623602	1.3646832
22.910814979367604	1.9027835	1.3794142
22.928698245828222	1.9179864	1.3849138
22.946582078309387	1.9224952	1.3865408
22.96446647730047	1.8909093	1.3751034
22.98235144329098	1.8781496	1.370456
23.000236976770562	1.8866208	1.3735431
23.018123078229	1.8627919	1.3648413
23.03600974815619	1.8850687	1.372978
23.053896987042194	1.8671836	1.3664492
23.071784795377173	1.9007295	1.3786695
23.08967317365145	1.874215	1.3690197
23.10756212235546	1.8688571	1.3670615
23.125451641979787	1.8778125	1.370333
23.143341733015134	1.9235028	1.386904
23.161232395952357	1.9103626	1.3821586
23.179123631282426	1.8863993	1.3734626
23.197015439496468	1.8040835	1.3431617
23.214907821085717	1.796739	1.3404249
23.23280077654157	1.8569136	1.3626862
23.250694306355538	1.9010452	1.378784
23.268588411019277	1.921685	1.3862485
23.28648309102458	1.9273497	1.3882902
23.304378346863356	1.9098607	1.3819771
23.322274179027676	1.915359	1.383965
23.340170588009723	1.9547474	1.3981228
23.358067574301852	1.9761329	1.4057499
23.37596513839651	1.9572712	1.3990251
23.39386328078629	1.9167906	1.384482
23.411762001963947	1.9151939	1.3839053
23.429661302422353	1.9074298	1.3810973
23.4475611826545	1.8724947	1.3683913
23.46546164315356	1.8810154	1.3715012
23.48336268441279	1.9073809	1.3810797
23.501264306925638	1.9517937	1.3970661
23.51916651118564	1.9658973	1.4021046
23.537069297686497	1.9499934	1.3964217
23.554972666922037	1.9416728	1.3934392
23.57287661938623	1.9182339	1.3850032
23.59078115557318	1.8943262	1.3763453
23.608686275977128	1.8660845	1.366047
23.62659198109246	1.8757758	1.3695897
23.6444982714137	1.8899066	1.3747388
23.66240514743549	1.8760697	1.369697
23.68031260965263	1.920341	1.3857636
23.698220658560068	1.9465188	1.395177
23.716129294652845	1.939744	1.3927469
23.7340385184262	1.8997797	1.378325
23.75194833037546	1.9060285	1.38059
23.769858730996123	1.9212767	1.3861012
23.78776972078382	1.9349195	1.3910139
23.80568130023431	1.9101048	1.3820654
23.823593469843495	1.8897167	1.3746697
23.841506230107424	1.8208289	1.349381
23.859419581522275	1.8514035	1.3606629
23.87733352458438	1.8916893	1.375387
23.89524805979019	1.9072626	1.3810368
23.913163187636318	1.9243006	1.3871917
23.931078908619508	1.9079313	1.3812789
23.948995223236633	1.9393115	1.3925916
23.966912131984735	1.9669858	1.4024928
23.98482963536096	2.0404837	1.428455
24.002747733862616	2.0764122	1.4409761
24.020666427987155	2.0685554	1.4382473
24.038585718232156	2.1010106	1.4494863
24.056505605095353	2.055698	1.4337705
24.074426089074617	2.0366554	1.4271144
24.092347170667946	1.9997193	1.4141144
24.110268850373515	2.0204887	1.4214389
24.128191128689586	2.06206	1.4359875
24.146114006114626	2.0619323	1.435943
24.164037483147187	2.089867	1.4456372
24.181961560286005	2.1097388	1.452494
24.199886238029926	2.0946999	1.4473078
24.21781151687797	2.0640492	1.43668
24.235737397329274	2.0184293	1.4207144
24.253663879883135	1.9985557	1.4137028
24.271590965038975	2.0213706	1.4217491
24.289518653296376	2.08465	1.4438317
24.30744694515505	2.0870082	1.4446481
24.32537584111486	2.035195	1.4266026
24.34330534167581	1.9892223	1.4103979
24.361235447338046	1.980493	1.4072999
24.379166158601876	2.0115292	1.4182839
24.39709747596772	2.0160944	1.4198924
24.41502939993615	1.9807373	1.4073867
24.432961931007917	1.9614239	1.4005084
24.450895069683856	1.94863	1.3959334
24.468828816465	1.968634	1.4030802
24.4867631718525	1.963983	1.4014218
24.504698136347656	1.9215145	1.3861871
24.52263371045192	1.8878878	1.3740044
24.540569894666874	1.9236182	1.3869456
24.558506689494266	1.94017	1.3928999
24.57644409543597	1.9276484	1.3883978
24.594382112994012	1.9159353	1.3841732
24.61232074267057	1.9110206	1.3823967
24.630259984967953	1.9428573	1.3938642
24.64819984038863	1.9610196	1.4003642
24.66614030943522	1.9586538	1.3995191
24.684081392610462	1.9557239	1.398472
24.702023090417274	1.9503129	1.396536
24.7199654033587	1.9436321	1.394142
24.737908331937927	1.9423155	1.3936697
24.755851876658305	1.9589682	1.3996314
24.773796038023324	1.979791	1.4070505
24.79174081653661	2.0357256	1.4267886
24.809686212701962	2.0432844	1.429435
24.827632227023294	2.099827	1.449078
24.8455788600047	2.1086044	1.4521035
24.8635261121504	2.088304	1.4450965
24.88147398396475	2.0164983	1.4200346
24.899422475952303	2.062452	1.436124
24.917371588617698	2.0914724	1.4461924
24.935321322465768	2.1374283	1.4619946
24.953271678001478	2.250055	1.5000184
24.97122265572994	2.5059528	1.5830202
24.989174256156414	2.8484929	1.6877478
25.00712647978632	3.3565886	1.8320996
25.02507932712521	3.9348478	1.9836451
25.043032798678798	4.530598	2.1285203
25.060986894952933	5.210045	2.2825522
25.078941616453637	6.004715	2.450452
25.096896963687055	7.044223	2.6540954
25.114852937159508	8.228313	2.8685038
25.132809537377444	8.601021	2.9327497
25.150766764847468	8.434675	2.9042513
25.168724620076347	7.721282	2.7787194
25.186683103570985	6.6916027	2.5868132
25.204642215838426	5.546071	2.3550098
25.222601957385894	4.1307197	2.0324173
25.24056232872074	3.1172912	1.7655852
25.25852333035048	2.5420938	1.5943944
25.276484962782778	2.2365232	1.4955009
25.294447226525435	2.1337373	1.4607317
25.312410122086423	2.0573533	1.4343476
25.330373649973843	1.9308758	1.3895595
25.348337810695988	1.8644739	1.3654574
25.366302604761245	1.8577935	1.363009
25.384268032678207	1.881813	1.371792
25.40223409495558	1.9016548	1.3790051
25.420200792102257	1.9173688	1.3846909
25.438168124627246	1.8961446	1.3770057
25.45613609303974	1.9271193	1.3882072
25.474104697849057	1.9178193	1.3848535
25.492073939564698	1.8819593	1.3718452
25.510043818696285	1.8687917	1.3670375
25.528014335753614	1.848834	1.3597183
25.54598549124664	1.844272	1.3580397
25.56395728568544	1.8720163	1.3682165
25.58192971958028	1.8947667	1.3765053
25.59990279344156	1.8739561	1.3689252
25.617876507779833	1.8452117	1.3583857
25.635850863105826	1.8286042	1.3522589
25.653825859930386	1.8443944	1.3580848
25.671801498764548	1.8597982	1.3637441
25.68977778011949	1.8339671	1.3542404
25.707754704506524	1.8023719	1.3425244
25.725732272437153	1.7724773	1.3313441
25.743710484423012	1.762879	1.3277346
25.761689340975888	1.8000791	1.3416703
25.77966884260774	1.8696715	1.3673593
25.797648989830662	1.8878931	1.3740063
25.815629783156922	1.8403022	1.3565774
25.83361122309895	1.7994019	1.3414179
25.85159331016929	1.7754574	1.3324629
25.869576044880695	1.7574193	1.3256769
25.887559427746034	1.7664264	1.3290697
25.90554345927836	1.7759539	1.3326492
25.92352813999086	1.7732226	1.331624
25.94151347039689	1.7897317	1.3378086
25.959499451009965	1.8272307	1.351751
25.97748608234374	1.8295543	1.3526102
25.995473364912062	1.8220245	1.3498238
26.013461299228904	1.7628819	1.3277357
26.03144988580839	1.7609767	1.3270179
26.04943912516483	1.78579	1.3363345
26.067429017812675	1.834643	1.3544899
26.085419564266537	1.8425993	1.3574238
26.103410765041186	1.8328785	1.3538384
26.12140262065155	1.7854191	1.3361957
26.139395131612723	1.752949	1.3239897
26.157388298439948	1.7298645	1.3152431
26.17538212164861	1.7475494	1.3219491
26.193376601754295	1.7651008	1.328571
26.211371739272714	1.8259064	1.351261
26.229367534719746	1.8725606	1.3684154
26.247363988611433	1.8862598	1.3734118
26.26536110146397	1.8529441	1.361229
26.283358873793727	1.8340609	1.3542751
26.301357306117204	1.7919616	1.3386416
26.319356398951104	1.789704	1.3377981
26.33735615281224	1.8080623	1.344642
26.35535656821762	1.8424038	1.3573518
26.373357645684404	1.8592762	1.3635528
26.39135938572991	1.8627673	1.3648324
26.409361788871614	1.8784096	1.3705509
26.427364855627165	1.8706201	1.3677062
26.445368586514352	1.8317127	1.3534079
26.46337298205115	1.7927037	1.3389189
26.48137804275568	1.7760175	1.3326731
26.499383769146217	1.7714428	1.3309556
26.517390161741215	1.7233609	1.3127685
26.53539722105928	1.7098017	1.3075938
26.553404947619182	1.740941	1.3194473
26.571413341939856	1.8344235	1.354409
26.589422404540397	1.8608332	1.3641236
26.60743213594006	1.8428744	1.3575251
26.62544253665827	1.8036793	1.3430113
26.64345360721459	1.801865	1.3423357
26.66146534812879	1.8480539	1.3594315
26.679477759920758	1.8647249	1.3655493
26.69749084311057	1.8585273	1.3632782
26.71550459821847	1.873364	1.3687088
26.733519025764842	1.8455248	1.358501
26.751534126270258	1.7964613	1.3403213
26.769549900255434	1.7577378	1.3257971
26.787566348241267	1.7681788	1.3297288
26.80558347074881	1.8005008	1.3418274
26.823601268299267	1.8431524	1.3576275
26.841619741414036	1.8111495	1.3457896
26.85963889061465	1.774969	1.3322796
26.877658716422832	1.815973	1.3475804
26.89567921936045	1.7844509	1.3358334
26.913700399949544	1.7260569	1.3137949
26.93172225871233	1.7412006	1.3195456
26.949744796171174	1.7562816	1.3252478
26.967768012848605	1.7322264	1.3161407
26.98579190926733	1.7399188	1.3190598
27.003816485950225	1.8153342	1.3473434
27.021841743420318	1.775283	1.3323975
27.039867682200814	1.7678487	1.3296047
27.057894302815072	1.7908293	1.3382187
27.07592160578664	1.8385985	1.3559493
27.0939495916392	1.8516916	1.3607688
27.111978260896635	1.8385788	1.355942
27.13000761408296	1.8940324	1.3762385
27.148037651722397	1.8940396	1.3762411
27.166068374339304	1.9148487	1.3837806
27.184099782458215	1.8631191	1.3649613
27.20213187660384	1.81333	1.3465995
27.22016465730105	1.785345	1.336168
27.23819812507487	1.8292959	1.3525146
27.256232280450533	1.7914557	1.3384527
27.274267123953383	1.765013	1.328538
27.292302656108987	1.7864883	1.3365958
27.31033887744306	1.8030146	1.3427638
27.32837578848146	1.8236256	1.3504168
27.34641338975026	1.854011	1.3616208
27.364451681775673	1.8808243	1.3714315
27.382490665084074	1.8388513	1.3560425
27.400530340202046	1.7593163	1.3263922
27.41857070765629	1.7499568	1.3228593
27.436611767973726	1.7167088	1.3102323
27.454653521681404	1.7232594	1.3127297
27.472695969306564	1.7176118	1.3105769
27.490739111376627	1.7235792	1.3128515
27.508782948419153	1.7693915	1.3301848
27.526827480961902	1.7653474	1.3286637
27.54487270953279	1.7557414	1.3250439
27.562918634659898	1.7734936	1.3317258
27.580965256871508	1.7267407	1.3140551
27.599012576696026	1.7080871	1.306938
27.617060594662068	1.7419981	1.3198477
27.63510931129842	1.8089964	1.3449894
27.65315872713401	1.8233371	1.35031
27.67120884269797	1.8460287	1.3586863
27.68925965851958	1.8390235	1.356106
27.707311175128307	1.8300608	1.3527974
27.725363393053787	1.8389786	1.3560895
27.74341631282583	1.8765049	1.3698558
27.7614699349744	1.8521748	1.3609463
27.77952426002968	1.9282815	1.3886257
27.797579288521973	2.0381088	1.4276235
27.815635020981784	2.4805472	1.5749753
27.83369145793979	2.5309706	1.5909024
27.85174859992682	2.3731	1.5404869
27.869806447473923	2.2733154	1.5077518
27.887865001112267	1.9774419	1.4062154
27.905924261373233	1.8073564	1.3443795
27.92398422878836	1.7896942	1.3377945
27.94204490388936	1.8552127	1.362062
27.96010628720813	1.9074651	1.3811101
27.978168379276728	1.8281574	1.3520937
27.9962311806274	1.8151762	1.3472848
28.014294691792568	1.8199091	1.34904
28.0323589133048	1.850277	1.3602488
28.050423845696887	1.8737286	1.3688421
28.068489489501758	1.864261	1.3653795
28.086555845252523	1.8684443	1.3669105
28.104622913482487	1.9035283	1.3796841
28.122690694725115	1.9217404	1.3862685
28.14075918951405	1.8803319	1.371252
28.15882839838312	1.8732014	1.3686495
28.176898321866304	1.8931055	1.3759017
28.1949689604978	1.8599004	1.3637817
28.213040314811945	1.8246398	1.3507923
28.23111238534327	1.8231735	1.3502494
28.249185172626493	1.9374487	1.3919227
28.267258677196473	1.9295229	1.3890727
28.285332899588294	1.8958608	1.3769026
28.303407840337172	1.9072407	1.3810289
28.321483499978545	1.943342	1.394038
28.33955987904799	1.9440347	1.3942864
28.357636978081285	1.9375986	1.3919765
28.37571479761439	1.9584919	1.3994613
28.393793338183425	1.9162267	1.3842784
28.41187260032469	1.9026088	1.3793509
28.429952584574686	1.9710633	1.4039456
28.448033291470065	2.0233212	1.4224349
28.46611472154769	1.9778644	1.4063656
28.484196875344566	1.9382937	1.3922262
28.502279753397914	1.9646019	1.4016426
28.52036335624511	1.9967321	1.4130577
28.538447684423716	1.9886055	1.4101793
28.556532738471482	1.9711723	1.4039844
28.574618518926325	1.9627427	1.4009792
28.59270502632635	1.9244964	1.3872622
28.61079226120985	1.9787976	1.4066974
28.628880224115274	1.9737433	1.4048997
28.646968915581287	1.9961289	1.4128443
28.66505833614671	2.0434363	1.4294881
28.68314848635055	2.061284	1.4357172
28.701239366732004	2.0656636	1.4372417
28.71933097783044	2.0583146	1.4346827
28.737423320185403	2.102509	1.4500031
28.75551639433665	2.111614	1.4531393
28.773610200824074	2.1189928	1.4556761
28.791704740187793	2.160039	1.4697071
28.80980001296809	2.20763	1.4858096
28.827896019705413	2.2550368	1.501678
28.845992760940433	2.2980957	1.5159471
28.86409023721397	2.2736418	1.5078601
28.88218844906704	2.2029033	1.4842181
28.900287397040845	2.1439886	1.4642365
28.918387081676755	2.1908264	1.480144
28.936487503516343	2.2892864	1.5130388
28.954588663101365	2.3249316	1.5247726
28.97269056097374	2.2798786	1.5099267
28.990793197675597	2.30677	1.5188055
29.00889657374923	2.3696985	1.5393825
29.027000689737125	2.3510034	1.5332983
29.04510554618196	2.3275523	1.5256318
29.06321114362659	2.3687868	1.5390863
29.08131748261405	2.4057946	1.5510625
29.099424563687567	2.4510443	1.5655812
29.11753238739057	2.4682965	1.5710813
29.13564095426663	2.465098	1.570063
29.15375026485954	2.4974933	1.580346
29.171860319713275	2.6266131	1.620683
29.18997111937199	2.7104845	1.6463549
29.20808266438002	2.6776342	1.6363479
29.226194955281898	2.715059	1.6477436
29.244307992622335	2.869353	1.6939164
29.26242177694624	2.961704	1.7209603
29.2805363087987	2.9411972	1.7149919
29.29865158872498	2.9314072	1.7121353
29.316767617270557	2.8941474	1.7012194
29.334884394981064	2.9108026	1.7061075
29.353001922402367	3.0015814	1.7325072
29.37112020008047	3.077285	1.7542192
29.389239228561596	3.1725137	1.7811551
29.407359008392152	3.321431	1.8224794
29.42547954011872	3.686764	1.9200948
29.44360082428809	4.3522034	2.0861936
29.46172286144722	5.488182	2.342687
29.479845652143283	7.21738	2.6865182
29.497969196923606	9.507508	3.0834248
29.516093496335728	12.162317	3.4874513
29.5342185509274	15.15828	3.8933637
29.55234436124651	17.61104	4.196551
29.570470927841175	18.826403	4.33894
29.588598251259686	18.216146	4.268038
29.60672633205055	16.7079	4.0875297
29.624855170762405	14.354527	3.7887368
29.642984767944146	11.435756	3.3816795
29.66111512414481	8.699513	2.9494936
29.67924623991366	6.4574203	2.5411456
29.697378115800138	4.94543	2.2238321
29.71551075235387	4.002832	2.0007079
29.733644150124675	3.61475	1.9012495
29.751778309662576	3.4523098	1.8580393
29.769913231517766	3.3239427	1.8231683
29.78804891624066	3.2918122	1.8143352
29.806185364381818	3.3257904	1.8236749
29.82432257649206	3.395845	1.8427819
29.842460553122333	3.3175313	1.8214091
29.86059929482382	3.246606	1.8018341
29.878738802147872	3.2713509	1.8086876
29.896879075646048	3.3056877	1.818155
29.915020115870114	3.2865987	1.8128979
29.933161923371976	3.2455866	1.8015512
29.951304498703777	3.1854167	1.7847736
29.969447842417857	3.1400776	1.7720264
29.987591955066733	3.1464052	1.773811
30.005736837203123	3.1627593	1.7784148
30.023882489379943	3.123891	1.7674533
30.04202891215028	3.1046774	1.7620095
30.060176106067455	3.195101	1.7874845
30.078324071684946	3.162255	1.7782731
30.09647280955646	3.0594902	1.7491399
30.114622320235863	3.1052139	1.7621617
30.132772604277257	3.1439326	1.7731138
30.1509236622349	3.1479583	1.7742486
30.16907549466328	3.139181	1.7717733
30.18722810211705	3.1005316	1.7608327
30.205381485151097	3.0775433	1.7542928
30.22353564432045	3.0775821	1.7543039
30.241690580180403	3.0452552	1.7450659
30.25984629328638	2.9991565	1.7318072
30.278002784194037	2.9239335	1.7099513
30.296160053459246	2.9049582	1.7043939
30.314318101638033	2.9038641	1.7040728
30.332476929286646	2.9221306	1.709424
30.35063653696153	2.9615412	1.7209129
30.368796925219307	2.9498658	1.7175174
30.386958094616844	2.8934546	1.7010157
30.40512004571115	2.881215	1.6974143
30.423282779059463	2.9482894	1.7170583
30.441446295219233	2.8566298	1.6901567
30.459610594748067	2.7942414	1.6715984
30.47777567820382	2.801101	1.673649
30.495941546144504	2.8043933	1.6746323
30.51410819912835	2.8028352	1.674167
30.532275637713795	2.7844224	1.6686589
30.55044386245946	2.76175	1.6618514
30.56861287392416	2.8327475	1.6830767
30.586782672666956	2.8948214	1.7014174
30.604953259247047	2.8639054	1.6923077
30.623124634223885	2.845537	1.6868719
30.641296798157075	2.8558362	1.689922
30.659469751606462	2.8447921	1.6866511
30.677643495132074	2.7761018	1.6661638
30.695818029294152	2.7652318	1.6628987
30.713993354653116	2.7223306	1.6499487
30.73216947176962	2.748069	1.6577301
30.75034638120448	2.7193909	1.6490576
30.768524083518756	2.72608	1.6510844
30.786702579273673	2.7553587	1.6599274
30.80488186903069	2.8687034	1.6937248
30.82306195335144	2.9777968	1.7256294
30.841242832797782	3.142452	1.7726963
30.85942450793176	3.3951507	1.8425934
30.877606979315637	3.7289119	1.9310391
30.895790247511883	4.1315007	2.0326092
30.913974313083134	4.676749	2.1625793
30.932159176592283	4.9689627	2.229117
30.95034483860237	4.9343147	2.2213318
30.968531299676698	4.674312	2.1620157
30.98671856037873	4.3702626	2.0905173
31.00490662127215	3.9202795	1.9799696
31.023095482920848	3.4470303	1.8566179
31.04128514588892	3.0191631	1.7375739
31.059475610740662	2.762567	1.6620972
31.07766687804056	2.5757263	1.6049069
31.09585894835335	2.4373107	1.5611888
31.11405182224393	2.4166415	1.554555
31.132245500277417	2.4566925	1.567384
31.15043998301914	2.4254792	1.557395
31.168635271034628	2.427729	1.5581172
31.18683136488964	2.4564617	1.5673103
31.20502826515008	2.3918655	1.5465657
31.223225972382135	2.3829584	1.5436834
31.241424487152155	2.3846526	1.544232
31.259623810026692	2.434824	1.5603923
31.27782394157253	2.4630506	1.5694109
31.296024882356644	2.4034636	1.5503109
31.314226632946237	2.37481	1.5410419
31.332429193908684	2.362854	1.5371578
31.350632565811598	2.3445866	1.5312043
31.368836749222787	2.3926163	1.5468084
31.387041744710295	2.4200337	1.5556457
31.40524755284232	2.4698477	1.5715749
31.423454174187317	2.4864037	1.5768335
31.441661609313922	2.4537554	1.5664468
31.459869858791002	2.4094613	1.552244
31.478078923187628	2.3698714	1.5394386
31.496288803073064	2.3278952	1.5257441
31.514499499016807	2.3179855	1.5224932
31.532711011588546	2.399299	1.548967
31.550923341358178	2.3876595	1.5452054
31.56913648889584	2.2396603	1.4965495
31.587350454771844	2.2322967	1.4940872
31.605565239556732	2.302353	1.5173507
31.62378084382127	2.3569217	1.535227
31.641997268136382	2.3617616	1.5368024
31.660214513073274	2.2445703	1.498189
31.67843257920331	2.1186543	1.4555597
31.6966514670981	2.1255057	1.4579114
31.71487117732944	2.2164783	1.4887842
31.733091710469346	2.24937	1.4997901
31.751313067090052	2.3046775	1.5181165
31.769535247764008	2.3186963	1.5227265
31.787758253063878	2.2156897	1.4885193
31.805982083562526	2.1383088	1.4622958
31.824206739833024	2.20123	1.4836543
31.84243222244869	2.2337441	1.4945716
31.860658531983013	2.2457836	1.4985938
31.878885669009737	2.2751315	1.508354
31.897113634102784	2.3704605	1.5396299
31.91534242783632	2.3400111	1.5297095
31.933572050784694	2.3026679	1.5174544
31.951802503522508	2.2447026	1.4982332
31.970033786624548	2.2228723	1.49093
31.988265900665834	2.2252195	1.491717
32.006498846221575	2.228855	1.492935
32.02473262386724	2.2209976	1.4903011
32.04296723417845	2.2433672	1.4977875
32.0612026777311	2.1964586	1.4820454
32.07943895510129	2.110644	1.4528056
32.097676066865304	2.1212497	1.456451
32.115914013599685	2.1503782	1.4664168
32.13415279588115	2.1740487	1.4744656
32.152392414286666	2.1911178	1.4802425
32.1706328693934	2.2148125	1.4882246
32.18887416177875	2.133498	1.4606498
32.20711629202032	2.0699384	1.4387281
32.225359260695924	2.093141	1.4467692
32.243603068383614	2.1660993	1.4717674
32.26184771566166	2.1873577	1.4789718
32.28009320310852	2.1180196	1.4553417
32.2983395313029	1.9749658	1.4053347
32.31658670082372	2.0363233	1.426998
32.33483471225012	2.130823	1.4597338
32.35308356616143	2.1175413	1.4551774
32.371333263137245	2.103297	1.4502748
32.38958380375734	2.1663156	1.4718409
32.407835188601744	2.190648	1.4800838
32.42608741825067	2.1475275	1.4654444
32.444340493284585	2.1077235	1.4518001
32.46259441428416	2.1339302	1.4607978
32.48084918183028	2.0970783	1.4481293
32.49910479650405	2.0005095	1.4143937
32.51736125888683	2.004191	1.4156945
32.53561856956014	2.0625877	1.4361712
32.5538767291058	2.0766416	1.4410557
32.572135738105764	2.080587	1.4424239
32.59039559714228	2.0875375	1.4448314
32.608656306797776	2.0946965	1.4473066
32.62691786765491	2.0901868	1.4457479
32.645180280296586	2.0680134	1.4380589
32.663443545305896	2.057694	1.4344665
32.68170766326619	2.0212107	1.4216928
32.69997263476099	1.9044496	1.380018
32.7182384603741	1.8779247	1.370374
32.7365051406895	1.9947641	1.4123611
32.75477267629144	1.9940621	1.4121126
32.77304106776434	2.0228956	1.4222853
32.79131031569289	2.0279276	1.4240532
32.809580420661966	2.0138884	1.4191153
32.827851383256714	1.9765668	1.4059043
32.84612320406245	1.9721781	1.4043425
32.86439588366476	1.9393278	1.3925976
32.88266942264945	1.9822845	1.4079362
32.9009438216025	2.0194864	1.4210863
32.9192190811102	2.0012293	1.414648
32.937495201758985	1.9839405	1.4085243
32.95577218413556	2.0063682	1.4164633
32.974050028826866	1.9713696	1.4040548
32.992328736420035	1.8978416	1.3776217
33.010608307502444	1.9223642	1.3864934
33.02888874266169	2.0047545	1.4158936
33.047170042485604	2.0218134	1.4219048
33.06545220756225	1.9777327	1.4063188
33.083735238479896	1.9911501	1.4110812
33.10201913582707	1.9407253	1.3930992
33.12030390019248	1.943576	1.3941219
33.138589532165135	1.9121337	1.3827993
33.15687603233419	1.8953645	1.3767223
33.17516340128909	1.8187028	1.3485929
33.19345163961947	1.8310337	1.3531569
33.211740747915215	1.9369632	1.3917483
33.23003072676643	1.9609895	1.4003533
33.248321576763466	1.901014	1.3787726
33.266613298496885	1.9006369	1.3786359
33.28490589255747	1.9187721	1.3851975
33.30319935953626	1.8984478	1.3778417
33.32149370002451	1.9411023	1.3932345
33.339788914613706	1.929928	1.3892184
33.358085003895575	1.9081492	1.3813578
33.376381968462034	1.9352353	1.3911273
33.39467980890529	1.9836142	1.4084084
33.41297852581774	2.0001476	1.4142658
33.43127811979204	1.9100958	1.3820622
33.44957859142105	1.8935044	1.3760467
33.467879941297866	1.9085541	1.3815043
33.486182170015844	1.9101057	1.3820658
33.50448527816853	1.9967031	1.4130474
33.522789266349754	2.055258	1.4336171
33.541094135153514	2.0330176	1.4258393
33.55939988517411	2.0469499	1.4307165
33.57770651700602	2.060343	1.4353895
33.59601403124398	2.0375602	1.4274313
33.61432242848296	1.9106072	1.3822472
33.632631709318154	1.8008548	1.3419594
33.650941874344994	1.9740329	1.4050028
33.66925292415916	2.0525644	1.4326774
33.68756485935654	2.0362628	1.4269768
33.70587768053328	1.9892439	1.4104055
33.724191388285746	1.9987837	1.4137834
33.74250598321054	2.024735	1.4229318
33.760821465904506	1.9940349	1.412103
33.77913783696474	1.8968643	1.377267
33.79745509698852	1.8917205	1.3753983
33.815773246573414	1.8548445	1.3619268
33.8340922863172	1.8398361	1.3564056
33.852412216817896	1.8859507	1.3732992
33.87073303867377	1.8732475	1.3686663
33.889054752483304	1.8529128	1.3612174
33.907377358845245	1.9874142	1.4097568
33.92570085835853	1.954763	1.3981284
33.94402525162239	1.9004128	1.3785546
33.96235053923627	1.9529899	1.3974942
33.980676721799824	1.984524	1.4087313
33.999003799912984	1.9146423	1.383706
34.01733177417592	1.887777	1.373964
34.03566064518901	1.9574891	1.3991029
34.0539904135529	1.9195088	1.3854634
34.07232107986846	1.8871857	1.3737488
34.090652644736785	1.8097161	1.3452569
34.108985108759235	1.8753489	1.3694338
34.12731847253742	1.9150585	1.3838564
34.14565273667313	1.9850367	1.4089134
34.16398790176847	2.0217407	1.4218793
34.18232396842574	1.9785044	1.4065932
34.20066093724749	1.9004493	1.3785678
34.21899880883651	1.8884277	1.3742008
34.23733758379583	1.9035529	1.379693
34.25567726272874	2.0504305	1.4319324
34.27401784623872	2.142626	1.4637712
34.29235933492957	1.9531502	1.3975515
34.31070172940526	2.012173	1.4185108
34.32904503027003	2.115035	1.454316
34.347389238128386	1.9433677	1.3940473
34.36573435358502	1.8957464	1.3768611
34.38408037724492	1.9398977	1.3928021
34.402427309713296	1.9369692	1.3917503
34.42077515159559	1.9149735	1.3838257
34.43912390349752	2.0193608	1.4210422
34.45747356602499	2.074884	1.4404458
34.47582413978423	2.0100248	1.4177535
34.49417562538163	1.9194304	1.3854351
34.51252802342388	1.9156258	1.3840613
34.53088133451789	1.9655521	1.4019815
34.54923555927084	1.889796	1.3746985
34.567590698290104	1.8595579	1.363656
34.58594675218336	1.9462762	1.39509
34.6043037215585	1.9688174	1.4031456
34.62266160702365	1.950951	1.3967645
34.641020409187234	1.9698023	1.4034964
34.65938012865785	2.0061846	1.4163984
34.677740766044394	2.0792844	1.4419724
34.69610232195598	2.0940208	1.4470732
34.714464797002016	1.9853871	1.4090376
34.73282819179208	2.0459757	1.430376
34.751192506936064	2.2006607	1.4834625
34.76955774304408	2.1544619	1.4678085
34.7879239007265	1.9829055	1.4081568
34.80629098059391	1.9083956	1.381447
34.824658983257194	1.8482627	1.3595083
34.843027909327446	1.7854927	1.3362232
34.86139775941603	1.8698474	1.3674237
34.879768534134534	2.0722451	1.4395295
34.89814023409483	2.0354505	1.4266921
34.91651285990901	1.9145762	1.3836821
34.93488641218944	1.9586405	1.3995143
34.95326089154871	2.0063908	1.4164712
34.97163629859967	2.0136292	1.419024
34.99001263395542	1.9414982	1.3933766
35.00838989822934	1.8150972	1.3472555
35.02676809203499	1.7645112	1.3283491
35.04514721598624	1.8045787	1.3433461
35.063527270697215	1.952935	1.3974745
35.081908256782256	2.0965443	1.4479449
35.10029017485597	2.0406787	1.4285233
35.11867302553321	1.9864177	1.4094033
35.137056809429104	2.0171094	1.4202498
35.155441527159006	1.9472159	1.3954268
35.173827179338524	1.8079154	1.3445874
35.19221376658354	1.749214	1.3225785
35.21060128951017	1.9329889	1.3903197
35.2289897487348	2.0181117	1.4206026
35.24737914487405	1.9617028	1.4006081
35.26576947854479	1.9657894	1.4020661
35.28416075036418	2.213591	1.4878142
35.30255296094958	2.534933	1.5921474
35.32094611091867	2.381108	1.5430839
35.33934020088932	2.0673733	1.4378363
35.35773523147969	2.032739	1.4257416
35.3761312033082	2.062056	1.435986
35.394528116993506	1.9545447	1.3980503
35.41292597315452	1.8218147	1.3497461
35.431324772410434	1.7114369	1.308219
35.449724515380666	1.6057091	1.2671658
35.46812520268491	1.9059826	1.3805733
35.486526834943106	2.3412108	1.5301015
35.504929412775454	2.3546708	1.5344937
35.52333293680242	2.579362	1.6060392
35.54173740764471	2.632671	1.6225508
35.560142825923286	2.3128586	1.5208086
35.5785491922594	2.5459766	1.5956117
35.59695650727454	2.783625	1.6684198
35.61536477159042	1.2637906	1.1241844
