0.008763373481513119	0.43391317	0.65872085
0.026290120649546365	0.38063106	0.616953
0.043816868432600686	0.25542977	0.5054006
0.06134361724069026	0.15323748	0.3914556
0.07887036748382949	0.16493718	0.4061246
0.0963971195720331	0.16650452	0.40804964
0.11392387391531617	0.11670092	0.34161517
0.1314506309236943	0.10958697	0.33103922
0.1489773910071836	0.07976983	0.28243554
0.16650415457580078	0.073787324	0.2716382
0.18403092203956356	0.11045629	0.33234966
0.20155769380849	0.0832306	0.28849715
0.2190844702925996	0.09322419	0.30532637
0.2366112519019124	0.10060647	0.31718522
0.2541380390464497	0.15087229	0.38842282
0.27166483213623416	0.12062119	0.34730563
0.28919163158128947	0.118711896	0.34454593
0.3067184377916406	0.108034566	0.32868612
0.324245251177314	0.13403256	0.36610457
0.34177207214833777	0.15063775	0.3881208
0.3592989011147415	0.13999866	0.37416396
0.37682573848655654	0.11421581	0.3379583
0.39435258467381573	0.103405096	0.32156664
0.41187944008655414	0.08612603	0.29347238
0.42940630513480854	0.09553893	0.3090937
0.446933180228618	0.14017674	0.37440184
0.4644600657780234	0.16549882	0.40681547
0.48198696219306775	0.18394662	0.42889
0.49951386988379676	0.24127398	0.49119648
0.5170407892602581	0.24605729	0.49604163
0.5345677207325025	0.26594955	0.51570296
0.5520946647105822	0.23327887	0.48298952
0.5696216216045534	0.22443	0.47374043
0.5871485918244737	0.20750739	0.45552978
0.6046755757804043	0.18946841	0.4352797
0.6222025738824094	0.18135732	0.42586067
0.6397295865405557	0.16281703	0.40350592
0.6572566141649129	0.13012521	0.3607287
0.6747836571655547	0.14698534	0.38338667
0.6923107159525568	0.1730362	0.4159762
0.7098377909359992	0.18476407	0.4298419
0.7273648825259653	0.16549449	0.40681013
0.7448919911325411	0.17418349	0.41735294
0.762419117165817	0.16763411	0.40943146
0.7799462610358868	0.17462511	0.4178817
0.7974734231528482	0.16405652	0.40503892
0.8150006039268024	0.18066715	0.42504957
0.8325278037678551	0.18964753	0.4354854
0.8500550230861152	0.18472981	0.42980206
0.8675822622916969	0.19538963	0.442029
0.8851095217947171	0.19165495	0.43778414
0.9026368020052984	0.20528409	0.45308286
0.9201641033335665	0.21873018	0.467686
0.9376914261896523	0.21362303	0.46219373
0.9552187709836915	0.21103957	0.45939043
0.9727461381258234	0.21107845	0.45943275
0.990273528026193	0.21728939	0.4661431
1.0078009410949496	0.2310489	0.48067546
1.0253283777422473	0.28845352	0.5370787
1.0428558383782454	0.28597227	0.53476375
1.0603833234131086	0.28314722	0.5321158
1.0779108332570058	0.31764692	0.56360173
1.0954383683201119	0.33128086	0.57557005
1.112965929012607	0.43396175	0.65875775
1.1304935157446763	0.5103517	0.714389
1.1480211289265108	0.5309734	0.7286792
1.1655487689683062	1.414144	1.1891779
1.1830764362802655	1.7449962	1.320983
1.200604131272596	2.210658	1.4868282
1.2181318543555117	2.5302062	1.5906622
1.235659605939232	2.551625	1.5973806
1.253187386433982	4.199525	2.0492742
1.270715196249994	6.3753753	2.5249505
1.2882430357975057	11.737993	3.4260755
1.3057709054867608	16.52277	4.0648212
1.3232988057280106	22.218197	4.7136183
1.3408267369315112	27.02019	5.198095
1.358354699507526	30.305489	5.505042
1.3758826938663256	34.060394	5.836128
1.3934107204181858	36.13813	6.0115
1.410938779573391	36.65944	6.0547037
1.4284668717422309	37.45443	6.1200023
1.4459949973350033	37.565517	6.1290717
1.4635231567620117	37.780476	6.1465826
1.4810513504335687	36.96798	6.08013
1.4985795787599925	36.095287	6.0079355
1.5161078421516088	35.33075	5.9439673
1.5336361410187505	34.737835	5.8938813
1.5511644757717598	34.91302	5.9087243
1.5686928468209842	35.571262	5.9641647
1.58622125457678	36.18395	6.0153093
1.6037496994495108	37.139828	6.0942454
1.621278181849548	37.292336	6.1067452
1.6388067021872719	37.816906	6.149545
1.6563352608730693	37.36536	6.112721
1.673863858317336	36.49036	6.040725
1.6913924949304753	35.60712	5.9671702
1.7089211711228998	34.267403	5.8538365
1.7264498873050296	33.47326	5.785608
1.7439786438872935	32.831703	5.7298956
1.7615074412801288	31.961023	5.653408
1.779036279893981	31.29524	5.594215
1.796565160139305	30.058352	5.4825497
1.814094082426564	29.559511	5.436866
1.8316230471662298	28.854158	5.371607
1.849152054768784	28.10744	5.3016453
1.8666811056447168	27.473162	5.2414846
1.8842102002045273	26.665575	5.1638722
1.901739338858724	26.04742	5.1036673
1.9192685220178245	25.582363	5.057901
1.9367977500923557	25.19891	5.0198517
1.9543270234928547	24.76571	4.976516
1.971856342629867	24.243546	4.9237733
1.9893857079139496	23.464104	4.843976
2.006915119755667	22.772287	4.772032
2.0244445785655945	22.211786	4.7129383
2.0419740847543175	21.584244	4.6458845
2.0595036387324317	21.111858	4.594764
2.0770332409105414	20.68327	4.5478864
2.094562891699263	20.32523	4.5083513
2.1120925915092217	20.072638	4.48025
2.129622340751053	19.87686	4.4583473
2.1471521398354043	188.0469	13.713019
2.1646819891729323	444.3287	21.079105
2.182211889174303	440.5629	20.98959
2.1997418402501974	453.10703	21.28631
2.2172718428113023	432.88284	20.805838
2.234801897268317	320.60593	17.905472
2.2523320040319548	16.942629	4.1161423
2.269862163512935	16.73438	4.090768
2.287392376121992	16.385975	4.0479593
2.304922642269869	16.305498	4.038007
2.322452962367322	16.04745	4.0059266
2.3399833368251164	15.788484	3.9734726
2.357513766054032	15.485457	3.9351566
2.3750442504648586	14.826925	3.8505747
2.3925747904683963	14.463418	3.80308
2.410105386475459	14.234098	3.7728105
2.4276360388968707	13.983765	3.7394872
2.445166748143469	13.814405	3.7167735
2.4626975146261025	13.566696	3.6832995
2.4802283387556323	13.463043	3.669202
2.4977592209429305	13.489995	3.6728728
2.5152901615988825	13.339323	3.6523037
2.5328211611343865	13.229001	3.6371694
2.5503522199603523	12.821084	3.5806541
2.5678833384877024	12.333136	3.5118563
2.5854145171273712	11.925931	3.4533942
2.6029457562903064	11.778546	3.4319887
2.620477056387469	11.788794	3.4334812
2.6380084178298326	11.823178	3.438485
2.655539841028383	11.566383	3.4009385
2.673071326394119	11.329946	3.3659985
2.6906028743380523	10.963648	3.31114
2.708134485271211	10.875812	3.2978497
2.7256661596046325	10.837723	3.2920697
2.743197897749369	10.555348	3.2488995
2.760729700116486	10.346308	3.2165678
2.778261567117063	10.216142	3.19627
2.795793499162193	10.12644	3.1822069
2.8133254966629817	10.05331	3.1706955
2.830857560030551	9.955903	3.1552975
2.8483896896760337	9.844645	3.1376176
2.865921886010578	9.636131	3.1042118
2.883454149445347	9.5334015	3.0876207
2.9009864803915177	9.381954	3.0629976
2.91851887926028	9.318751	3.052663
2.9360513464628384	9.178786	3.0296512
2.953583882410413	8.988814	2.998135
2.9711164875142373	8.759819	2.9596992
2.9886491621855606	8.598814	2.9323735
3.0061819068356455	8.457514	2.9081805
3.023714721875769	8.411623	2.9002798
3.041247607717225	8.21967	2.8669968
3.0587805647713213	8.1004305	2.8461256
3.0763135934493806	7.9509034	2.8197346
3.0938466941627407	7.8629375	2.804093
3.1113798673227544	7.857028	2.803039
3.1289131133407904	7.794488	2.791861
3.1464464326282315	7.80383	2.7935336
3.1639798255964786	7.811796	2.794959
3.1815132926569443	7.7387156	2.7818546
3.1990468342210603	7.5899158	2.75498
3.216580450700272	7.386888	2.717883
3.2341141425060416	7.2690697	2.6961212
3.251647910049847	7.222705	2.687509
3.2691817537431813	7.170429	2.6777656
3.286715673997555	7.2061586	2.684429
3.3042496712244938	7.106226	2.6657505
3.32178374583554	6.9184895	2.6303022
3.339317898242251	6.8116055	2.6099052
3.3568521288562034	6.6827006	2.585092
3.3743864380889876	6.6614404	2.5809767
3.3919208263522127	6.7132297	2.59099
3.4094552940575023	6.613306	2.571635
3.4269898416164972	6.5422196	2.5577762
3.444524469440858	6.49607	2.548739
3.4620591779422587	6.571338	2.5634623
3.479593967532391	6.5204115	2.5535097
3.4971288386229658	6.4206195	2.533894
3.5146637916257086	6.291957	2.5083773
3.5321988269523628	6.3435144	2.5186334
3.5497339450146903	6.31674	2.5133126
3.5672691462244708	6.3261223	2.5151784
3.5848044309934988	6.258576	2.5017147
3.60233979973359	6.313853	2.512738
3.619875252856575	6.316208	2.5132067
3.6374107907743034	6.3924756	2.5283346
3.6549464138986427	6.409971	2.5317922
3.6724821226414788	6.3585777	2.521622
3.690017917414714	6.2349243	2.496983
3.7075537986302702	6.2612762	2.5022542
3.7250897667000857	6.2628427	2.5025673
3.7426258220361235	6.499737	2.549458
3.7601619650503553	6.786323	2.6050572
3.777698196154779	7.3085523	2.7034335
3.7952345157614067	8.391443	2.8967988
3.8127709242822716	9.233183	3.0386152
3.830307422129425	11.688015	3.418774
3.847844009714936	30.518467	5.524352
3.8653806874508954	97.89972	9.894428
3.882917455749409	97.02907	9.850333
3.900454315022606	96.83139	9.840294
3.917991265682631	41.402573	6.434483
3.9355283081416506	11.107898	3.3328514
3.9530654428118495	8.736672	2.9557862
3.970602670105433	7.405057	2.7212234
3.9881399904346244	6.5015106	2.5498059
4.005677404211669	6.4273643	2.5352247
4.023214911848827	6.40165	2.5301483
4.0407525137583855	6.3858	2.527014
4.058290210352644	6.392062	2.5282528
4.075828002043927	6.3559313	2.5210972
4.0933658892445814	6.2767115	2.5053365
4.110903872366966	6.209145	2.4918156
4.128441951823468	6.1095877	2.4717581
4.145980128026488	6.071163	2.463973
4.163518401388452	6.0921283	2.4682238
4.181056772321807	6.0606217	2.461833
4.1985952412390155	6.0967693	2.4691637
4.216133808552567	6.109288	2.4716973
4.233672474674966	6.1031876	2.470463
4.251211240018741	6.25033	2.500066
4.268750104996445	6.5466547	2.558643
4.286289070020643	7.513338	2.741047
4.303828135503928	9.123	3.0204306
4.3213673018589125	29.448761	5.426671
4.3389065694982305	90.56324	9.516472
4.356445938834537	165.8837	12.879584
4.3739854102805085	171.08727	13.080033
4.391524984248844	172.10983	13.119063
4.409064661152262	136.24635	11.6724615
4.426604441403504	96.57395	9.827205
4.444144325415337	75.666115	8.698627
4.461684313600543	21.865295	4.676034
4.47922440637193	22.42133	4.7351165
4.496764604142329	20.815887	4.5624433
4.5143049073245916	18.834913	4.339921
4.531845316331589	16.560442	4.0694523
4.5493858315762195	13.510877	3.6757145
4.566926453471405	11.206113	3.3475533
4.584467182430081	9.134762	3.0223768
4.602008018865218	8.077699	2.8421292
4.619548963189798	7.464332	2.732093
4.637090015816834	6.9822025	2.6423857
4.654631177159353	6.7892427	2.6056175
4.672172447630417	6.499965	2.5495028
4.689713827643102	6.222755	2.494545
4.7072553176105085	5.9557176	2.440434
4.724796917945764	5.7255836	2.3928192
4.742338629062015	5.640185	2.3749073
4.759880451372434	5.605558	2.367606
4.777422385290215	5.573007	2.3607218
4.794964431228581	5.5682235	2.3597083
4.812506589600768	5.6609106	2.3792667
4.830048860820047	5.699453	2.3873527
4.847591245299709	5.6992793	2.3873162
4.8651337434530655	5.7119784	2.3899746
4.882676355693457	5.700858	2.387647
4.900219082434242	5.67107	2.3814008
4.917761924088813	5.586555	2.3635895
4.935304881070575	5.5688386	2.3598387
4.952847953792969	5.628191	2.372381
4.970391142669449	5.637346	2.3743095
4.9879344481135055	5.6241465	2.3715284
5.005477870538642	5.5397897	2.3536758
5.023021410358394	5.4469833	2.3338773
5.040565067986324	5.4350014	2.3313088
5.05810884383601	5.3164454	2.3057418
5.075652738321066	5.3510714	2.3132384
5.09319675185512	5.3384743	2.310514
5.110740884851836	5.3772225	2.318884
5.128285137724894	5.4092584	2.3257813
5.145829510888007	5.403002	2.3244357
5.163374004754908	5.4452558	2.333507
5.1809186197393595	5.4634943	2.3374119
5.198463356255145	5.4367733	2.331689
5.216008214716077	5.3641787	2.3160696
5.233553195535998	5.3019915	2.3026054
5.251098299128764	5.2724547	2.2961826
5.268643525908272	5.248125	2.2908788
5.286188876288432	5.1742625	2.2747006
5.3037343506831895	5.1186132	2.2624352
5.32127994950651	5.1413255	2.2674491
5.3388256731723915	5.235877	2.288204
5.356371522094851	5.2996492	2.3020966
5.373917496687938	5.322314	2.307014
5.391463597365729	5.300894	2.302367
5.40900982454232	5.182348	2.276477
5.426556178631843	5.1158	2.2618134
5.444102660048449	5.0381103	2.2445736
5.4616492692063225	5.0911837	2.256365
5.479196006519669	5.098366	2.257956
5.496742872402727	5.139373	2.2670186
5.514289867269756	5.1181664	2.2623365
5.531836991535049	5.0802846	2.2539487
5.549384245612924	5.095942	2.2574193
5.566931629917724	5.122855	2.2633724
5.584479144863822	5.170437	2.2738595
5.6020267908656205	5.125758	2.2640138
5.619574568337545	5.1756873	2.2750137
5.637122477694054	5.2261734	2.2860825
5.654670519349629	5.1737223	2.2745817
5.672218693718784	5.125362	2.2639263
5.689767001216059	5.0272994	2.242164
5.707315442256021	5.033463	2.2435381
5.724864017253266	5.0837836	2.2547247
5.7424127266224225	5.1184726	2.2624042
5.75996157077814	5.1436176	2.2679546
5.777510550135105	5.2078	2.2820604
5.795059665108022	5.223031	2.2853951
5.812608916111639	5.252015	2.2917275
5.830158303560715	5.3488245	2.3127525
5.847707827870055	5.353124	2.3136818
5.86525748945448	5.3661146	2.3164876
5.8828072887288485	5.3820662	2.3199282
5.900357226108044	5.4434423	2.3331187
5.917907302006979	5.49494	2.3441288
5.9354575168406	6.151325	2.4801865
5.9530078710238765	6.878528	2.6226947
5.970558364971812	7.509421	2.7403324
5.988108999099438	7.828082	2.7978709
6.005659773821818	8.46348	2.9092062
6.023210689554039	8.176219	2.8594089
6.040761746711227	8.530243	2.9206579
6.058312945708531	7.831127	2.7984152
6.075864286961132	7.3311396	2.7076077
6.093415770884244	6.747988	2.597689
6.1109673978931065	6.281175	2.5062273
6.128519168402993	5.614172	2.3694243
6.146071082829204	5.3829117	2.3201103
6.163623141587075	5.2223716	2.285251
6.181175345091969	5.1729603	2.2744143
6.198727693759281	5.177036	2.27531
6.216280188004435	5.178426	2.2756155
6.233832828242885	5.1397786	2.267108
6.251385614890126	5.1142473	2.26147
6.268938548361669	5.1133623	2.2612746
6.286491629073067	5.10659	2.2597766
6.304044857439898	5.159185	2.271384
6.321598233877777	5.015323	2.2394917
6.339151758802344	4.9664702	2.2285578
6.356705432629277	4.943757	2.2234561
6.37425925577428	4.99542	2.2350435
6.391813228653095	5.0053134	2.2372558
6.409367351681486	5.0207896	2.240712
6.426921625275259	4.9994006	2.235934
6.44447604985025	4.987204	2.2332048
6.46203062582232	4.9777217	2.2310808
6.47958535360737	4.987075	2.233176
6.497140233621328	5.0099454	2.2382908
6.514695266280161	5.016887	2.239841
6.532250451999859	5.019078	2.2403297
6.549805791196454	4.9855824	2.2328417
6.567361284286002	4.988893	2.233583
6.584916931684597	4.9822764	2.2321014
6.602472733808367	5.0357194	2.244041
6.6200286910734665	5.0686502	2.2513664
6.637584803896092	5.078428	2.2535367
6.655141072692462	5.076501	2.2531092
6.672697497878842	5.0502286	2.2472713
6.690254079871514	5.0121384	2.2387805
6.707810819086808	4.9586263	2.2267973
6.725367715941078	4.9369483	2.2219245
6.742924770850719	4.896358	2.2127717
6.760481984232151	4.944191	2.2235537
6.778039356501836	5.0181828	2.2401302
6.795596888076266	5.0274415	2.2421956
6.813154579371963	5.0278654	2.2422903
6.830712430805492	4.9706697	2.2294998
6.84827044279344	5.018232	2.2401412
6.865828615752445	5.0030994	2.2367609
6.883386950099159	5.036066	2.2441182
6.900945446250287	5.0062785	2.2374713
6.918504104622553	5.0589743	2.2492163
6.936062925632727	5.1203094	2.26281
6.953621909697607	5.1729016	2.2744014
6.971181057234028	5.230533	2.287036
6.988740368658859	5.248425	2.290944
7.006299844389007	5.2482347	2.2909026
7.023859484841407	5.2383637	2.2887473
7.041419290433036	5.268111	2.2952366
7.058979261580902	5.320582	2.3066387
7.0765393987020495	5.5172586	2.3488846
7.094099702213559	5.925288	2.4341915
7.111660172532549	6.325713	2.5150971
7.129220810076164	6.7516074	2.5983856
7.146781615261595	7.305123	2.702799
7.16434258850606	7.5502043	2.7477634
7.181903730226821	7.9421186	2.8181765
7.1994650408411704	8.081725	2.8428376
7.217026520766437	8.247315	2.871814
7.234588170419983	8.408336	2.899713
7.252149990219215	8.481065	2.9122267
7.269711980581568	8.317424	2.8839943
7.2872741419245175	8.128454	2.8510444
7.304836474665574	7.7488747	2.78368
7.322398979222286	7.451668	2.7297742
7.339961656012233	7.198336	2.6829715
7.357524505453039	6.782664	2.6043549
7.375087527962357	6.5238457	2.554182
7.392650723957886	6.2252703	2.4950492
7.410214093857353	5.891513	2.427244
7.427777638078528	5.6503925	2.3770554
7.445341357039213	5.427074	2.3296082
7.4629052511572525	5.286219	2.299178
7.480469320850524	5.2659054	2.2947562
7.498033566536948	5.2462125	2.2904613
7.5155979886344735	5.1621823	2.2720437
7.5331625875610975	5.164421	2.2725363
7.550727363734844	5.1675463	2.2732239
7.568292317573788	5.182449	2.2764993
7.585857449496025	5.185285	2.277122
7.603422759919705	5.1112723	2.2608123
7.620988249263007	5.127156	2.2643223
7.638553917944147	5.172152	2.2742367
7.656119766381391	5.197274	2.2797532
7.673685794993023	5.197182	2.279733
7.691252004197388	5.183124	2.2766476
7.70881839441285	5.1726966	2.2743564
7.726384966057826	5.201798	2.280745
7.743951719550762	5.1975	2.2798026
7.761518655310149	5.2691865	2.295471
7.779085773754511	5.2524996	2.2918332
7.796653075302419	5.298739	2.301899
7.814220560372475	5.3074684	2.3037944
7.831788229383323	5.332569	2.3092356
7.8493560827536495	5.290856	2.3001862
7.866924120902174	5.2991443	2.301987
7.884492344247663	5.2964616	2.3014042
7.9020607532089135	5.3062644	2.303533
7.919629348204771	5.36608	2.3164802
7.937198129654115	5.4391346	2.3321953
7.954767097975865	5.4234676	2.328834
7.972336253588986	5.4242043	2.3289921
7.989905596912472	5.3647704	2.3161974
8.007475128365371	5.352111	2.313463
8.025044848366756	5.356324	2.3143735
8.042614757335754	5.4286714	2.329951
8.060184855691523	5.498176	2.344819
8.07775514385327	5.6602674	2.3791316
8.095325622240228	5.720149	2.3916833
8.112896291271687	5.8099303	2.4103796
8.130467151366968	5.8135505	2.4111304
8.148038202945436	5.829482	2.414432
8.165609446426497	5.797417	2.4077826
8.183180882229594	5.8291955	2.4143727
8.200752510774217	5.820463	2.4125636
8.218324332479893	5.8350506	2.415585
8.235896347766193	5.904585	2.4299352
8.253468557052724	5.9921436	2.4478855
8.27104096075914	6.0687943	2.4634924
8.288613559305137	6.110436	2.4719296
8.306186353110448	6.2010307	2.490187
8.32375934259485	6.2776084	2.5055156
8.341332528178162	6.3042755	2.5108316
8.358905910280246	6.2699757	2.5039918
8.376479489321003	6.208367	2.4916594
8.394053265720377	6.2461386	2.4992275
8.411627239898356	6.2368026	2.497359
8.42920141227497	6.276635	2.5053213
8.44677578327029	6.2408857	2.4981766
8.464350353304427	6.1957903	2.4891346
8.48192512279754	6.1320395	2.4762955
8.499500092169827	6.109197	2.471679
8.51707526184153	6.168983	2.4837437
8.534650632232934	6.294751	2.5089343
8.552226203764365	6.248286	2.4996572
8.569801976856192	6.212619	2.4925125
8.587377951928834	6.170033	2.4839551
8.60495412940274	6.209036	2.4917936
8.622530509698416	6.311893	2.5123482
8.6401070932364	6.4841027	2.54639
8.657683880437283	6.5396395	2.557272
8.675260871721695	6.6034293	2.5697138
8.692838067510303	6.7096987	2.5903087
8.710415468223834	6.8740726	2.6218452
8.727993074283043	7.0455866	2.6543524
8.745570886108737	7.0858736	2.6619303
8.763148904121765	7.158497	2.6755366
8.78072712874302	7.250674	2.6927075
8.798305560393441	7.5053	2.7395802
8.815884199494006	7.6199193	2.76042
8.833463046465745	7.7610064	2.7858584
8.851042101729728	7.835522	2.7992003
8.86862136570707	8.054383	2.8380246
8.886200838818924	8.152293	2.855222
8.903780521486505	8.128926	2.8511271
8.921360414131055	8.264921	2.8748777
8.938940517173874	8.439181	2.905027
8.956520831036297	8.6035185	2.9331756
8.97410135613971	8.875604	2.979195
8.99168209290554	9.101621	3.0168893
9.009263041755265	9.515774	3.0847647
9.026844203110405	9.830454	3.1353555
9.044425577392525	10.033155	3.1675158
9.062007165023239	10.107434	3.1792192
9.079588966424197	10.353181	3.2176359
9.097170982017108	10.451121	3.2328193
9.11475321222372	11.507043	3.3922033
9.132335657465825	12.47289	3.531698
9.149918318165264	12.595567	3.5490234
9.167501194743924	13.2603	3.6414695
9.18508428762374	12.78941	3.5762284
9.202667597226693	12.828122	3.581637
9.220251123974803	12.535897	3.540607
9.237834868290143	12.1863985	3.4909022
9.255418830594836	11.993353	3.4631422
9.273003011311046	11.42375	3.3799038
9.290587410860985	11.222803	3.3500452
9.308172029666911	10.523066	3.2439275
9.32575686815113	10.175842	3.1899595
9.343341926735997	8.80335	2.967044
9.360927205843916	8.544557	2.9231074
9.378512705897327	8.332402	2.88659
9.396098427318728	8.048804	2.8370414
9.413684370530664	7.9763026	2.824235
9.431270535955722	7.901344	2.8109329
9.448856924016539	7.881878	2.8074682
9.466443535135806	7.838515	2.7997348
9.484030369736251	7.8179407	2.7960582
9.501617428240658	7.774093	2.788206
9.519204711071852	7.7313933	2.7805383
9.536792218652714	7.7593594	2.7855628
9.55437995140617	7.764967	2.786569
9.571967909755191	7.7823105	2.7896793
9.589556094122802	7.788963	2.7908714
9.60714450493207	7.7941885	2.7918074
9.624733142606116	7.794741	2.7919064
9.642322007568108	7.9013915	2.8109415
9.659911100241267	8.015962	2.8312473
9.677500421048851	8.070548	2.840871
9.695089970414175	8.111352	2.8480434
9.712679748760609	8.065484	2.8399796
9.730269756511557	8.080751	2.8426661
9.747859994090492	8.125766	2.8505728
9.765450461920915	8.184323	2.8608255
9.78304116042639	8.184809	2.8609104
9.800632090030527	8.186614	2.861226
9.81822325115699	8.168365	2.858035
9.835814644229481	8.16358	2.857198
9.853406269671762	8.184312	2.8608236
9.870998127907646	8.197953	2.8632069
9.888590219360985	8.229115	2.8686433
9.906182544455698	8.291056	2.8794193
9.923775103615734	8.317498	2.8840072
9.941367897265108	8.382928	2.8953285
9.958960925827878	8.4003315	2.8983326
9.97655418972816	8.3899765	2.8965456
9.994147689390106	8.356259	2.8907194
10.011741425237934	8.264036	2.8747237
10.029335397695904	8.252185	2.8726616
10.04692960718833	8.223499	2.8676643
10.06452405413958	8.228309	2.8685029
10.082118738974064	8.299236	2.8808396
10.099713662116246	8.332092	2.8865364
10.117308823990651	8.374674	2.8939028
10.134904225021844	8.291288	2.8794596
10.152499865634445	8.258494	2.8737595
10.170095746253125	8.178437	2.8597968
10.18769186730261	8.182841	2.8605666
10.205288229207675	8.189093	2.861659
10.222884832393145	8.160761	2.8567045
10.2404816772839	8.138336	2.852777
10.258078764304868	8.10694	2.8472688
10.275676093881035	8.0655985	2.8399997
10.293273666437438	8.05782	2.83863
10.310871482399158	8.077958	2.842175
10.32846954219134	8.075455	2.8417344
10.346067846239173	8.053538	2.8378756
10.363666394967908	8.069081	2.840613
10.38126518880283	8.113798	2.8484728
10.398864228169298	8.146511	2.8542094
10.416463513492713	8.067529	2.8403397
10.434063045198531	8.003495	2.8290448
10.451662823712262	7.9807277	2.8250182
10.469262849459467	8.065922	2.8400567
10.486863122865758	8.120168	2.8495908
10.504463644356806	8.1522045	2.8552065
10.522064414358338	8.102548	2.8464975
10.539665433296118	8.041835	2.8358128
10.557266701595987	7.9473515	2.8191047
10.574868219683818	7.836356	2.7993493
10.592469987985552	7.7353315	2.7812464
10.610072006927185	7.5607514	2.749682
10.627674276934751	7.4912014	2.737006
10.64527679843435	7.469987	2.7331276
10.662879571852143	7.387753	2.7180421
10.680482597614331	7.3006716	2.7019756
10.698085876147173	7.1651597	2.6767817
10.715689407876988	7.014946	2.6485744
10.733293193230146	6.8989177	2.626579
10.750897232633072	6.70562	2.5895212
10.76850152651225	6.619761	2.5728896
10.786106075294207	6.482789	2.546132
10.803710879405534	6.435897	2.536907
10.821315939272877	6.3486404	2.519651
10.83892125532294	6.3162966	2.5132244
10.856526827982472	6.227077	2.4954112
10.874132657678285	6.2276363	2.4955232
10.891738744837243	6.212293	2.4924471
10.909345089886271	6.1760144	2.485159
10.926951693252343	6.0703883	2.4638157
10.944558555362494	5.9690795	2.44317
10.96216567664381	5.846605	2.4179754
10.979773057523436	5.8418245	2.4169867
10.997380698428573	5.82813	2.414152
11.014988599786477	5.796405	2.4075725
11.032596762024461	5.7270947	2.3931348
11.050205185569892	5.6443	2.3757737
11.067813870850198	5.5552955	2.3569674
11.085422818292859	5.5063324	2.3465576
11.10303202832541	5.4837613	2.3417432
11.120641501375454	5.473975	2.3396528
11.138251237870636	5.4052596	2.3249214
11.155861238238671	5.3063636	2.3035545
11.173471502907317	5.214386	2.283503
11.191082032304402	5.147798	2.2688758
11.208692826857805	5.0994754	2.2582018
11.226303886995465	5.058421	2.2490933
11.243915213145371	4.989193	2.2336502
11.261526805735578	4.9597106	2.2270408
11.279138665194196	4.913764	2.2167013
11.296750791949393	4.8499274	2.202255
11.314363186429393	4.7965674	2.1901066
11.331975849062479	4.6888156	2.1653674
11.34958878027699	4.695181	2.1668365
11.36720198050133	4.6460285	2.155465
11.384815450163948	4.5968976	2.1440377
11.402429189693366	4.550377	2.1331613
11.420043199518153	4.5063815	2.122824
11.437657480066942	63.45012	7.9655585
11.455272031768422	85.149315	9.227638
11.472886855051353	107.51514	10.368951
11.490501950344528	99.10593	9.955196
11.508117318076819	84.4077	9.1873665
11.52573295867715	45.769714	6.7653317
11.543348872574514	4.096986	2.0241013
11.560965060197946	4.137554	2.034098
11.57858152197655	4.0968328	2.0240633
11.59619825833949	4.045087	2.0112402
11.613815269715985	4.000484	2.0001209
11.631432556535323	38.53208	6.2074213
11.649050119226837	83.06689	9.114103
11.666667958219929	93.43983	9.666428
11.68428607394406	107.669785	10.376405
11.701904466828756	82.49914	9.082904
11.719523137303586	65.33991	8.083311
11.737142085798196	4.5840287	2.1410346
11.754761312742286	3.696833	1.922715
11.772380818565619	3.6624684	1.9137577
11.790000603698015	3.6428761	1.908632
11.80762066856935	3.6419284	1.9083837
11.825241013609572	3.577673	1.8914738
11.842861639248683	3.531021	1.8791012
11.860482545916748	3.4989848	1.8705573
11.878103734043883	3.4835026	1.8664144
11.895725204060282	3.4392743	1.8545281
11.91334695639619	3.4164093	1.8483531
11.930968991481919	3.4148195	1.847923
11.948591309747824	3.3812366	1.8388139
11.966213911624347	3.3558986	1.8319112
11.98383679754198	3.342533	1.8282596
12.001459967931268	3.3138378	1.820395
12.019083423222835	3.3351495	1.8262392
12.036707163847352	3.3009465	1.8168507
12.05433119023556	3.2648706	1.8068953
12.071955502818259	3.2075343	1.790959
12.089580102026313	3.2215266	1.7948612
12.107204988290643	3.1894405	1.7859005
12.12483016204224	3.1773884	1.782523
12.142455623712152	3.1186929	1.7659822
12.16008137373149	3.148422	1.7743794
12.177707412531431	3.1179817	1.7657808
12.19533374054321	3.0811927	1.7553327
12.212960358198126	3.0342271	1.7419033
12.230587265927545	3.0061967	1.7338387
12.248214464162889	3.0227325	1.7386007
12.265841953335649	3.020848	1.7380587
12.283469733877375	2.9957156	1.7308136
12.301097806219685	2.9523206	1.7182318
12.31872617079425	2.9462242	1.7164569
12.336354828032825	2.9586236	1.720065
12.353983778367205	2.9286435	1.711328
12.371613022229262	2.8796632	1.696957
12.389242560050928	2.868628	1.6937025
12.406872392264201	2.8771443	1.6962147
12.424502519301143	2.8760576	1.6958944
12.442132941593874	2.8640308	1.6923448
12.459763659574586	2.861236	1.6915189
12.477394673675532	2.8168418	1.678345
12.49502598432903	2.8026774	1.6741198
12.51265759196746	2.8126125	1.6770846
12.530289497023267	2.8398747	1.6851928
12.547921699928967	2.7781177	1.6667687
12.565554201117134	2.7396212	1.6551801
12.583187001020404	2.6988075	1.6428047
12.600820100071486	2.7448936	1.656772
12.618453498703152	2.7726028	1.6651134
12.636087197348235	2.807931	1.6756881
12.65372119643964	2.8283854	1.6817805
12.671355496410326	2.836894	1.6843082
12.68899009769333	2.8527324	1.6890033
12.706625000721749	2.8543885	1.6894935
12.724260205928752	2.9069862	1.7049886
12.741895713747551	2.9559972	1.7193013
12.759531524611454	2.975844	1.7250634
12.777167638953818	2.9562707	1.7193809
12.794804057208072	2.9563215	1.7193956
12.812440779807702	2.9873686	1.7284006
12.830077807186271	3.1508856	1.7750734
12.847715139777405	3.1784642	1.7828248
12.865352778014795	3.3993678	1.8437375
12.882990722332197	3.550007	1.8841462
12.90062897316344	3.7006567	1.923709
12.918267530942412	3.805055	1.950655
12.935906396103071	3.6836112	1.9192736
12.953545569079449	3.8070784	1.9511735
12.971185050305628	3.5752854	1.8908426
12.988824840215775	3.609008	1.8997389
13.006464939244115	3.6369073	1.9070678
13.024105347824943	3.4785821	1.8650957
13.041746066392617	3.5129814	1.8742949
13.05938709538157	3.2976859	1.8159531
13.077028435226296	3.3270278	1.8240142
13.094670086361363	3.2957036	1.8154073
13.112312049221401	3.2539618	1.8038741
13.129954324241112	3.139849	1.7719619
13.147596911855258	2.9128985	1.7067215
13.165239812498685	2.8417597	1.6857519
13.182883026606293	2.7777803	1.6666675
13.200526554613058	2.7262843	1.6511463
13.218170396954017	2.6937585	1.6412673
13.235814554064284	2.6945887	1.6415203
13.253459026379034	2.7170477	1.6483469
13.271103814333523	2.6755285	1.6357043
13.288748918363058	2.6612258	1.6313264
13.306394338903031	2.6553378	1.6295208
13.32404007638889	2.6504245	1.6280124
13.341686131256164	2.6418762	1.6253849
13.359332503940449	2.6234133	1.6196954
13.376979194877402	2.630667	1.6219331
13.394626204502751	2.6597202	1.6308649
13.412273533252307	2.6636724	1.6320761
13.429921181561937	2.6524923	1.6286473
13.447569149867581	2.680525	1.6372309
13.465217438605247	2.6912198	1.6404938
13.482866048211022	2.70475	1.6446124
13.500514979121052	2.7072208	1.6453635
13.518164231771568	2.6920354	1.6407423
13.535813806598844	2.6840708	1.6383134
13.553463704039254	2.6835678	1.6381599
13.571113924529229	2.6806724	1.6372759
13.588764468505275	2.6593947	1.6307651
13.606415336403956	2.6512856	1.628277
13.624066528661917	2.681962	1.6376697
13.641718045715882	2.7779489	1.666718
13.659369888002635	2.8385885	1.6848111
13.67702205595903	2.8795378	1.6969202
13.694674550021993	2.9411714	1.7149844
13.712327370628532	3.0542777	1.7476492
13.729980518215713	3.1493971	1.774654
13.747633993220681	3.2204235	1.7945539
13.765287796080647	3.2459614	1.8016552
13.7829419272329	3.3047228	1.8178897
13.800596387114801	3.310023	1.8193469
13.818251176163775	3.317715	1.8214595
13.835906294817324	3.3501358	1.8303376
13.853561743513023	3.3854537	1.8399602
13.871217522688525	3.440083	1.8547461
13.888873632781538	3.4954345	1.8696082
13.906530074229858	3.5682576	1.8889832
13.92418684747135	3.5547502	1.8854045
13.941843952943948	3.5244086	1.8773408
13.959501391085665	3.4711251	1.8630955
13.977159162334578	3.4439526	1.855789
13.994817267128846	3.4056463	1.8454393
14.012475705906693	3.3493466	1.830122
14.030134479106424	3.2699378	1.8082969
14.047793587166414	3.176345	1.7822304
14.065453030525108	3.0335047	1.7416959
14.083112809621026	2.917965	1.7082052
14.100772924892766	2.8863997	1.6989408
14.118433376778997	2.8841279	1.698272
14.136094165718458	2.8144221	1.677624
14.153755292149969	2.7540996	1.659548
14.171416756512416	2.6846666	1.6384952
14.189078559244768	2.6468132	1.6269029
14.20674070078606	2.5527945	1.5977467
14.224403181575408	2.4961812	1.5799308
14.242066002051999	2.4625535	1.5692525
14.259729162655093	2.5068085	1.5832905
14.277392663824022	2.4899073	1.577944
14.295056505998208	2.4730482	1.5725929
14.312720689617128	2.465055	1.5700494
14.330385215120348	2.4238114	1.5568595
14.348050082947497	2.3967924	1.5481577
14.3657152935383	2.3820841	1.5434002
14.383380847332528	2.4223034	1.5563751
14.401046744770051	2.437509	1.5612524
14.418712986290798	2.4165742	1.5545335
14.436379572334793	2.3872287	1.5450659
14.454046503342123	2.3631496	1.537254
14.471713779752946	2.314651	1.5213977
14.489381402007504	2.347351	1.5321068
14.507049370546113	2.3710833	1.5398322
14.524717685809168	2.392638	1.5468154
14.542386348237134	2.3841257	1.5440614
14.560055358270553	2.4340017	1.5601287
14.577724716350051	2.4966452	1.5800776
14.595394422916325	2.5061321	1.5830768
14.61306447841015	2.4642634	1.5697973
14.63073488327237	2.4218235	1.5562209
14.648405637943917	2.445521	1.5638162
14.6660767428658	2.461039	1.5687699
14.683748198479094	2.4683	1.5710825
14.701420005224954	2.505767	1.5829614
14.719092163544628	2.5812426	1.6066246
14.73676467387942	2.647267	1.6270424
14.754437536670727	2.6526308	1.6286899
14.772110752360014	2.6900012	1.6401223
14.78978432138882	2.6909008	1.6403966
14.807458244198777	2.728208	1.6517289
14.82513252123159	2.683949	1.6382762
14.842807152929028	2.699464	1.6430045
14.860482139732962	2.6762056	1.6359112
14.87815748208531	2.6594272	1.630775
14.8958331804281	2.6366785	1.6237853
14.91350923520342	2.5853658	1.6079073
14.931185646853438	2.5763512	1.6051016
14.948862415820408	2.5834084	1.6072985
14.966539542546656	2.6642475	1.6322523
14.98421702747459	2.6753983	1.6356645
15.001894871046696	2.687114	1.6392419
15.019573073705542	2.7059226	1.6449689
15.037251635893766	2.6915376	1.6405907
15.054930558054092	2.7139487	1.6474067
15.072609840629323	2.75201	1.6589184
15.090289484062351	2.8832302	1.6980077
15.107969488796124	3.1397557	1.7719356
15.125649855273691	3.5206275	1.8763335
15.14333058393817	4.0144043	2.0035977
15.161011675232768	4.97477	2.2304192
15.17869312960076	6.322982	2.514554
15.196374947485506	8.189605	2.8617485
15.214057129330447	11.309029	3.36289
15.231739675579114	16.121052	4.015103
15.249422586675102	21.320326	4.617394
15.267105863062092	24.6632	4.9662056
15.284789505183847	25.11847	5.0118327
15.302473513484218	23.197212	4.8163486
15.320157888407127	19.57142	4.4239597
15.337842630396578	15.211716	3.90022
15.355527739896656	11.769665	3.4306946
15.37321321735153	9.082122	3.013656
15.39089906320545	6.523335	2.554082
15.408585277902748	4.8725123	2.2073767
15.42627186188783	3.7750995	1.9429616
15.443958815605198	3.2068868	1.7907783
15.461646139499424	2.912044	1.7064712
15.479333834015168	2.76057	1.6614963
15.497021899597165	2.6937308	1.641259
15.514710336690234	2.6569376	1.6300116
15.53239914573928	2.6094031	1.6153647
15.550088327189297	2.5585685	1.5995526
15.567777881485336	2.4808514	1.5750719
15.58546780907256	2.440539	1.5622224
15.6031581103962	2.4111152	1.5527766
15.620848785901568	2.4515336	1.5657374
15.638539836034063	2.5117095	1.5848373
15.656231261239173	2.5263653	1.5894544
15.673923061962451	2.495038	1.579569
15.691615238649552	2.4526553	1.5660956
15.709307791746202	2.4517295	1.5658
15.727000721698221	2.4486446	1.5648146
15.744694028951498	2.431533	1.5593374
15.76238771395202	2.3936164	1.5471317
15.780081777145844	2.4074178	1.5515856
15.797776218979125	2.4120944	1.5530919
15.815471039898094	2.391382	1.5464094
15.833166240349064	2.3525448	1.5338007
15.850861820778437	2.344622	1.5312158
15.868557781632699	2.3702664	1.539567
15.886254123358412	2.4026184	1.5500382
15.903950846402232	2.448983	1.5649227
15.921647951210897	2.4511976	1.5656301
15.939345438231225	2.4099412	1.5523986
15.957043307910133	2.3916073	1.5464822
15.974741560694602	2.3866699	1.544885
15.992440197031714	2.3879669	1.5453048
16.01013921736862	2.3851943	1.5444075
16.02783862215259	2.3921201	1.546648
16.045538411830933	2.3916833	1.5465068
16.06323858685107	2.3594723	1.5360574
16.080939147660512	2.3624382	1.5370225
16.09864009470684	2.4288154	1.5584657
16.11634142843774	2.468638	1.57119
16.134043149300954	2.4533756	1.5663255
16.15174525774433	2.438289	1.5615021
16.169447754215817	2.4393435	1.5618398
16.18715063916342	2.4554698	1.5669938
16.204853913035244	2.4876304	1.5772223
16.222557576279478	2.479328	1.5745882
16.240261629344403	22.441923	4.737291
16.257966072678386	42.97708	6.555691
16.275670906729868	38.064957	6.1696806
16.293376131947387	2.4863427	1.576814
16.31108174877957	2.501002	1.5814557
16.328787757675133	2.5394652	1.59357
16.34649415908287	2.5218098	1.5880207
16.364200953451657	2.511799	1.5848657
16.38190814123048	2.5415168	1.5942135
16.39961572286839	2.5843956	1.6076056
16.41732369881455	2.6129043	1.616448
16.43503206951817	2.6111479	1.6159047
16.45274083542859	2.6400766	1.6248313
16.47044999699522	2.7066286	1.6451834
16.488159554667558	2.7715447	1.6647956
16.505869508895184	2.834534	1.6836075
16.523579860127786	2.9059205	1.704676
16.541290608815117	2.9404671	1.714779
16.559001755407035	3.0114808	1.7353618
16.57671330035348	3.0507572	1.7466416
16.59442524410448	3.127209	1.7683916
16.61213758711015	3.2113862	1.7920341
16.629850329820705	3.2927253	1.8145869
16.647563472686436	3.3926964	1.8419274
16.665277016157724	3.427597	1.851377
16.682990960685053	3.4603946	1.8602136
16.70070530671898	3.450676	1.8575995
16.718420054710155	3.471341	1.8631535
16.736135205109335	3.5447667	1.882755
16.753850758367335	3.6579895	1.9125872
16.771566714935087	3.7207003	1.9289117
16.789283075263597	3.7311327	1.931614
16.80699983980398	3.785845	1.9457248
16.82471700900741	3.8560603	1.9636854
16.84243458332518	3.9512007	1.9877627
16.860152563208665	4.011565	2.0028892
16.87787094910932	4.088684	2.0220494
16.89558974147871	4.1499276	2.037137
16.913308940768466	4.218708	2.0539494
16.931028547430333	4.2655478	2.0653203
16.94874856191613	4.3248215	2.0796206
16.966468984677785	4.3316708	2.0812666
16.98418981616729	4.364149	2.0890546
17.00191105683676	4.406479	2.0991614
17.019632707138374	4.4736176	2.1150928
17.03735476752442	4.506528	2.1228585
17.05507723844728	4.4935594	2.1198018
17.072800120359403	4.5478735	2.1325743
17.090523413713353	4.6259665	2.150806
17.108247118961785	4.736958	2.1764555
17.125971236557437	4.7050734	2.1691182
17.143695766953133	4.6812563	2.1636212
17.161420710601806	4.650273	2.156449
17.179146067956477	4.6814394	2.1636634
17.19687183947025	4.634025	2.1526785
17.21459802559634	4.641701	2.1544607
17.232324626788028	4.662885	2.1593714
17.25005164349871	4.6847944	2.1644385
17.267779076181863	4.632703	2.1523714
17.285506925291074	4.5654955	2.136702
17.30323519127999	4.542534	2.1313221
17.320963874602384	4.5202436	2.1260865
17.33869297571211	4.5499206	2.1330543
17.356422495063114	4.534566	2.129452
17.37415243310944	4.5527215	2.1337106
17.391882790305218	4.5449705	2.1318936
17.40961356710468	4.5496335	2.132987
17.42734476396215	4.5224695	2.1266098
17.445076381332044	4.4904375	2.1190653
17.462808419668868	4.56419	2.1363964
17.48054087942723	4.7078934	2.169768
17.498273761061835	4.927557	2.21981
17.51600706502747	5.3872013	2.3210344
17.533740791779024	6.0835958	2.4664946
17.551474941771485	7.4762197	2.7342677
17.56920951545993	8.618943	2.9358037
17.586944513299528	10.963275	3.3110836
17.60467993574556	12.778297	3.5746744
17.622415783253373	14.721164	3.8368168
17.64015205627843	16.315022	4.0391855
17.657888755276293	17.566576	4.19125
17.675625880702604	18.084745	4.2526164
17.69336343301311	17.851257	4.225075
17.71110141266366	16.92527	4.114033
17.728839820110178	15.9716425	3.9964538
17.746578655808705	14.90037	3.8600998
17.764317920215372	13.189963	3.631799
17.7820576137864	11.520307	3.3941576
17.79979773697811	9.365395	3.0602932
17.81753829024692	7.4285097	2.7255292
17.835279274049356	5.723346	2.3923516
17.85302068884201	4.7183385	2.1721737
17.870762535081607	4.0986753	2.0245185
17.888504813224934	3.8364003	1.9586731
17.90624752372891	3.722163	1.9292908
17.923990667050536	3.6426532	1.9085736
17.941734243646895	3.5697389	1.8893752
17.959478253975185	3.5188234	1.8758527
17.9772226984927	3.481896	1.8659838
17.994967577656833	3.4109306	1.8468705
18.01271289192506	3.393363	1.8421082
18.030458641754965	3.3801608	1.8385214
18.04820482760425	3.3273423	1.8241004
18.06595144993067	3.3083131	1.8188769
18.083698509192125	3.2727156	1.8090649
18.101446005846576	3.2782245	1.8105868
18.119193940352105	3.2620568	1.8061165
18.136942313166887	3.2413435	1.8003732
18.1546911247492	3.2061975	1.7905858
18.1724403755574	3.1716464	1.7809117
18.19019006604997	3.203651	1.7898746
18.207940196685467	3.2002254	1.7889174
18.225690767922575	3.1588528	1.7773162
18.243441780220046	3.1123025	1.764172
18.261193234036764	3.1114545	1.7639315
18.278945129831676	3.0919895	1.7584054
18.29669746806386	3.0628223	1.7500921
18.314450249192483	3.0490453	1.7461516
18.3322034736768	3.0269883	1.7398242
18.349957141976184	2.9526768	1.7183355
18.3677112545501	2.94509	1.7161264
18.385465811858108	2.9761229	1.7251443
18.403220814359884	3.061602	1.7497435
18.420976262515172	3.1209323	1.7666161
18.43873215678387	3.157766	1.7770104
18.456488497625923	3.153106	1.7756988
18.474245285501407	3.1921208	1.7866508
18.492002520870486	3.251898	1.8033019
18.50976020419343	3.3509927	1.8305717
18.527518335930615	3.6589365	1.9128346
18.545276916542516	4.252791	2.0622296
18.563035946489688	4.402361	2.0981803
18.580795426232832	4.77187	2.184461
18.598555356232698	4.645396	2.155318
18.616315736950185	4.95345	2.2256348
18.63407656884626	4.632357	2.152291
18.65183785238201	4.8276577	2.1971931
18.669599588018617	4.601811	2.145183
18.68736177621737	4.5864635	2.141603
18.705124417439652	4.541345	2.1310432
18.72288751214696	4.379292	2.0926757
18.740651060800886	4.524522	2.1270924
18.758415063863115	4.258208	2.0635426
18.77617952179546	4.413073	2.1007316
18.793944435059814	4.1715436	2.0424356
18.811709804118184	4.2470136	2.0608284
18.829475629432675	4.208671	2.0515046
18.8472419114655	4.0011134	2.0002782
18.86500865067897	4.015558	2.0038857
18.88277584753551	3.6873283	1.9202417
18.90054350249763	3.700351	1.9236296
18.918311616027957	3.4340956	1.8531313
18.936080188589226	3.3547652	1.8316019
18.953849220644265	3.0829835	1.7558427
18.971618712656007	2.895102	1.7014999
18.9893886650875	2.7959492	1.6721092
19.007159078401887	7.9840407	2.8256044
19.024929953062408	32.840977	5.730705
19.042701289532435	32.778023	5.725209
19.060473088275405	25.362026	5.0360727
19.07824534975489	2.682661	1.6378831
19.096018074434568	2.6798105	1.6370127
19.113791262778197	2.6245244	1.6200384
19.13156491524966	2.5852194	1.6078618
19.149339032312945	2.5337496	1.5917757
19.167113614432136	2.5350106	1.5921717
19.184888662071433	2.566797	1.6021227
19.202664175695123	2.5425475	1.5945368
19.220440155767623	2.531815	1.5911678
19.238216602753447	2.5234733	1.5885444
19.2559935171172	2.5257525	1.5892617
19.27377089932361	2.5460765	1.595643
19.291548749837514	2.525871	1.589299
19.309327069123835	2.4793603	1.5745984
19.32710585764763	2.4547145	1.5667529
19.344885115874032	2.4645548	1.56989
19.362664844268313	2.490484	1.5781268
19.380445043295822	2.51196	1.5849164
19.39822571342203	2.5264301	1.5894748
19.41600685511252	2.5248616	1.5889813
19.43378846883297	2.5357869	1.5924155
19.451570555049173	2.5087624	1.5839074
19.469353114227037	2.4888296	1.5776025
19.48713614683254	2.4684925	1.5711437
19.50491965333182	2.4660573	1.5703685
19.52270363419109	2.494801	1.5794939
19.540488089876686	2.512673	1.5851413
19.55827302085503	2.4857311	1.5766201
19.576058427592674	2.494913	1.5795294
19.593844310556282	2.496609	1.5800661
19.611630670212598	2.495149	1.579604
19.629417507028506	2.5099041	1.5842677
19.64720482147098	2.52697	1.5896446
19.6649926140071	2.4891334	1.5776987
19.682780885104084	2.4467733	1.5642165
19.70056963522921	2.4544883	1.5666807
19.718358864849908	2.4835696	1.5759345
19.7361485744337	2.509777	1.5842276
19.753938764448215	2.516064	1.5862106
19.771729435361202	2.4866302	1.5769053
19.789520587640506	2.4817588	1.57536
19.807312221754092	2.5267832	1.5895859
19.825104338170043	2.517116	1.5865421
19.842896937356517	2.5260348	1.5893505
19.860690019781824	2.497633	1.5803901
19.87848358591436	2.5020483	1.5817864
19.896277636222635	2.502768	1.582014
19.914072171175278	2.5270686	1.5896757
19.931867191241015	2.5521333	1.5975398
19.94966269688869	2.5399263	1.5937146
19.967458688587264	2.5101824	1.5843555
19.985255166805807	2.4731097	1.5726124
20.00305213201348	2.462739	1.5693116
20.020849584679578	2.4284499	1.5583484
20.038647525273507	2.4087267	1.5520073
20.05644595426477	2.3943362	1.5473642
20.07424487212299	2.4235518	1.556776
20.092044279317903	2.4314694	1.559317
20.109844176319353	2.4414704	1.5625205
20.127644563597304	2.459398	1.5682468
20.145445441621817	2.4604325	1.5685766
20.16324681086307	2.4769526	1.5738337
20.181048671791373	2.446509	1.564132
20.198851024877122	2.4417756	1.5626181
20.216653870590836	2.397323	1.5483291
20.234457209403146	2.3676386	1.5387133
20.252261041784802	2.3583233	1.5356834
20.270065368206662	2.4210083	1.555959
20.287870189139685	2.4287755	1.558453
20.305675505054968	2.4188027	1.55525
20.323481316423702	2.3412607	1.5301179
20.341287623717207	2.3238912	1.5244315
20.359094427406884	2.3045502	1.5180745
20.376901727964288	2.3236759	1.5243608
20.39470952586107	2.3424454	1.530505
20.41251782156899	2.3386588	1.5292674
20.430326615559935	2.3208299	1.523427
20.448135908305886	2.3128722	1.520813
20.465945700278965	2.3329637	1.5274042
20.483755991951384	2.331987	1.5270845
20.50156678379548	2.3469825	1.5319865
20.519378076283708	2.3329523	1.5274005
20.537189869888635	2.3318982	1.5270554
20.55500216508294	2.3035736	1.5177528
20.572814962339415	2.2740774	1.5080044
20.59062826213098	2.2383964	1.4961271
20.60844206493066	2.242453	1.4974823
20.626256371211593	2.251983	1.5006608
20.644071181447032	2.294787	1.5148554
20.66188649611036	2.3120172	1.5205319
20.67970231567506	2.3229225	1.5241137
20.697518640614742	2.3261619	1.525176
20.715335471403122	2.2873063	1.5123843
20.73315280851404	2.274511	1.5081482
20.750970652421447	2.2467134	1.4989041
20.768789003599412	2.263641	1.5045402
20.786607862522136	2.2618911	1.5039585
20.8044272296639	2.2999725	1.516566
20.82224710549913	2.3216178	1.5236856
20.84006749050237	2.3181386	1.5225434
20.857888385148268	3.8587773	1.964377
20.8757097899116	45.9472	6.7784367
20.893531705267254	64.79007	8.049228
20.911354131690224	83.77648	9.152949
20.92917706965566	69.04234	8.309173
20.94700051963877	50.109764	7.078825
20.96482448211493	29.400082	5.422184
20.982648957559622	4.1472907	2.0364897
21.00047394644843	2.2507005	1.5002335
21.01829944925707	2.2738507	1.5079293
21.036125466461375	2.2950847	1.5149537
21.053951998537297	2.2745883	1.5081738
21.071779045960906	2.258058	1.5026836
21.089606609208378	2.25689	1.5022949
21.10743468875603	2.280378	1.5100921
21.12526328508028	2.2673142	1.5057603
21.143092398657675	2.2107835	1.4868704
21.16092202996488	2.185531	1.4783541
21.17875217947867	2.1913831	1.4803321
21.19658284767596	2.2202535	1.4900515
21.21441403503377	2.207268	1.4856877
21.232245742029225	2.2041798	1.484648
21.2500779691396	2.1997013	1.483139
21.26791071684227	2.197251	1.4823128
21.28574398561475	2.1708076	1.473366
21.30357777593465	2.1471043	1.4653001
21.321412088279704	2.1407442	1.4631282
21.339246923127792	2.13388	1.4607806
21.357082280956888	2.1111908	1.4529938
21.3749181622451	2.070974	1.439088
21.392754567470647	2.073491	1.4399621
21.41059149711187	2.1081598	1.4519503
21.42842895164726	2.1168962	1.4549557
21.446266931555378	2.1335888	1.460681
21.464105437314945	2.147601	1.4654695
21.481944469404798	2.1512778	1.4667234
21.49978402830388	2.14	1.4628739
21.51762411449127	2.133376	1.460608
21.53546472844617	2.1403654	1.4629987
21.553305870647876	2.1292822	1.459206
21.571147541575865	2.1172974	1.4550936
21.58898974170967	2.1188016	1.4556104
21.60683247152899	2.089977	1.4456753
21.62467573151363	2.0731163	1.4398321
21.642519522143523	2.0494766	1.4315994
21.660363843898722	2.0539894	1.4331746
21.6782086972594	2.0484369	1.4312361
21.696054082705864	2.0721185	1.4394855
21.713900000718535	2.1077638	1.4518139
21.73174645177795	2.0925753	1.4465736
21.749593436364794	2.062541	1.436155
21.767440954959845	2.0426753	1.4292219
21.785289008044032	2.0320246	1.425491
21.803137596098388	2.0137231	1.4190571
21.820986719604086	2.02428	1.4227719
21.838836379042412	2.0152135	1.4195821
21.85668657489478	2.04611	1.430423
21.87453730764273	2.0014303	1.4147191
21.892388577767914	1.976441	1.4058596
21.91024038575213	1.9415427	1.3933926
21.928092732077285	1.9773939	1.4061984
21.945945617225426	2.0210614	1.4216404
21.963799041678694	2.035276	1.426631
21.981653005919398	31.330238	5.597342
21.999507510429943	78.116714	8.8383665
22.01736255569286	73.07333	8.548294
22.035218142190818	4.1920805	2.047457
22.05307427040661	2.0148919	1.4194689
22.07093094082315	1.9937544	1.4120036
22.088788153923474	2.0093396	1.4175117
22.106645910190746	2.01706	1.4202324
22.12450421010827	1.9946039	1.4123044
22.142363054159464	1.9520701	1.3971651
22.16022244282787	1.9307656	1.3895199
22.178082376597164	1.9097034	1.3819202
22.195942855951145	1.93183	1.389903
22.213803881373742	1.9180491	1.3849365
22.231665453349002	1.9145645	1.3836778
22.24952757236111	1.9131181	1.3831551
22.26739023889438	1.9363096	1.3915135
22.28525345343323	1.9519434	1.3971196
22.30311721646225	1.9417958	1.3934834
22.320981528466113	1.9462031	1.3950639
22.33884638992964	1.9362533	1.3914932
22.356711801337788	1.9408084	1.393129
22.37457776317561	1.9467776	1.3952698
22.392444275928337	1.933478	1.3904955
22.410311340081282	1.9431239	1.3939598
22.428178956119904	1.9607481	1.4002671
22.446047124529805	1.9633664	1.4012017
22.46391584579669	1.935248	1.3911319
22.481785120406414	1.93661	1.3916214
22.49965494884496	1.9674306	1.4026513
22.51752533159841	1.9390236	1.3924882
22.53539626915302	1.9009023	1.3787321
22.553267761995137	1.9037265	1.379756
22.571139810611264	1.9416311	1.3934243
22.589012415488025	1.933	1.3903236
22.60688557711216	1.9121575	1.3828079
22.624759295970566	1.8952048	1.3766644
22.642633572550263	1.9341087	1.3907224
22.660508407338362	1.9571941	1.3989975
22.67838380082217	1.9765432	1.4058958
22.696259753489077	1.963414	1.4012188
22.714136265826614	1.8889071	1.3743751
22.73201333832246	1.896535	1.3771474
22.74989097146439	1.9048213	1.3801526
22.76776916574035	1.9456931	1.394881
22.785647921638393	1.9422336	1.3936404
22.803527239646712	1.9499404	1.3964027
22.82140712025363	1.9378673	1.392073
22.839287563947593	1.9711927	1.4039917
22.85716857121719	1.9520462	1.3971565
22.875050142551135	1.9391544	1.3925352
22.892932278438277	1.9176289	1.3847848
22.910814979367604	1.9150493	1.3838531
22.928698245828222	1.8938422	1.3761694
22.946582078309387	1.8981608	1.3777375
22.96446647730047	1.9029347	1.379469
22.98235144329098	1.9160823	1.3842262
23.000236976770562	1.9712111	1.4039983
23.018123078229	1.9823574	1.4079621
23.03600974815619	1.9386317	1.3923476
23.053896987042194	1.8651093	1.3656901
23.071784795377173	1.8310345	1.3531573
23.08967317365145	1.8308656	1.3530948
23.10756212235546	1.870402	1.3676264
23.125451641979787	1.8788954	1.370728
23.143341733015134	1.8754228	1.3694608
23.161232395952357	1.8880348	1.3740578
23.179123631282426	1.9180275	1.3849287
23.197015439496468	1.9118881	1.3827105
23.214907821085717	1.9068145	1.3808745
23.23280077654157	1.8886113	1.3742676
23.250694306355538	1.8511628	1.3605745
23.268588411019277	1.852299	1.360992
23.28648309102458	1.9204005	1.3857851
23.304378346863356	1.9721594	1.404336
23.322274179027676	1.9578277	1.3992239
23.340170588009723	1.9189855	1.3852745
23.358067574301852	1.9224547	1.3865261
23.37596513839651	1.9556164	1.3984336
23.39386328078629	1.9750472	1.4053637
23.411762001963947	1.9730121	1.4046395
23.429661302422353	1.9436202	1.3941379
23.4475611826545	1.9454579	1.3947967
23.46546164315356	1.9304534	1.3894076
23.48336268441279	1.9376937	1.3920107
23.501264306925638	1.9454013	1.3947765
23.51916651118564	1.949675	1.3963076
23.537069297686497	1.9321564	1.3900203
23.554972666922037	1.915769	1.3841131
23.57287661938623	1.91626	1.3842905
23.59078115557318	1.8890455	1.3744255
23.608686275977128	1.8704841	1.3676565
23.62659198109246	1.861215	1.3642635
23.6444982714137	1.9019675	1.3791184
23.66240514743549	1.9108745	1.3823439
23.68031260965263	1.9491216	1.3961095
23.698220658560068	1.9403273	1.3929563
23.716129294652845	1.936556	1.3916019
23.7340385184262	1.8956641	1.3768312
23.75194833037546	1.8937194	1.3761247
23.769858730996123	1.9143002	1.3835824
23.78776972078382	1.9319959	1.3899626
23.80568130023431	1.9178649	1.38487
23.823593469843495	1.8808541	1.3714423
23.841506230107424	1.8199443	1.3490531
23.859419581522275	1.8526511	1.3611213
23.87733352458438	1.8837347	1.3724922
23.89524805979019	1.9024054	1.3792771
23.913163187636318	1.9039791	1.3798475
23.931078908619508	1.9360415	1.391417
23.948995223236633	1.9581689	1.3993459
23.966912131984735	1.975198	1.4054174
23.98482963536096	2.0219882	1.4219663
24.002747733862616	2.0201764	1.4213291
24.020666427987155	1.9933054	1.4118447
24.038585718232156	1.9821118	1.407875
24.056505605095353	1.972116	1.4043205
24.074426089074617	1.9550027	1.3982141
24.092347170667946	1.9847289	1.408804
24.110268850373515	2.034434	1.4263359
24.128191128689586	2.037635	1.4274576
24.146114006114626	2.0108893	1.4180583
24.164037483147187	2.0094626	1.4175551
24.181961560286005	2.0496924	1.4316747
24.199886238029926	2.0730782	1.4398187
24.21781151687797	2.0647964	1.43694
24.235737397329274	2.079619	1.4420884
24.253663879883135	2.037103	1.4272711
24.271590965038975	2.005974	1.4163241
24.289518653296376	2.02282	1.4222587
24.30744694515505	2.0341372	1.4262319
24.32537584111486	2.0288315	1.4243705
24.34330534167581	2.0331814	1.4258968
24.361235447338046	2.0358322	1.4268259
24.379166158601876	2.0051205	1.4160228
24.39709747596772	1.9877347	1.4098705
24.41502939993615	2.0038726	1.4155821
24.432961931007917	2.0153043	1.4196142
24.450895069683856	1.964972	1.4017746
24.468828816465	1.9613338	1.4004762
24.4867631718525	1.9629266	1.4010448
24.504698136347656	1.970901	1.4038879
24.52263371045192	1.9506173	1.3966451
24.540569894666874	1.9376223	1.391985
24.558506689494266	1.9323192	1.3900788
24.57644409543597	1.9595361	1.3998343
24.594382112994012	1.9997238	1.4141159
24.61232074267057	2.0013006	1.4146733
24.630259984967953	1.9572344	1.399012
24.64819984038863	1.8990325	1.3780539
24.66614030943522	1.9157845	1.3841187
24.684081392610462	1.9762915	1.4058064
24.702023090417274	2.051337	1.432249
24.7199654033587	2.0812802	1.4426643
24.737908331937927	2.0602825	1.4353684
24.755851876658305	2.041843	1.4289306
24.773796038023324	2.0208654	1.4215715
24.79174081653661	2.000913	1.4145362
24.809686212701962	2.060688	1.4355097
24.827632227023294	2.079271	1.4419677
24.8455788600047	2.0840714	1.4436313
24.8635261121504	2.0840425	1.4436213
24.88147398396475	2.10309	1.4502034
24.899422475952303	2.1506631	1.466514
24.917371588617698	2.1708326	1.4733746
24.935321322465768	2.2037508	1.4845036
24.953271678001478	2.311381	1.5203227
24.97122265572994	2.497229	1.5802623
24.989174256156414	2.7978005	1.6726627
25.00712647978632	3.2317119	1.7976962
25.02507932712521	3.8324413	1.9576622
25.043032798678798	4.4348702	2.1059132
25.060986894952933	5.1327305	2.265553
25.078941616453637	5.866213	2.4220266
25.096896963687055	6.8691425	2.620905
25.114852937159508	8.124001	2.8502634
25.132809537377444	8.778455	2.9628458
25.150766764847468	8.805326	2.967377
25.168724620076347	8.042338	2.8359017
25.186683103570985	6.8622403	2.619588
25.204642215838426	5.5777583	2.3617277
25.222601957385894	4.128993	2.0319924
25.24056232872074	3.1247466	1.7676953
25.25852333035048	2.6048057	1.6139411
25.276484962782778	2.2784126	1.5094411
25.294447226525435	2.0798194	1.4421579
25.312410122086423	1.978826	1.4067075
25.330373649973843	1.9375706	1.3919665
25.348337810695988	1.9159436	1.3841761
25.366302604761245	1.883458	1.3723913
25.384268032678207	1.8547843	1.3619046
25.40223409495558	1.9074372	1.3810999
25.420200792102257	1.9397622	1.3927535
25.438168124627246	1.9445904	1.3944857
25.45613609303974	1.8890398	1.3744234
25.474104697849057	1.8917681	1.3754156
25.492073939564698	1.9186441	1.3851513
25.510043818696285	1.9078307	1.3812424
25.528014335753614	1.8635191	1.3651077
25.54598549124664	1.8692307	1.3671981
25.56395728568544	1.8940402	1.3762413
25.58192971958028	1.8964889	1.3771306
25.59990279344156	1.8769443	1.3700162
25.617876507779833	1.8385161	1.3559189
25.635850863105826	1.8172637	1.3480593
25.653825859930386	1.8680576	1.3667691
25.671801498764548	1.9200928	1.3856741
25.68977778011949	1.8799837	1.371125
25.707754704506524	1.841666	1.35708
25.725732272437153	1.8689324	1.367089
25.743710484423012	1.8948766	1.3765452
25.761689340975888	1.8900174	1.374779
25.77966884260774	1.8615327	1.36438
25.797648989830662	1.8630017	1.3649182
25.815629783156922	1.8646747	1.365531
25.83361122309895	1.8663268	1.3661357
25.85159331016929	1.8569132	1.362686
25.869576044880695	1.843634	1.3578049
25.887559427746034	1.7889317	1.3375095
25.90554345927836	1.7725524	1.3313724
25.92352813999086	1.8252177	1.3510062
25.94151347039689	1.861639	1.364419
25.959499451009965	1.8550532	1.3620033
25.97748608234374	1.8406532	1.3567067
25.995473364912062	1.8120878	1.3461381
26.013461299228904	1.770607	1.3306416
26.03144988580839	1.7866056	1.3366396
26.04943912516483	1.8139318	1.3468229
26.067429017812675	1.8177615	1.3482438
26.085419564266537	1.8141168	1.3468915
26.103410765041186	1.8377377	1.3556318
26.12140262065155	1.8658395	1.3659574
26.139395131612723	1.8485775	1.359624
26.157388298439948	1.8134853	1.346657
26.17538212164861	1.7970606	1.3405449
26.193376601754295	1.8012433	1.3421041
26.211371739272714	1.800655	1.3418849
26.229367534719746	1.8122351	1.3461928
26.247363988611433	1.8255383	1.3511248
26.26536110146397	1.8265978	1.3515168
26.283358873793727	1.8265446	1.3514972
26.301357306117204	1.8058953	1.3438361
26.319356398951104	1.7573806	1.3256624
26.33735615281224	1.7646884	1.3284158
26.35535656821762	1.8196255	1.348935
26.373357645684404	1.8722132	1.3682884
26.39135938572991	1.8963023	1.3770629
26.409361788871614	1.8367268	1.355259
26.427364855627165	1.8015162	1.3422058
26.445368586514352	1.776325	1.3327885
26.46337298205115	1.8064213	1.3440317
26.48137804275568	1.8000566	1.3416619
26.499383769146217	1.8212237	1.3495272
26.517390161741215	1.8499714	1.3601365
26.53539722105928	1.8577155	1.3629804
26.553404947619182	1.869947	1.36746
26.571413341939856	1.878291	1.3705076
26.589422404540397	1.8874273	1.3738368
26.60743213594006	1.8417386	1.3571067
26.62544253665827	1.8238773	1.35051
26.64345360721459	1.8165932	1.3478105
26.66146534812879	1.825127	1.3509727
26.679477759920758	1.869255	1.3672069
26.69749084311057	1.860416	1.3639706
26.71550459821847	1.8285742	1.3522478
26.733519025764842	1.7647026	1.3284211
26.751534126270258	1.75996	1.3266349
26.769549900255434	1.8011878	1.3420833
26.787566348241267	1.8316177	1.3533727
26.80558347074881	1.8336968	1.3541406
26.823601268299267	1.8233799	1.3503258
26.841619741414036	1.789569	1.3377477
26.85963889061465	1.8297377	1.352678
26.877658716422832	1.8386043	1.3559514
26.89567921936045	1.8122174	1.3461863
26.913700399949544	1.7723784	1.331307
26.93172225871233	1.7753309	1.3324155
26.949744796171174	1.7838702	1.335616
26.967768012848605	1.8213701	1.3495815
26.98579190926733	1.8623044	1.3646628
27.003816485950225	1.8809856	1.3714902
27.021841743420318	1.850404	1.3602955
27.039867682200814	1.836483	1.3551689
27.057894302815072	1.7992611	1.3413653
27.07592160578664	1.7482193	1.3222024
27.0939495916392	1.748591	1.322343
27.111978260896635	1.7457753	1.321278
27.13000761408296	1.7342464	1.3169079
27.148037651722397	1.7351097	1.3172356
27.166068374339304	1.7526062	1.3238603
27.184099782458215	1.7968524	1.3404672
27.20213187660384	1.805695	1.3437616
27.22016465730105	1.8028195	1.3426912
27.23819812507487	1.801271	1.3421143
27.256232280450533	1.8279053	1.3520005
27.274267123953383	1.8250629	1.3509489
27.292302656108987	1.8002553	1.341736
27.31033887744306	1.7239913	1.3130084
27.32837578848146	1.6847535	1.2979805
27.34641338975026	1.6850386	1.2980903
27.364451681775673	1.7112724	1.3081561
27.382490665084074	1.7517112	1.3235223
27.400530340202046	1.7748808	1.3322465
27.41857070765629	1.7615731	1.3272426
27.436611767973726	1.7820644	1.3349398
27.454653521681404	1.7777952	1.3333398
27.472695969306564	1.7207602	1.3117775
27.490739111376627	1.7246643	1.3132647
27.508782948419153	1.7941549	1.3394606
27.526827480961902	1.818116	1.3483753
27.54487270953279	1.7904161	1.3380643
27.562918634659898	1.7826562	1.3351614
27.580965256871508	1.8246049	1.3507794
27.599012576696026	1.8374919	1.3555412
27.617060594662068	1.8325677	1.3537236
27.63510931129842	1.8605889	1.364034
27.65315872713401	1.864059	1.3653054
27.67120884269797	1.8348652	1.3545719
27.68925965851958	1.8014904	1.3421961
27.707311175128307	1.7784636	1.3335905
27.725363393053787	1.7963645	1.3402853
27.74341631282583	1.8512615	1.3606107
27.7614699349744	1.8847133	1.3728486
27.77952426002968	2.0325682	1.4256817
27.797579288521973	2.1055498	1.4510512
27.815635020981784	2.435031	1.5604585
27.83369145793979	2.4981763	1.580562
27.85174859992682	2.3532448	1.5340289
27.869806447473923	2.1801171	1.476522
27.887865001112267	1.9423057	1.3936663
27.905924261373233	1.8809676	1.3714837
27.92398422878836	1.9122938	1.3828571
27.94204490388936	1.9252039	1.3875172
27.96010628720813	1.9237931	1.3870087
27.978168379276728	1.8950746	1.3766171
27.9962311806274	1.8523707	1.3610183
28.014294691792568	1.8562037	1.3624257
28.0323589133048	1.8733621	1.3687081
28.050423845696887	1.8651729	1.3657134
28.068489489501758	1.8620543	1.3645711
28.086555845252523	1.8702191	1.3675596
28.104622913482487	1.8884615	1.374213
28.122690694725115	1.8731344	1.368625
28.14075918951405	1.8824818	1.3720356
28.15882839838312	1.9265695	1.3880092
28.176898321866304	1.8985738	1.3778874
28.1949689604978	1.8903036	1.3748832
28.213040314811945	1.8714974	1.3680269
28.23111238534327	1.8887752	1.3743272
28.249185172626493	1.8784946	1.3705819
28.267258677196473	1.9152423	1.3839228
28.285332899588294	1.932273	1.3900622
28.303407840337172	1.9290406	1.3888991
28.321483499978545	1.9749876	1.4053426
28.33955987904799	1.9738891	1.4049517
28.357636978081285	1.9352456	1.391131
28.37571479761439	1.9387666	1.392396
28.393793338183425	1.9635392	1.4012635
28.41187260032469	1.9491718	1.3961275
28.429952584574686	1.9184556	1.3850832
28.448033291470065	1.9044274	1.3800099
28.46611472154769	1.9289559	1.3888686
28.484196875344566	1.9501942	1.3964936
28.502279753397914	1.9214833	1.3861758
28.52036335624511	1.8979648	1.3776665
28.538447684423716	1.9567558	1.3988409
28.556532738471482	2.0008554	1.414516
28.574618518926325	2.059344	1.4350414
28.59270502632635	2.0697906	1.4386767
28.61079226120985	2.040114	1.4283255
28.628880224115274	2.0375655	1.4274331
28.646968915581287	2.0274463	1.4238843
28.66505833614671	2.0388148	1.4278708
28.68314848635055	2.0792694	1.4419672
28.701239366732004	2.0566094	1.4340883
28.71933097783044	2.0848253	1.4438924
28.737423320185403	2.1325395	1.4603217
28.75551639433665	2.159909	1.4696629
28.773610200824074	2.1258361	1.4580247
28.791704740187793	2.1174695	1.4551528
28.80980001296809	2.144203	1.4643097
28.827896019705413	2.161568	1.4702271
28.845992760940433	2.193328	1.4809889
28.86409023721397	2.2503123	1.5001041
28.88218844906704	2.2399325	1.4966404
28.900287397040845	2.2650769	1.5050173
28.918387081676755	2.2618399	1.5039414
28.936487503516343	2.25757	1.5025213
28.954588663101365	2.2746508	1.5081946
28.97269056097374	2.2758932	1.5086064
28.990793197675597	2.2440019	1.4979993
29.00889657374923	2.2373512	1.4957777
29.027000689737125	2.2916873	1.513832
29.04510554618196	2.3732858	1.5405473
29.06321114362659	2.4044802	1.5506387
29.08131748261405	2.435788	1.5607011
29.099424563687567	2.459265	1.5682044
29.11753238739057	2.4467194	1.5641993
29.13564095426663	2.5019505	1.5817555
29.15375026485954	2.575484	1.6048315
29.171860319713275	2.6698606	1.6339709
29.18997111937199	2.7349243	1.6537607
29.20808266438002	2.7709463	1.664616
29.226194955281898	2.7792037	1.6670943
29.244307992622335	2.8256912	1.6809793
29.26242177694624	2.8499947	1.6881927
29.2805363087987	2.9328876	1.7125676
29.29865158872498	3.0291045	1.7404323
29.316767617270557	3.0109963	1.7352222
29.334884394981064	2.9953804	1.7307167
29.353001922402367	3.0121217	1.7355465
29.37112020008047	3.114741	1.7648629
29.389239228561596	3.2470434	1.8019555
29.407359008392152	3.412952	1.8474176
29.42547954011872	3.6964712	1.9226209
29.44360082428809	4.318777	2.0781667
29.46172286144722	5.3543587	2.3139486
29.479845652143283	6.979107	2.6418
29.497969196923606	9.241711	3.0400183
29.516093496335728	12.067604	3.4738457
29.5342185509274	15.106957	3.886767
29.55234436124651	17.694557	4.20649
29.570470927841175	19.1749	4.3789153
29.588598251259686	18.97012	4.35547
29.60672633205055	17.60464	4.1957884
29.624855170762405	15.248668	3.9049542
29.642984767944146	12.241916	3.4988449
29.66111512414481	9.320533	3.0529547
29.67924623991366	6.7448087	2.597077
29.697378115800138	5.0389385	2.244758
29.71551075235387	4.1588674	2.0393302
29.733644150124675	3.7644715	1.9402246
29.751778309662576	3.5407858	1.8816975
29.769913231517766	3.431948	1.8525517
29.78804891624066	3.3588505	1.8327167
29.806185364381818	3.3610594	1.8333192
29.82432257649206	3.4175441	1.8486601
29.842460553122333	3.3494062	1.8301383
29.86059929482382	3.3126462	1.8200676
29.878738802147872	3.2971227	1.815798
29.896879075646048	3.2994587	1.8164412
29.915020115870114	3.2509382	1.8030359
29.933161923371976	3.2403722	1.8001034
29.951304498703777	3.2198079	1.7943823
29.969447842417857	3.2296925	1.7971345
29.987591955066733	3.2735715	1.8093014
30.005736837203123	3.2637362	1.8065814
30.023882489379943	3.1663857	1.7794341
30.04202891215028	3.1014447	1.761092
30.060176106067455	3.118902	1.7660413
30.078324071684946	3.165782	1.7792645
30.09647280955646	3.1802015	1.783312
30.114622320235863	3.148202	1.7743173
30.132772604277257	3.210947	1.7919116
30.1509236622349	3.1633904	1.7785922
30.16907549466328	3.064892	1.7506833
30.18722810211705	3.0347025	1.7420398
30.205381485151097	3.069845	1.7520972
30.22353564432045	3.052581	1.7471638
30.241690580180403	3.1133504	1.7644689
30.25984629328638	3.1004794	1.7608178
30.278002784194037	3.0021713	1.7326775
30.296160053459246	2.8878856	1.699378
30.314318101638033	2.850112	1.6882274
30.332476929286646	2.8655593	1.6927963
30.35063653696153	2.9006007	1.703115
30.368796925219307	2.9296613	1.7116253
30.386958094616844	2.9666667	1.7224014
30.40512004571115	2.9318433	1.7122626
30.423282779059463	2.8551264	1.6897119
30.441446295219233	2.8141444	1.6775411
30.459610594748067	2.8353934	1.6838627
30.47777567820382	2.8782482	1.6965401
30.495941546144504	2.8971238	1.702094
30.51410819912835	2.8153045	1.677887
30.532275637713795	2.8159597	1.6780821
30.55044386245946	2.8399413	1.6852125
30.56861287392416	2.8723266	1.6947939
30.586782672666956	2.8921854	1.7006427
30.604953259247047	2.8526018	1.6889647
30.623124634223885	2.7968233	1.6723706
30.641296798157075	2.7644699	1.6626695
30.659469751606462	2.7492507	1.6580864
30.677643495132074	2.7408657	1.655556
30.695818029294152	2.7299628	1.65226
30.713993354653116	2.7017925	1.643713
30.73216947176962	2.678778	1.6366973
30.75034638120448	2.6622307	1.6316344
30.768524083518756	2.740755	1.6555226
30.786702579273673	2.8333035	1.683242
30.80488186903069	2.8419442	1.6858068
30.82306195335144	2.8978066	1.7022945
30.841242832797782	3.0805163	1.75514
30.85942450793176	3.3726442	1.836476
30.877606979315637	3.728287	1.9308772
30.895790247511883	4.161802	2.0400496
30.913974313083134	4.6860332	2.1647248
30.932159176592283	5.0441866	2.2459266
30.95034483860237	4.9897556	2.233776
30.968531299676698	4.7621017	2.182224
30.98671856037873	4.465847	2.113255
31.00490662127215	4.081137	2.0201824
31.023095482920848	3.6303961	1.9053599
31.04128514588892	3.1328578	1.7699881
31.059475610740662	2.7243261	1.6505532
31.07766687804056	2.5349078	1.5921394
31.09585894835335	2.468037	1.5709987
31.11405182224393	2.448473	1.5647597
31.132245500277417	2.468787	1.5712374
31.15043998301914	2.4141915	1.5537668
31.168635271034628	2.3748534	1.5410559
31.18683136488964	2.436328	1.5608741
31.20502826515008	2.4436767	1.5632263
31.223225972382135	2.3785126	1.5422428
31.241424487152155	2.3279274	1.5257547
31.259623810026692	2.3993967	1.5489986
31.27782394157253	2.4232128	1.5566672
31.296024882356644	2.3881657	1.5453691
31.314226632946237	2.3493826	1.5327696
31.332429193908684	2.3597465	1.5361466
31.350632565811598	2.3788931	1.542366
31.368836749222787	2.3627992	1.5371399
31.387041744710295	2.4255397	1.5574144
31.40524755284232	2.499389	1.5809456
31.423454174187317	2.5890138	1.6090412
31.441661609313922	2.5660527	1.6018903
31.459869858791002	2.512065	1.5849495
31.478078923187628	2.4046087	1.55068
31.496288803073064	2.3662076	1.5382482
31.514499499016807	2.3753057	1.5412027
31.532711011588546	2.314181	1.5212432
31.550923341358178	2.294622	1.5148009
31.56913648889584	2.382614	1.5435718
31.587350454771844	2.4157536	1.5542694
31.605565239556732	2.4000883	1.5492219
31.62378084382127	2.3434749	1.5308412
31.641997268136382	2.3457859	1.5315958
31.660214513073274	2.380685	1.5429469
31.67843257920331	2.3839104	1.5439917
31.6966514670981	2.3127918	1.5207865
31.71487117732944	2.299686	1.5164715
31.733091710469346	2.3980255	1.548556
31.751313067090052	2.3565483	1.5351053
31.769535247764008	2.304965	1.5182111
31.787758253063878	2.2832408	1.5110396
31.805982083562526	2.2442229	1.4980731
31.824206739833024	2.1996095	1.483108
31.84243222244869	2.2769952	1.5089716
31.860658531983013	2.3436878	1.5309107
31.878885669009737	2.3182607	1.5225836
31.897113634102784	2.3366976	1.5286261
31.91534242783632	2.3096497	1.5197532
31.933572050784694	2.2848701	1.5115787
31.951802503522508	2.2157135	1.4885273
31.970033786624548	2.1965697	1.4820828
31.988265900665834	2.1688986	1.4727181
32.006498846221575	2.163632	1.4709289
32.02473262386724	2.1123302	1.4533858
32.04296723417845	2.1099453	1.4525651
32.0612026777311	2.185372	1.4783005
32.07943895510129	2.2471838	1.499061
32.097676066865304	2.1423898	1.4636905
32.115914013599685	2.054905	1.433494
32.13415279588115	2.0147364	1.4194142
32.152392414286666	2.0708215	1.4390349
32.1706328693934	2.135989	1.4615023
32.18887416177875	2.1467366	1.4651746
32.20711629202032	2.0961852	1.4478209
32.225359260695924	2.0841048	1.4436429
32.243603068383614	2.1308434	1.4597409
32.26184771566166	2.1231985	1.45712
32.28009320310852	2.0595398	1.4351097
32.2983395313029	2.09123	1.4461086
32.31658670082372	2.2116492	1.4871614
32.33483471225012	2.1600173	1.4696997
32.35308356616143	2.1553252	1.4681026
32.371333263137245	2.139171	1.4625905
32.38958380375734	2.1126976	1.4535122
32.407835188601744	2.0142992	1.41926
32.42608741825067	2.0303137	1.4248908
32.444340493284585	2.0095618	1.4175901
32.46259441428416	2.0349844	1.4265288
32.48084918183028	2.101965	1.4498155
32.49910479650405	2.0564532	1.4340339
32.51736125888683	2.0009797	1.4145598
32.53561856956014	1.9910262	1.4110372
32.5538767291058	2.0396705	1.4281703
32.572135738105764	2.0660422	1.4373734
32.59039559714228	2.062457	1.4361258
32.608656306797776	2.0462239	1.4304628
32.62691786765491	2.0205507	1.4214607
32.645180280296586	2.0389092	1.4279038
32.663443545305896	2.1377084	1.4620904
32.68170766326619	2.1713502	1.4735502
32.69997263476099	2.0495405	1.4316217
32.7182384603741	1.9751575	1.405403
32.7365051406895	2.0632465	1.4364005
32.75477267629144	2.1283789	1.4588964
32.77304106776434	2.0726135	1.4396574
32.79131031569289	2.0463789	1.430517
32.809580420661966	1.987466	1.4097751
32.827851383256714	2.0034628	1.4154373
32.84612320406245	2.030073	1.4248062
32.86439588366476	2.0804954	1.4423922
32.88266942264945	2.124356	1.457517
32.9009438216025	2.0466416	1.4306089
32.9192190811102	1.9873712	1.4097415
32.937495201758985	1.9088252	1.3816024
32.95577218413556	1.9411701	1.3932588
32.974050028826866	1.9101754	1.3820909
32.992328736420035	1.9636279	1.4012951
33.010608307502444	2.0004964	1.414389
33.02888874266169	1.9859673	1.4092435
33.047170042485604	1.9224738	1.386533
33.06545220756225	1.9300888	1.3892764
33.083735238479896	1.9686838	1.403098
33.10201913582707	2.0603511	1.4353924
33.12030390019248	2.0604322	1.4354205
33.138589532165135	1.9092329	1.3817499
33.15687603233419	1.8396068	1.3563211
33.17516340128909	1.8874635	1.3738499
33.19345163961947	1.9219978	1.3863614
33.211740747915215	1.8410217	1.3568425
33.23003072676643	1.8407952	1.3567591
33.248321576763466	1.8706807	1.3677284
33.266613298496885	1.8421644	1.3572636
33.28490589255747	1.8668051	1.3663107
33.30319935953626	1.9554288	1.3983665
33.32149370002451	1.9530989	1.3975332
33.339788914613706	1.9019904	1.3791267
33.358085003895575	1.9283797	1.3886611
33.376381968462034	1.9950105	1.4124484
33.39467980890529	1.9556992	1.3984631
33.41297852581774	1.988192	1.4100326
33.43127811979204	2.026093	1.423409
33.44957859142105	1.9441922	1.3943429
33.467879941297866	1.877751	1.3703105
33.486182170015844	1.9468901	1.39531
33.50448527816853	1.9517282	1.3970426
33.522789266349754	1.9750301	1.4053576
33.541094135153514	1.9862456	1.4093423
33.55939988517411	1.9928321	1.411677
33.57770651700602	2.0321095	1.4255208
33.59601403124398	2.1101553	1.4526374
33.61432242848296	2.1059542	1.4511906
33.632631709318154	2.0266895	1.4236184
33.650941874344994	2.0305057	1.4249581
33.66925292415916	1.9919446	1.4113626
33.68756485935654	1.9687387	1.4031175
33.70587768053328	1.9182252	1.3850001
33.724191388285746	1.9032096	1.3795686
33.74250598321054	1.9176866	1.3848056
33.760821465904506	2.0202782	1.4213649
33.77913783696474	2.0225003	1.4221463
33.79745509698852	1.9693907	1.4033499
33.815773246573414	1.935232	1.3911262
33.8340922863172	1.9574707	1.3990964
33.852412216817896	1.9139298	1.3834485
33.87073303867377	1.8552909	1.3620906
33.889054752483304	1.9519475	1.3971211
33.907377358845245	1.998164	1.4135643
33.92570085835853	1.9203243	1.3857577
33.94402525162239	1.9578092	1.3992174
33.96235053923627	1.8651887	1.3657191
33.980676721799824	1.872976	1.3685671
33.999003799912984	1.9964489	1.4129575
34.01733177417592	2.0585363	1.43476
34.03566064518901	1.99596	1.4127845
34.0539904135529	1.8523715	1.3610185
34.07232107986846	1.8306501	1.3530152
34.090652644736785	1.8915712	1.375344
34.108985108759235	1.9163285	1.3843151
34.12731847253742	1.9635407	1.401264
34.14565273667313	2.001852	1.4148682
34.16398790176847	2.022871	1.4222767
34.18232396842574	2.0436668	1.4295688
34.20066093724749	1.9585292	1.3994746
34.21899880883651	1.988442	1.4101212
34.23733758379583	2.056331	1.4339913
34.25567726272874	1.9133514	1.3832395
34.27401784623872	1.8820579	1.3718811
34.29235933492957	2.0075963	1.4168967
34.31070172940526	2.025788	1.4233018
34.32904503027003	1.9362296	1.3914846
34.347389238128386	1.8775228	1.3702273
34.36573435358502	1.9799106	1.4070929
34.38408037724492	2.0556161	1.433742
34.402427309713296	1.9282352	1.388609
34.42077515159559	1.7907312	1.3381821
34.43912390349752	1.7964636	1.3403223
34.45747356602499	1.8253804	1.3510664
34.47582413978423	1.879958	1.3711156
34.49417562538163	2.0605648	1.4354668
34.51252802342388	2.1253958	1.4578737
34.53088133451789	2.0369253	1.4272089
34.54923555927084	1.9353416	1.3911655
34.567590698290104	1.9796098	1.4069861
34.58594675218336	1.9731363	1.4046837
34.6043037215585	2.0946798	1.4473009
34.62266160702365	2.2443602	1.4981189
34.641020409187234	2.254732	1.5015764
34.65938012865785	2.0567255	1.4341289
34.677740766044394	1.9102904	1.3821325
34.69610232195598	1.9314871	1.3897796
34.714464797002016	1.9612609	1.4004502
34.73282819179208	1.7767192	1.3329363
34.751192506936064	1.6867769	1.2987597
34.76955774304408	1.7616369	1.3272667
34.7879239007265	1.7687994	1.3299621
34.80629098059391	1.8907015	1.3750278
34.824658983257194	2.0451245	1.4300785
34.843027909327446	1.9848676	1.4088533
34.86139775941603	2.0229924	1.4223194
34.879768534134534	1.9324197	1.390115
34.89814023409483	1.9953532	1.4125698
34.91651285990901	2.1001074	1.4491748
34.93488641218944	2.0195026	1.421092
34.95326089154871	1.9893086	1.4104285
34.97163629859967	1.948385	1.3958457
34.99001263395542	1.9913733	1.4111602
35.00838989822934	1.8350229	1.3546302
35.02676809203499	1.7510098	1.3232573
35.04514721598624	2.0112777	1.4181952
35.063527270697215	2.102764	1.450091
35.081908256782256	2.061849	1.435914
35.10029017485597	1.9893993	1.4104607
35.11867302553321	2.0159023	1.4198247
35.137056809429104	2.0929003	1.4466859
35.155441527159006	2.2763343	1.5087526
35.173827179338524	2.3609307	1.536532
35.19221376658354	2.389467	1.5457901
35.21060128951017	2.2481663	1.4993887
35.2289897487348	1.9709373	1.4039007
35.24737914487405	1.6023612	1.2658441
35.26576947854479	1.6564637	1.2870368
35.28416075036418	1.7712587	1.3308865
35.30255296094958	1.8452762	1.3584094
35.32094611091867	2.0559459	1.433857
35.33934020088932	2.0556576	1.4337565
35.35773523147969	1.8904752	1.3749455
35.3761312033082	1.8799245	1.3711034
35.394528116993506	2.3616366	1.5367618
35.41292597315452	2.6027107	1.6132919
35.431324772410434	2.5095477	1.5841552
35.449724515380666	2.117367	1.4551176
35.46812520268491	1.8857808	1.3732374
35.486526834943106	2.035368	1.4266633
35.504929412775454	2.5455074	1.5954646
35.52333293680242	2.8255243	1.6809297
35.54173740764471	2.274807	1.5082463
35.560142825923286	1.6065375	1.2674925
35.5785491922594	1.5311034	1.2373776
35.59695650727454	1.7361588	1.3176337
35.61536477159042	2.4718385	1.5722082
