0.008763373481513119	0.0	0.0
0.026290120649546365	0.0	0.0
0.043816868432600686	0.1672031	0.40890476
0.06134361724069026	0.25273347	0.502726
0.07887036748382949	0.23926182	0.48914397
0.0963971195720331	0.2630615	0.5128952
0.11392387391531617	0.2190807	0.46806058
0.1314506309236943	0.1584486	0.39805603
0.1489773910071836	0.11852002	0.34426737
0.16650415457580078	0.08714196	0.29519817
0.18403092203956356	0.13182974	0.36308366
0.20155769380849	0.120534204	0.34718037
0.2190844702925996	0.13759503	0.37093803
0.2366112519019124	0.0991363	0.31485918
0.2541380390464497	0.15180743	0.3896247
0.27166483213623416	0.1319203	0.36320832
0.28919163158128947	0.2061507	0.4540382
0.3067184377916406	0.20537736	0.4531858
0.324245251177314	0.21300898	0.46152896
0.34177207214833777	0.15470822	0.39332965
0.3592989011147415	0.10927176	0.3305628
0.37682573848655654	0.11463142	0.33857262
0.39435258467381573	0.13568284	0.36835152
0.41187944008655414	0.15315133	0.39134553
0.42940630513480854	0.16453113	0.40562436
0.446933180228618	0.14370428	0.37908348
0.4644600657780234	0.13144186	0.36254913
0.48198696219306775	0.12850538	0.35847646
0.49951386988379676	0.12439406	0.3526954
0.5170407892602581	0.11457767	0.33849323
0.5345677207325025	0.123345256	0.35120544
0.5520946647105822	0.117261	0.34243393
0.5696216216045534	0.1293808	0.35969543
0.5871485918244737	0.13709526	0.37026376
0.6046755757804043	0.16957141	0.4117905
0.6222025738824094	0.20345117	0.45105562
0.6397295865405557	0.20616223	0.4540509
0.6572566141649129	0.201827	0.4492516
0.6747836571655547	0.18133081	0.42582956
0.6923107159525568	0.17229375	0.4150828
0.7098377909359992	0.15562566	0.39449418
0.7273648825259653	0.1507296	0.3882391
0.7448919911325411	0.15744881	0.3967982
0.762419117165817	0.1417532	0.37650126
0.7799462610358868	0.14786112	0.38452715
0.7974734231528482	0.14041649	0.37472188
0.8150006039268024	0.16346264	0.40430513
0.8325278037678551	0.1830478	0.42784086
0.8500550230861152	0.23800902	0.4878617
0.8675822622916969	0.23918034	0.48906067
0.8851095217947171	0.23633425	0.48614222
0.9026368020052984	0.20328197	0.450868
0.9201641033335665	0.2118238	0.4602432
0.9376914261896523	0.20784774	0.45590323
0.9552187709836915	0.20296898	0.45052078
0.9727461381258234	0.22236188	0.4715526
0.990273528026193	0.24516003	0.49513638
1.0078009410949496	0.2517807	0.5017775
1.0253283777422473	0.29551488	0.5436128
1.0428558383782454	0.27811036	0.5273617
1.0603833234131086	0.25493976	0.5049156
1.0779108332570058	0.2764478	0.52578306
1.0954383683201119	0.32295078	0.5682876
1.112965929012607	0.37952265	0.6160541
1.1304935157446763	0.48138583	0.69381976
1.1480211289265108	0.49857855	0.70610094
1.1655487689683062	1.32324	1.1503217
1.1830764362802655	1.6035829	1.2663265
1.200604131272596	1.968167	1.4029137
1.2181318543555117	2.3113363	1.5203079
1.235659605939232	2.341245	1.5301127
1.253187386433982	3.8943796	1.9734182
1.270715196249994	6.3144794	2.5128627
1.2882430357975057	11.963854	3.4588804
1.3057709054867608	16.868057	4.1070743
1.3232988057280106	22.882828	4.7836
1.3408267369315112	28.028715	5.294215
1.358354699507526	31.480785	5.610774
1.3758826938663256	35.315315	5.942669
1.3934107204181858	37.028915	6.085139
1.410938779573391	37.16457	6.096275
1.4284668717422309	38.010174	6.1652393
1.4459949973350033	37.779755	6.146524
1.4635231567620117	38.031124	6.166938
1.4810513504335687	37.63023	6.1343484
1.4985795787599925	37.26107	6.1041846
1.5161078421516088	36.604458	6.050162
1.5336361410187505	35.56667	5.96378
1.5511644757717598	35.505375	5.9586387
1.5686928468209842	36.2919	6.024276
1.58622125457678	36.79944	6.066254
1.6037496994495108	37.913387	6.157385
1.621278181849548	37.166004	6.0963926
1.6388067021872719	38.04019	6.167673
1.6563352608730693	37.1527	6.095301
1.673863858317336	36.450886	6.037457
1.6913924949304753	35.798298	5.9831676
1.7089211711228998	35.09888	5.924431
1.7264498873050296	34.169064	5.845431
1.7439786438872935	33.104088	5.7536154
1.7615074412801288	32.070194	5.6630554
1.779036279893981	31.340078	5.598221
1.796565160139305	30.478754	5.5207567
1.814094082426564	29.990162	5.4763274
1.8316230471662298	29.550995	5.436083
1.849152054768784	28.971954	5.3825603
1.8666811056447168	28.105812	5.3014913
1.8842102002045273	27.01561	5.1976542
1.901739338858724	26.483976	5.1462584
1.9192685220178245	25.732473	5.0727186
1.9367977500923557	25.034527	5.0034513
1.9543270234928547	24.73204	4.9731317
1.971856342629867	24.637215	4.9635887
1.9893857079139496	24.42175	4.941837
2.006915119755667	23.745342	4.872919
2.0244445785655945	22.711502	4.765659
2.0419740847543175	22.183172	4.7099013
2.0595036387324317	21.689695	4.65722
2.0770332409105414	21.197037	4.604024
2.094562891699263	20.711208	4.5509567
2.1120925915092217	20.282915	4.503656
2.129622340751053	19.957874	4.4674234
2.1471521398354043	188.07817	13.71416
2.1646819891729323	444.31317	21.078737
2.182211889174303	440.46045	20.98715
2.1997418402501974	452.997	21.283726
2.2172718428113023	432.98276	20.808237
2.234801897268317	320.84082	17.91203
2.2523320040319548	17.237383	4.1517925
2.269862163512935	16.96995	4.11946
2.287392376121992	16.748804	4.0925303
2.304922642269869	16.44212	4.0548882
2.322452962367322	15.946768	3.9933405
2.3399833368251164	15.512385	3.9385765
2.357513766054032	15.444961	3.9300077
2.3750442504648586	15.437613	3.9290726
2.3925747904683963	15.1087265	3.8869946
2.410105386475459	14.852798	3.8539329
2.4276360388968707	14.444046	3.8005323
2.445166748143469	14.201784	3.7685254
2.4626975146261025	13.953963	3.7355003
2.4802283387556323	13.62725	3.6915104
2.4977592209429305	13.399989	3.6605995
2.5152901615988825	12.992327	3.604487
2.5328211611343865	12.814735	3.5797675
2.5503522199603523	12.632714	3.554253
2.5678833384877024	12.42492	3.5249
2.5854145171273712	12.252895	3.5004137
2.6029457562903064	12.058221	3.4724948
2.620477056387469	11.781853	3.4324703
2.6380084178298326	11.591071	3.4045663
2.655539841028383	11.398419	3.3761544
2.673071326394119	11.492813	3.3901052
2.6906028743380523	11.3646555	3.3711505
2.708134485271211	11.261098	3.355756
2.7256661596046325	10.938237	3.3073006
2.743197897749369	10.737177	3.2767632
2.760729700116486	10.603896	3.2563624
2.778261567117063	10.449309	3.2325392
2.795793499162193	10.334559	3.214741
2.8133254966629817	10.113501	3.1801732
2.830857560030551	9.978358	3.158854
2.8483896896760337	9.928148	3.1508963
2.865921886010578	9.958608	3.1557262
2.883454149445347	9.898825	3.1462398
2.9009864803915177	9.743963	3.1215322
2.91851887926028	9.496771	3.0816832
2.9360513464628384	9.249458	3.0412922
2.953583882410413	8.960954	2.9934852
2.9711164875142373	8.95673	2.9927797
2.9886491621855606	8.910487	2.985044
3.0061819068356455	8.905893	2.9842744
3.023714721875769	8.879911	2.979918
3.041247607717225	8.785219	2.963987
3.0587805647713213	8.554954	2.9248853
3.0763135934493806	8.367294	2.8926275
3.0938466941627407	8.218962	2.8668733
3.1113798673227544	8.116089	2.848875
3.1289131133407904	7.947901	2.8192022
3.1464464326282315	7.7343616	2.7810721
3.1639798255964786	7.616988	2.7598891
3.1815132926569443	7.545073	2.7468297
3.1990468342210603	7.5545387	2.748552
3.216580450700272	7.504997	2.7395248
3.2341141425060416	7.5187683	2.7420373
3.251647910049847	7.452406	2.7299094
3.2691817537431813	7.3368273	2.7086577
3.286715673997555	7.228799	2.6886425
3.3042496712244938	7.080509	2.6609225
3.32178374583554	7.0405087	2.6533957
3.339317898242251	7.072081	2.6593385
3.3568521288562034	7.0435243	2.6539638
3.3743864380889876	6.9780955	2.6416085
3.3919208263522127	6.9765944	2.6413243
3.4094552940575023	6.823957	2.6122704
3.4269898416164972	6.7682586	2.6015878
3.444524469440858	6.6021533	2.5694656
3.4620591779422587	6.4536147	2.5403965
3.479593967532391	6.4634366	2.542329
3.4971288386229658	6.4426656	2.5382407
3.5146637916257086	6.411318	2.532058
3.5321988269523628	6.3702564	2.5239367
3.5497339450146903	6.364685	2.5228326
3.5672691462244708	6.468139	2.5432537
3.5848044309934988	6.4723434	2.54408
3.60233979973359	6.5035996	2.5502157
3.619875252856575	6.3546596	2.520845
3.6374107907743034	6.3069205	2.5113583
3.6549464138986427	6.2221055	2.4944148
3.6724821226414788	6.2020135	2.490384
3.690017917414714	6.3005376	2.5100873
3.7075537986302702	6.4111037	2.5320158
3.7250897667000857	6.5161166	2.5526686
3.7426258220361235	6.7215905	2.592603
3.7601619650503553	6.964668	2.6390657
3.777698196154779	7.382783	2.7171278
3.7952345157614067	8.438538	2.904916
3.8127709242822716	9.187365	3.0310667
3.830307422129425	11.50158	3.391398
3.847844009714936	30.3387	5.5080576
3.8653806874508954	97.83896	9.891357
3.882917455749409	97.148705	9.856404
3.900454315022606	96.81701	9.839563
3.917991265682631	41.37119	6.432044
3.9355283081416506	11.028236	3.3208787
3.9530654428118495	8.864581	2.9773448
3.970602670105433	7.6402597	2.764102
3.9881399904346244	6.686843	2.5858932
4.005677404211669	6.482307	2.5460374
4.023214911848827	6.4529676	2.5402691
4.0407525137583855	6.4229155	2.534347
4.058290210352644	6.544027	2.5581295
4.075828002043927	6.486442	2.5468495
4.0933658892445814	6.40565	2.5309386
4.110903872366966	6.1992583	2.489831
4.128441951823468	6.1994643	2.4898725
4.145980128026488	6.2303805	2.496073
4.163518401388452	6.3267727	2.5153077
4.181056772321807	6.310802	2.512131
4.1985952412390155	6.288087	2.5076058
4.216133808552567	6.2610774	2.5022144
4.233672474674966	6.292531	2.5084918
4.251211240018741	6.5485363	2.5590107
4.268750104996445	6.844379	2.6161764
4.286289070020643	7.849883	2.8017642
4.303828135503928	9.536303	3.0880904
4.3213673018589125	29.669004	5.446926
4.3389065694982305	90.697105	9.523502
4.356445938834537	165.86674	12.878926
4.3739854102805085	171.40268	13.092085
4.391524984248844	172.37419	13.129135
4.409064661152262	136.35704	11.677201
4.426604441403504	96.74509	9.835908
4.444144325415337	75.90386	8.712282
4.461684313600543	22.080566	4.6989965
4.47922440637193	22.462767	4.73949
4.496764604142329	20.830975	4.5640965
4.5143049073245916	18.899572	4.347364
4.531845316331589	16.6917	4.085548
4.5493858315762195	13.660437	3.6960027
4.566926453471405	11.272714	3.3574862
4.584467182430081	9.30045	3.049664
4.602008018865218	8.246454	2.871664
4.619548963189798	7.613687	2.759291
4.637090015816834	7.0469437	2.654608
4.654631177159353	6.8135037	2.6102688
4.672172447630417	6.5958514	2.568239
4.689713827643102	6.4648247	2.542602
4.7072553176105085	6.21071	2.4921296
4.724796917945764	5.9544206	2.4401681
4.742338629062015	5.9006166	2.4291184
4.759880451372434	5.879522	2.4247725
4.777422385290215	5.835673	2.4157138
4.794964431228581	5.760775	2.4001615
4.812506589600768	5.7923126	2.4067223
4.830048860820047	5.711254	2.389823
4.847591245299709	5.699069	2.3872724
4.8651337434530655	5.619743	2.3705997
4.882676355693457	5.557789	2.3574963
4.900219082434242	5.574426	2.3610222
4.917761924088813	5.5521903	2.3563087
4.935304881070575	5.5783567	2.3618546
4.952847953792969	5.5698943	2.3600624
4.970391142669449	5.4708023	2.3389747
4.9879344481135055	5.4674134	2.3382502
5.005477870538642	5.378802	2.3192244
5.023021410358394	5.426639	2.3295147
5.040565067986324	5.4734836	2.3395476
5.05810884383601	5.4626746	2.3372366
5.075652738321066	5.47508	2.3398888
5.09319675185512	5.517129	2.348857
5.110740884851836	5.545817	2.354956
5.128285137724894	5.509471	2.3472261
5.145829510888007	5.434474	2.3311958
5.163374004754908	5.353629	2.313791
5.1809186197393595	5.33201	2.3091145
5.198463356255145	5.3117785	2.3047297
5.216008214716077	5.312159	2.3048122
5.233553195535998	5.3205295	2.3066273
5.251098299128764	5.3322253	2.3091612
5.268643525908272	5.3853045	2.3206258
5.286188876288432	5.404371	2.3247302
5.3037343506831895	5.3620534	2.315611
5.32127994950651	5.277262	2.2972293
5.3388256731723915	5.1686797	2.273473
5.356371522094851	5.2111773	2.2828004
5.373917496687938	5.2521214	2.2917507
5.391463597365729	5.293091	2.3006718
5.40900982454232	5.256885	2.2927897
5.426556178631843	5.246057	2.2904272
5.444102660048449	5.1861343	2.2773085
5.4616492692063225	5.151148	2.269614
5.479196006519669	5.188116	2.2777436
5.496742872402727	5.215029	2.2836437
5.514289867269756	5.2644153	2.2944314
5.531836991535049	5.2508473	2.2914727
5.549384245612924	5.1979494	2.2799013
5.566931629917724	5.20448	2.281333
5.584479144863822	5.213711	2.2833552
5.6020267908656205	5.2084665	2.2822065
5.619574568337545	5.22481	2.2857842
5.637122477694054	5.226735	2.2862053
5.654670519349629	5.2245235	2.2857218
5.672218693718784	5.206678	2.2818146
5.689767001216059	5.200782	2.2805223
5.707315442256021	5.159408	2.271433
5.724864017253266	5.1812115	2.2762275
5.7424127266224225	5.21678	2.284027
5.75996157077814	5.2513485	2.291582
5.777510550135105	5.3185415	2.3061965
5.795059665108022	5.3099823	2.30434
5.812608916111639	5.413961	2.326792
5.830158303560715	5.542799	2.354315
5.847707827870055	5.5511637	2.3560908
5.86525748945448	5.523674	2.3502498
5.8828072887288485	5.5064116	2.3465745
5.900357226108044	5.533709	2.3523836
5.917907302006979	5.5635586	2.3587196
5.9354575168406	6.1607523	2.4820862
5.9530078710238765	6.9074526	2.6282034
5.970558364971812	7.4941077	2.737537
5.988108999099438	7.9300504	2.8160346
6.005659773821818	8.418395	2.901447
6.023210689554039	8.172685	2.8587909
6.040761746711227	8.551241	2.9242506
6.058312945708531	7.973337	2.8237097
6.075864286961132	7.518374	2.7419653
6.093415770884244	6.8425536	2.6158276
6.1109673978931065	6.340787	2.518092
6.128519168402993	5.699488	2.38736
6.146071082829204	5.597667	2.365939
6.163623141587075	5.4461694	2.333703
6.181175345091969	5.3425446	2.3113945
6.198727693759281	5.282205	2.2983048
6.216280188004435	5.2659917	2.2947748
6.233832828242885	5.248048	2.2908618
6.251385614890126	5.212444	2.2830777
6.268938548361669	5.1430964	2.2678397
6.286491629073067	5.0351186	2.243907
6.304044857439898	4.994789	2.2349024
6.321598233877777	4.9780283	2.2311494
6.339151758802344	4.9590864	2.2269006
6.356705432629277	5.006068	2.2374244
6.37425925577428	5.0504174	2.2473133
6.391813228653095	5.054485	2.248218
6.409367351681486	5.044684	2.2460375
6.426921625275259	5.0102496	2.2383587
6.44447604985025	4.9987483	2.235788
6.46203062582232	5.003773	2.2369115
6.47958535360737	5.003714	2.2368984
6.497140233621328	5.0502353	2.247273
6.514695266280161	5.089163	2.2559173
6.532250451999859	5.054674	2.2482603
6.549805791196454	5.0606713	2.2495935
6.567361284286002	5.1082287	2.260139
6.584916931684597	5.1478143	2.2688794
6.602472733808367	5.1162157	2.2619054
6.6200286910734665	5.075356	2.252855
6.637584803896092	5.06291	2.250091
6.655141072692462	5.076853	2.2531872
6.672697497878842	5.021487	2.2408676
6.690254079871514	4.9393578	2.2224667
6.707810819086808	4.9483547	2.2244897
6.725367715941078	4.985436	2.232809
6.742924770850719	5.0225797	2.2411113
6.760481984232151	4.9398856	2.2225854
6.778039356501836	4.9088855	2.2156005
6.795596888076266	4.8737984	2.207668
6.813154579371963	4.9282146	2.2199583
6.830712430805492	4.92214	2.2185898
6.84827044279344	4.9820185	2.2320435
6.865828615752445	4.9900765	2.2338479
6.883386950099159	5.0384774	2.2446554
6.900945446250287	5.0163264	2.2397158
6.918504104622553	5.0185	2.2402008
6.936062925632727	5.0913367	2.2563992
6.953621909697607	5.1393347	2.26701
6.971181057234028	5.2108564	2.28273
6.988740368658859	5.266302	2.2948425
7.006299844389007	5.222055	2.2851815
7.023859484841407	5.272481	2.2961884
7.041419290433036	5.33203	2.3091187
7.058979261580902	5.510124	2.3473654
7.0765393987020495	5.784521	2.4051032
7.094099702213559	6.1194425	2.4737506
7.111660172532549	6.432996	2.5363352
7.129220810076164	6.762178	2.6004188
7.146781615261595	7.389514	2.7183661
7.16434258850606	7.627805	2.7618482
7.181903730226821	8.121563	2.8498356
7.1994650408411704	8.195302	2.8627439
7.217026520766437	8.332809	2.8866606
7.234588170419983	8.560377	2.9258122
7.252149990219215	8.511088	2.917377
7.269711980581568	8.352213	2.8900194
7.2872741419245175	8.109153	2.8476574
7.304836474665574	7.7667174	2.786883
7.322398979222286	7.5454707	2.746902
7.339961656012233	7.3123503	2.7041357
7.357524505453039	6.9599576	2.638173
7.375087527962357	6.622554	2.5734322
7.392650723957886	6.3522463	2.5203662
7.410214093857353	6.034956	2.4566147
7.427777638078528	5.808821	2.4101496
7.445341357039213	5.585463	2.3633585
7.4629052511572525	5.450204	2.334567
7.480469320850524	5.3796487	2.319407
7.498033566536948	5.338478	2.3105147
7.5155979886344735	5.3362384	2.31003
7.5331625875610975	5.2822375	2.298312
7.550727363734844	5.269085	2.2954488
7.568292317573788	5.2722664	2.2961416
7.585857449496025	5.2986145	2.301872
7.603422759919705	5.2819533	2.29825
7.620988249263007	5.24334	2.289834
7.638553917944147	5.225803	2.2860014
7.656119766381391	5.2042875	2.2812908
7.673685794993023	5.2557564	2.2925436
7.691252004197388	5.228328	2.2865539
7.70881839441285	5.280004	2.297826
7.726384966057826	5.300448	2.3022702
7.743951719550762	5.2636194	2.2942579
7.761518655310149	5.251589	2.2916346
7.779085773754511	5.199773	2.280301
7.796653075302419	5.1902046	2.278202
7.814220560372475	5.195384	2.2793386
7.831788229383323	5.236368	2.2883112
7.8493560827536495	5.261852	2.2938726
7.866924120902174	5.2613	2.2937524
7.884492344247663	5.2603493	2.2935452
7.9020607532089135	5.3387322	2.3105698
7.919629348204771	5.394636	2.3226357
7.937198129654115	5.4465585	2.3337862
7.954767097975865	5.462101	2.3371139
7.972336253588986	5.4901996	2.3431175
7.989905596912472	5.4432425	2.3330758
8.007475128365371	5.435597	2.3314366
8.025044848366756	5.4237204	2.3288882
8.042614757335754	5.5980825	2.3660266
8.060184855691523	5.7431808	2.3964934
8.07775514385327	5.881078	2.4250934
8.095325622240228	5.951839	2.439639
8.112896291271687	5.991494	2.447753
8.130467151366968	5.964853	2.4423048
8.148038202945436	5.9645953	2.4422522
8.165609446426497	5.949437	2.4391468
8.183180882229594	6.070225	2.4637825
8.200752510774217	6.1165514	2.4731662
8.218324332479893	6.1407523	2.478054
8.235896347766193	6.048015	2.4592712
8.253468557052724	6.031995	2.456012
8.27104096075914	5.9769673	2.4447837
8.288613559305137	6.065652	2.4628544
8.306186353110448	6.15277	2.4804778
8.32375934259485	6.2053375	2.4910514
8.341332528178162	6.2082853	2.4916432
8.358905910280246	6.2119	2.4923685
8.376479489321003	6.192365	2.4884462
8.394053265720377	6.2704506	2.5040867
8.411627239898356	6.370075	2.5239007
8.42920141227497	6.423314	2.5344257
8.44677578327029	6.392278	2.5282955
8.464350353304427	6.249546	2.4999092
8.48192512279754	6.182507	2.4864647
8.499500092169827	6.1856933	2.4871054
8.51707526184153	6.236947	2.4973881
8.534650632232934	6.2150607	2.4930024
8.552226203764365	6.206951	2.4913754
8.569801976856192	6.1983676	2.4896522
8.587377951928834	6.27839	2.5056715
8.60495412940274	6.26326	2.5026505
8.622530509698416	6.338299	2.517598
8.6401070932364	6.480949	2.545771
8.657683880437283	6.5820427	2.5655491
8.675260871721695	6.694485	2.5873704
8.692838067510303	6.886399	2.6241949
8.710415468223834	7.0380163	2.652926
8.727993074283043	7.1202292	2.6683757
8.745570886108737	7.099796	2.664544
8.763148904121765	7.1858315	2.6806402
8.78072712874302	7.2312846	2.6891048
8.798305560393441	7.448704	2.7292314
8.815884199494006	7.576037	2.7524602
8.833463046465745	7.7235327	2.7791245
8.851042101729728	7.861246	2.8037913
8.86862136570707	8.093352	2.8448818
8.886200838818924	8.313651	2.8833404
8.903780521486505	8.363379	2.8919506
8.921360414131055	8.514641	2.9179857
8.938940517173874	8.69675	2.9490252
8.956520831036297	8.835485	2.9724545
8.97410135613971	9.04024	3.0066993
8.99168209290554	9.131775	3.0218828
9.009263041755265	9.500793	3.0823357
9.026844203110405	9.746471	3.121934
9.044425577392525	9.939519	3.1527002
9.062007165023239	9.976978	3.1586356
9.079588966424197	10.325048	3.2132614
9.097170982017108	10.460652	3.2342932
9.11475321222372	11.48869	3.389497
9.132335657465825	12.321342	3.510177
9.149918318165264	12.420891	3.5243285
9.167501194743924	12.978387	3.602553
9.18508428762374	12.621186	3.552631
9.202667597226693	12.559202	3.5438964
9.220251123974803	12.288245	3.5054593
9.237834868290143	11.985176	3.4619613
9.255418830594836	11.911223	3.4512641
9.273003011311046	11.450877	3.3839145
9.290587410860985	11.204446	3.3473043
9.308172029666911	10.516156	3.2428625
9.32575686815113	10.125469	3.1820543
9.343341926735997	8.781527	2.9633641
9.360927205843916	8.563845	2.9264047
9.378512705897327	8.387676	2.8961484
9.396098427318728	8.243481	2.8711462
9.413684370530664	8.154509	2.8556101
9.431270535955722	8.073039	2.8413093
9.448856924016539	7.96706	2.8225982
9.466443535135806	7.8559947	2.8028548
9.484030369736251	7.8014607	2.7931094
9.501617428240658	7.714733	2.777541
9.519204711071852	7.657517	2.767222
9.536792218652714	7.6759424	2.770549
9.55437995140617	7.763804	2.7863603
9.571967909755191	7.832887	2.7987297
9.589556094122802	7.8478026	2.801393
9.60714450493207	7.888487	2.808645
9.624733142606116	7.929395	2.8159182
9.642322007568108	7.9918203	2.8269808
9.659911100241267	8.006033	2.8294935
9.677500421048851	7.996694	2.8278427
9.695089970414175	8.009407	2.8300896
9.712679748760609	8.1245575	2.8503609
9.730269756511557	8.215208	2.8662183
9.747859994090492	8.2459545	2.871577
9.765450461920915	8.185518	2.8610344
9.78304116042639	8.224602	2.8678567
9.800632090030527	8.275928	2.8767912
9.81822325115699	8.321088	2.8846295
9.835814644229481	8.372867	2.8935907
9.853406269671762	8.46191	2.9089363
9.870998127907646	8.458274	2.9083111
9.888590219360985	8.4390335	2.9050014
9.906182544455698	8.429533	2.9033659
9.923775103615734	8.41398	2.900686
9.941367897265108	8.384276	2.8955615
9.958960925827878	8.401956	2.8986127
9.97655418972816	8.40502	2.8991413
9.994147689390106	8.466326	2.9096951
10.011741425237934	8.430138	2.90347
10.029335397695904	8.355845	2.890648
10.04692960718833	8.311811	2.8830214
10.06452405413958	8.348994	2.8894627
10.082118738974064	8.439708	2.9051175
10.099713662116246	8.409825	2.8999698
10.117308823990651	8.397588	2.897859
10.134904225021844	8.378347	2.8945374
10.152499865634445	8.373168	2.8936427
10.170095746253125	8.319905	2.8844247
10.18769186730261	8.261198	2.87423
10.205288229207675	8.221333	2.8672867
10.222884832393145	8.229394	2.868692
10.2404816772839	8.182977	2.8605902
10.258078764304868	8.153937	2.85551
10.275676093881035	8.146046	2.854128
10.293273666437438	8.149323	2.854702
10.310871482399158	8.217839	2.8666773
10.32846954219134	8.294962	2.8800976
10.346067846239173	8.309122	2.8825548
10.363666394967908	8.335806	2.8871796
10.38126518880283	8.289602	2.8791668
10.398864228169298	8.268306	2.875466
10.416463513492713	8.238552	2.870288
10.434063045198531	8.22272	2.8675287
10.451662823712262	8.2236595	2.8676925
10.469262849459467	8.231253	2.869016
10.486863122865758	8.133365	2.8519053
10.504463644356806	8.097753	2.845655
10.522064414358338	8.041876	2.8358202
10.539665433296118	8.009571	2.8301187
10.557266701595987	7.9936905	2.8273115
10.574868219683818	7.957331	2.8208742
10.592469987985552	7.8295856	2.7981396
10.610072006927185	7.8182297	2.7961097
10.627674276934751	7.7649317	2.7865627
10.64527679843435	7.7013173	2.7751248
10.662879571852143	7.499675	2.7385535
10.680482597614331	7.293256	2.7006028
10.698085876147173	7.1285334	2.6699314
10.715689407876988	7.035858	2.6525192
10.733293193230146	6.939946	2.6343777
10.750897232633072	6.8594623	2.6190574
10.76850152651225	6.755792	2.5991907
10.786106075294207	6.739175	2.595992
10.803710879405534	6.7143326	2.591203
10.821315939272877	6.622832	2.5734863
10.83892125532294	6.4818606	2.54595
10.856526827982472	6.4371414	2.5371523
10.874132657678285	6.4195004	2.5336733
10.891738744837243	6.358472	2.521601
10.909345089886271	6.2815814	2.5063083
10.926951693252343	6.2144103	2.492872
10.944558555362494	6.140395	2.477982
10.96216567664381	6.046812	2.4590266
10.979773057523436	5.979891	2.4453816
10.997380698428573	5.8717713	2.423174
11.014988599786477	5.8072667	2.409827
11.032596762024461	5.715807	2.3907754
11.050205185569892	5.6982737	2.3871057
11.067813870850198	5.6511273	2.37721
11.085422818292859	5.579788	2.3621576
11.10303202832541	5.466456	2.3380454
11.120641501375454	5.3869586	2.3209822
11.138251237870636	5.3125973	2.3049073
11.155861238238671	5.3311863	2.308936
11.173471502907317	5.3580375	2.3147435
11.191082032304402	5.315517	2.3055406
11.208692826857805	5.269432	2.2955244
11.226303886995465	5.138517	2.2668297
11.243915213145371	5.0803165	2.2539558
11.261526805735578	4.994446	2.2348256
11.279138665194196	4.926939	2.219671
11.296750791949393	4.9050183	2.2147276
11.314363186429393	4.7869453	2.187909
11.331975849062479	4.693196	2.1663785
11.34958878027699	4.5722594	2.1382842
11.36720198050133	4.5673575	2.1371377
11.384815450163948	4.6104226	2.1471894
11.402429189693366	4.5812263	2.14038
11.420043199518153	4.5683784	2.1373765
11.437657480066942	63.489853	7.968052
11.455272031768422	85.17741	9.22916
11.472886855051353	107.541084	10.370202
11.490501950344528	99.10528	9.955163
11.508117318076819	84.434746	9.188838
11.52573295867715	45.825222	6.769433
11.543348872574514	4.1435223	2.0355644
11.560965060197946	4.134599	2.0333714
11.57858152197655	4.10934	2.0271509
11.59619825833949	4.118884	2.0295033
11.613815269715985	4.097986	2.0243483
11.631432556535323	38.565857	6.2101417
11.649050119226837	83.07795	9.114711
11.666667958219929	93.48048	9.66853
11.68428607394406	107.72913	10.379265
11.701904466828756	82.5093	9.083463
11.719523137303586	65.326164	8.08246
11.737142085798196	4.571597	2.1381292
11.754761312742286	3.7353072	1.9326943
11.772380818565619	3.7080917	1.9256406
11.790000603698015	3.724065	1.9297837
11.80762066856935	3.6780317	1.9178195
11.825241013609572	3.6547925	1.9117512
11.842861639248683	3.6010823	1.8976518
11.860482545916748	3.5742126	1.8905588
11.878103734043883	3.5066824	1.8726138
11.895725204060282	3.4610343	1.8603855
11.91334695639619	3.4022734	1.8445252
11.930968991481919	3.4050775	1.8452852
11.948591309747824	3.3738778	1.8368119
11.966213911624347	3.3837202	1.8394891
11.98383679754198	3.353313	1.8312054
12.001459967931268	3.3562863	1.832017
12.019083423222835	3.3261418	1.8237714
12.036707163847352	3.3088796	1.8190325
12.05433119023556	3.295928	1.815469
12.071955502818259	3.2217238	1.7949162
12.089580102026313	3.2111475	1.7919675
12.107204988290643	3.1786788	1.782885
12.12483016204224	3.183322	1.7841866
12.142455623712152	3.1541405	1.77599
12.16008137373149	3.149358	1.7746431
12.177707412531431	3.1189332	1.7660502
12.19533374054321	3.1184988	1.7659272
12.212960358198126	3.0714831	1.7525648
12.230587265927545	3.061597	1.749742
12.248214464162889	3.0484066	1.7459687
12.265841953335649	3.0215054	1.7382478
12.283469733877375	3.0113847	1.7353342
12.301097806219685	3.0068295	1.7340212
12.31872617079425	3.0108256	1.7351731
12.336354828032825	3.029152	1.7404459
12.353983778367205	3.0096564	1.7348361
12.371613022229262	2.9589915	1.7201719
12.389242560050928	2.8849084	1.6985018
12.406872392264201	2.8318992	1.6828247
12.424502519301143	2.8418572	1.6857809
12.442132941593874	2.8302014	1.6823202
12.459763659574586	2.843821	1.6863632
12.477394673675532	2.8452017	1.6867726
12.49502598432903	2.8605812	1.6913253
12.51265759196746	2.8434038	1.6862396
12.530289497023267	2.8644335	1.6924638
12.547921699928967	2.8758047	1.6958197
12.565554201117134	2.8644397	1.6924655
12.583187001020404	2.857393	1.6903825
12.600820100071486	2.8114889	1.6767495
12.618453498703152	2.818546	1.6788526
12.636087197348235	2.830339	1.6823611
12.65372119643964	2.8431656	1.6861689
12.671355496410326	2.8454823	1.6868558
12.68899009769333	2.8326645	1.6830522
12.706625000721749	2.8519282	1.6887653
12.724260205928752	2.8710668	1.6944222
12.741895713747551	2.92129	1.7091781
12.759531524611454	2.992585	1.729909
12.777167638953818	3.0073557	1.7341729
12.794804057208072	2.999543	1.7319188
12.812440779807702	3.0803895	1.7551038
12.830077807186271	3.2883139	1.8133708
12.847715139777405	3.3498797	1.8302677
12.865352778014795	3.5156872	1.8750166
12.882990722332197	3.6298342	1.9052124
12.90062897316344	3.673468	1.9166293
12.918267530942412	3.730709	1.9315044
12.935906396103071	3.6165745	1.9017293
12.953545569079449	3.8280292	1.956535
12.971185050305628	3.6657057	1.9146032
12.988824840215775	3.6698995	1.9156982
13.006464939244115	3.645283	1.9092624
13.024105347824943	3.4723616	1.8634274
13.041746066392617	3.5346684	1.8800714
13.05938709538157	3.346619	1.8293767
13.077028435226296	3.3881211	1.840685
13.094670086361363	3.3013642	1.8169657
13.112312049221401	3.2310398	1.7975093
13.129954324241112	3.0857055	1.7566177
13.147596911855258	2.8957028	1.7016765
13.165239812498685	2.8675852	1.6933945
13.182883026606293	2.8439877	1.6864127
13.200526554613058	2.754141	1.6595606
13.218170396954017	2.718238	1.648708
13.235814554064284	2.7016723	1.6436765
13.253459026379034	2.7251952	1.6508166
13.271103814333523	2.7345111	1.6536357
13.288748918363058	2.7818623	1.6678915
13.306394338903031	2.7539637	1.659507
13.32404007638889	2.6896079	1.6400024
13.341686131256164	2.6870496	1.6392223
13.359332503940449	2.6809905	1.6373731
13.376979194877402	2.7113404	1.6466148
13.394626204502751	2.748281	1.657794
13.412273533252307	2.7833376	1.6683338
13.429921181561937	2.7394156	1.655118
13.447569149867581	2.7168326	1.6482817
13.465217438605247	2.7101362	1.6462492
13.482866048211022	2.7297919	1.6522082
13.500514979121052	2.7436576	1.656399
13.518164231771568	2.720168	1.6492932
13.535813806598844	2.6956115	1.6418318
13.553463704039254	2.7199028	1.6492127
13.571113924529229	2.7114265	1.646641
13.588764468505275	2.744854	1.6567601
13.606415336403956	2.7491791	1.6580648
13.624066528661917	2.7984762	1.6728647
13.641718045715882	2.8600175	1.6911587
13.659369888002635	2.912022	1.7064648
13.67702205595903	2.9431446	1.7155596
13.694674550021993	3.0150292	1.7363839
13.712327370628532	3.063044	1.7501554
13.729980518215713	3.112052	1.7641009
13.747633993220681	3.151594	1.775273
13.765287796080647	3.1926346	1.7867945
13.7829419272329	3.253881	1.8038517
13.800596387114801	3.3117397	1.8198186
13.818251176163775	3.3701801	1.835805
13.835906294817324	3.3993547	1.8437339
13.853561743513023	3.4146392	1.8478743
13.871217522688525	3.4217863	1.8498071
13.888873632781538	3.4802063	1.8655311
13.906530074229858	3.5347056	1.8800813
13.92418684747135	3.5775702	1.8914466
13.941843952943948	3.5335448	1.8797725
13.959501391085665	3.4657881	1.8616627
13.977159162334578	3.346766	1.8294169
13.994817267128846	3.337736	1.8269471
14.012475705906693	3.2892377	1.8136256
14.030134479106424	3.2378857	1.7994126
14.047793587166414	3.157473	1.776928
14.065453030525108	3.0728924	1.7529668
14.083112809621026	3.0274055	1.7399441
14.100772924892766	3.004747	1.7334206
14.118433376778997	2.938143	1.7141012
14.136094165718458	2.837904	1.684608
14.153755292149969	2.7677062	1.6636424
14.171416756512416	2.6882637	1.6395925
14.189078559244768	2.6303604	1.6218386
14.20674070078606	2.5831962	1.6072325
14.224403181575408	2.575568	1.6048576
14.242066002051999	2.5415351	1.5942193
14.259729162655093	2.4973502	1.5803007
14.277392663824022	2.4800181	1.5748073
14.295056505998208	2.4752796	1.5733021
14.312720689617128	2.4592316	1.5681938
14.330385215120348	2.417437	1.554811
14.348050082947497	2.3942204	1.5473268
14.3657152935383	2.388431	1.545455
14.383380847332528	2.3824835	1.5435295
14.401046744770051	2.3663886	1.5383071
14.418712986290798	2.3520918	1.5336531
14.436379572334793	2.3650885	1.5378844
14.454046503342123	2.388056	1.5453336
14.471713779752946	2.4049573	1.5507925
14.489381402007504	2.4332228	1.5598791
14.507049370546113	2.4393172	1.5618314
14.524717685809168	2.417291	1.5547639
14.542386348237134	2.4018707	1.5497969
14.560055358270553	2.418204	1.5550575
14.577724716350051	2.494006	1.5792422
14.595394422916325	2.5266182	1.5895339
14.61306447841015	2.5353665	1.5922835
14.63073488327237	2.5262573	1.5894204
14.648405637943917	2.5169687	1.5864958
14.6660767428658	2.535525	1.5923332
14.683748198479094	2.575835	1.6049408
14.701420005224954	2.5914998	1.6098136
14.719092163544628	2.6255307	1.6203489
14.73676467387942	2.6912558	1.6405047
14.754437536670727	2.754599	1.6596985
14.772110752360014	2.7603981	1.6614445
14.78978432138882	2.7244008	1.6505759
14.807458244198777	2.7348475	1.6537374
14.82513252123159	2.731018	1.6525792
14.842807152929028	2.7357268	1.6540033
14.860482139732962	2.7118948	1.6467831
14.87815748208531	2.7071102	1.6453298
14.8958331804281	2.7048268	1.6446358
14.91350923520342	2.6884937	1.6396627
14.931185646853438	2.6956553	1.6418451
14.948862415820408	2.7049687	1.644679
14.966539542546656	2.7140272	1.6474304
14.98421702747459	2.729348	1.6520739
15.001894871046696	2.7250307	1.6507667
15.019573073705542	2.7053158	1.6447845
15.037251635893766	2.6971598	1.6423032
15.054930558054092	2.7072284	1.6453657
15.072609840629323	2.7521374	1.6589568
15.090289484062351	2.8784816	1.6966089
15.107969488796124	3.1909802	1.7863315
15.125649855273691	3.595765	1.8962502
15.14333058393817	4.07083	2.0176299
15.161011675232768	4.9996853	2.2359977
15.17869312960076	6.3466167	2.5192492
15.196374947485506	8.23351	2.8694093
15.214057129330447	11.319796	3.3644905
15.231739675579114	16.075226	4.0093923
15.249422586675102	21.277435	4.612747
15.267105863062092	24.569601	4.9567733
15.284789505183847	24.96319	4.996318
15.302473513484218	22.814787	4.7764826
15.320157888407127	19.15279	4.37639
15.337842630396578	14.857331	3.8545208
15.355527739896656	11.554012	3.3991194
15.37321321735153	8.988622	2.998103
15.39089906320545	6.540861	2.5575106
15.408585277902748	4.9167995	2.2173858
15.42627186188783	3.8030767	1.9501479
15.443958815605198	3.2737885	1.8093613
15.461646139499424	2.991353	1.7295529
15.479333834015168	2.8192446	1.6790606
15.497021899597165	2.7241547	1.6505014
15.514710336690234	2.664701	1.6323912
15.53239914573928	2.6634183	1.6319983
15.550088327189297	2.6479063	1.6272389
15.567777881485336	2.576081	1.6050174
15.58546780907256	2.4872913	1.5771148
15.6031581103962	2.4524868	1.5660417
15.620848785901568	2.4651058	1.5700655
15.638539836034063	2.478992	1.5744815
15.656231261239173	2.4699595	1.5716105
15.673923061962451	2.44384	1.5632786
15.691615238649552	2.455263	1.5669279
15.709307791746202	2.4637842	1.5696446
15.727000721698221	2.4638748	1.5696734
15.744694028951498	2.4393177	1.5618315
15.76238771395202	2.4136755	1.5536008
15.780081777145844	2.4165294	1.554519
15.797776218979125	2.4114766	1.5528929
15.815471039898094	2.407941	1.5517542
15.833166240349064	2.403197	1.5502248
15.850861820778437	2.4165108	1.5545131
15.868557781632699	2.4101453	1.5524642
15.886254123358412	2.4276316	1.5580859
15.903950846402232	2.3922503	1.5466901
15.921647951210897	2.3754866	1.5412613
15.939345438231225	2.380169	1.5427796
15.957043307910133	2.394603	1.5474505
15.974741560694602	2.430773	1.5590936
15.992440197031714	2.4484274	1.5647452
16.01013921736862	2.4515483	1.5657421
16.02783862215259	2.446931	1.5642669
16.045538411830933	2.4051208	1.5508451
16.06323858685107	2.4063978	1.5512569
16.080939147660512	2.3785222	1.5422459
16.09864009470684	2.390033	1.5459732
16.11634142843774	2.3908844	1.5462484
16.134043149300954	2.385081	1.5443708
16.15174525774433	2.4260542	1.5575796
16.169447754215817	2.473268	1.5726627
16.18715063916342	2.4903018	1.578069
16.204853913035244	2.4936457	1.5791281
16.222557576279478	2.4955235	1.5797226
16.240261629344403	22.451885	4.738342
16.257966072678386	42.99985	6.5574274
16.275670906729868	38.12738	6.1747375
16.293376131947387	2.5697668	1.6030492
16.31108174877957	2.591267	1.6097413
16.328787757675133	2.599474	1.6122885
16.34649415908287	2.5704806	1.6032718
16.364200953451657	2.563485	1.6010886
16.38190814123048	2.597712	1.6117419
16.39961572286839	2.6557577	1.6296495
16.41732369881455	2.6938174	1.6412853
16.43503206951817	2.7525096	1.659069
16.45274083542859	2.7856078	1.669014
16.47044999699522	2.8253589	1.6808804
16.488159554667558	2.851011	1.6884937
16.505869508895184	2.8651674	1.6926805
16.523579860127786	2.9292474	1.7115045
16.541290608815117	2.9811413	1.7265981
16.559001755407035	3.0496936	1.7463372
16.57671330035348	3.1102118	1.7635792
16.59442524410448	3.1599257	1.7776179
16.61213758711015	3.2345555	1.798487
16.629850329820705	3.3122277	1.8199527
16.647563472686436	3.351388	1.8306797
16.665277016157724	3.3716795	1.8362134
16.682990960685053	3.3909447	1.8414518
16.70070530671898	3.471615	1.863227
16.718420054710155	3.517358	1.875462
16.736135205109335	3.5713854	1.8898109
16.753850758367335	3.5964808	1.896439
16.771566714935087	3.6201258	1.9026628
16.789283075263597	3.6971624	1.9228007
16.80699983980398	3.749118	1.9362639
16.82471700900741	3.8435845	1.9605062
16.84243458332518	3.9550984	1.988743
16.860152563208665	4.0561967	2.0140002
16.87787094910932	4.1068187	2.0265288
16.89558974147871	4.1291075	2.0320206
16.913308940768466	4.184101	2.0455074
16.931028547430333	4.252967	2.0622723
16.94874856191613	4.326325	2.079982
16.966468984677785	4.369093	2.0902376
16.98418981616729	4.4069357	2.0992703
17.00191105683676	4.462424	2.1124449
17.019632707138374	4.5197597	2.1259727
17.03735476752442	4.597253	2.1441205
17.05507723844728	4.6455674	2.1553578
17.072800120359403	4.6826506	2.1639433
17.090523413713353	4.698211	2.1675358
17.108247118961785	4.7145104	2.1712923
17.125971236557437	4.7261386	2.1739683
17.143695766953133	4.7643733	2.1827445
17.161420710601806	4.7673674	2.1834302
17.179146067956477	4.760165	2.1817803
17.19687183947025	4.7256722	2.173861
17.21459802559634	4.722469	2.1731243
17.232324626788028	4.696936	2.1672416
17.25005164349871	4.6828337	2.1639855
17.267779076181863	4.67281	2.1616683
17.285506925291074	4.629198	2.1515572
17.30323519127999	4.6387763	2.153782
17.320963874602384	4.6347227	2.1528406
17.33869297571211	4.6065183	2.14628
17.356422495063114	4.535656	2.129708
17.37415243310944	4.5274706	2.1277854
17.391882790305218	4.579406	2.1399546
17.40961356710468	4.5931134	2.143155
17.42734476396215	4.5523376	2.1336207
17.445076381332044	4.483534	2.1174357
17.462808419668868	4.553	2.133776
17.48054087942723	4.7036777	2.1687963
17.498273761061835	4.995808	2.2351305
17.51600706502747	5.4628243	2.3372686
17.533740791779024	6.186685	2.4873047
17.551474941771485	7.6484227	2.7655783
17.56920951545993	8.741906	2.9566715
17.586944513299528	10.954919	3.3098216
17.60467993574556	12.665609	3.5588775
17.622415783253373	14.49911	3.8077698
17.64015205627843	15.969858	3.9962306
17.657888755276293	17.126516	4.1384196
17.675625880702604	17.740202	4.2119117
17.69336343301311	17.602968	4.195589
17.71110141266366	16.573456	4.071051
17.728839820110178	15.361971	3.919435
17.746578655808705	14.334851	3.7861392
17.764317920215372	12.855443	3.5854487
17.7820576137864	11.373598	3.3724766
17.79979773697811	9.356989	3.0589197
17.81753829024692	7.4844165	2.7357662
17.835279274049356	5.8601017	2.4207647
17.85302068884201	4.843197	2.2007265
17.870762535081607	4.210921	2.0520527
17.888504813224934	3.942294	1.9855211
17.90624752372891	3.7603621	1.9391654
17.923990667050536	3.6636438	1.9140648
17.941734243646895	3.5559962	1.8857349
17.959478253975185	3.5352979	1.8802388
17.9772226984927	3.4730935	1.8636237
17.994967577656833	3.4424376	1.8553808
18.01271289192506	3.400748	1.8441117
18.030458641754965	3.4010766	1.8442008
18.04820482760425	3.3457098	1.8291281
18.06595144993067	3.3253706	1.8235599
18.083698509192125	3.2584443	1.8051162
18.101446005846576	3.2535446	1.8037585
18.119193940352105	3.237937	1.7994268
18.136942313166887	3.2480197	1.8022263
18.1546911247492	3.2322595	1.7978486
18.1724403755574	3.2227182	1.7951931
18.19019006604997	3.205176	1.7903006
18.207940196685467	3.162169	1.7782489
18.225690767922575	3.1475208	1.7741253
18.243441780220046	3.1303034	1.7692664
18.261193234036764	3.1553895	1.7763417
18.278945129831676	3.1380296	1.7714485
18.29669746806386	3.1211514	1.7666781
18.314450249192483	3.0821178	1.7555962
18.3322034736768	3.077111	1.7541696
18.349957141976184	3.0780113	1.7544262
18.3677112545501	3.0674603	1.7514167
18.385465811858108	3.0853717	1.7565227
18.403220814359884	3.0882254	1.7573347
18.420976262515172	3.1302488	1.7692509
18.43873215678387	3.1680539	1.7799028
18.456488497625923	3.1977963	1.7882383
18.474245285501407	3.2693248	1.8081274
18.492002520870486	3.300698	1.8167824
18.50976020419343	3.3801768	1.8385257
18.527518335930615	3.7006369	1.9237039
18.545276916542516	4.3132153	2.0768282
18.563035946489688	4.4646544	2.112973
18.580795426232832	4.9002233	2.2136447
18.598555356232698	4.7573156	2.181127
18.616315736950185	5.063616	2.250248
18.63407656884626	4.7309475	2.175074
18.65183785238201	4.93662	2.2218506
18.669599588018617	4.6913095	2.1659431
18.68736177621737	4.711392	2.1705742
18.705124417439652	4.684591	2.1643915
18.72288751214696	4.502753	2.121969
18.740651060800886	4.5587707	2.1351278
18.758415063863115	4.281562	2.0691936
18.77617952179546	4.460182	2.1119144
18.793944435059814	4.250304	2.0616267
18.811709804118184	4.2335615	2.057562
18.829475629432675	4.2099605	2.0518188
18.8472419114655	3.9973984	1.9993495
18.86500865067897	4.1525917	2.0377908
18.88277584753551	3.843503	1.9604853
18.90054350249763	3.8551683	1.9634583
18.918311616027957	3.4821515	1.8660524
18.936080188589226	3.372204	1.8363562
18.953849220644265	3.1034946	1.7616738
18.971618712656007	2.9583719	1.7199918
18.9893886650875	2.8949602	1.7014582
19.007159078401887	8.015405	2.831149
19.024929953062408	32.854122	5.7318516
19.042701289532435	32.797916	5.7269464
19.060473088275405	25.36487	5.036355
19.07824534975489	2.674068	1.6352577
19.096018074434568	2.624124	1.6199148
19.113791262778197	2.6270673	1.620823
19.13156491524966	2.6009276	1.6127392
19.149339032312945	2.6042788	1.6137778
19.167113614432136	2.6155272	1.6172591
19.184888662071433	2.5617414	1.6005441
19.202664175695123	2.5232515	1.5884746
19.220440155767623	2.5034995	1.5822451
19.238216602753447	2.552363	1.5976117
19.2559935171172	2.5419452	1.594348
19.27377089932361	2.5556529	1.5986409
19.291548749837514	2.5480886	1.5962733
19.309327069123835	2.5349383	1.592149
19.32710585764763	2.5467196	1.5958445
19.344885115874032	2.562408	1.6007524
19.362664844268313	2.562874	1.6008979
19.380445043295822	2.5393116	1.5935218
19.39822571342203	2.534765	1.5920945
19.41600685511252	2.5264463	1.5894799
19.43378846883297	2.529386	1.5904044
19.451570555049173	2.5462682	1.595703
19.469353114227037	2.5597632	1.599926
19.48713614683254	2.5485454	1.5964164
19.50491965333182	2.548372	1.5963621
19.52270363419109	2.5328503	1.5914931
19.540488089876686	2.5703619	1.6032348
19.55827302085503	2.5691998	1.6028724
19.576058427592674	2.555472	1.5985843
19.593844310556282	2.5209413	1.5877472
19.611630670212598	2.5087686	1.5839093
19.629417507028506	2.4954486	1.5796989
19.64720482147098	2.488786	1.5775887
19.6649926140071	2.4880562	1.5773573
19.682780885104084	2.4503465	1.5653583
19.70056963522921	2.4229925	1.5565964
19.718358864849908	2.4570208	1.5674887
19.7361485744337	2.4874914	1.5771782
19.753938764448215	2.5180404	1.5868335
19.771729435361202	2.513798	1.5854962
19.789520587640506	2.5249116	1.588997
19.807312221754092	2.516614	1.5863839
19.825104338170043	2.5173776	1.5866246
19.842896937356517	2.5137749	1.5854888
19.860690019781824	2.494461	1.5793862
19.87848358591436	2.53342	1.5916721
19.896277636222635	2.5618634	1.6005822
19.914072171175278	2.5777347	1.6055325
19.931867191241015	2.5319598	1.5912133
19.94966269688869	2.528612	1.590161
19.967458688587264	2.5134206	1.5853771
19.985255166805807	2.5257215	1.5892519
20.00305213201348	2.4996696	1.5810343
20.020849584679578	2.4788945	1.5744505
20.038647525273507	2.4257405	1.5574789
20.05644595426477	2.4277005	1.558108
20.07424487212299	2.4500391	1.56526
20.092044279317903	2.4863317	1.5768106
20.109844176319353	2.4744294	1.5730319
20.127644563597304	2.4650269	1.5700403
20.145445441621817	2.4721997	1.572323
20.16324681086307	2.4739504	1.5728797
20.181048671791373	2.4460921	1.5639988
20.198851024877122	2.3759928	1.5414256
20.216653870590836	2.3323917	1.527217
20.234457209403146	2.345863	1.5316211
20.252261041784802	2.3735642	1.5406376
20.270065368206662	2.3872938	1.545087
20.287870189139685	2.367713	1.5387374
20.305675505054968	2.3788605	1.5423555
20.323481316423702	2.4131463	1.5534304
20.341287623717207	2.4171612	1.5547222
20.359094427406884	2.4017541	1.5497594
20.376901727964288	2.3686602	1.5390452
20.39470952586107	2.3912132	1.5463548
20.41251782156899	2.4300497	1.5588616
20.430326615559935	2.4332876	1.5598999
20.448135908305886	2.390906	1.5462555
20.465945700278965	2.3451385	1.5313845
20.483755991951384	2.3489687	1.5326346
20.50156678379548	2.3800864	1.5427529
20.519378076283708	2.380765	1.5429728
20.537189869888635	2.3619785	1.536873
20.55500216508294	2.351625	1.5335009
20.572814962339415	2.3455567	1.5315211
20.59062826213098	2.3375387	1.5289011
20.60844206493066	2.3658385	1.5381283
20.626256371211593	2.385013	1.5443487
20.644071181447032	2.390893	1.5462513
20.66188649611036	2.38927	1.5457264
20.67970231567506	2.3690267	1.5391643
20.697518640614742	2.3536959	1.534176
20.715335471403122	2.3605025	1.5363927
20.73315280851404	2.3270411	1.5254643
20.750970652421447	2.2930067	1.5142677
20.768789003599412	2.2650502	1.5050083
20.786607862522136	2.2821984	1.5106947
20.8044272296639	2.262527	1.5041698
20.82224710549913	2.2989328	1.5162232
20.84006749050237	2.2738042	1.5079138
20.857888385148268	3.8473964	1.9614781
20.8757097899116	45.954243	6.778956
20.893531705267254	64.82348	8.051303
20.911354131690224	83.85546	9.157263
20.92917706965566	69.09644	8.312427
20.94700051963877	50.14068	7.0810084
20.96482448211493	29.420656	5.4240813
20.982648957559622	4.169341	2.0418963
21.00047394644843	2.2898831	1.5132359
21.01829944925707	2.2935004	1.5144308
21.036125466461375	2.2724788	1.5074743
21.053951998537297	2.2526777	1.5008923
21.071779045960906	2.2283673	1.4927717
21.089606609208378	2.2656531	1.5052086
21.10743468875603	2.2237554	1.4912261
21.12526328508028	2.220704	1.4902027
21.143092398657675	2.2148225	1.488228
21.16092202996488	2.2024696	1.484072
21.17875217947867	2.1699326	1.4730691
21.19658284767596	2.1636953	1.4709505
21.21441403503377	2.2053428	1.4850397
21.232245742029225	2.2183177	1.4894018
21.2500779691396	2.192801	1.4808109
21.26791071684227	2.1838472	1.4777845
21.28574398561475	2.1794183	1.4762853
21.30357777593465	2.1649492	1.4713767
21.321412088279704	2.1627605	1.4706327
21.339246923127792	2.204135	1.484633
21.357082280956888	2.1980999	1.482599
21.3749181622451	2.1808	1.4767532
21.392754567470647	2.1679482	1.4723954
21.41059149711187	2.1603005	1.4697961
21.42842895164726	2.162346	1.4704918
21.446266931555378	2.1371472	1.4618984
21.464105437314945	2.1584263	1.4691584
21.481944469404798	2.1709	1.4733975
21.49978402830388	2.1572173	1.4687468
21.51762411449127	2.1376483	1.4620699
21.53546472844617	2.1147718	1.4542255
21.553305870647876	2.1042347	1.450598
21.571147541575865	2.115605	1.454512
21.58898974170967	2.1336083	1.4606876
21.60683247152899	2.1479287	1.4655813
21.62467573151363	2.108377	1.4520252
21.642519522143523	2.071631	1.4393162
21.660363843898722	2.0598927	1.4352326
21.6782086972594	2.0642788	1.4367598
21.696054082705864	2.091547	1.4462181
21.713900000718535	2.0749826	1.44048
21.73174645177795	2.0689962	1.4384006
21.749593436364794	2.0904322	1.4458327
21.767440954959845	2.0539386	1.4331568
21.785289008044032	2.0324311	1.4256335
21.803137596098388	2.011717	1.4183501
21.820986719604086	2.019093	1.4209479
21.838836379042412	1.9883102	1.4100746
21.85668657489478	1.9888484	1.4102653
21.87453730764273	2.014521	1.4193382
21.892388577767914	2.0161967	1.4199284
21.91024038575213	2.0149398	1.4194857
21.928092732077285	1.999904	1.4141797
21.945945617225426	2.0037246	1.4155297
21.963799041678694	2.0002446	1.4143001
21.981653005919398	31.33512	5.597778
21.999507510429943	78.14487	8.839958
22.01736255569286	73.09476	8.549547
22.035218142190818	4.1979127	2.0488808
22.05307427040661	2.0609143	1.4355885
22.07093094082315	2.036353	1.4270084
22.088788153923474	2.0315552	1.4253263
22.106645910190746	2.0183306	1.4206796
22.12450421010827	2.0124798	1.4186189
22.142363054159464	1.9789959	1.4067678
22.16022244282787	1.9592627	1.3997366
22.178082376597164	1.9605374	1.4001919
22.195942855951145	1.9662408	1.402227
22.213803881373742	2.0144877	1.4193265
22.231665453349002	2.027989	1.4240748
22.24952757236111	2.0174623	1.420374
22.26739023889438	2.008358	1.4171655
22.28525345343323	2.0305562	1.4249759
22.30311721646225	2.0369785	1.4272275
22.320981528466113	2.013046	1.4188185
22.33884638992964	1.9752294	1.4054285
22.356711801337788	1.9489256	1.3960392
22.37457776317561	1.9485899	1.395919
22.392444275928337	1.9620107	1.400718
22.410311340081282	2.005725	1.4162362
22.428178956119904	2.015781	1.419782
22.446047124529805	2.0162518	1.4199479
22.46391584579669	1.9681541	1.4029092
22.481785120406414	1.9595087	1.3998245
22.49965494884496	1.957712	1.3991827
22.51752533159841	2.0021496	1.4149734
22.53539626915302	1.9984034	1.413649
22.553267761995137	1.986488	1.4094282
22.571139810611264	1.9765761	1.4059075
22.589012415488025	1.9747226	1.4052483
22.60688557711216	1.976908	1.4060256
22.624759295970566	1.9741462	1.4050431
22.642633572550263	1.9463165	1.3951045
22.660508407338362	1.9457234	1.3948919
22.67838380082217	1.9701179	1.4036089
22.696259753489077	1.9917192	1.4112828
22.714136265826614	1.9793326	1.4068875
22.73201333832246	1.9350094	1.3910462
22.74989097146439	1.9251825	1.3875095
22.76776916574035	1.9216893	1.38625
22.785647921638393	1.9084516	1.3814672
22.803527239646712	1.8941492	1.3762809
22.82140712025363	1.8989314	1.3780172
22.839287563947593	1.9213744	1.3861365
22.85716857121719	1.9620084	1.4007171
22.875050142551135	1.9993016	1.4139667
22.892932278438277	2.0055475	1.4161736
22.910814979367604	1.9559624	1.3985573
22.928698245828222	1.9076216	1.3811668
22.946582078309387	1.9060577	1.3806005
22.96446647730047	1.958783	1.3995653
22.98235144329098	1.9925663	1.411583
23.000236976770562	1.9672453	1.4025853
23.018123078229	1.9454215	1.3947836
23.03600974815619	1.9453088	1.3947433
23.053896987042194	1.9479765	1.3956993
23.071784795377173	1.9520445	1.3971559
23.08967317365145	2.0091815	1.417456
23.10756212235546	2.017438	1.4203655
23.125451641979787	1.9888899	1.4102801
23.143341733015134	1.9278402	1.3884668
23.161232395952357	1.9258934	1.3877656
23.179123631282426	1.9654046	1.4019289
23.197015439496468	1.9876064	1.409825
23.214907821085717	1.9804205	1.4072741
23.23280077654157	1.9673694	1.4026295
23.250694306355538	1.997199	1.4132229
23.268588411019277	1.9653801	1.4019201
23.28648309102458	1.9849653	1.408888
23.304378346863356	1.9778868	1.4063736
23.322274179027676	1.981101	1.4075159
23.340170588009723	1.9541748	1.397918
23.358067574301852	1.9732343	1.4047186
23.37596513839651	1.9700505	1.4035848
23.39386328078629	1.9461279	1.3950369
23.411762001963947	1.919915	1.38561
23.429661302422353	1.9090048	1.3816674
23.4475611826545	1.9408498	1.3931439
23.46546164315356	1.9773045	1.4061666
23.48336268441279	2.008558	1.4172361
23.501264306925638	2.0087729	1.4173118
23.51916651118564	1.9815238	1.4076661
23.537069297686497	1.9657607	1.4020559
23.554972666922037	1.9802347	1.4072081
23.57287661938623	1.9616672	1.4005953
23.59078115557318	1.9713284	1.40404
23.608686275977128	1.953035	1.3975103
23.62659198109246	1.9220266	1.3863717
23.6444982714137	1.9079634	1.3812904
23.66240514743549	1.9172245	1.3846388
23.68031260965263	1.9071501	1.3809961
23.698220658560068	1.8623042	1.3646626
23.716129294652845	1.858465	1.3632553
23.7340385184262	1.9344434	1.3908427
23.75194833037546	1.9540278	1.3978654
23.769858730996123	1.9412553	1.3932894
23.78776972078382	1.8916287	1.3753649
23.80568130023431	1.8819575	1.3718445
23.823593469843495	1.9224263	1.3865159
23.841506230107424	1.9230361	1.3867358
23.859419581522275	1.9338428	1.3906268
23.87733352458438	1.9222895	1.3864665
23.89524805979019	1.9160742	1.3842233
23.913163187636318	1.8907894	1.3750597
23.931078908619508	1.931175	1.3896673
23.948995223236633	1.9884347	1.4101187
23.966912131984735	1.9936391	1.4119629
23.98482963536096	1.9957027	1.4126934
24.002747733862616	1.9756528	1.4055792
24.020666427987155	1.9897584	1.4105879
24.038585718232156	1.990912	1.4109968
24.056505605095353	2.012851	1.4187498
24.074426089074617	2.0786848	1.4417645
24.092347170667946	2.14706	1.465285
24.110268850373515	2.1661468	1.4717835
24.128191128689586	2.1556149	1.4682013
24.146114006114626	2.1351192	1.4612048
24.164037483147187	2.1321032	1.4601723
24.181961560286005	2.098853	1.4487419
24.199886238029926	2.1021633	1.4498839
24.21781151687797	2.0803306	1.4423351
24.235737397329274	2.1125336	1.4534557
24.253663879883135	2.1206808	1.4562558
24.271590965038975	2.1180725	1.4553599
24.289518653296376	2.060269	1.4353638
24.30744694515505	2.0269678	1.4237162
24.32537584111486	2.0561423	1.4339255
24.34330534167581	2.0756624	1.4407159
24.361235447338046	2.0643146	1.4367722
24.379166158601876	2.0703907	1.4388852
24.39709747596772	2.054651	1.4334054
24.41502939993615	2.0094042	1.4175346
24.432961931007917	2.0189033	1.4208812
24.450895069683856	2.0168014	1.4201413
24.468828816465	1.9899579	1.4106587
24.4867631718525	1.9362292	1.3914845
24.504698136347656	1.9386389	1.3923502
24.52263371045192	2.0172563	1.4203014
24.540569894666874	2.0359855	1.4268796
24.558506689494266	2.0214338	1.4217714
24.57644409543597	1.9815339	1.4076697
24.594382112994012	1.9961228	1.4128422
24.61232074267057	1.9947864	1.412369
24.630259984967953	1.9567832	1.3988507
24.64819984038863	1.9366072	1.3916204
24.66614030943522	1.9352076	1.3911175
24.684081392610462	1.9321382	1.3900137
24.702023090417274	1.9416617	1.3934352
24.7199654033587	2.0115092	1.4182768
24.737908331937927	2.0645854	1.4368665
24.755851876658305	2.0652943	1.4371132
24.773796038023324	2.0911624	1.4460852
24.79174081653661	2.081996	1.4429123
24.809686212701962	2.109849	1.4525319
24.827632227023294	2.093723	1.4469703
24.8455788600047	2.0902917	1.4457841
24.8635261121504	2.1155682	1.4544992
24.88147398396475	2.1098318	1.452526
24.899422475952303	2.1146052	1.4541682
24.917371588617698	2.1381674	1.4622474
24.935321322465768	2.1561844	1.4683952
24.953271678001478	2.294723	1.5148343
24.97122265572994	2.551879	1.5974602
24.989174256156414	2.915179	1.7073895
25.00712647978632	3.3639655	1.8341117
25.02507932712521	3.8840358	1.9707958
25.043032798678798	4.4825	2.1171916
25.060986894952933	5.170265	2.2738218
25.078941616453637	5.928676	2.4348874
25.096896963687055	6.858754	2.6189222
25.114852937159508	7.9848156	2.8257415
25.132809537377444	8.392045	2.8969026
25.150766764847468	8.323282	2.88501
25.168724620076347	7.713608	2.7773383
25.186683103570985	6.741616	2.5964622
25.204642215838426	5.633393	2.373477
25.222601957385894	4.325223	2.0797172
25.24056232872074	3.316625	1.8211604
25.25852333035048	2.7213287	1.6496451
25.276484962782778	2.2973769	1.51571
25.294447226525435	2.0783038	1.4416324
25.312410122086423	1.9774153	1.406206
25.330373649973843	1.9914654	1.4111929
25.348337810695988	1.9861591	1.4093115
25.366302604761245	1.9264675	1.3879725
25.384268032678207	1.8937837	1.3761481
25.40223409495558	1.9061819	1.3806455
25.420200792102257	1.912706	1.3830061
25.438168124627246	1.9009209	1.3787389
25.45613609303974	1.8915449	1.3753345
25.474104697849057	1.8922405	1.3755873
25.492073939564698	1.8901241	1.3748178
25.510043818696285	1.8679855	1.3667426
25.528014335753614	1.9021586	1.3791877
25.54598549124664	1.8926684	1.3757428
25.56395728568544	1.8854345	1.3731112
25.58192971958028	1.8587877	1.3633736
25.59990279344156	1.8842233	1.3726702
25.617876507779833	1.9038372	1.379796
25.635850863105826	1.9126729	1.3829942
25.653825859930386	1.9006538	1.3786421
25.671801498764548	1.9186014	1.3851359
25.68977778011949	1.9355288	1.3912328
25.707754704506524	1.9219555	1.3863461
25.725732272437153	1.8830843	1.3722552
25.743710484423012	1.8477911	1.3593348
25.761689340975888	1.8538103	1.361547
25.77966884260774	1.8709568	1.3678292
25.797648989830662	1.9007288	1.3786693
25.815629783156922	1.8994056	1.3781892
25.83361122309895	1.8793045	1.3708773
25.85159331016929	1.8253709	1.3510629
25.869576044880695	1.8244219	1.3507116
25.887559427746034	1.8278595	1.3519835
25.90554345927836	1.8112355	1.3458215
25.92352813999086	1.7710339	1.330802
25.94151347039689	1.7736268	1.3317758
25.959499451009965	1.8247517	1.3508338
25.97748608234374	1.8597356	1.3637213
25.995473364912062	1.8419822	1.3571965
26.013461299228904	1.8484908	1.3595922
26.03144988580839	1.8317379	1.3534172
26.04943912516483	1.8252616	1.3510225
26.067429017812675	1.8509791	1.3605069
26.085419564266537	1.8511404	1.3605661
26.103410765041186	1.83153	1.3533403
26.12140262065155	1.8374362	1.3555206
26.139395131612723	1.8278642	1.3519852
26.157388298439948	1.80552	1.3436965
26.17538212164861	1.7781885	1.3334874
26.193376601754295	1.8294635	1.3525766
26.211371739272714	1.8773826	1.3701761
26.229367534719746	1.8974317	1.377473
26.247363988611433	1.8640263	1.3652935
26.26536110146397	1.8510736	1.3605417
26.283358873793727	1.8025417	1.3425877
26.301357306117204	1.8059957	1.3438734
26.319356398951104	1.814798	1.3471444
26.33735615281224	1.8689167	1.3670833
26.35535656821762	1.8518581	1.36083
26.373357645684404	1.8508089	1.3604443
26.39135938572991	1.8518065	1.360811
26.409361788871614	1.8982353	1.3777646
26.427364855627165	1.865434	1.365809
26.445368586514352	1.8231033	1.3502234
26.46337298205115	1.8054471	1.3436693
26.48137804275568	1.837971	1.3557179
26.499383769146217	1.8731233	1.368621
26.517390161741215	1.8212868	1.3495506
26.53539722105928	1.8009162	1.3419822
26.553404947619182	1.7929276	1.3390025
26.571413341939856	1.7983925	1.3410416
26.589422404540397	1.7930237	1.3390384
26.60743213594006	1.8408791	1.35679
26.62544253665827	1.8575163	1.3629073
26.64345360721459	1.8309172	1.3531139
26.66146534812879	1.8283205	1.352154
26.679477759920758	1.846992	1.3590409
26.69749084311057	1.8718632	1.3681605
26.71550459821847	1.8440378	1.3579535
26.733519025764842	1.8448347	1.3582469
26.751534126270258	1.8366787	1.3552412
26.769549900255434	1.8282933	1.352144
26.787566348241267	1.8467647	1.3589572
26.80558347074881	1.886817	1.3736145
26.823601268299267	1.8567718	1.3626342
26.841619741414036	1.7985115	1.3410859
26.85963889061465	1.7657914	1.3288308
26.877658716422832	1.7685678	1.3298751
26.89567921936045	1.8211856	1.349513
26.913700399949544	1.8484147	1.3595642
26.93172225871233	1.8603393	1.3639425
26.949744796171174	1.8805493	1.3713312
26.967768012848605	1.881666	1.3717383
26.98579190926733	1.8524195	1.3610362
27.003816485950225	1.8641037	1.3653219
27.021841743420318	1.836943	1.3553387
27.039867682200814	1.8150477	1.3472371
27.057894302815072	1.8098804	1.345318
27.07592160578664	1.8082932	1.344728
27.0939495916392	1.7913651	1.3384188
27.111978260896635	1.7878126	1.3370911
27.13000761408296	1.8058977	1.3438369
27.148037651722397	1.7840345	1.3356775
27.166068374339304	1.7528229	1.3239422
27.184099782458215	1.778563	1.3336278
27.20213187660384	1.8076462	1.3444873
27.22016465730105	1.8333148	1.3539995
27.23819812507487	1.8686711	1.3669934
27.256232280450533	1.8988012	1.37797
27.274267123953383	1.9074924	1.38112
27.292302656108987	1.880087	1.3711627
27.31033887744306	1.8517685	1.360797
27.32837578848146	1.8633331	1.3650396
27.34641338975026	1.8952676	1.3766872
27.364451681775673	1.9235151	1.3869084
27.382490665084074	1.8767241	1.3699358
27.400530340202046	1.8112954	1.3458438
27.41857070765629	1.8076484	1.3444881
27.436611767973726	1.8326528	1.3537551
27.454653521681404	1.8799436	1.3711103
27.472695969306564	1.8601362	1.3638681
27.490739111376627	1.8015072	1.3422024
27.508782948419153	1.8009973	1.3420124
27.526827480961902	1.8066008	1.3440986
27.54487270953279	1.8240138	1.3505605
27.562918634659898	1.8125031	1.3462924
27.580965256871508	1.7881812	1.3372289
27.599012576696026	1.7978537	1.3408407
27.617060594662068	1.8278624	1.3519846
27.63510931129842	1.8783263	1.3705205
27.65315872713401	1.8963703	1.3770876
27.67120884269797	1.8718513	1.3681562
27.68925965851958	1.8752326	1.3693913
27.707311175128307	1.8967892	1.3772397
27.725363393053787	1.9274896	1.3883406
27.74341631282583	1.9370899	1.3917937
27.7614699349744	1.8951087	1.3766295
27.77952426002968	2.084218	1.4436821
27.797579288521973	2.1529746	1.4673018
27.815635020981784	2.5702317	1.6031942
27.83369145793979	2.618922	1.6183084
27.85174859992682	2.49117	1.578344
27.869806447473923	2.2808068	1.510234
27.887865001112267	1.9836197	1.4084103
27.905924261373233	1.9131994	1.3831846
27.92398422878836	1.9781467	1.406466
27.94204490388936	1.949263	1.3961601
27.96010628720813	1.8939283	1.3762007
27.978168379276728	1.8631295	1.364965
27.9962311806274	1.9030722	1.3795189
28.014294691792568	1.9426948	1.3938059
28.0323589133048	1.8731073	1.3686152
28.050423845696887	1.82116	1.3495036
28.068489489501758	1.8233829	1.3503269
28.086555845252523	1.8490838	1.3598102
28.104622913482487	1.8854387	1.3731128
28.122690694725115	1.8715702	1.3680534
28.14075918951405	1.8459386	1.3586532
28.15882839838312	1.8858705	1.37327
28.176898321866304	1.9149498	1.3838171
28.1949689604978	1.8915471	1.3753352
28.213040314811945	1.8502787	1.3602495
28.23111238534327	1.9114116	1.3825381
28.249185172626493	1.9493895	1.3962054
28.267258677196473	1.9795691	1.4069716
28.285332899588294	1.9324466	1.3901247
28.303407840337172	1.9149197	1.3838062
28.321483499978545	1.9246551	1.3873194
28.33955987904799	1.9583191	1.3993995
28.357636978081285	1.9615537	1.4005548
28.37571479761439	1.9296768	1.3891281
28.393793338183425	1.9067013	1.3808335
28.41187260032469	1.9233813	1.3868603
28.429952584574686	1.9485523	1.3959055
28.448033291470065	1.9660434	1.4021567
28.46611472154769	1.9602491	1.4000889
28.484196875344566	1.9568293	1.3988671
28.502279753397914	1.982193	1.4079038
28.52036335624511	2.009181	1.4174558
28.538447684423716	2.0251412	1.4230746
28.556532738471482	2.0408447	1.4285814
28.574618518926325	2.0318446	1.4254279
28.59270502632635	2.0237951	1.4226016
28.61079226120985	2.083735	1.4435148
28.628880224115274	2.0875244	1.4448267
28.646968915581287	2.0408819	1.4285944
28.66505833614671	2.0496805	1.4316705
28.68314848635055	2.0920308	1.4463854
28.701239366732004	2.1352968	1.4612654
28.71933097783044	2.1316068	1.4600023
28.737423320185403	2.093217	1.4467953
28.75551639433665	2.0862012	1.4443688
28.773610200824074	2.105984	1.4512008
28.791704740187793	2.156717	1.4685766
28.80980001296809	2.1543148	1.4677584
28.827896019705413	2.1514628	1.4667865
28.845992760940433	2.1840062	1.4778384
28.86409023721397	2.199947	1.4832219
28.88218844906704	2.2589242	1.5029718
28.900287397040845	2.2619638	1.5039827
28.918387081676755	2.2406676	1.496886
28.936487503516343	2.2755256	1.5084845
28.954588663101365	2.3217955	1.5237439
28.97269056097374	2.3618388	1.5368276
28.990793197675597	2.3655577	1.538037
29.00889657374923	2.3264184	1.5252601
29.027000689737125	2.3648098	1.5377938
29.04510554618196	2.4101977	1.5524812
29.06321114362659	2.4012394	1.5495933
29.08131748261405	2.4492662	1.5650132
29.099424563687567	2.5176466	1.5867094
29.11753238739057	2.503876	1.5823641
29.13564095426663	2.5737607	1.6042944
29.15375026485954	2.6304822	1.6218761
29.171860319713275	2.6216877	1.6191627
29.18997111937199	2.6602075	1.6310142
29.20808266438002	2.7733154	1.6653274
29.226194955281898	2.856767	1.6901973
29.244307992622335	2.8651953	1.6926888
29.26242177694624	2.8234453	1.6803111
29.2805363087987	2.800768	1.6735495
29.29865158872498	2.847763	1.6875316
29.316767617270557	2.9660206	1.7222139
29.334884394981064	3.0029488	1.7329018
29.353001922402367	2.9997222	1.7319707
29.37112020008047	3.0174546	1.7370822
29.389239228561596	3.166791	1.7795479
29.407359008392152	3.4471095	1.8566393
29.42547954011872	3.8048477	1.9506019
29.44360082428809	4.379246	2.092665
29.46172286144722	5.3396688	2.3107724
29.479845652143283	6.8707547	2.6212125
29.497969196923606	8.980198	2.996698
29.516093496335728	11.58987	3.4043899
29.5342185509274	14.3929825	3.7938085
29.55234436124651	16.951033	4.117163
29.570470927841175	18.473326	4.298061
29.588598251259686	18.214054	4.2677927
29.60672633205055	16.862574	4.106406
29.624855170762405	14.482872	3.805637
29.642984767944146	11.612801	3.4077559
29.66111512414481	8.942767	2.990446
29.67924623991366	6.644202	2.577635
29.697378115800138	5.0905724	2.2562296
29.71551075235387	4.1880784	2.0464795
29.733644150124675	3.7317555	1.9317752
29.751778309662576	3.4794314	1.8653234
29.769913231517766	3.3526185	1.8310157
29.78804891624066	3.2895927	1.8137234
29.806185364381818	3.3690631	1.8355008
29.82432257649206	3.477304	1.864753
29.842460553122333	3.420932	1.8495762
29.86059929482382	3.348152	1.8297956
29.878738802147872	3.2919822	1.8143821
29.896879075646048	3.341606	1.828006
29.915020115870114	3.3644414	1.8342414
29.933161923371976	3.2566597	1.8046218
29.951304498703777	3.173334	1.7813854
29.969447842417857	3.1761394	1.7821727
29.987591955066733	3.2447176	1.80131
30.005736837203123	3.255776	1.8043768
30.023882489379943	3.2411768	1.8003268
30.04202891215028	3.165218	1.779106
30.060176106067455	3.153514	1.7758136
30.078324071684946	3.108166	1.7629992
30.09647280955646	3.135904	1.7708484
30.114622320235863	3.1352775	1.7706715
30.132772604277257	3.1768346	1.7823677
30.1509236622349	3.175674	1.782042
30.16907549466328	3.170159	1.7804941
30.18722810211705	3.1338654	1.7702727
30.205381485151097	3.056751	1.7483567
30.22353564432045	3.0716238	1.7526048
30.241690580180403	3.0720522	1.752727
30.25984629328638	3.0549169	1.7478321
30.278002784194037	3.0358253	1.742362
30.296160053459246	3.0854068	1.7565325
30.314318101638033	3.0781155	1.7544559
30.332476929286646	3.0128355	1.7357521
30.35063653696153	2.9738207	1.7244769
30.368796925219307	2.969697	1.7232809
30.386958094616844	2.997707	1.7313887
30.40512004571115	3.0131233	1.7358351
30.423282779059463	3.0107045	1.7351382
30.441446295219233	2.9786363	1.7258726
30.459610594748067	2.9201508	1.7088449
30.47777567820382	2.8624406	1.6918749
30.495941546144504	2.8456833	1.6869153
30.51410819912835	2.8921876	1.7006433
30.532275637713795	2.853523	1.6892374
30.55044386245946	2.8864214	1.6989472
30.56861287392416	2.8532014	1.6891422
30.586782672666956	2.8228517	1.6801344
30.604953259247047	2.8025382	1.6740783
30.623124634223885	2.7591312	1.6610633
30.641296798157075	2.7361	1.654116
30.659469751606462	2.8059723	1.6751037
30.677643495132074	2.88867	1.6996088
30.695818029294152	2.873539	1.6951516
30.713993354653116	2.8009737	1.6736109
30.73216947176962	2.726073	1.6510824
30.75034638120448	2.6867294	1.6391246
30.768524083518756	2.6975124	1.6424105
30.786702579273673	2.7894943	1.6701779
30.80488186903069	2.8571525	1.6903113
30.82306195335144	2.949503	1.7174118
30.841242832797782	3.0893881	1.7576655
30.85942450793176	3.410201	1.846673
30.877606979315637	3.8182383	1.9540312
30.895790247511883	4.2341194	2.0576975
30.913974313083134	4.5937934	2.1433136
30.932159176592283	4.8750033	2.207941
30.95034483860237	4.993797	2.2346804
30.968531299676698	4.6895876	2.1655455
30.98671856037873	4.2967386	2.0728576
31.00490662127215	3.913687	1.978304
31.023095482920848	3.531243	1.8791602
31.04128514588892	3.1041641	1.7618638
31.059475610740662	2.7822063	1.6679947
31.07766687804056	2.6049805	1.6139952
31.09585894835335	2.6082726	1.6150147
31.11405182224393	2.5765505	1.6051637
31.132245500277417	2.5807853	1.6064823
31.15043998301914	2.507743	1.5835855
31.168635271034628	2.42845	1.5583485
31.18683136488964	2.4597795	1.5683684
31.20502826515008	2.490996	1.5782889
31.223225972382135	2.4996462	1.5810269
31.241424487152155	2.4228837	1.5565615
31.259623810026692	2.3543966	1.5344043
31.27782394157253	2.3858416	1.5446169
31.296024882356644	2.497777	1.5804358
31.314226632946237	2.4368973	1.5610565
31.332429193908684	2.4100041	1.5524188
31.350632565811598	2.4765	1.5736899
31.368836749222787	2.4574869	1.5676373
31.387041744710295	2.3972924	1.5483192
31.40524755284232	2.4710052	1.5719432
31.423454174187317	2.5129848	1.5852396
31.441661609313922	2.5026948	1.5819908
31.459869858791002	2.4244168	1.5570539
31.478078923187628	2.4708657	1.5718988
31.496288803073064	2.4766397	1.5737343
31.514499499016807	2.3791337	1.5424441
31.532711011588546	2.3099046	1.519837
31.550923341358178	2.3154097	1.521647
31.56913648889584	2.3090968	1.5195713
31.587350454771844	2.2931476	1.5143142
31.605565239556732	2.315437	1.521656
31.62378084382127	2.2718942	1.5072803
31.641997268136382	2.2270045	1.4923152
31.660214513073274	2.2165685	1.4888145
31.67843257920331	2.2360349	1.4953377
31.6966514670981	2.209568	1.4864615
31.71487117732944	2.293382	1.5143917
31.733091710469346	2.4166665	1.5545632
31.751313067090052	2.4265494	1.5577385
31.769535247764008	2.3198848	1.5231168
31.787758253063878	2.1970942	1.4822599
31.805982083562526	2.2505884	1.5001961
31.824206739833024	2.2945673	1.5147829
31.84243222244869	2.3475537	1.5321729
31.860658531983013	2.3476186	1.532194
31.878885669009737	2.3057446	1.5184679
31.897113634102784	2.2439303	1.4979755
31.91534242783632	2.182073	1.4771842
31.933572050784694	2.228229	1.4927254
31.951802503522508	2.2684512	1.5061378
31.970033786624548	2.281774	1.5105542
31.988265900665834	2.221143	1.49035
32.006498846221575	2.194845	1.4815009
32.02473262386724	2.1656625	1.471619
32.04296723417845	2.1606154	1.4699032
32.0612026777311	2.1433735	1.4640265
32.07943895510129	2.1923528	1.4806596
32.097676066865304	2.1981294	1.482609
32.115914013599685	2.1588612	1.4693063
32.13415279588115	2.1645613	1.4712448
32.152392414286666	2.1143425	1.4540778
32.1706328693934	2.0239918	1.4226707
32.18887416177875	2.0326915	1.4257249
32.20711629202032	2.0988414	1.4487379
32.225359260695924	2.140925	1.46319
32.243603068383614	2.2148695	1.4882438
32.26184771566166	2.261504	1.5038297
32.28009320310852	2.1967254	1.4821354
32.2983395313029	2.0858324	1.444241
32.31658670082372	2.1365366	1.4616896
32.33483471225012	2.132872	1.4604356
32.35308356616143	2.0105722	1.4179465
32.371333263137245	2.0015583	1.4147644
32.38958380375734	2.158927	1.4693288
32.407835188601744	2.220267	1.490056
32.42608741825067	2.1607192	1.4699385
32.444340493284585	2.1477711	1.4655275
32.46259441428416	2.1731625	1.474165
32.48084918183028	2.1589513	1.469337
32.49910479650405	2.0924587	1.4465333
32.51736125888683	2.085634	1.4441724
32.53561856956014	2.1240764	1.4574212
32.5538767291058	2.125939	1.45806
32.572135738105764	2.1284897	1.4589344
32.59039559714228	2.123179	1.4571133
32.608656306797776	2.1299808	1.4594454
32.62691786765491	2.1329849	1.4604743
32.645180280296586	2.185676	1.4784032
32.663443545305896	2.0972025	1.4481721
32.68170766326619	2.001134	1.4146144
32.69997263476099	2.0108275	1.4180365
32.7182384603741	2.049803	1.4317133
32.7365051406895	2.0030167	1.4152797
32.75477267629144	2.0539763	1.43317
32.77304106776434	1.9985962	1.4137172
32.79131031569289	2.010563	1.4179432
32.809580420661966	1.9928236	1.411674
32.827851383256714	2.0244172	1.4228201
32.84612320406245	1.9314967	1.389783
32.86439588366476	1.8919107	1.3754674
32.88266942264945	2.0548174	1.4334635
32.9009438216025	2.165916	1.4717051
32.9192190811102	2.099531	1.4489758
32.937495201758985	2.0712624	1.4391881
32.95577218413556	2.0330205	1.4258403
32.974050028826866	2.0651805	1.4370736
32.992328736420035	2.061464	1.4357799
33.010608307502444	2.0035853	1.4154806
33.02888874266169	1.938885	1.3924385
33.047170042485604	1.9811575	1.407536
33.06545220756225	2.0149121	1.419476
33.083735238479896	1.976734	1.4059638
33.10201913582707	1.9563055	1.39868
33.12030390019248	2.0173495	1.4203343
33.138589532165135	2.019214	1.4209905
33.15687603233419	2.042949	1.4293177
33.17516340128909	2.0611198	1.43566
33.19345163961947	2.0090134	1.4173967
33.211740747915215	2.0341768	1.4262457
33.23003072676643	2.1234236	1.4571972
33.248321576763466	2.0701878	1.4388148
33.266613298496885	1.8988007	1.3779697
33.28490589255747	1.7946584	1.3396486
33.30319935953626	1.8422388	1.357291
33.32149370002451	1.9489949	1.396064
33.339788914613706	1.991819	1.4113182
33.358085003895575	1.983632	1.4084147
33.376381968462034	1.885863	1.3732673
33.39467980890529	1.8786136	1.3706253
33.41297852581774	1.9510645	1.396805
33.43127811979204	1.9924623	1.4115461
33.44957859142105	1.929258	1.3889773
33.467879941297866	1.9212751	1.3861006
33.486182170015844	1.9155918	1.384049
33.50448527816853	1.9652334	1.4018679
33.522789266349754	1.9738764	1.404947
33.541094135153514	1.8960441	1.3769692
33.55939988517411	1.8210845	1.3494756
33.57770651700602	1.8254629	1.351097
33.59601403124398	1.8008462	1.3419561
33.61432242848296	1.8061011	1.3439126
33.632631709318154	1.8852946	1.3730603
33.650941874344994	1.9681493	1.4029075
33.66925292415916	1.964638	1.4016554
33.68756485935654	1.9031726	1.3795552
33.70587768053328	1.8183095	1.3484471
33.724191388285746	1.7750063	1.3322936
33.74250598321054	1.9502276	1.3965055
33.760821465904506	2.0654488	1.4371669
33.77913783696474	2.029427	1.4245796
33.79745509698852	1.9734462	1.404794
33.815773246573414	1.9014878	1.3789445
33.8340922863172	1.9101887	1.3820958
33.852412216817896	1.9946706	1.4123281
33.87073303867377	1.9630316	1.4010823
33.889054752483304	1.874972	1.3692962
33.907377358845245	1.9792632	1.4068629
33.92570085835853	2.0820749	1.4429396
33.94402525162239	1.9814383	1.4076357
33.96235053923627	1.8958384	1.3768945
33.980676721799824	2.0277474	1.42399
33.999003799912984	2.0624309	1.4361166
34.01733177417592	1.9583398	1.3994069
34.03566064518901	1.9134498	1.383275
34.0539904135529	1.9347731	1.3909612
34.07232107986846	2.0154445	1.4196635
34.090652644736785	2.0249932	1.4230225
34.108985108759235	2.0176287	1.4204326
34.12731847253742	2.0100603	1.417766
34.14565273667313	1.9907238	1.4109302
34.16398790176847	2.0106215	1.4179639
34.18232396842574	2.0513182	1.4322424
34.20066093724749	2.1274574	1.4585806
34.21899880883651	2.1539805	1.4676446
34.23733758379583	2.1083462	1.4520146
34.25567726272874	2.0847058	1.443851
34.27401784623872	1.9661092	1.4021802
34.29235933492957	1.8805426	1.3713288
34.31070172940526	1.8426743	1.3574514
34.32904503027003	1.9073131	1.3810551
34.347389238128386	1.9450744	1.3946593
34.36573435358502	1.9777436	1.4063227
34.38408037724492	1.8917428	1.3754064
34.402427309713296	1.9181073	1.3849576
34.42077515159559	1.9517292	1.397043
34.43912390349752	1.8893837	1.3745486
34.45747356602499	1.9639907	1.4014245
34.47582413978423	2.1308737	1.4597512
34.49417562538163	2.0410247	1.4286443
34.51252802342388	1.9164712	1.3843668
34.53088133451789	1.9046104	1.3800762
34.54923555927084	1.9842502	1.4086342
34.567590698290104	2.017117	1.4202524
34.58594675218336	2.1585124	1.4691876
34.6043037215585	2.2367208	1.4955671
34.62266160702365	2.1295261	1.4592896
34.641020409187234	2.039305	1.4280424
34.65938012865785	1.9637318	1.4013321
34.677740766044394	1.9013733	1.3789029
34.69610232195598	1.8724517	1.3683755
34.714464797002016	1.9495522	1.3962636
34.73282819179208	2.0671437	1.4377564
34.751192506936064	2.0639296	1.4366382
34.76955774304408	1.9781293	1.4064598
34.7879239007265	1.9530052	1.3974997
34.80629098059391	2.135797	1.4614366
34.824658983257194	2.2066119	1.4854668
34.843027909327446	2.2062104	1.4853318
34.86139775941603	2.048332	1.4311994
34.879768534134534	2.0138032	1.4190854
34.89814023409483	1.9932595	1.4118284
34.91651285990901	1.8410566	1.3568554
34.93488641218944	1.8008022	1.3419397
34.95326089154871	1.823426	1.3503429
34.97163629859967	1.8892484	1.3744993
34.99001263395542	1.9394319	1.3926349
35.00838989822934	2.041741	1.428895
35.02676809203499	1.8339356	1.3542287
35.04514721598624	1.6486914	1.2840137
35.063527270697215	1.6892334	1.2997051
35.081908256782256	2.0777907	1.4414544
35.10029017485597	2.3504145	1.5331062
35.11867302553321	2.197554	1.482415
35.137056809429104	2.1679626	1.4724003
35.155441527159006	2.1363287	1.4616185
35.173827179338524	1.9647732	1.4017037
35.19221376658354	1.7996722	1.3415186
35.21060128951017	1.9944512	1.4122504
35.2289897487348	2.2294998	1.493151
35.24737914487405	2.1853297	1.478286
35.26576947854479	1.8841786	1.3726538
35.28416075036418	1.5025631	1.2257909
35.30255296094958	1.5239059	1.2344658
35.32094611091867	1.8421136	1.3572448
35.33934020088932	2.2528012	1.5009334
35.35773523147969	2.3415952	1.5302272
35.3761312033082	2.2721272	1.5073577
35.394528116993506	2.4540493	1.5665406
35.41292597315452	2.4730635	1.5725976
35.431324772410434	2.3255205	1.5249658
35.449724515380666	2.2558627	1.501953
35.46812520268491	2.0233192	1.4224342
35.486526834943106	1.9300549	1.3892641
35.504929412775454	1.9484725	1.395877
35.52333293680242	1.9719212	1.4042511
35.54173740764471	1.6600921	1.2884456
35.560142825923286	1.7338372	1.3167526
35.5785491922594	2.2038405	1.4845338
35.59695650727454	2.3330245	1.5274241
35.61536477159042	2.9491389	1.7173057
