0.008763373481513119	0.43391317	0.65872085
0.026290120649546365	0.38063106	0.616953
0.043816868432600686	0.25542977	0.5054006
0.06134361724069026	0.10068898	0.31731528
0.07887036748382949	0.046007264	0.21449304
0.0963971195720331	0.10491579	0.32390708
0.11392387391531617	0.10935252	0.33068493
0.1314506309236943	0.12970111	0.3601404
0.1489773910071836	0.10280937	0.320639
0.16650415457580078	0.09526427	0.3086491
0.18403092203956356	0.088077545	0.29677862
0.20155769380849	0.08738731	0.29561344
0.2190844702925996	0.060192697	0.245342
0.2366112519019124	0.034033302	0.18448117
0.2541380390464497	0.07557175	0.27490318
0.27166483213623416	0.18430787	0.42931092
0.28919163158128947	0.22615872	0.47556147
0.3067184377916406	0.2080578	0.45613354
0.324245251177314	0.13665216	0.36966494
0.34177207214833777	0.057836156	0.2404915
0.3592989011147415	0.049185477	0.22177799
0.37682573848655654	0.07465154	0.27322432
0.39435258467381573	0.10473961	0.32363498
0.41187944008655414	0.09528949	0.30868995
0.42940630513480854	0.10313638	0.32114854
0.446933180228618	0.12086582	0.34765762
0.4644600657780234	0.16188316	0.40234706
0.48198696219306775	0.15676942	0.3959412
0.49951386988379676	0.1178943	0.34335738
0.5170407892602581	0.07666742	0.27688882
0.5345677207325025	0.057007615	0.23876268
0.5520946647105822	0.08718904	0.2952779
0.5696216216045534	0.118283264	0.34392333
0.5871485918244737	0.16765907	0.40946195
0.6046755757804043	0.17587459	0.41937405
0.6222025738824094	0.19284229	0.4391381
0.6397295865405557	0.16894564	0.41102996
0.6572566141649129	0.1649981	0.40619957
0.6747836571655547	0.12080287	0.34756708
0.6923107159525568	0.12341911	0.35131055
0.7098377909359992	0.12031212	0.34686038
0.7273648825259653	0.12107358	0.3479563
0.7448919911325411	0.12451109	0.3528613
0.762419117165817	0.13164286	0.36282623
0.7799462610358868	0.16586082	0.40726012
0.7974734231528482	0.21293874	0.46145287
0.8150006039268024	0.22043562	0.46950573
0.8325278037678551	0.20957203	0.45779037
0.8500550230861152	0.20023982	0.44748163
0.8675822622916969	0.2265648	0.47598824
0.8851095217947171	0.22279267	0.47200918
0.9026368020052984	0.21936885	0.4683683
0.9201641033335665	0.19502658	0.44161814
0.9376914261896523	0.2018375	0.44926327
0.9552187709836915	0.19245102	0.4386924
0.9727461381258234	0.23861282	0.48848012
0.990273528026193	0.28110307	0.53019154
1.0078009410949496	0.2777206	0.526992
1.0253283777422473	0.2592415	0.50915766
1.0428558383782454	0.26667905	0.51640975
1.0603833234131086	0.28312808	0.5320978
1.0779108332570058	0.3017076	0.54927915
1.0954383683201119	0.29116344	0.5395956
1.112965929012607	0.37970024	0.61619824
1.1304935157446763	0.5485542	0.74064445
1.1480211289265108	0.5990381	0.77397555
1.1655487689683062	1.347769	1.1609346
1.1830764362802655	1.5449728	1.2429694
1.200604131272596	1.965815	1.4020752
1.2181318543555117	2.3344765	1.5278994
1.235659605939232	2.3535075	1.5341146
1.253187386433982	3.8467124	1.9613037
1.270715196249994	6.1070914	2.471253
1.2882430357975057	11.525509	3.394924
1.3057709054867608	16.277285	4.0345116
1.3232988057280106	22.170588	4.708565
1.3408267369315112	27.283638	5.2233744
1.358354699507526	31.01996	5.5695567
1.3758826938663256	34.694473	5.8902016
1.3934107204181858	36.727104	6.060289
1.410938779573391	37.071148	6.0886083
1.4284668717422309	37.65215	6.1361346
1.4459949973350033	37.121483	6.09274
1.4635231567620117	37.40342	6.1158333
1.4810513504335687	36.81745	6.0677385
1.4985795787599925	36.075657	6.0063014
1.5161078421516088	35.8435	5.986944
1.5336361410187505	35.142506	5.9281116
1.5511644757717598	35.348785	5.9454846
1.5686928468209842	36.377293	6.031359
1.58622125457678	37.190254	6.098381
1.6037496994495108	38.278862	6.186991
1.621278181849548	38.161903	6.177532
1.6388067021872719	38.56771	6.210291
1.6563352608730693	37.658283	6.1366343
1.673863858317336	36.34576	6.0287447
1.6913924949304753	35.453037	5.954245
1.7089211711228998	34.240158	5.851509
1.7264498873050296	33.78944	5.8128686
1.7439786438872935	32.871265	5.733347
1.7615074412801288	32.217716	5.676065
1.779036279893981	31.516994	5.614
1.796565160139305	30.697506	5.540533
1.814094082426564	30.071898	5.483785
1.8316230471662298	29.31184	5.414041
1.849152054768784	28.384184	5.327681
1.8666811056447168	27.788624	5.2714915
1.8842102002045273	26.884962	5.185071
1.901739338858724	26.425613	5.140585
1.9192685220178245	25.581558	5.0578213
1.9367977500923557	25.042925	5.0042906
1.9543270234928547	24.354967	4.9350753
1.971856342629867	23.676956	4.865897
1.9893857079139496	23.199303	4.8165655
2.006915119755667	22.923885	4.7878895
2.0244445785655945	22.598495	4.7537875
2.0419740847543175	22.10238	4.701317
2.0595036387324317	21.336544	4.6191497
2.0770332409105414	20.743027	4.5544515
2.094562891699263	20.441399	4.5212164
2.1120925915092217	20.051846	4.4779286
2.129622340751053	19.793049	4.448938
2.1471521398354043	187.79427	13.703805
2.1646819891729323	444.20322	21.07613
2.182211889174303	440.5069	20.988256
2.1997418402501974	453.24417	21.289532
2.2172718428113023	433.14746	20.812195
2.234801897268317	320.96466	17.915487
2.2523320040319548	17.145292	4.1406875
2.269862163512935	16.832525	4.102746
2.287392376121992	16.5465	4.067739
2.304922642269869	16.34782	4.043244
2.322452962367322	15.9409	3.9926057
2.3399833368251164	15.652102	3.9562738
2.357513766054032	15.400872	3.9243946
2.3750442504648586	15.209218	3.8998997
2.3925747904683963	14.966853	3.8687017
2.410105386475459	14.729549	3.8379095
2.4276360388968707	14.494499	3.8071642
2.445166748143469	14.364388	3.790038
2.4626975146261025	14.22494	3.7715964
2.4802283387556323	14.057576	3.7493434
2.4977592209429305	13.748876	3.7079477
2.5152901615988825	13.441521	3.6662679
2.5328211611343865	13.054891	3.6131551
2.5503522199603523	12.802542	3.578064
2.5678833384877024	12.595279	3.5489829
2.5854145171273712	12.272818	3.5032582
2.6029457562903064	11.994737	3.463342
2.620477056387469	11.704271	3.4211507
2.6380084178298326	11.464984	3.3859982
2.655539841028383	11.336419	3.3669598
2.673071326394119	11.231995	3.3514168
2.6906028743380523	11.096042	3.331072
2.708134485271211	11.0764265	3.3281267
2.7256661596046325	10.907564	3.3026602
2.743197897749369	10.710678	3.2727172
2.760729700116486	10.55441	3.2487552
2.778261567117063	10.443604	3.2316566
2.795793499162193	10.36556	3.219559
2.8133254966629817	10.158119	3.1871805
2.830857560030551	9.929048	3.1510391
2.8483896896760337	9.770743	3.1258187
2.865921886010578	9.608422	3.0997455
2.883454149445347	9.4436245	3.073048
2.9009864803915177	9.362425	3.059808
2.91851887926028	9.391338	3.064529
2.9360513464628384	9.477104	3.0784905
2.953583882410413	9.303941	3.0502362
2.9711164875142373	9.034741	3.0057847
2.9886491621855606	8.7461195	2.9573839
3.0061819068356455	8.637587	2.9389772
3.023714721875769	8.660768	2.9429183
3.041247607717225	8.551227	2.924248
3.0587805647713213	8.437508	2.904739
3.0763135934493806	8.2097645	2.8652687
3.0938466941627407	8.056309	2.8383636
3.1113798673227544	7.8957276	2.8099337
3.1289131133407904	7.713603	2.7773373
3.1464464326282315	7.693805	2.773771
3.1639798255964786	7.7294745	2.7801933
3.1815132926569443	7.681757	2.7715983
3.1990468342210603	7.6602006	2.7677066
3.216580450700272	7.5700197	2.7513669
3.2341141425060416	7.4514146	2.729728
3.251647910049847	7.316873	2.704972
3.2691817537431813	7.2762375	2.6974502
3.286715673997555	7.1462045	2.6732385
3.3042496712244938	7.0984154	2.6642852
3.32178374583554	6.96105	2.6383803
3.339317898242251	6.936707	2.6337628
3.3568521288562034	6.8806543	2.6231
3.3743864380889876	6.8796377	2.6229064
3.3919208263522127	6.916845	2.6299896
3.4094552940575023	6.809373	2.6094775
3.4269898416164972	6.742135	2.5965621
3.444524469440858	6.6190176	2.572745
3.4620591779422587	6.622187	2.5733612
3.479593967532391	6.5842056	2.5659707
3.4971288386229658	6.5053983	2.5505683
3.5146637916257086	6.328568	2.5156646
3.5321988269523628	6.1800556	2.4859717
3.5497339450146903	6.109644	2.4717693
3.5672691462244708	6.005993	2.4507127
3.5848044309934988	6.130408	2.475966
3.60233979973359	6.197653	2.4895086
3.619875252856575	6.275996	2.505194
3.6374107907743034	6.3072844	2.5114307
3.6549464138986427	6.319584	2.5138783
3.6724821226414788	6.3716273	2.5242083
3.690017917414714	6.3162475	2.5132146
3.7075537986302702	6.3020215	2.5103827
3.7250897667000857	6.3659215	2.5230777
3.7426258220361235	6.6214137	2.5732107
3.7601619650503553	6.928257	2.6321583
3.777698196154779	7.4240093	2.7247036
3.7952345157614067	8.375888	2.8941126
3.8127709242822716	9.119938	3.0199234
3.830307422129425	11.102316	3.3320138
3.847844009714936	29.778948	5.457009
3.8653806874508954	97.301834	9.864169
3.882917455749409	96.662155	9.831692
3.900454315022606	96.63272	9.830194
3.917991265682631	41.15631	6.4153185
3.9355283081416506	10.820733	3.2894883
3.9530654428118495	8.643923	2.940055
3.970602670105433	7.431597	2.7260957
3.9881399904346244	6.6234956	2.5736153
4.005677404211669	6.5991707	2.568885
4.023214911848827	6.595374	2.568146
4.0407525137583855	6.652189	2.5791838
4.058290210352644	6.6864767	2.5858223
4.075828002043927	6.5804105	2.565231
4.0933658892445814	6.3946633	2.528767
4.110903872366966	6.179594	2.485879
4.128441951823468	6.1061993	2.4710724
4.145980128026488	6.1344395	2.4767802
4.163518401388452	6.0708604	2.4639115
4.181056772321807	6.023738	2.4543304
4.1985952412390155	5.9317074	2.4355097
4.216133808552567	6.02024	2.4536178
4.233672474674966	6.2144475	2.4928794
4.251211240018741	6.4527826	2.540233
4.268750104996445	6.7044225	2.58929
4.286289070020643	7.557182	2.749033
4.303828135503928	9.2320595	3.0384305
4.3213673018589125	29.62741	5.4431067
4.3389065694982305	90.83089	9.530524
4.356445938834537	166.07082	12.886847
4.3739854102805085	171.77626	13.106344
4.391524984248844	172.61742	13.138394
4.409064661152262	136.73775	11.693492
4.426604441403504	97.01592	9.849666
4.444144325415337	75.779	8.705113
4.461684313600543	21.779741	4.6668773
4.47922440637193	21.829945	4.6722527
4.496764604142329	20.190449	4.493378
4.5143049073245916	18.529913	4.3046384
4.531845316331589	16.67722	4.083775
4.5493858315762195	13.865189	3.723599
4.566926453471405	11.369361	3.3718483
4.584467182430081	9.281552	3.046564
4.602008018865218	8.132069	2.8516781
4.619548963189798	7.46229	2.7317193
4.637090015816834	6.997508	2.6452804
4.654631177159353	6.730268	2.594276
4.672172447630417	6.5108175	2.5516303
4.689713827643102	6.3503804	2.5199962
4.7072553176105085	6.161331	2.482203
4.724796917945764	6.028385	2.455277
4.742338629062015	5.917695	2.4326313
4.759880451372434	5.753183	2.3985794
4.777422385290215	5.6091394	2.3683622
4.794964431228581	5.5919404	2.3647285
4.812506589600768	5.6493883	2.3768442
4.830048860820047	5.710239	2.3896105
4.847591245299709	5.720534	2.3917637
4.8651337434530655	5.694364	2.3862867
4.882676355693457	5.6033688	2.3671436
4.900219082434242	5.5444546	2.3546665
4.917761924088813	5.5696616	2.360013
4.935304881070575	5.6535573	2.377721
4.952847953792969	5.642318	2.3753564
4.970391142669449	5.575416	2.3612318
4.9879344481135055	5.4847064	2.341945
5.005477870538642	5.4994693	2.3450947
5.023021410358394	5.5440373	2.354578
5.040565067986324	5.558153	2.3575735
5.05810884383601	5.5722556	2.3605626
5.075652738321066	5.5653915	2.3591082
5.09319675185512	5.4771314	2.3403273
5.110740884851836	5.470992	2.3390152
5.128285137724894	5.4920297	2.343508
5.145829510888007	5.479025	2.3407316
5.163374004754908	5.4519973	2.3349512
5.1809186197393595	5.3526254	2.313574
5.198463356255145	5.3596807	2.3150985
5.216008214716077	5.3178644	2.3060496
5.233553195535998	5.2394924	2.2889938
5.251098299128764	5.2444816	2.2900834
5.268643525908272	5.2235694	2.285513
5.286188876288432	5.2843995	2.298782
5.3037343506831895	5.2759433	2.2969422
5.32127994950651	5.2086997	2.2822576
5.3388256731723915	5.240007	2.2891061
5.356371522094851	5.2149363	2.2836235
5.373917496687938	5.169659	2.2736886
5.391463597365729	5.119756	2.262688
5.40900982454232	5.078666	2.2535896
5.426556178631843	5.1166596	2.2620034
5.444102660048449	5.2269793	2.2862587
5.4616492692063225	5.315022	2.305433
5.479196006519669	5.2753353	2.29681
5.496742872402727	5.244832	2.29016
5.514289867269756	5.1717486	2.274148
5.531836991535049	5.184065	2.2768543
5.549384245612924	5.1560736	2.270699
5.566931629917724	5.184159	2.2768748
5.584479144863822	5.148653	2.2690644
5.6020267908656205	5.233714	2.2877312
5.619574568337545	5.2194724	2.2846165
5.637122477694054	5.2042246	2.281277
5.654670519349629	5.214301	2.2834845
5.672218693718784	5.18491	2.2770398
5.689767001216059	5.1488476	2.269107
5.707315442256021	5.0670257	2.2510054
5.724864017253266	5.064075	2.25035
5.7424127266224225	5.109102	2.260332
5.75996157077814	5.1892724	2.2779975
5.777510550135105	5.1893206	2.278008
5.795059665108022	5.2097225	2.2824817
5.812608916111639	5.203619	2.2811441
5.830158303560715	5.3177505	2.3060248
5.847707827870055	5.294242	2.300922
5.86525748945448	5.343892	2.311686
5.8828072887288485	5.4712334	2.3390667
5.900357226108044	5.5219784	2.349889
5.917907302006979	5.586431	2.3635633
5.9354575168406	6.114325	2.472716
5.9530078710238765	6.746978	2.5974946
5.970558364971812	7.2605596	2.6945426
5.988108999099438	7.5479364	2.7473507
6.005659773821818	8.015304	2.8311312
6.023210689554039	7.7746687	2.7883093
6.040761746711227	8.15742	2.8561199
6.058312945708531	7.5769553	2.752627
6.075864286961132	7.1527543	2.6744633
6.093415770884244	6.5766096	2.56449
6.1109673978931065	6.110088	2.4718592
6.128519168402993	5.5353456	2.3527315
6.146071082829204	5.4274025	2.3296785
6.163623141587075	5.2616224	2.2938228
6.181175345091969	5.151558	2.2697043
6.198727693759281	5.1538606	2.2702115
6.216280188004435	5.156991	2.270901
6.233832828242885	5.161364	2.2718635
6.251385614890126	5.1217656	2.2631319
6.268938548361669	5.1125546	2.2610958
6.286491629073067	5.0569615	2.2487688
6.304044857439898	5.0069046	2.2376113
6.321598233877777	4.9647975	2.2281826
6.339151758802344	4.972285	2.229862
6.356705432629277	5.0333705	2.2435174
6.37425925577428	5.0514126	2.2475348
6.391813228653095	5.047806	2.2467322
6.409367351681486	5.0168056	2.2398226
6.426921625275259	4.9864254	2.2330306
6.44447604985025	4.951576	2.2252138
6.46203062582232	4.9471045	2.2242088
6.47958535360737	5.0264654	2.241978
6.497140233621328	5.0754213	2.2528696
6.514695266280161	5.077999	2.2534416
6.532250451999859	5.063099	2.250133
6.549805791196454	5.013888	2.2391713
6.567361284286002	5.0171766	2.2399056
6.584916931684597	5.0507216	2.247381
6.602472733808367	5.04072	2.2451549
6.6200286910734665	4.982891	2.232239
6.637584803896092	4.9370146	2.2219393
6.655141072692462	4.906821	2.2151344
6.672697497878842	4.9651127	2.2282534
6.690254079871514	4.9901247	2.2338586
6.707810819086808	4.9946475	2.234871
6.725367715941078	4.9937162	2.2346625
6.742924770850719	5.0057383	2.2373507
6.760481984232151	4.965961	2.2284436
6.778039356501836	4.915027	2.216986
6.795596888076266	4.8963623	2.2127726
6.813154579371963	4.992062	2.2342923
6.830712430805492	5.0262966	2.2419403
6.84827044279344	5.031182	2.2430296
6.865828615752445	5.0126452	2.2388937
6.883386950099159	5.030033	2.2427735
6.900945446250287	5.0600286	2.2494507
6.918504104622553	5.047466	2.2466567
6.936062925632727	5.0339594	2.2436488
6.953621909697607	5.0215955	2.2408917
6.971181057234028	5.0535307	2.2480059
6.988740368658859	5.1152296	2.2616873
7.006299844389007	5.1253004	2.2639127
7.023859484841407	5.2058206	2.2816267
7.041419290433036	5.244168	2.2900147
7.058979261580902	5.3729467	2.3179617
7.0765393987020495	5.6103296	2.3686135
7.094099702213559	6.014552	2.4524584
7.111660172532549	6.4128256	2.5323558
7.129220810076164	6.856204	2.6184354
7.146781615261595	7.5477343	2.747314
7.16434258850606	7.714723	2.777539
7.181903730226821	8.186704	2.8612416
7.1994650408411704	8.189879	2.8617966
7.217026520766437	8.364165	2.8920867
7.234588170419983	8.608535	2.9340305
7.252149990219215	8.560241	2.9257889
7.269711980581568	8.436072	2.9044917
7.2872741419245175	8.201509	2.8638277
7.304836474665574	7.790488	2.7911446
7.322398979222286	7.4657726	2.7323565
7.339961656012233	7.2118816	2.6854947
7.357524505453039	6.9231796	2.6311936
7.375087527962357	6.623113	2.573541
7.392650723957886	6.3590713	2.52172
7.410214093857353	5.9753904	2.444461
7.427777638078528	5.811489	2.410703
7.445341357039213	5.6693316	2.3810358
7.4629052511572525	5.4537444	2.3353252
7.480469320850524	5.297194	2.3015635
7.498033566536948	5.202696	2.280942
7.5155979886344735	5.183459	2.276721
7.5331625875610975	5.109804	2.2604876
7.550727363734844	5.1049848	2.2594213
7.568292317573788	5.1139636	2.2614074
7.585857449496025	5.197114	2.279718
7.603422759919705	5.187457	2.2775989
7.620988249263007	5.1724977	2.2743125
7.638553917944147	5.1388636	2.2669063
7.656119766381391	5.0969872	2.2576509
7.673685794993023	5.1710296	2.2739897
7.691252004197388	5.1730733	2.274439
7.70881839441285	5.2306867	2.2870696
7.726384966057826	5.2254086	2.2859151
7.743951719550762	5.321641	2.3068683
7.761518655310149	5.367662	2.3168216
7.779085773754511	5.413682	2.3267322
7.796653075302419	5.3740463	2.318199
7.814220560372475	5.345497	2.3120332
7.831788229383323	5.316404	2.3057327
7.8493560827536495	5.364137	2.3160608
7.866924120902174	5.345863	2.312112
7.884492344247663	5.3423233	2.3113465
7.9020607532089135	5.3140073	2.305213
7.919629348204771	5.3264647	2.3079135
7.937198129654115	5.350828	2.3131857
7.954767097975865	5.370567	2.3174484
7.972336253588986	5.4156184	2.3271482
7.989905596912472	5.4817247	2.3413084
8.007475128365371	5.525161	2.3505661
8.025044848366756	5.532615	2.3521512
8.042614757335754	5.6539927	2.3778126
8.060184855691523	5.6384215	2.374536
8.07775514385327	5.834678	2.4155078
8.095325622240228	5.8683305	2.4224637
8.112896291271687	5.880265	2.4249258
8.130467151366968	5.908753	2.4307926
8.148038202945436	5.919407	2.4329832
8.165609446426497	5.895297	2.4280233
8.183180882229594	5.9422393	2.437671
8.200752510774217	5.9492416	2.4391067
8.218324332479893	5.992714	2.448002
8.235896347766193	5.9602757	2.4413676
8.253468557052724	5.917207	2.4325309
8.27104096075914	5.912669	2.4315982
8.288613559305137	6.0547543	2.460641
8.306186353110448	6.1643176	2.4828043
8.32375934259485	6.2354765	2.4970937
8.341332528178162	6.1844673	2.4868588
8.358905910280246	6.1444144	2.478793
8.376479489321003	6.129219	2.475726
8.394053265720377	6.198336	2.4896457
8.411627239898356	6.2595763	2.5019145
8.42920141227497	6.2763205	2.5052586
8.44677578327029	6.2904353	2.508074
8.464350353304427	6.178829	2.4857252
8.48192512279754	6.145636	2.4790394
8.499500092169827	6.092753	2.4683502
8.51707526184153	6.172319	2.4844153
8.534650632232934	6.2216077	2.4943151
8.552226203764365	6.2565165	2.501303
8.569801976856192	6.272813	2.5045583
8.587377951928834	6.292191	2.508424
8.60495412940274	6.327352	2.5154228
8.622530509698416	6.3305097	2.5160503
8.6401070932364	6.454804	2.5406306
8.657683880437283	6.5653586	2.5622957
8.675260871721695	6.7507796	2.5982263
8.692838067510303	6.889814	2.6248455
8.710415468223834	7.022402	2.6499815
8.727993074283043	7.180149	2.67958
8.745570886108737	7.177434	2.6790733
8.763148904121765	7.2921405	2.7003963
8.78072712874302	7.337996	2.7088735
8.798305560393441	7.498794	2.7383926
8.815884199494006	7.5751987	2.752308
8.833463046465745	7.72994	2.780277
8.851042101729728	7.90463	2.8115175
8.86862136570707	8.229201	2.8686585
8.886200838818924	8.354156	2.8903556
8.903780521486505	8.335367	2.8871036
8.921360414131055	8.4617605	2.9089105
8.938940517173874	8.640801	2.939524
8.956520831036297	8.780231	2.9631455
8.97410135613971	9.0502205	3.0083585
8.99168209290554	9.160081	3.0265625
9.009263041755265	9.380481	3.062757
9.026844203110405	9.626324	3.1026318
9.044425577392525	9.932288	3.1515534
9.062007165023239	10.025021	3.1662314
9.079588966424197	10.304836	3.2101147
9.097170982017108	10.30033	3.2094128
9.11475321222372	11.162316	3.3410053
9.132335657465825	12.049917	3.4712992
9.149918318165264	12.078287	3.475383
9.167501194743924	12.558298	3.543769
9.18508428762374	12.289848	3.505688
9.202667597226693	12.324435	3.5106175
9.220251123974803	11.968617	3.459569
9.237834868290143	11.795734	3.4344919
9.255418830594836	11.629731	3.4102392
9.273003011311046	11.20909	3.347998
9.290587410860985	10.97872	3.313415
9.308172029666911	10.359205	3.218572
9.32575686815113	10.070451	3.1733973
9.343341926735997	8.890418	2.9816804
9.360927205843916	8.653739	2.9417238
9.378512705897327	8.415538	2.9009547
9.396098427318728	8.206311	2.864666
9.413684370530664	8.046526	2.83664
9.431270535955722	7.944686	2.818632
9.448856924016539	7.8254256	2.7973962
9.466443535135806	7.727815	2.7798948
9.484030369736251	7.6941657	2.773836
9.501617428240658	7.665158	2.7686021
9.519204711071852	7.7395883	2.7820115
9.536792218652714	7.7765203	2.7886412
9.55437995140617	7.8427305	2.8004875
9.571967909755191	7.903309	2.8112824
9.589556094122802	7.9815955	2.8251717
9.60714450493207	8.05729	2.8385365
9.624733142606116	8.001475	2.828688
9.642322007568108	7.981063	2.8250775
9.659911100241267	7.9660935	2.8224268
9.677500421048851	7.9697614	2.8230765
9.695089970414175	8.022174	2.8323443
9.712679748760609	8.03085	2.8338754
9.730269756511557	8.064504	2.839807
9.747859994090492	8.033899	2.8344133
9.765450461920915	8.103263	2.8466232
9.78304116042639	8.189895	2.8617992
9.800632090030527	8.252931	2.8727915
9.81822325115699	8.292121	2.8796043
9.835814644229481	8.262546	2.8744645
9.853406269671762	8.15985	2.8565452
9.870998127907646	8.124583	2.8503654
9.888590219360985	8.153023	2.8553498
9.906182544455698	8.253392	2.8728719
9.923775103615734	8.287923	2.8788753
9.941367897265108	8.403434	2.8988676
9.958960925827878	8.412463	2.9004247
9.97655418972816	8.389019	2.8963804
9.994147689390106	8.379514	2.894739
10.011741425237934	8.304108	2.8816848
10.029335397695904	8.3011	2.881163
10.04692960718833	8.302198	2.8813536
10.06452405413958	8.331323	2.886403
10.082118738974064	8.371991	2.8934393
10.099713662116246	8.350652	2.8897495
10.117308823990651	8.351221	2.889848
10.134904225021844	8.36419	2.892091
10.152499865634445	8.330403	2.8862438
10.170095746253125	8.351077	2.889823
10.18769186730261	8.271507	2.8760228
10.205288229207675	8.239461	2.8704462
10.222884832393145	8.1414175	2.853317
10.2404816772839	8.0336685	2.8343728
10.258078764304868	8.002203	2.8288167
10.275676093881035	7.9718914	2.823454
10.293273666437438	7.96234	2.8217618
10.310871482399158	8.061666	2.8393073
10.32846954219134	8.170879	2.858475
10.346067846239173	8.238069	2.8702035
10.363666394967908	8.184968	2.8609383
10.38126518880283	8.105958	2.8470964
10.398864228169298	8.104269	2.8467999
10.416463513492713	8.17334	2.8589053
10.434063045198531	8.25002	2.872285
10.451662823712262	8.258723	2.8737996
10.469262849459467	8.284307	2.878247
10.486863122865758	8.223062	2.867588
10.504463644356806	8.2310705	2.8689842
10.522064414358338	8.163545	2.8571918
10.539665433296118	7.989515	2.826573
10.557266701595987	7.8594666	2.803474
10.574868219683818	7.7526417	2.7843566
10.592469987985552	7.662337	2.7680926
10.610072006927185	7.6159143	2.7596946
10.627674276934751	7.437974	2.727265
10.64527679843435	7.361435	2.7131965
10.662879571852143	7.196048	2.682545
10.680482597614331	7.126876	2.669621
10.698085876147173	7.0169315	2.6489491
10.715689407876988	6.8981104	2.6264255
10.733293193230146	6.7779355	2.603447
10.750897232633072	6.640556	2.5769277
10.76850152651225	6.6209545	2.5731215
10.786106075294207	6.5985074	2.568756
10.803710879405534	6.549366	2.5591729
10.821315939272877	6.4159913	2.5329807
10.83892125532294	6.2906723	2.5081213
10.856526827982472	6.2477417	2.4995482
10.874132657678285	6.2872767	2.5074444
10.891738744837243	6.262274	2.5024536
10.909345089886271	6.1983423	2.489647
10.926951693252343	6.0542073	2.4605298
10.944558555362494	5.9958777	2.4486482
10.96216567664381	5.934864	2.4361577
10.979773057523436	5.9284816	2.4348474
10.997380698428573	5.8682995	2.4224572
11.014988599786477	5.795146	2.407311
11.032596762024461	5.7081785	2.3891795
11.050205185569892	5.6651917	2.3801663
11.067813870850198	5.6431456	2.3755305
11.085422818292859	5.584342	2.3631213
11.10303202832541	5.487009	2.3424366
11.120641501375454	5.432211	2.3307104
11.138251237870636	5.3501425	2.3130374
11.155861238238671	5.3000584	2.3021855
11.173471502907317	5.241859	2.2895107
11.191082032304402	5.2201753	2.2847703
11.208692826857805	5.159758	2.2715101
11.226303886995465	5.0407786	2.2451677
11.243915213145371	4.9601398	2.227137
11.261526805735578	4.942052	2.2230725
11.279138665194196	4.920045	2.2181175
11.296750791949393	4.8853188	2.2102757
11.314363186429393	4.8057036	2.1921916
11.331975849062479	4.7233653	2.1733305
11.34958878027699	4.6754227	2.1622725
11.36720198050133	4.632091	2.1522293
11.384815450163948	4.596655	2.143981
11.402429189693366	4.5597544	2.135358
11.420043199518153	4.4581785	2.11144
11.437657480066942	63.454884	7.9658575
11.455272031768422	85.20254	9.230522
11.472886855051353	107.604805	10.373274
11.490501950344528	99.14912	9.957365
11.508117318076819	84.46706	9.190596
11.52573295867715	45.864872	6.772361
11.543348872574514	4.221988	2.0547478
11.560965060197946	4.178217	2.0440688
11.57858152197655	4.1058793	2.0262969
11.59619825833949	4.0295215	2.007367
11.613815269715985	3.937997	1.9844388
11.631432556535323	38.43163	6.199325
11.649050119226837	82.99263	9.110029
11.666667958219929	93.4155	9.66517
11.68428607394406	107.71763	10.378711
11.701904466828756	82.52025	9.084065
11.719523137303586	65.38245	8.085941
11.737142085798196	4.623353	2.1501985
11.754761312742286	3.7216625	1.9291611
11.772380818565619	3.6698384	1.9156822
11.790000603698015	3.620297	1.9027078
11.80762066856935	3.5646124	1.8880181
11.825241013609572	3.5482116	1.8836697
11.842861639248683	3.5161076	1.8751286
11.860482545916748	3.4830773	1.8663005
11.878103734043883	3.4737017	1.8637869
11.895725204060282	3.4458668	1.8563046
11.91334695639619	3.448608	1.8570428
11.930968991481919	3.4289598	1.8517451
11.948591309747824	3.4553592	1.8588597
11.966213911624347	3.4228587	1.850097
11.98383679754198	3.3514907	1.8307077
12.001459967931268	3.2813604	1.8114525
12.019083423222835	3.2969203	1.8157424
12.036707163847352	3.3002002	1.8166453
12.05433119023556	3.2441597	1.8011551
12.071955502818259	3.2029653	1.789683
12.089580102026313	3.1882837	1.7855766
12.107204988290643	3.191129	1.7863731
12.12483016204224	3.1860194	1.7849424
12.142455623712152	3.1645179	1.7789092
12.16008137373149	3.1431508	1.7728933
12.177707412531431	3.093364	1.7587962
12.19533374054321	3.0809224	1.7552557
12.212960358198126	3.0570667	1.748447
12.230587265927545	3.0385108	1.7431325
12.248214464162889	2.996652	1.731084
12.265841953335649	2.9715695	1.7238241
12.283469733877375	2.9753253	1.7249131
12.301097806219685	3.0248315	1.7392043
12.31872617079425	3.0102265	1.7350004
12.336354828032825	2.9842043	1.727485
12.353983778367205	2.9586782	1.7200809
12.371613022229262	2.9451923	1.7161562
12.389242560050928	2.9467082	1.7165979
12.406872392264201	2.9563777	1.7194121
12.424502519301143	2.9405954	1.7148165
12.442132941593874	2.9003108	1.7030299
12.459763659574586	2.9022467	1.7035981
12.477394673675532	2.8792717	1.6968417
12.49502598432903	2.8824596	1.6977808
12.51265759196746	2.8249125	1.6807476
12.530289497023267	2.8265388	1.6812314
12.547921699928967	2.8290422	1.6819757
12.565554201117134	2.7914793	1.6707721
12.583187001020404	2.769555	1.664198
12.600820100071486	2.7562046	1.6601821
12.618453498703152	2.7696521	1.6642271
12.636087197348235	2.7729685	1.6652232
12.65372119643964	2.7879846	1.6697259
12.671355496410326	2.798554	1.6728879
12.68899009769333	2.8695483	1.6939741
12.706625000721749	2.9042077	1.7041736
12.724260205928752	2.9750187	1.7248243
12.741895713747551	2.969052	1.7230937
12.759531524611454	3.0196958	1.7377272
12.777167638953818	3.0162885	1.7367465
12.794804057208072	3.011635	1.7354063
12.812440779807702	3.01191	1.7354856
12.830077807186271	3.157032	1.7768039
12.847715139777405	3.2399023	1.7999729
12.865352778014795	3.4238698	1.8503702
12.882990722332197	3.5169718	1.8753592
12.90062897316344	3.5424628	1.8821431
12.918267530942412	3.6309602	1.9055079
12.935906396103071	3.531531	1.8792368
12.953545569079449	3.7147763	1.9273754
12.971185050305628	3.5823104	1.8926992
12.988824840215775	3.5949376	1.8960321
13.006464939244115	3.5525265	1.8848147
13.024105347824943	3.3807597	1.8386842
13.041746066392617	3.4738061	1.863815
13.05938709538157	3.3032334	1.81748
13.077028435226296	3.341117	1.8278723
13.094670086361363	3.2393684	1.7998246
13.112312049221401	3.1695957	1.7803359
13.129954324241112	3.0836303	1.7560269
13.147596911855258	2.9067113	1.704908
13.165239812498685	2.8550813	1.6896986
13.182883026606293	2.7895548	1.670196
13.200526554613058	2.7412024	1.6556576
13.218170396954017	2.716091	1.6480567
13.235814554064284	2.7147465	1.6476488
13.253459026379034	2.675527	1.6357038
13.271103814333523	2.6586251	1.630529
13.288748918363058	2.6261806	1.6205494
13.306394338903031	2.636042	1.6235893
13.32404007638889	2.6332304	1.6227231
13.341686131256164	2.687754	1.6394371
13.359332503940449	2.690162	1.6401713
13.376979194877402	2.7045662	1.6445565
13.394626204502751	2.7364132	1.6542108
13.412273533252307	2.775208	1.6658956
13.429921181561937	2.746734	1.6573273
13.447569149867581	2.6864343	1.6390345
13.465217438605247	2.656015	1.6297284
13.482866048211022	2.6702347	1.6340853
13.500514979121052	2.7049184	1.6446636
13.518164231771568	2.7215106	1.6497002
13.535813806598844	2.7133644	1.6472293
13.553463704039254	2.7329924	1.6531764
13.571113924529229	2.7469435	1.6573906
13.588764468505275	2.7295053	1.6521214
13.606415336403956	2.745729	1.6570241
13.624066528661917	2.7911236	1.6706656
13.641718045715882	2.8272998	1.6814576
13.659369888002635	2.8754702	1.6957211
13.67702205595903	2.9215095	1.7092423
13.694674550021993	2.983155	1.7271812
13.712327370628532	3.0284421	1.740242
13.729980518215713	3.1103704	1.7636242
13.747633993220681	3.1534297	1.7757899
13.765287796080647	3.19288	1.7868632
13.7829419272329	3.2554853	1.8042964
13.800596387114801	3.3147483	1.820645
13.818251176163775	3.304712	1.8178867
13.835906294817324	3.3095272	1.8192105
13.853561743513023	3.3246317	1.8233572
13.871217522688525	3.4422188	1.8553218
13.888873632781538	3.507082	1.8727205
13.906530074229858	3.5615146	1.8871976
13.92418684747135	3.5529673	1.8849317
13.941843952943948	3.5413506	1.8818476
13.959501391085665	3.4656067	1.861614
13.977159162334578	3.3972554	1.8431646
13.994817267128846	3.3472831	1.8295581
14.012475705906693	3.25973	1.8054723
14.030134479106424	3.198933	1.7885561
14.047793587166414	3.1231449	1.7672422
14.065453030525108	3.0710542	1.7524424
14.083112809621026	3.023694	1.7388772
14.100772924892766	2.9523742	1.7182474
14.118433376778997	2.919641	1.7086957
14.136094165718458	2.893571	1.7010499
14.153755292149969	2.8625052	1.6918939
14.171416756512416	2.7381616	1.6547391
14.189078559244768	2.6580625	1.6303566
14.20674070078606	2.5823045	1.606955
14.224403181575408	2.5570354	1.5990733
14.242066002051999	2.4914098	1.57842
14.259729162655093	2.4429615	1.5629976
14.277392663824022	2.401984	1.5498335
14.295056505998208	2.3627849	1.5371352
14.312720689617128	2.361269	1.5366421
14.330385215120348	2.3542929	1.5343705
14.348050082947497	2.38085	1.5430003
14.3657152935383	2.371275	1.5398945
14.383380847332528	2.375732	1.541341
14.401046744770051	2.370489	1.5396392
14.418712986290798	2.3977313	1.548461
14.436379572334793	2.4061823	1.5511874
14.454046503342123	2.4290106	1.5585283
14.471713779752946	2.4402792	1.5621393
14.489381402007504	2.4071698	1.5515057
14.507049370546113	2.3839836	1.5440154
14.524717685809168	2.3617406	1.5367956
14.542386348237134	2.3857841	1.5445983
14.560055358270553	2.396595	1.548094
14.577724716350051	2.4440472	1.5633448
14.595394422916325	2.4747288	1.573127
14.61306447841015	2.4796743	1.5746982
14.63073488327237	2.4698272	1.5715684
14.648405637943917	2.516282	1.5862793
14.6660767428658	2.5163136	1.5862893
14.683748198479094	2.536357	1.5925944
14.701420005224954	2.5554123	1.5985657
14.719092163544628	2.6313548	1.6221452
14.73676467387942	2.6533337	1.6289057
14.754437536670727	2.686652	1.6391009
14.772110752360014	2.6812625	1.637456
14.78978432138882	2.6744645	1.635379
14.807458244198777	2.665283	1.6325694
14.82513252123159	2.6249003	1.6201544
14.842807152929028	2.6574333	1.6301636
14.860482139732962	2.6824462	1.6378175
14.87815748208531	2.7027965	1.6440184
14.8958331804281	2.7330892	1.6532058
14.91350923520342	2.6975083	1.6424093
14.931185646853438	2.7457085	1.657018
14.948862415820408	2.717064	1.6483519
14.966539542546656	2.7243304	1.6505545
14.98421702747459	2.6750429	1.6355559
15.001894871046696	2.6653533	1.632591
15.019573073705542	2.6715384	1.6344842
15.037251635893766	2.6623862	1.631682
15.054930558054092	2.6768496	1.636108
15.072609840629323	2.7337914	1.6534181
15.090289484062351	2.8823156	1.6977384
15.107969488796124	3.222424	1.7951112
15.125649855273691	3.6663325	1.9147669
15.14333058393817	4.1539116	2.0381148
15.161011675232768	5.1374426	2.2665927
15.17869312960076	6.5366554	2.5566883
15.196374947485506	8.330328	2.8862307
15.214057129330447	11.30121	3.3617272
15.231739675579114	15.772164	3.9714184
15.249422586675102	20.567722	4.5351653
15.267105863062092	23.474642	4.8450637
15.284789505183847	23.756802	4.874095
15.302473513484218	21.716467	4.660093
15.320157888407127	18.359314	4.284777
15.337842630396578	14.331001	3.785631
15.355527739896656	11.202551	3.347021
15.37321321735153	8.7166	2.952389
15.39089906320545	6.3812146	2.5261066
15.408585277902748	4.7691765	2.1838443
15.42627186188783	3.6897547	1.9208734
15.443958815605198	3.225669	1.7960148
15.461646139499424	2.956695	1.7195044
15.479333834015168	2.8026617	1.6741152
15.497021899597165	2.7614768	1.6617692
15.514710336690234	2.7346277	1.653671
15.53239914573928	2.691815	1.6406752
15.550088327189297	2.5863774	1.6082218
15.567777881485336	2.5232587	1.5884769
15.58546780907256	2.4724357	1.5723981
15.6031581103962	2.4969122	1.580162
15.620848785901568	2.4879355	1.5773191
15.638539836034063	2.4543536	1.5666376
15.656231261239173	2.4155178	1.5541936
15.673923061962451	2.4012907	1.5496098
15.691615238649552	2.4089432	1.552077
15.709307791746202	2.4086745	1.5519905
15.727000721698221	2.3826458	1.5435822
15.744694028951498	2.3857405	1.5445843
15.76238771395202	2.3643303	1.537638
15.780081777145844	2.3440547	1.5310307
15.797776218979125	2.3450162	1.5313445
15.815471039898094	2.3630795	1.5372311
15.833166240349064	2.3535407	1.5341253
15.850861820778437	2.3179884	1.5224941
15.868557781632699	2.3038325	1.5178381
15.886254123358412	2.308288	1.5193051
15.903950846402232	2.348043	1.5323325
15.921647951210897	2.3876848	1.5452135
15.939345438231225	2.414674	1.5539222
15.957043307910133	2.4466007	1.5641613
15.974741560694602	2.474657	1.5731043
15.992440197031714	2.4518852	1.5658497
16.01013921736862	2.390463	1.5461123
16.02783862215259	2.3597891	1.5361605
16.045538411830933	2.3580346	1.5355893
16.06323858685107	2.3739552	1.5407645
16.080939147660512	2.347078	1.5320177
16.09864009470684	2.359503	1.5360674
16.11634142843774	2.3416545	1.5302466
16.134043149300954	2.3673508	1.5386198
16.15174525774433	2.3837583	1.5439425
16.169447754215817	2.4334168	1.5599413
16.18715063916342	2.4573727	1.567601
16.204853913035244	2.4486592	1.5648192
16.222557576279478	2.4435663	1.563191
16.240261629344403	22.420265	4.7350044
16.257966072678386	42.982674	6.556117
16.275670906729868	38.061768	6.169422
16.293376131947387	2.5044885	1.5825576
16.31108174877957	2.535796	1.5924183
16.328787757675133	2.574818	1.6046239
16.34649415908287	2.5955215	1.6110622
16.364200953451657	2.6017518	1.6129947
16.38190814123048	2.6097643	1.6154765
16.39961572286839	2.630026	1.6217356
16.41732369881455	2.657987	1.6303334
16.43503206951817	2.7427983	1.6561396
16.45274083542859	2.7999165	1.6732951
16.47044999699522	2.8662326	1.6929952
16.488159554667558	2.8517277	1.6887059
16.505869508895184	2.8909094	1.7002674
16.523579860127786	2.920943	1.7090766
16.541290608815117	2.9651287	1.721955
16.559001755407035	2.9816854	1.7267557
16.57671330035348	3.009093	1.7346737
16.59442524410448	3.0656633	1.7509036
16.61213758711015	3.1927862	1.786837
16.629850329820705	3.2797196	1.8109996
16.647563472686436	3.2869554	1.8129963
16.665277016157724	3.2790596	1.8108174
16.682990960685053	3.328497	1.8244169
16.70070530671898	3.4245188	1.8505455
16.718420054710155	3.4716055	1.8632245
16.736135205109335	3.506966	1.8726895
16.753850758367335	3.5382478	1.881023
16.771566714935087	3.6101108	1.9000292
16.789283075263597	3.6693249	1.9155482
16.80699983980398	3.719495	1.9285992
16.82471700900741	3.7714696	1.9420272
16.84243458332518	3.8861127	1.9713225
16.860152563208665	3.9673457	1.9918197
16.87787094910932	3.982558	1.9956348
16.89558974147871	3.9879944	1.9969964
16.913308940768466	4.071463	2.0177867
16.931028547430333	4.235839	2.0581155
16.94874856191613	4.3333044	2.081659
16.966468984677785	4.391815	2.0956657
16.98418981616729	4.379997	2.0928442
17.00191105683676	4.3998284	2.0975769
17.019632707138374	4.450488	2.109618
17.03735476752442	4.4992857	2.121152
17.05507723844728	4.545052	2.1319127
17.072800120359403	4.6092057	2.1469061
17.090523413713353	4.632112	2.152234
17.108247118961785	4.611616	2.1474674
17.125971236557437	4.646447	2.155562
17.143695766953133	4.687358	2.1650307
17.161420710601806	4.675937	2.1623914
17.179146067956477	4.6265407	2.1509395
17.19687183947025	4.630337	2.1518219
17.21459802559634	4.640724	2.154234
17.232324626788028	4.6329646	2.1524322
17.25005164349871	4.581864	2.140529
17.267779076181863	4.540725	2.1308978
17.285506925291074	4.542883	2.131404
17.30323519127999	4.5331116	2.1291106
17.320963874602384	4.5129247	2.1243646
17.33869297571211	4.541116	2.1309896
17.356422495063114	4.496392	2.1204698
17.37415243310944	4.4806943	2.116765
17.391882790305218	4.4648557	2.1130204
17.40961356710468	4.4728007	2.1148996
17.42734476396215	4.4802375	2.1166573
17.445076381332044	4.4761443	2.11569
17.462808419668868	4.5484104	2.1327002
17.48054087942723	4.677922	2.1628504
17.498273761061835	4.9870615	2.233173
17.51600706502747	5.4685864	2.338501
17.533740791779024	6.195706	2.4891174
17.551474941771485	7.6029406	2.757343
17.56920951545993	8.720307	2.9530168
17.586944513299528	10.883184	3.2989671
17.60467993574556	12.426156	3.5250754
17.622415783253373	14.029852	3.7456443
17.64015205627843	15.289513	3.9101806
17.657888755276293	16.291101	4.036224
17.675625880702604	16.741402	4.0916257
17.69336343301311	16.603085	4.0746884
17.71110141266366	15.90312	3.9878716
17.728839820110178	15.034726	3.8774638
17.746578655808705	14.203733	3.768784
17.764317920215372	12.847398	3.5843267
17.7820576137864	11.447687	3.383443
17.79979773697811	9.547705	3.089936
17.81753829024692	7.6680307	2.769121
17.835279274049356	5.9602404	2.4413602
17.85302068884201	4.9197006	2.2180398
17.870762535081607	4.306774	2.0752769
17.888504813224934	3.967457	1.9918476
17.90624752372891	3.7429032	1.9346584
17.923990667050536	3.6371021	1.9071188
17.941734243646895	3.536737	1.8806214
17.959478253975185	3.4879317	1.8676006
17.9772226984927	3.4309535	1.8522834
17.994967577656833	3.4013894	1.8442856
18.01271289192506	3.3872685	1.8404534
18.030458641754965	3.3985882	1.843526
18.04820482760425	3.3724208	1.8364152
18.06595144993067	3.363688	1.834036
18.083698509192125	3.3360775	1.8264933
18.101446005846576	3.2932363	1.8147275
18.119193940352105	3.2451658	1.8014344
18.136942313166887	3.2043889	1.7900807
18.1546911247492	3.2521753	1.8033788
18.1724403755574	3.2830768	1.8119262
18.19019006604997	3.28898	1.8135545
18.207940196685467	3.20644	1.7906535
18.225690767922575	3.130724	1.7693852
18.243441780220046	3.0919776	1.758402
18.261193234036764	3.10099	1.7609628
18.278945129831676	3.13212	1.7697796
18.29669746806386	3.095302	1.7593471
18.314450249192483	3.0028012	1.7328593
18.3322034736768	2.9602542	1.720539
18.349957141976184	2.976398	1.725224
18.3677112545501	3.0209944	1.7381008
18.385465811858108	3.003124	1.7329524
18.403220814359884	3.0465162	1.7454273
18.420976262515172	3.1069748	1.7626613
18.43873215678387	3.1462603	1.7737701
18.456488497625923	3.1609592	1.7779087
18.474245285501407	3.2614868	1.8059586
18.492002520870486	3.2821214	1.8116626
18.50976020419343	3.34105	1.8278539
18.527518335930615	3.6485593	1.9101202
18.545276916542516	4.246481	2.0606992
18.563035946489688	4.4347167	2.1058767
18.580795426232832	4.831872	2.198152
18.598555356232698	4.7459383	2.1785173
18.616315736950185	5.0519953	2.2476645
18.63407656884626	4.6990976	2.16774
18.65183785238201	4.8854623	2.210308
18.669599588018617	4.6848726	2.1644566
18.68736177621737	4.661997	2.1591659
18.705124417439652	4.6042523	2.1457522
18.72288751214696	4.402308	2.0981677
18.740651060800886	4.575656	2.1390784
18.758415063863115	4.327952	2.080373
18.77617952179546	4.5262985	2.1275098
18.793944435059814	4.2660522	2.0654423
18.811709804118184	4.2726994	2.067051
18.829475629432675	4.200333	2.0494714
18.8472419114655	4.0371118	2.0092566
18.86500865067897	4.101565	2.025232
18.88277584753551	3.8009534	1.9496034
18.90054350249763	3.8152554	1.9532679
18.918311616027957	3.511711	1.873956
18.936080188589226	3.4030318	1.8447309
18.953849220644265	3.0876348	1.7571667
18.971618712656007	2.9377925	1.713999
18.9893886650875	2.8957384	1.7016869
19.007159078401887	8.005353	2.8293734
19.024929953062408	32.826405	5.729433
19.042701289532435	32.76483	5.724057
19.060473088275405	25.343462	5.034229
19.07824534975489	2.624749	1.6201077
19.096018074434568	2.5952632	1.6109821
19.113791262778197	2.5852637	1.6078756
19.13156491524966	2.601418	1.6128912
19.149339032312945	2.6148887	1.6170617
19.167113614432136	2.5880866	1.6087531
19.184888662071433	2.530994	1.5909098
19.202664175695123	2.478402	1.5742941
19.220440155767623	2.4585466	1.5679753
19.238216602753447	2.488051	1.5773556
19.2559935171172	2.503765	1.582329
19.27377089932361	2.5282996	1.5900627
19.291548749837514	2.5107136	1.5845231
19.309327069123835	2.5169268	1.5864825
19.32710585764763	2.5179381	1.5868012
19.344885115874032	2.516981	1.5864996
19.362664844268313	2.5041983	1.5824659
19.380445043295822	2.4795134	1.5746471
19.39822571342203	2.5031252	1.5821267
19.41600685511252	2.5016026	1.5816456
19.43378846883297	2.5141814	1.5856171
19.451570555049173	2.5113642	1.5847285
19.469353114227037	2.5118566	1.5848838
19.48713614683254	2.47761	1.5740426
19.50491965333182	2.4545746	1.5667082
19.52270363419109	2.4471536	1.5643381
19.540488089876686	2.4466605	1.5641805
19.55827302085503	2.4555166	1.5670089
19.576058427592674	2.4690442	1.5713192
19.593844310556282	2.5032618	1.58217
19.611630670212598	2.517741	1.5867391
19.629417507028506	2.4950287	1.579566
19.64720482147098	2.4464543	1.5641146
19.6649926140071	2.4602606	1.5685217
19.682780885104084	2.4487667	1.5648535
19.70056963522921	2.432121	1.5595258
19.718358864849908	2.3969185	1.5481985
19.7361485744337	2.4251113	1.5572768
19.753938764448215	2.4579465	1.567784
19.771729435361202	2.492441	1.5787467
19.789520587640506	2.4938333	1.5791875
19.807312221754092	2.532083	1.5912521
19.825104338170043	2.5646505	1.6014526
19.842896937356517	2.571309	1.6035302
19.860690019781824	2.5372958	1.5928892
19.87848358591436	2.5101552	1.5843469
19.896277636222635	2.5155106	1.5860361
19.914072171175278	2.53685	1.5927492
19.931867191241015	2.5281947	1.5900297
19.94966269688869	2.4832938	1.575847
19.967458688587264	2.4593062	1.5682175
19.985255166805807	2.4361413	1.5608143
20.00305213201348	2.4844859	1.5762252
20.020849584679578	2.4720182	1.5722653
20.038647525273507	2.4557889	1.5670956
20.05644595426477	2.362503	1.5370436
20.07424487212299	2.3048859	1.518185
20.092044279317903	2.3101096	1.5199045
20.109844176319353	2.3517444	1.5335398
20.127644563597304	2.4075415	1.5516255
20.145445441621817	2.3930197	1.5469388
20.16324681086307	2.3763583	1.5415441
20.181048671791373	2.3962824	1.5479931
20.198851024877122	2.427724	1.5581155
20.216653870590836	2.4139051	1.5536747
20.234457209403146	2.407749	1.5516922
20.252261041784802	2.3758042	1.5413644
20.270065368206662	2.368088	1.5388594
20.287870189139685	2.3741784	1.5408369
20.305675505054968	2.3408842	1.5299948
20.323481316423702	2.3117967	1.5204594
20.341287623717207	2.3074322	1.5190234
20.359094427406884	2.334257	1.5278275
20.376901727964288	2.3660414	1.5381942
20.39470952586107	2.3799884	1.5427212
20.41251782156899	2.3613248	1.5366603
20.430326615559935	2.3185642	1.5226833
20.448135908305886	2.282558	1.5108137
20.465945700278965	2.2917976	1.5138685
20.483755991951384	2.3118725	1.5204843
20.50156678379548	2.34039	1.5298333
20.519378076283708	2.3205302	1.5233287
20.537189869888635	2.326585	1.5253147
20.55500216508294	2.3258116	1.5250611
20.572814962339415	2.3447275	1.5312504
20.59062826213098	2.36973	1.5393927
20.60844206493066	2.37815	1.5421251
20.626256371211593	2.370874	1.5397643
20.644071181447032	2.324053	1.5244845
20.66188649611036	2.3143578	1.5213014
20.67970231567506	2.32884	1.5260538
20.697518640614742	2.3175273	1.5223427
20.715335471403122	2.3131232	1.5208955
20.73315280851404	2.2907147	1.5135107
20.750970652421447	2.3002694	1.5166639
20.768789003599412	2.272503	1.5074823
20.786607862522136	2.3109257	1.520173
20.8044272296639	2.3076525	1.5190959
20.82224710549913	2.2821438	1.5106766
20.84006749050237	2.27919	1.5096986
20.857888385148268	3.838927	1.959318
20.8757097899116	45.950344	6.7786684
20.893531705267254	64.808235	8.050356
20.911354131690224	83.792206	9.153809
20.92917706965566	69.04119	8.309103
20.94700051963877	50.115337	7.079219
20.96482448211493	29.406557	5.4227815
20.982648957559622	4.1569233	2.0388534
21.00047394644843	2.273429	1.5077894
21.01829944925707	2.2858145	1.511891
21.036125466461375	2.2746253	1.5081861
21.053951998537297	2.2378476	1.4959437
21.071779045960906	2.221299	1.4904022
21.089606609208378	2.2226243	1.4908469
21.10743468875603	2.2125075	1.48745
21.12526328508028	2.173214	1.4741825
21.143092398657675	2.1378534	1.46214
21.16092202996488	2.127434	1.4585726
21.17875217947867	2.138307	1.4622952
21.19658284767596	2.1492035	1.4660162
21.21441403503377	2.148519	1.4657828
21.232245742029225	2.1599777	1.4696863
21.2500779691396	2.1796489	1.4763634
21.26791071684227	2.1660693	1.4717572
21.28574398561475	2.131322	1.4599048
21.30357777593465	2.084546	1.4437957
21.321412088279704	2.1197915	1.4559504
21.339246923127792	2.1685781	1.4726093
21.357082280956888	2.2008564	1.4835284
21.3749181622451	2.1545	1.4678215
21.392754567470647	2.1480715	1.46563
21.41059149711187	2.1540775	1.4676776
21.42842895164726	2.144729	1.4644893
21.446266931555378	2.1570618	1.468694
21.464105437314945	2.14351	1.4640731
21.481944469404798	2.1346753	1.4610528
21.49978402830388	2.1332746	1.4605733
21.51762411449127	2.121797	1.4566389
21.53546472844617	2.141406	1.4633543
21.553305870647876	2.1328619	1.460432
21.571147541575865	2.1195645	1.4558724
21.58898974170967	2.0737002	1.4400347
21.60683247152899	2.055577	1.4337283
21.62467573151363	2.0409307	1.4286115
21.642519522143523	2.0885923	1.4451963
21.660363843898722	2.0785408	1.4417145
21.6782086972594	2.0538547	1.4331276
21.696054082705864	2.0368836	1.4271944
21.713900000718535	2.023445	1.4224784
21.73174645177795	2.0254934	1.4231983
21.749593436364794	2.0214636	1.4217819
21.767440954959845	2.0079672	1.4170276
21.785289008044032	2.015677	1.4197454
21.803137596098388	2.0209792	1.4216114
21.820986719604086	2.025173	1.4230857
21.838836379042412	1.9966697	1.4130356
21.85668657489478	1.9912912	1.4111311
21.87453730764273	2.0164895	1.4200315
21.892388577767914	2.045608	1.4302475
21.91024038575213	2.011765	1.418367
21.928092732077285	1.9886557	1.410197
21.945945617225426	2.018493	1.4207368
21.963799041678694	2.064689	1.4369025
21.981653005919398	31.378618	5.601662
21.999507510429943	78.13795	8.839567
22.01736255569286	73.07414	8.548342
22.035218142190818	4.162381	2.0401914
22.05307427040661	2.0019567	1.4149052
22.07093094082315	1.9975001	1.4133295
22.088788153923474	1.9807059	1.4073756
22.106645910190746	1.9694247	1.4033619
22.12450421010827	1.9613029	1.4004653
22.142363054159464	2.0046856	1.4158692
22.16022244282787	2.0106456	1.4179723
22.178082376597164	2.012118	1.4184915
22.195942855951145	1.996748	1.4130633
22.213803881373742	1.9887371	1.4102259
22.231665453349002	1.97491	1.4053149
22.24952757236111	1.9552661	1.3983083
22.26739023889438	1.9385315	1.3923116
22.28525345343323	1.9339784	1.3906755
22.30311721646225	1.934717	1.390941
22.320981528466113	1.9377002	1.392013
22.33884638992964	1.9355785	1.3912507
22.356711801337788	1.9500753	1.396451
22.37457776317561	1.9772307	1.4061403
22.392444275928337	1.9833798	1.4083252
22.410311340081282	1.9622433	1.400801
22.428178956119904	1.9591097	1.399682
22.446047124529805	1.9035218	1.3796818
22.46391584579669	1.91362	1.3833365
22.481785120406414	1.9156542	1.3840716
22.49965494884496	1.9135313	1.3833045
22.51752533159841	1.8848162	1.3728861
22.53539626915302	1.9194211	1.3854318
22.553267761995137	1.9423509	1.3936825
22.571139810611264	1.9587098	1.3995391
22.589012415488025	1.963741	1.4013354
22.60688557711216	1.9942237	1.4121698
22.624759295970566	1.9998541	1.4141619
22.642633572550263	1.9609673	1.4003454
22.660508407338362	1.9095995	1.3818827
22.67838380082217	1.911981	1.382744
22.696259753489077	1.9205828	1.3858509
22.714136265826614	1.9280142	1.3885295
22.73201333832246	1.9092795	1.3817668
22.74989097146439	1.9339409	1.3906621
22.76776916574035	1.9286906	1.3887731
22.785647921638393	1.906481	1.3807538
22.803527239646712	1.8516988	1.3607714
22.82140712025363	1.8748306	1.3692446
22.839287563947593	1.9093575	1.381795
22.85716857121719	1.8954436	1.3767511
22.875050142551135	1.8914855	1.3753128
22.892932278438277	1.8847727	1.3728702
22.910814979367604	1.8627987	1.3648438
22.928698245828222	1.8850511	1.3729717
22.946582078309387	1.9253238	1.3875604
22.96446647730047	1.9122237	1.3828318
22.98235144329098	1.8634353	1.365077
23.000236976770562	1.8525856	1.3610972
23.018123078229	1.8928638	1.3758138
23.03600974815619	1.8848274	1.3728901
23.053896987042194	1.9053586	1.3803473
23.071784795377173	1.9307841	1.3895266
23.08967317365145	1.9649372	1.4017621
23.10756212235546	1.9272702	1.3882616
23.125451641979787	1.89584	1.3768951
23.143341733015134	1.8832176	1.3723037
23.161232395952357	1.9039742	1.3798457
23.179123631282426	1.915394	1.3839775
23.197015439496468	1.9261638	1.387863
23.214907821085717	1.9459827	1.3949848
23.23280077654157	1.9543742	1.3979894
23.250694306355538	1.9364395	1.3915601
23.268588411019277	1.9193244	1.3853968
23.28648309102458	1.9462634	1.3950855
23.304378346863356	1.9413944	1.3933393
23.322274179027676	1.9348973	1.3910059
23.340170588009723	1.905237	1.3803033
23.358067574301852	1.8876653	1.3739233
23.37596513839651	1.887514	1.3738682
23.39386328078629	1.9230407	1.3867375
23.411762001963947	1.9430989	1.3939508
23.429661302422353	1.9650847	1.4018148
23.4475611826545	1.936481	1.391575
23.46546164315356	1.9513009	1.3968897
23.48336268441279	1.9490477	1.396083
23.501264306925638	1.9429963	1.393914
23.51916651118564	1.9015872	1.3789805
23.537069297686497	1.9135432	1.3833088
23.554972666922037	1.930481	1.3894175
23.57287661938623	1.9277855	1.3884472
23.59078115557318	1.9080021	1.3813045
23.608686275977128	1.9258395	1.3877462
23.62659198109246	1.925876	1.3877593
23.6444982714137	1.9353001	1.3911506
23.66240514743549	1.9471266	1.3953948
23.68031260965263	1.9399625	1.3928254
23.698220658560068	1.9266583	1.3880411
23.716129294652845	1.9007729	1.3786852
23.7340385184262	1.9073824	1.3810802
23.75194833037546	1.9257956	1.3877304
23.769858730996123	1.93796	1.3921063
23.78776972078382	1.9306159	1.389466
23.80568130023431	1.9152496	1.3839254
23.823593469843495	1.8963611	1.3770843
23.841506230107424	1.9000393	1.3784192
23.859419581522275	1.8989155	1.3780115
23.87733352458438	1.9286448	1.3887565
23.89524805979019	1.9385487	1.3923178
23.913163187636318	1.9274756	1.3883356
23.931078908619508	1.930139	1.3892944
23.948995223236633	1.95062	1.396646
23.966912131984735	2.0085344	1.4172277
23.98482963536096	2.0294049	1.4245719
24.002747733862616	2.03862	1.4278026
24.020666427987155	2.048475	1.4312495
24.038585718232156	2.0779	1.4414922
24.056505605095353	2.0630107	1.4363184
24.074426089074617	2.0498655	1.4317352
24.092347170667946	2.0351002	1.4265693
24.110268850373515	2.0347989	1.4264637
24.128191128689586	2.0353897	1.4266708
24.146114006114626	2.042432	1.4291369
24.164037483147187	2.044391	1.429822
24.181961560286005	2.0622299	1.4360466
24.199886238029926	2.0377858	1.4275104
24.21781151687797	2.0364406	1.4270391
24.235737397329274	2.0231152	1.4223626
24.253663879883135	2.0462153	1.4304599
24.271590965038975	2.0900295	1.4456934
24.289518653296376	2.1144662	1.4541204
24.30744694515505	2.1003492	1.4492582
24.32537584111486	2.0513096	1.4322394
24.34330534167581	1.9899609	1.4106598
24.361235447338046	1.994714	1.4123435
24.379166158601876	2.0081012	1.4170749
24.39709747596772	2.0125163	1.4186318
24.41502939993615	1.985801	1.4091845
24.432961931007917	1.9862186	1.4093326
24.450895069683856	1.980248	1.4072129
24.468828816465	1.9695598	1.4034101
24.4867631718525	1.9253786	1.3875802
24.504698136347656	1.9346236	1.3909075
24.52263371045192	1.9762558	1.4057937
24.540569894666874	2.0098867	1.4177047
24.558506689494266	1.9435872	1.3941259
24.57644409543597	1.9101154	1.3820692
24.594382112994012	1.9128789	1.3830687
24.61232074267057	1.9364824	1.3915756
24.630259984967953	1.9316937	1.3898538
24.64819984038863	1.9480866	1.3957387
24.66614030943522	1.938102	1.3921573
24.684081392610462	1.9450186	1.3946393
24.702023090417274	1.9677262	1.4027567
24.7199654033587	2.0027893	1.4151994
24.737908331937927	2.0515947	1.432339
24.755851876658305	2.0464962	1.430558
24.773796038023324	2.0605454	1.43546
24.79174081653661	2.0804803	1.442387
24.809686212701962	2.1360047	1.4615077
24.827632227023294	2.1079197	1.4518677
24.8455788600047	2.101388	1.4496166
24.8635261121504	2.1349332	1.4611411
24.88147398396475	2.0967498	1.4480158
24.899422475952303	2.0491123	1.4314721
24.917371588617698	2.0672019	1.4377767
24.935321322465768	2.1243806	1.4575255
24.953271678001478	2.280935	1.5102764
24.97122265572994	2.49444	1.5793797
24.989174256156414	2.7683756	1.6638436
25.00712647978632	3.1909618	1.7863264
25.02507932712521	3.7243135	1.9298481
25.043032798678798	4.280097	2.0688396
25.060986894952933	4.8843865	2.210065
25.078941616453637	5.574889	2.3611202
25.096896963687055	6.4447427	2.5386498
25.114852937159508	7.4880567	2.7364314
25.132809537377444	7.892816	2.8094156
25.150766764847468	8.057121	2.838507
25.168724620076347	7.5794544	2.7530808
25.186683103570985	6.666602	2.5819764
25.204642215838426	5.4729934	2.339443
25.222601957385894	4.247898	2.061043
25.24056232872074	3.2658172	1.8071572
25.25852333035048	2.6726649	1.6348287
25.276484962782778	2.2584777	1.5028232
25.294447226525435	2.0343423	1.4263037
25.312410122086423	1.9702293	1.4036486
25.330373649973843	1.9670042	1.4024993
25.348337810695988	1.9350978	1.3910779
25.366302604761245	1.9377716	1.3920386
25.384268032678207	1.9400265	1.3928484
25.40223409495558	1.8875388	1.3738773
25.420200792102257	1.875806	1.3696007
25.438168124627246	1.8683251	1.366867
25.45613609303974	1.8917348	1.3754035
25.474104697849057	1.8668237	1.3663175
25.492073939564698	1.8525391	1.36108
25.510043818696285	1.8384026	1.355877
25.528014335753614	1.8931414	1.3759147
25.54598549124664	1.8972747	1.377416
25.56395728568544	1.8875319	1.3738748
25.58192971958028	1.8828802	1.3721808
25.59990279344156	1.8722745	1.3683108
25.617876507779833	1.8601329	1.3638669
25.635850863105826	1.8768964	1.3699987
25.653825859930386	1.8762802	1.3697737
25.671801498764548	1.8809336	1.3714713
25.68977778011949	1.9056823	1.3804646
25.707754704506524	1.8731682	1.3686373
25.725732272437153	1.8630167	1.3649237
25.743710484423012	1.8474787	1.3592199
25.761689340975888	1.8427482	1.3574786
25.77966884260774	1.8287772	1.3523229
25.797648989830662	1.8536713	1.361496
25.815629783156922	1.8407209	1.3567317
25.83361122309895	1.8700227	1.3674877
25.85159331016929	1.8917354	1.3754038
25.869576044880695	1.9171188	1.3846006
25.887559427746034	1.9032174	1.3795714
25.90554345927836	1.9025065	1.3793138
25.92352813999086	1.8625107	1.3647383
25.94151347039689	1.8417144	1.3570977
25.959499451009965	1.8359386	1.3549681
25.97748608234374	1.8361838	1.3550586
25.995473364912062	1.8358064	1.3549193
26.013461299228904	1.8205286	1.3492696
26.03144988580839	1.8291688	1.3524677
26.04943912516483	1.8433167	1.357688
26.067429017812675	1.8217502	1.3497223
26.085419564266537	1.8212581	1.34954
26.103410765041186	1.8141553	1.3469058
26.12140262065155	1.7907677	1.3381957
26.139395131612723	1.8075287	1.3444437
26.157388298439948	1.8133346	1.3466011
26.17538212164861	1.8617322	1.3644531
26.193376601754295	1.8759459	1.3696518
26.211371739272714	1.8291911	1.3524759
26.229367534719746	1.8452904	1.3584146
26.247363988611433	1.8784399	1.3705618
26.26536110146397	1.8663512	1.3661447
26.283358873793727	1.8466429	1.3589123
26.301357306117204	1.7913222	1.3384029
26.319356398951104	1.8076594	1.3444922
26.33735615281224	1.7897725	1.3378237
26.35535656821762	1.7945522	1.339609
26.373357645684404	1.7737938	1.3318385
26.39135938572991	1.7817097	1.334807
26.409361788871614	1.7998189	1.3415732
26.427364855627165	1.8350893	1.3546547
26.445368586514352	1.8385218	1.355921
26.46337298205115	1.8714588	1.3680127
26.48137804275568	1.8986961	1.3779318
26.499383769146217	1.8656459	1.3658864
26.517390161741215	1.8427529	1.3574804
26.53539722105928	1.8292879	1.3525116
26.553404947619182	1.8070637	1.3442707
26.571413341939856	1.7766635	1.3329154
26.589422404540397	1.7506955	1.3231385
26.60743213594006	1.7406704	1.3193448
26.62544253665827	1.7953227	1.3398966
26.64345360721459	1.8359126	1.3549585
26.66146534812879	1.8270608	1.3516881
26.679477759920758	1.8171976	1.3480347
26.69749084311057	1.8404027	1.3566145
26.71550459821847	1.8222194	1.3498961
26.733519025764842	1.7357777	1.3174891
26.751534126270258	1.7407163	1.319362
26.769549900255434	1.8040768	1.3431592
26.787566348241267	1.8032265	1.3428427
26.80558347074881	1.8060025	1.3438759
26.823601268299267	1.8436031	1.3577935
26.841619741414036	1.8572026	1.3627923
26.85963889061465	1.8276652	1.3519117
26.877658716422832	1.8045872	1.3433492
26.89567921936045	1.8054278	1.343662
26.913700399949544	1.8526924	1.3611364
26.93172225871233	1.8732737	1.368676
26.949744796171174	1.8537033	1.3615078
26.967768012848605	1.7728935	1.3315005
26.98579190926733	1.7553235	1.3248862
27.003816485950225	1.752751	1.323915
27.021841743420318	1.7219963	1.3122486
27.039867682200814	1.7386612	1.318583
27.057894302815072	1.7510798	1.3232837
27.07592160578664	1.787826	1.3370961
27.0939495916392	1.8154167	1.347374
27.111978260896635	1.8565625	1.3625573
27.13000761408296	1.8100449	1.3453791
27.148037651722397	1.7637303	1.328055
27.166068374339304	1.7514393	1.3234196
27.184099782458215	1.8091834	1.3450589
27.20213187660384	1.8175687	1.3481723
27.22016465730105	1.7615995	1.3272526
27.23819812507487	1.7561761	1.325208
27.256232280450533	1.7755736	1.3325065
27.274267123953383	1.7608944	1.326987
27.292302656108987	1.7698711	1.3303651
27.31033887744306	1.7953386	1.3399025
27.32837578848146	1.8285904	1.3522538
27.34641338975026	1.8548311	1.3619218
27.364451681775673	1.8125709	1.3463175
27.382490665084074	1.7529104	1.3239752
27.400530340202046	1.7434075	1.3203815
27.41857070765629	1.7822206	1.3349984
27.436611767973726	1.7794014	1.333942
27.454653521681404	1.7665578	1.3291192
27.472695969306564	1.7769942	1.3330395
27.490739111376627	1.8051867	1.3435724
27.508782948419153	1.8609248	1.3641572
27.526827480961902	1.8421372	1.3572536
27.54487270953279	1.7829303	1.3352641
27.562918634659898	1.7405562	1.3193014
27.580965256871508	1.7284725	1.3147138
27.599012576696026	1.7559828	1.325135
27.617060594662068	1.8028361	1.3426973
27.63510931129842	1.8184968	1.3485166
27.65315872713401	1.8001832	1.341709
27.67120884269797	1.7817265	1.3348132
27.68925965851958	1.8013636	1.3421489
27.707311175128307	1.8166931	1.3478476
27.725363393053787	1.8180437	1.3483485
27.74341631282583	1.8597729	1.363735
27.7614699349744	1.9026791	1.3793763
27.77952426002968	2.0980036	1.4484487
27.797579288521973	2.1605334	1.4698753
27.815635020981784	2.5737047	1.604277
27.83369145793979	2.6037412	1.6136112
27.85174859992682	2.4225621	1.5564582
27.869806447473923	2.2756443	1.508524
27.887865001112267	1.9994777	1.4140289
27.905924261373233	1.8828553	1.3721718
27.92398422878836	1.8245448	1.3507571
27.94204490388936	1.8022283	1.342471
27.96010628720813	1.8024701	1.342561
27.978168379276728	1.8389314	1.3560721
27.9962311806274	1.8513389	1.3606391
28.014294691792568	1.8507546	1.3604244
28.0323589133048	1.8316345	1.3533789
28.050423845696887	1.8196768	1.348954
28.068489489501758	1.8342767	1.3543547
28.086555845252523	1.8716428	1.36808
28.104622913482487	1.8652916	1.3657568
28.122690694725115	1.8765302	1.3698651
28.14075918951405	1.8993427	1.3781664
28.15882839838312	1.9417255	1.3934581
28.176898321866304	1.9531033	1.3975347
28.1949689604978	1.9330734	1.3903501
28.213040314811945	1.9213763	1.3861372
28.23111238534327	1.9313977	1.3897474
28.249185172626493	1.9250435	1.3874594
28.267258677196473	1.9075332	1.3811347
28.285332899588294	1.8899326	1.3747482
28.303407840337172	1.9055297	1.3804092
28.321483499978545	1.9174991	1.3847378
28.33955987904799	1.8973143	1.3774303
28.357636978081285	1.8644656	1.3654543
28.37571479761439	1.8779591	1.3703865
28.393793338183425	1.88638	1.3734555
28.41187260032469	1.889769	1.3746886
28.429952584574686	1.9329659	1.3903115
28.448033291470065	1.9827617	1.4081057
28.46611472154769	1.981859	1.4077852
28.484196875344566	2.0080361	1.4170519
28.502279753397914	2.0155642	1.4197056
28.52036335624511	1.9843533	1.4086708
28.538447684423716	1.9241503	1.3871374
28.556532738471482	1.9501392	1.3964739
28.574618518926325	1.9702954	1.4036721
28.59270502632635	2.002687	1.4151633
28.61079226120985	1.9803507	1.4072493
28.628880224115274	1.95479	1.398138
28.646968915581287	1.936418	1.3915524
28.66505833614671	1.9814646	1.4076451
28.68314848635055	1.9674252	1.4026494
28.701239366732004	2.01149	1.4182701
28.71933097783044	2.0318284	1.4254222
28.737423320185403	2.0862715	1.4443932
28.75551639433665	2.1303518	1.4595724
28.773610200824074	2.1694925	1.4729197
28.791704740187793	2.1303532	1.4595729
28.80980001296809	2.0780213	1.4415344
28.827896019705413	2.093895	1.4470297
28.845992760940433	2.1175385	1.4551765
28.86409023721397	2.1136446	1.4538379
28.88218844906704	2.1504092	1.4664273
28.900287397040845	2.1996813	1.4831322
28.918387081676755	2.2263927	1.4921101
28.936487503516343	2.2044	1.4847223
28.954588663101365	2.141515	1.4633917
28.97269056097374	2.198968	1.4828918
28.990793197675597	2.3207116	1.5233881
29.00889657374923	2.356284	1.5350192
29.027000689737125	2.4163444	1.5544596
29.04510554618196	2.4591763	1.5681762
29.06321114362659	2.4485848	1.5647955
29.08131748261405	2.4566464	1.5673692
29.099424563687567	2.4818923	1.5754023
29.11753238739057	2.4981833	1.5805643
29.13564095426663	2.4937534	1.5791622
29.15375026485954	2.4670246	1.5706764
29.171860319713275	2.5837634	1.6074089
29.18997111937199	2.6963897	1.6420687
29.20808266438002	2.6971421	1.6422979
29.226194955281898	2.7244058	1.6505774
29.244307992622335	2.7732484	1.6653073
29.26242177694624	2.7518194	1.6588609
29.2805363087987	2.8422933	1.6859102
29.29865158872498	2.878461	1.6966027
29.316767617270557	2.9131875	1.7068062
29.334884394981064	2.875029	1.6955911
29.353001922402367	2.9199355	1.7087818
29.37112020008047	3.1149294	1.7649163
29.389239228561596	3.2385077	1.7995855
29.407359008392152	3.3368487	1.8267044
29.42547954011872	3.5931654	1.8955647
29.44360082428809	4.2667217	2.0656044
29.46172286144722	5.3764887	2.3187256
29.479845652143283	6.800646	2.6078048
29.497969196923606	8.832679	2.9719822
29.516093496335728	11.223884	3.3502066
29.5342185509274	13.842122	3.7205002
29.55234436124651	16.05678	4.007091
29.570470927841175	17.347422	4.165024
29.588598251259686	17.050074	4.1291733
29.60672633205055	15.73767	3.9670732
29.624855170762405	13.690181	3.7000244
29.642984767944146	11.228142	3.350842
29.66111512414481	8.697261	2.949112
29.67924623991366	6.510803	2.5516276
29.697378115800138	4.990803	2.2340105
29.71551075235387	4.203272	2.0501883
29.733644150124675	3.8017278	1.949802
29.751778309662576	3.5302172	1.8788872
29.769913231517766	3.4301012	1.8520533
29.78804891624066	3.4243324	1.8504952
29.806185364381818	3.380645	1.8386531
29.82432257649206	3.37394	1.8368288
29.842460553122333	3.3102996	1.8194228
29.86059929482382	3.2697453	1.8082438
29.878738802147872	3.2262204	1.7961682
29.896879075646048	3.1988437	1.7885312
29.915020115870114	3.243639	1.8010105
29.933161923371976	3.251172	1.8031007
29.951304498703777	3.2207792	1.7946529
29.969447842417857	3.1438534	1.7730914
29.987591955066733	3.076566	1.7540143
30.005736837203123	3.134073	1.7703314
30.023882489379943	3.1959891	1.787733
30.04202891215028	3.1236837	1.7673947
30.060176106067455	3.1419454	1.7725533
30.078324071684946	3.184059	1.7843932
30.09647280955646	3.1434326	1.7729728
30.114622320235863	3.0762913	1.7539359
30.132772604277257	3.0420554	1.7441489
30.1509236622349	3.0539699	1.7475611
30.16907549466328	3.0724773	1.7528484
30.18722810211705	3.1213372	1.7667307
30.205381485151097	3.0897598	1.7577713
30.22353564432045	2.999884	1.7320173
30.241690580180403	2.9863808	1.7281148
30.25984629328638	3.0108554	1.7351817
30.278002784194037	3.0040548	1.7332209
30.296160053459246	2.962667	1.7212399
30.314318101638033	2.9389517	1.7143371
30.332476929286646	2.948567	1.7171391
30.35063653696153	2.9651806	1.72197
30.368796925219307	2.9391031	1.7143812
30.386958094616844	2.9748304	1.7247697
30.40512004571115	2.933431	1.7127261
30.423282779059463	2.8921466	1.7006313
30.441446295219233	2.8494527	1.6880322
30.459610594748067	2.8047078	1.6747261
30.47777567820382	2.8512866	1.6885754
30.495941546144504	2.8312755	1.6826395
30.51410819912835	2.7444875	1.6566495
30.532275637713795	2.7092752	1.6459876
30.55044386245946	2.783053	1.6682484
30.56861287392416	2.8155828	1.6779698
30.586782672666956	2.7811654	1.6676826
30.604953259247047	2.738163	1.6547395
30.623124634223885	2.7214186	1.6496723
30.641296798157075	2.688895	1.639785
30.659469751606462	2.6687279	1.6336242
30.677643495132074	2.6858664	1.6388613
30.695818029294152	2.661609	1.6314439
30.713993354653116	2.6464858	1.6268023
30.73216947176962	2.6375618	1.6240572
30.75034638120448	2.6602209	1.6310184
30.768524083518756	2.6782694	1.6365418
30.786702579273673	2.7498302	1.6582612
30.80488186903069	2.7493713	1.6581228
30.82306195335144	2.7967196	1.6723396
30.841242832797782	2.97108	1.7236822
30.85942450793176	3.348002	1.8297546
30.877606979315637	3.739802	1.9338567
30.895790247511883	4.09224	2.0229285
30.913974313083134	4.4578247	2.111356
30.932159176592283	4.702216	2.1684594
30.95034483860237	4.8188047	2.1951776
30.968531299676698	4.638813	2.1537905
30.98671856037873	4.3153276	2.0773368
31.00490662127215	3.9735997	1.993389
31.023095482920848	3.4840384	1.8665578
31.04128514588892	2.9061933	1.704756
31.059475610740662	2.5890687	1.6090583
31.07766687804056	2.4922652	1.578691
31.09585894835335	2.4711764	1.5719975
31.11405182224393	2.479359	1.5745981
31.132245500277417	2.48355	1.5759283
31.15043998301914	2.4693298	1.5714102
31.168635271034628	2.3895597	1.5458201
31.18683136488964	2.4473217	1.5643917
31.20502826515008	2.4695482	1.5714797
31.223225972382135	2.428941	1.558506
31.241424487152155	2.400747	1.5494344
31.259623810026692	2.381076	1.5430735
31.27782394157253	2.343818	1.5309533
31.296024882356644	2.3611634	1.5366077
31.314226632946237	2.3796585	1.5426142
31.332429193908684	2.4619746	1.5690681
31.350632565811598	2.4227822	1.5565289
31.368836749222787	2.3513608	1.5334147
31.387041744710295	2.3333347	1.5275257
31.40524755284232	2.4123592	1.5531771
31.423454174187317	2.521813	1.5880218
31.441661609313922	2.5717425	1.6036654
31.459869858791002	2.5360317	1.5924923
31.478078923187628	2.406276	1.5512176
31.496288803073064	2.3291337	1.52615
31.514499499016807	2.3485587	1.5325007
31.532711011588546	2.3221755	1.5238686
31.550923341358178	2.2880518	1.5126308
31.56913648889584	2.3153236	1.5216187
31.587350454771844	2.3532212	1.5340213
31.605565239556732	2.328691	1.5260049
31.62378084382127	2.2859154	1.5119244
31.641997268136382	2.2888937	1.512909
31.660214513073274	2.3170033	1.5221705
31.67843257920331	2.3288765	1.5260657
31.6966514670981	2.3851662	1.5443983
31.71487117732944	2.357687	1.5354761
31.733091710469346	2.25666	1.5022184
31.751313067090052	2.2003841	1.4833692
31.769535247764008	2.2094786	1.4864315
31.787758253063878	2.258053	1.502682
31.805982083562526	2.2848885	1.5115848
31.824206739833024	2.312081	1.5205529
31.84243222244869	2.30177	1.5171585
31.860658531983013	2.254423	1.5014735
31.878885669009737	2.2807817	1.5102258
31.897113634102784	2.305181	1.5182823
31.91534242783632	2.2271812	1.4923743
31.933572050784694	2.1768756	1.4754238
31.951802503522508	2.1432838	1.4639958
31.970033786624548	2.1604526	1.4698478
31.988265900665834	2.1828165	1.4774358
32.006498846221575	2.2106385	1.4868217
32.02473262386724	2.2560263	1.5020074
32.04296723417845	2.2611465	1.5037109
32.0612026777311	2.1986032	1.4827688
32.07943895510129	2.1780655	1.4758271
32.097676066865304	2.223361	1.4910939
32.115914013599685	2.2447922	1.4982631
32.13415279588115	2.1726952	1.4740065
32.152392414286666	2.0983932	1.4485831
32.1706328693934	2.2107222	1.4868498
32.18887416177875	2.2942615	1.5146819
32.20711629202032	2.2792714	1.5097256
32.225359260695924	2.2004228	1.4833822
32.243603068383614	2.1403155	1.4629817
32.26184771566166	2.0935662	1.4469161
32.28009320310852	2.104273	1.4506112
32.2983395313029	2.1521585	1.4670237
32.31658670082372	2.1440773	1.4642668
32.33483471225012	2.0735514	1.4399831
32.35308356616143	2.077668	1.4414117
32.371333263137245	2.0822506	1.4430006
32.38958380375734	2.034034	1.4261956
32.407835188601744	2.0360644	1.4269073
32.42608741825067	2.0316997	1.425377
32.444340493284585	2.103706	1.4504157
32.46259441428416	2.1452558	1.4646692
32.48084918183028	2.192746	1.4807923
32.49910479650405	2.1441083	1.4642774
32.51736125888683	2.1301281	1.4594959
32.53561856956014	2.137548	1.4620355
32.5538767291058	2.0666623	1.437589
32.572135738105764	1.9714829	1.404095
32.59039559714228	2.0170846	1.420241
32.608656306797776	2.1191776	1.4557395
32.62691786765491	2.0339937	1.4261816
32.645180280296586	1.9520738	1.3971664
32.663443545305896	1.96269	1.4009603
32.68170766326619	1.9825337	1.4080248
32.69997263476099	1.9212996	1.3861095
32.7182384603741	1.8898623	1.3747226
32.7365051406895	1.9107319	1.3822923
32.75477267629144	1.9668651	1.4024496
32.77304106776434	1.9857469	1.4091653
32.79131031569289	1.9415314	1.3933885
32.809580420661966	1.8990518	1.3780609
32.827851383256714	1.9178162	1.3848524
32.84612320406245	1.9454663	1.3947997
32.86439588366476	1.966739	1.4024048
32.88266942264945	2.0082746	1.4171361
32.9009438216025	2.03377	1.4261031
32.9192190811102	2.0133903	1.4189398
32.937495201758985	1.9830582	1.408211
32.95577218413556	1.9830765	1.4082174
32.974050028826866	1.93217	1.3900251
32.992328736420035	1.9136958	1.383364
33.010608307502444	2.0101552	1.4177995
33.02888874266169	2.0512578	1.4322213
33.047170042485604	2.0029304	1.4152492
33.06545220756225	1.9459963	1.3949897
33.083735238479896	1.9631388	1.4011205
33.10201913582707	1.9474168	1.3954988
33.12030390019248	1.9591861	1.3997092
33.138589532165135	1.9525967	1.3973534
33.15687603233419	1.8640193	1.3652909
33.17516340128909	1.846505	1.3588617
33.19345163961947	1.9165815	1.3844066
33.211740747915215	2.0150325	1.4195185
33.23003072676643	2.0271318	1.4237738
33.248321576763466	1.9687468	1.4031204
33.266613298496885	1.9425393	1.3937501
33.28490589255747	1.89721	1.3773924
33.30319935953626	1.9252555	1.3875358
33.32149370002451	1.9111745	1.3824524
33.339788914613706	1.9319	1.3899281
33.358085003895575	1.973149	1.4046882
33.376381968462034	1.9183567	1.3850476
33.39467980890529	1.8877414	1.3739511
33.41297852581774	1.8408438	1.356777
33.43127811979204	1.9205812	1.3858503
33.44957859142105	2.0038188	1.4155631
33.467879941297866	1.9734164	1.4047834
33.486182170015844	1.905624	1.3804435
33.50448527816853	2.0163412	1.4199793
33.522789266349754	2.0879552	1.4449759
33.541094135153514	1.9741081	1.4050295
33.55939988517411	1.9762129	1.4057784
33.57770651700602	1.9412992	1.3933052
33.59601403124398	1.9048738	1.3801717
33.61432242848296	1.9614197	1.400507
33.632631709318154	2.010616	1.417962
33.650941874344994	1.913648	1.3833467
33.66925292415916	1.7564487	1.3253108
33.68756485935654	1.8203504	1.3492036
33.70587768053328	1.986023	1.4092633
33.724191388285746	2.059269	1.4350153
33.74250598321054	2.041874	1.4289415
33.760821465904506	2.036199	1.4269545
33.77913783696474	1.9584451	1.3994446
33.79745509698852	1.934958	1.3910277
33.815773246573414	1.8679934	1.3667456
33.8340922863172	1.7595955	1.3264974
33.852412216817896	1.8635683	1.3651258
33.87073303867377	1.9864526	1.4094157
33.889054752483304	1.8701628	1.3675389
33.907377358845245	1.8162559	1.3476853
33.92570085835853	1.8927537	1.3757739
33.94402525162239	1.9194095	1.3854276
33.96235053923627	1.97154	1.4041153
33.980676721799824	2.029205	1.4245017
33.999003799912984	1.9903601	1.4108013
34.01733177417592	1.9144304	1.3836294
34.03566064518901	1.8300081	1.352778
34.0539904135529	1.7601305	1.3266991
34.07232107986846	1.6939745	1.3015277
34.090652644736785	1.7862151	1.3364936
34.108985108759235	1.9176654	1.3847979
34.12731847253742	1.9670557	1.4025177
34.14565273667313	2.0143886	1.4192916
34.16398790176847	2.017218	1.4202881
34.18232396842574	2.0810156	1.4425726
34.20066093724749	2.1383805	1.4623202
34.21899880883651	2.0789168	1.4418449
34.23733758379583	2.0884461	1.4451457
34.25567726272874	2.1630692	1.4707377
34.27401784623872	2.1713948	1.4735653
34.29235933492957	2.0830605	1.4432812
34.31070172940526	2.059682	1.4351592
34.32904503027003	2.087493	1.4448159
34.347389238128386	2.0402465	1.428372
34.36573435358502	1.8855613	1.3731574
34.38408037724492	1.8540283	1.3616271
34.402427309713296	1.9415715	1.3934028
34.42077515159559	2.099716	1.4490397
34.43912390349752	2.1145568	1.4541515
34.45747356602499	2.1039789	1.4505099
34.47582413978423	2.1253798	1.4578682
34.49417562538163	2.1873066	1.4789546
34.51252802342388	2.0760121	1.4408373
34.53088133451789	1.9855396	1.4090917
34.54923555927084	1.9995266	1.4140462
34.567590698290104	2.0041802	1.4156907
34.58594675218336	2.0086517	1.4172691
34.6043037215585	1.9359441	1.3913821
34.62266160702365	1.9156413	1.3840669
34.641020409187234	1.861034	1.3641973
34.65938012865785	1.8787184	1.3706635
34.677740766044394	1.8856153	1.373177
34.69610232195598	1.875823	1.3696069
34.714464797002016	2.0113556	1.4182227
34.73282819179208	1.918655	1.3851552
34.751192506936064	1.8703768	1.3676172
34.76955774304408	1.8868077	1.3736112
34.7879239007265	1.9375379	1.3919547
34.80629098059391	1.7844874	1.335847
34.824658983257194	1.8761699	1.3697336
34.843027909327446	2.122072	1.4567333
34.86139775941603	2.2159278	1.4885993
34.879768534134534	2.2390988	1.4963619
34.89814023409483	2.1946647	1.4814401
34.91651285990901	1.9073997	1.3810863
34.93488641218944	1.7434683	1.3204046
34.95326089154871	1.887954	1.3740283
34.97163629859967	1.979871	1.4070789
34.99001263395542	1.9897105	1.410571
35.00838989822934	2.0348332	1.4264758
35.02676809203499	2.0135958	1.4190123
35.04514721598624	1.9474761	1.39552
35.063527270697215	1.905084	1.3802478
35.081908256782256	1.8156893	1.3474752
35.10029017485597	1.8855577	1.3731561
35.11867302553321	1.9331313	1.390371
35.137056809429104	1.884631	1.3728186
35.155441527159006	2.0280235	1.4240869
35.173827179338524	2.1008267	1.449423
35.19221376658354	1.9982709	1.4136021
35.21060128951017	1.9627625	1.4009862
35.2289897487348	2.1713662	1.4735557
35.24737914487405	2.4006715	1.54941
35.26576947854479	2.2830997	1.5109929
35.28416075036418	1.9399756	1.3928301
35.30255296094958	1.649432	1.2843021
35.32094611091867	1.741135	1.3195207
35.33934020088932	1.9558814	1.3985283
35.35773523147969	2.2403052	1.4967649
35.3761312033082	2.0553615	1.4336532
35.394528116993506	2.1011126	1.4495215
35.41292597315452	2.0287075	1.424327
35.431324772410434	2.1055653	1.4510566
35.449724515380666	2.1140115	1.4539641
35.46812520268491	2.0361452	1.4269356
35.486526834943106	1.9802313	1.4072069
35.504929412775454	1.7452419	1.321076
35.52333293680242	1.611499	1.2694483
35.54173740764471	1.7541755	1.3244529
35.560142825923286	1.8805209	1.3713208
35.5785491922594	1.7771676	1.3331045
35.59695650727454	1.5859038	1.2593267
35.61536477159042	1.5913184	1.2614747
