0.008763373481513119	0.0	0.0
0.026290120649546365	0.29253078	0.5408611
0.043816868432600686	0.3113377	0.5579764
0.06134361724069026	0.25631034	0.506271
0.07887036748382949	0.17292945	0.41584787
0.0963971195720331	0.1208201	0.34759185
0.11392387391531617	0.104543716	0.32333222
0.1314506309236943	0.07097914	0.2664191
0.1489773910071836	0.07274763	0.2697177
0.16650415457580078	0.13205059	0.36338764
0.18403092203956356	0.16463704	0.4057549
0.20155769380849	0.21717288	0.4660181
0.2190844702925996	0.20880772	0.45695484
0.2366112519019124	0.17378171	0.41687134
0.2541380390464497	0.1457532	0.3817764
0.27166483213623416	0.11924413	0.34531742
0.28919163158128947	0.08719063	0.2952806
0.3067184377916406	0.07217866	0.26866087
0.324245251177314	0.071427085	0.26725847
0.34177207214833777	0.10788336	0.328456
0.3592989011147415	0.10438296	0.32308352
0.37682573848655654	0.06390573	0.25279582
0.39435258467381573	0.126788	0.35607302
0.41187944008655414	0.16920705	0.41134784
0.42940630513480854	0.2057785	0.45362815
0.446933180228618	0.20852736	0.45664796
0.4644600657780234	0.19333677	0.43970078
0.48198696219306775	0.22863767	0.4781607
0.49951386988379676	0.26375827	0.513574
0.5170407892602581	0.21720086	0.46604812
0.5345677207325025	0.17543788	0.41885304
0.5520946647105822	0.16509418	0.40631783
0.5696216216045534	0.14009506	0.37429273
0.5871485918244737	0.14016023	0.37437978
0.6046755757804043	0.09205052	0.30339828
0.6222025738824094	0.10939002	0.3307416
0.6397295865405557	0.10952614	0.33094734
0.6572566141649129	0.10527328	0.32445845
0.6747836571655547	0.11191539	0.33453757
0.6923107159525568	0.11485838	0.33890763
0.7098377909359992	0.105769776	0.32522264
0.7273648825259653	0.11817472	0.3437655
0.7448919911325411	0.15404819	0.39248973
0.762419117165817	0.19813193	0.44512013
0.7799462610358868	0.21795702	0.46685869
0.7974734231528482	0.20939285	0.45759463
0.8150006039268024	0.18692693	0.4323505
0.8325278037678551	0.18500775	0.43012527
0.8500550230861152	0.1651957	0.40644273
0.8675822622916969	0.16391186	0.4048603
0.8851095217947171	0.17381918	0.41691628
0.9026368020052984	0.1892887	0.43507323
0.9201641033335665	0.18154271	0.4260783
0.9376914261896523	0.20845023	0.4565635
0.9552187709836915	0.25373295	0.5037191
0.9727461381258234	0.25089872	0.5008979
0.990273528026193	0.30178323	0.549348
1.0078009410949496	0.28854373	0.53716266
1.0253283777422473	0.28284743	0.531834
1.0428558383782454	0.2587283	0.5086534
1.0603833234131086	0.28170675	0.5307605
1.0779108332570058	0.30366027	0.55105376
1.0954383683201119	0.31941164	0.56516516
1.112965929012607	0.37143332	0.6094533
1.1304935157446763	0.4821372	0.69436103
1.1480211289265108	0.53371805	0.73056006
1.1655487689683062	1.371	1.1708971
1.1830764362802655	1.6439985	1.2821851
1.200604131272596	2.1073272	1.4516636
1.2181318543555117	2.5399427	1.5937198
1.235659605939232	2.5796018	1.6061139
1.253187386433982	3.9885635	1.9971389
1.270715196249994	6.355736	2.5210586
1.2882430357975057	11.903717	3.4501765
1.3057709054867608	16.843424	4.104074
1.3232988057280106	22.785028	4.7733665
1.3408267369315112	27.640474	5.257421
1.358354699507526	31.040125	5.5713663
1.3758826938663256	34.976772	5.9141164
1.3934107204181858	37.07101	6.088597
1.410938779573391	37.756207	6.144608
1.4284668717422309	38.606846	6.213441
1.4459949973350033	38.370857	6.1944213
1.4635231567620117	38.54201	6.2082214
1.4810513504335687	37.644787	6.135535
1.4985795787599925	36.60764	6.0504246
1.5161078421516088	35.979496	5.998291
1.5336361410187505	35.21664	5.934361
1.5511644757717598	35.463852	5.9551535
1.5686928468209842	35.833252	5.9860883
1.58622125457678	36.3543	6.029453
1.6037496994495108	37.702377	6.1402264
1.621278181849548	37.78301	6.1467886
1.6388067021872719	38.57715	6.2110505
1.6563352608730693	37.782616	6.1467566
1.673863858317336	36.38609	6.0320883
1.6913924949304753	35.50616	5.9587045
1.7089211711228998	34.686188	5.889498
1.7264498873050296	34.22198	5.8499556
1.7439786438872935	33.684036	5.803795
1.7615074412801288	32.94097	5.739423
1.779036279893981	31.755178	5.6351733
1.796565160139305	30.825768	5.552096
1.814094082426564	30.014872	5.478583
1.8316230471662298	29.284107	5.411479
1.849152054768784	28.590364	5.346996
1.8666811056447168	28.051086	5.2963276
1.8842102002045273	27.376818	5.232286
1.901739338858724	26.873505	5.183966
1.9192685220178245	26.229969	5.12152
1.9367977500923557	25.43673	5.0434837
1.9543270234928547	24.792976	4.9792547
1.971856342629867	23.890936	4.8878355
1.9893857079139496	23.424852	4.839923
2.006915119755667	22.980375	4.793785
2.0244445785655945	22.57312	4.7511177
2.0419740847543175	22.084848	4.699452
2.0595036387324317	21.444616	4.630833
2.0770332409105414	20.948128	4.5769124
2.094562891699263	20.597034	4.5383954
2.1120925915092217	20.01455	4.4737625
2.129622340751053	19.805223	4.450306
2.1471521398354043	188.23811	13.71999
2.1646819891729323	444.72003	21.088387
2.182211889174303	440.91434	20.997961
2.1997418402501974	452.98004	21.283327
2.2172718428113023	432.8459	20.804949
2.234801897268317	320.70746	17.908306
2.2523320040319548	17.188826	4.145941
2.269862163512935	16.728422	4.0900393
2.287392376121992	16.399658	4.0496492
2.304922642269869	16.204153	4.0254383
2.322452962367322	16.088274	4.011019
2.3399833368251164	15.799898	3.9749086
2.357513766054032	15.628711	3.9533165
2.3750442504648586	15.400383	3.9243321
2.3925747904683963	15.072419	3.8823214
2.410105386475459	14.746403	3.8401046
2.4276360388968707	14.300657	3.781621
2.445166748143469	14.182298	3.7659392
2.4626975146261025	14.141483	3.7605164
2.4802283387556323	13.962884	3.7366943
2.4977592209429305	13.622959	3.6909294
2.5152901615988825	13.138452	3.6247003
2.5328211611343865	12.964717	3.600655
2.5503522199603523	12.7239	3.5670576
2.5678833384877024	12.567996	3.545137
2.5854145171273712	12.42207	3.5244956
2.6029457562903064	12.170638	3.4886441
2.620477056387469	12.006137	3.4649873
2.6380084178298326	11.702135	3.4208384
2.655539841028383	11.51431	3.3932743
2.673071326394119	11.472674	3.3871336
2.6906028743380523	11.280002	3.3585713
2.708134485271211	10.996149	3.316044
2.7256661596046325	10.8611	3.2956183
2.743197897749369	10.836505	3.2918847
2.760729700116486	10.731675	3.2759235
2.778261567117063	10.415771	3.2273474
2.795793499162193	10.135815	3.1836793
2.8133254966629817	9.93244	3.1515772
2.830857560030551	9.908144	3.1477203
2.8483896896760337	9.917806	3.1492548
2.865921886010578	9.763453	3.1246524
2.883454149445347	9.613138	3.100506
2.9009864803915177	9.461856	3.076013
2.91851887926028	9.367558	3.0606465
2.9360513464628384	9.341597	3.0564024
2.953583882410413	9.092429	3.0153656
2.9711164875142373	8.957083	2.9928386
2.9886491621855606	8.832577	2.971965
3.0061819068356455	8.779376	2.9630013
3.023714721875769	8.797361	2.9660347
3.041247607717225	8.675706	2.945455
3.0587805647713213	8.591107	2.9310591
3.0763135934493806	8.416673	2.9011502
3.0938466941627407	8.318602	2.8841987
3.1113798673227544	8.194857	2.862666
3.1289131133407904	8.121641	2.8498492
3.1464464326282315	8.013236	2.830766
3.1639798255964786	7.9482327	2.819261
3.1815132926569443	7.81922	2.7962868
3.1990468342210603	7.776267	2.788596
3.216580450700272	7.7995152	2.7927613
3.2341141425060416	7.611319	2.758862
3.251647910049847	7.4214897	2.724241
3.2691817537431813	7.2203116	2.6870637
3.286715673997555	7.258557	2.694171
3.3042496712244938	7.2366915	2.69011
3.32178374583554	7.15346	2.6745954
3.339317898242251	7.0648036	2.6579697
3.3568521288562034	6.9738684	2.6408083
3.3743864380889876	6.9316063	2.6327944
3.3919208263522127	6.8628936	2.6197126
3.4094552940575023	6.7792826	2.6037056
3.4269898416164972	6.6535683	2.579451
3.444524469440858	6.6081057	2.5706236
3.4620591779422587	6.5262218	2.5546472
3.479593967532391	6.4696975	2.54356
3.4971288386229658	6.4026785	2.5303514
3.5146637916257086	6.443403	2.5383859
3.5321988269523628	6.421705	2.5341082
3.5497339450146903	6.29528	2.5090396
3.5672691462244708	6.167437	2.4834325
3.5848044309934988	6.160924	2.4821208
3.60233979973359	6.244737	2.4989471
3.619875252856575	6.3129606	2.5125606
3.6374107907743034	6.3090334	2.5117788
3.6549464138986427	6.2586555	2.5017304
3.6724821226414788	6.169654	2.4838789
3.690017917414714	6.159673	2.481869
3.7075537986302702	6.3030887	2.5105953
3.7250897667000857	6.3822336	2.5263083
3.7426258220361235	6.6070323	2.5704148
3.7601619650503553	7.0335245	2.6520793
3.777698196154779	7.5880356	2.754639
3.7952345157614067	8.587333	2.9304152
3.8127709242822716	9.216145	3.0358105
3.830307422129425	11.368573	3.3717315
3.847844009714936	30.16888	5.4926205
3.8653806874508954	97.73394	9.886047
3.882917455749409	97.13001	9.855456
3.900454315022606	96.932396	9.845425
3.917991265682631	41.434547	6.4369674
3.9355283081416506	11.122425	3.33503
3.9530654428118495	8.785463	2.9640281
3.970602670105433	7.4849854	2.7358701
3.9881399904346244	6.5975256	2.568565
4.005677404211669	6.5295954	2.5553074
4.023214911848827	6.4924474	2.5480282
4.0407525137583855	6.495362	2.5486
4.058290210352644	6.505038	2.5504975
4.075828002043927	6.5213857	2.5537004
4.0933658892445814	6.4856687	2.5466976
4.110903872366966	6.3869233	2.5272362
4.128441951823468	6.2668633	2.5033703
4.145980128026488	6.177577	2.4854732
4.163518401388452	6.136618	2.4772198
4.181056772321807	6.240007	2.4980006
4.1985952412390155	6.3207927	2.5141187
4.216133808552567	6.3166213	2.513289
4.233672474674966	6.2722254	2.504441
4.251211240018741	6.4017076	2.5301597
4.268750104996445	6.647059	2.5781891
4.286289070020643	7.5767875	2.7525964
4.303828135503928	9.236773	3.0392058
4.3213673018589125	29.451843	5.426955
4.3389065694982305	90.73504	9.525495
4.356445938834537	166.13565	12.889362
4.3739854102805085	172.06593	13.117391
4.391524984248844	172.97495	13.151994
4.409064661152262	137.0317	11.706054
4.426604441403504	97.13306	9.855611
4.444144325415337	76.10557	8.72385
4.461684313600543	22.02619	4.693207
4.47922440637193	22.389185	4.731721
4.496764604142329	20.483004	4.525815
4.5143049073245916	18.524502	4.30401
4.531845316331589	16.463177	4.057484
4.5493858315762195	13.776814	3.711713
4.566926453471405	11.495307	3.390473
4.584467182430081	9.471807	3.07763
4.602008018865218	8.330509	2.8862622
4.619548963189798	7.6353264	2.7632093
4.637090015816834	7.0484204	2.6548862
4.654631177159353	6.7904387	2.6058471
4.672172447630417	6.5380096	2.5569532
4.689713827643102	6.4493666	2.5395603
4.7072553176105085	6.177584	2.4854746
4.724796917945764	6.0089397	2.451314
4.742338629062015	5.8974547	2.4284675
4.759880451372434	5.8211	2.4126956
4.777422385290215	5.772995	2.4027057
4.794964431228581	5.784417	2.4050815
4.812506589600768	5.8127	2.4109542
4.830048860820047	5.7220206	2.3920746
4.847591245299709	5.6567807	2.3783987
4.8651337434530655	5.614649	2.369525
4.882676355693457	5.5959682	2.3655798
4.900219082434242	5.5603	2.358029
4.917761924088813	5.575429	2.3612347
4.935304881070575	5.57189	2.360485
4.952847953792969	5.527349	2.3510315
4.970391142669449	5.48388	2.3417685
4.9879344481135055	5.4688606	2.3385596
5.005477870538642	5.5136504	2.3481164
5.023021410358394	5.42895	2.3300107
5.040565067986324	5.4501	2.334545
5.05810884383601	5.408111	2.3255346
5.075652738321066	5.4247527	2.32911
5.09319675185512	5.4718146	2.339191
5.110740884851836	5.4805303	2.3410532
5.128285137724894	5.4880466	2.342658
5.145829510888007	5.4285393	2.3299227
5.163374004754908	5.4132977	2.3266494
5.1809186197393595	5.392991	2.3222814
5.198463356255145	5.3359184	2.3099606
5.216008214716077	5.296909	2.3015015
5.233553195535998	5.324984	2.3075926
5.251098299128764	5.4358063	2.3314815
5.268643525908272	5.461691	2.3370261
5.286188876288432	5.4398956	2.3323584
5.3037343506831895	5.4039283	2.324635
5.32127994950651	5.331902	2.309091
5.3388256731723915	5.2396307	2.2890239
5.356371522094851	5.206113	2.2816908
5.373917496687938	5.259713	2.2934065
5.391463597365729	5.3238993	2.3073575
5.40900982454232	5.242764	2.2897084
5.426556178631843	5.1782007	2.275566
5.444102660048449	5.1280184	2.2645128
5.4616492692063225	5.1865993	2.2774107
5.479196006519669	5.2445025	2.290088
5.496742872402727	5.2864766	2.299234
5.514289867269756	5.256	2.2925968
5.531836991535049	5.1939483	2.2790236
5.549384245612924	5.1227984	2.26336
5.566931629917724	5.0899	2.2560806
5.584479144863822	5.0607123	2.2496028
5.6020267908656205	5.0287914	2.2424967
5.619574568337545	5.0187154	2.240249
5.637122477694054	5.0346546	2.2438035
5.654670519349629	5.0893316	2.2559547
5.672218693718784	5.1252775	2.2639077
5.689767001216059	5.165529	2.27278
5.707315442256021	5.2252994	2.2858913
5.724864017253266	5.2458596	2.290384
5.7424127266224225	5.2276525	2.286406
5.75996157077814	5.203504	2.281119
5.777510550135105	5.2508764	2.291479
5.795059665108022	5.246902	2.2906117
5.812608916111639	5.3234296	2.3072557
5.830158303560715	5.4396634	2.3323085
5.847707827870055	5.43106	2.3304634
5.86525748945448	5.507832	2.346877
5.8828072887288485	5.526175	2.3507817
5.900357226108044	5.556221	2.3571637
5.917907302006979	5.642915	2.375482
5.9354575168406	6.2561793	2.5012355
5.9530078710238765	6.889436	2.6247735
5.970558364971812	7.3797565	2.7165706
5.988108999099438	7.6981144	2.7745476
6.005659773821818	8.217046	2.866539
6.023210689554039	7.960742	2.8214786
6.040761746711227	8.386848	2.8960056
6.058312945708531	7.740672	2.7822063
6.075864286961132	7.2966847	2.7012377
6.093415770884244	6.634572	2.5757663
6.1109673978931065	6.106839	2.471202
6.128519168402993	5.5189357	2.3492415
6.146071082829204	5.4501634	2.3345585
6.163623141587075	5.324726	2.3075368
6.181175345091969	5.261952	2.2938945
6.198727693759281	5.2027187	2.280947
6.216280188004435	5.1775327	2.2754192
6.233832828242885	5.17865	2.2756648
6.251385614890126	5.1634164	2.2723153
6.268938548361669	5.105429	2.2595196
6.286491629073067	5.056966	2.2487698
6.304044857439898	5.054785	2.2482848
6.321598233877777	5.0780153	2.2534451
6.339151758802344	5.0984893	2.2579834
6.356705432629277	5.13695	2.266484
6.37425925577428	5.0588098	2.2491798
6.391813228653095	4.9923353	2.2343535
6.409367351681486	4.947279	2.224248
6.426921625275259	4.969156	2.2291603
6.44447604985025	5.0046196	2.2371006
6.46203062582232	5.0162115	2.23969
6.47958535360737	5.023255	2.241262
6.497140233621328	5.0357294	2.244043
6.514695266280161	5.025176	2.2416904
6.532250451999859	5.065195	2.250599
6.549805791196454	5.1756573	2.275007
6.567361284286002	5.136545	2.2663949
6.584916931684597	5.0847454	2.254938
6.602472733808367	4.9868507	2.2331257
6.6200286910734665	5.0667872	2.2509525
6.637584803896092	5.0978727	2.2578468
6.655141072692462	5.147758	2.268867
6.672697497878842	5.1381836	2.2667563
6.690254079871514	5.0942655	2.257048
6.707810819086808	5.0599046	2.2494233
6.725367715941078	5.0231304	2.241234
6.742924770850719	5.027305	2.2421653
6.760481984232151	5.054533	2.2482288
6.778039356501836	5.066914	2.2509806
6.795596888076266	5.095026	2.2572165
6.813154579371963	5.0779085	2.2534215
6.830712430805492	5.0398493	2.2449608
6.84827044279344	5.013089	2.238993
6.865828615752445	5.0139894	2.239194
6.883386950099159	4.991375	2.2341385
6.900945446250287	5.0158334	2.2396057
6.918504104622553	5.0054283	2.2372816
6.936062925632727	5.0632834	2.250174
6.953621909697607	5.0889306	2.2558658
6.971181057234028	5.1040096	2.2592056
6.988740368658859	5.130716	2.2651083
7.006299844389007	5.1423893	2.2676837
7.023859484841407	5.1991587	2.2801664
7.041419290433036	5.323033	2.30717
7.058979261580902	5.45692	2.3360052
7.0765393987020495	5.673694	2.3819518
7.094099702213559	6.0433755	2.4583278
7.111660172532549	6.417178	2.533215
7.129220810076164	6.8668175	2.6204612
7.146781615261595	7.5468445	2.747152
7.16434258850606	7.8011966	2.7930622
7.181903730226821	8.26839	2.875481
7.1994650408411704	8.262263	2.8744154
7.217026520766437	8.356506	2.8907623
7.234588170419983	8.499079	2.915318
7.252149990219215	8.519055	2.9187422
7.269711980581568	8.444173	2.905886
7.2872741419245175	8.239009	2.8703673
7.304836474665574	7.812256	2.7950413
7.322398979222286	7.475662	2.7341657
7.339961656012233	7.206784	2.6845453
7.357524505453039	6.83112	2.613641
7.375087527962357	6.5661464	2.5624492
7.392650723957886	6.3465075	2.5192275
7.410214093857353	5.9945507	2.4483771
7.427777638078528	5.83118	2.4147837
7.445341357039213	5.6122293	2.3690145
7.4629052511572525	5.531226	2.351856
7.480469320850524	5.4748645	2.3398428
7.498033566536948	5.4222336	2.328569
7.5155979886344735	5.388933	2.3214076
7.5331625875610975	5.3423963	2.3113625
7.550727363734844	5.3231277	2.3071904
7.568292317573788	5.2770863	2.297191
7.585857449496025	5.170017	2.273767
7.603422759919705	5.14807	2.268936
7.620988249263007	5.1191	2.2625427
7.638553917944147	5.129319	2.2648
7.656119766381391	5.125899	2.2640448
7.673685794993023	5.2078304	2.282067
7.691252004197388	5.275864	2.2969248
7.70881839441285	5.3552575	2.314143
7.726384966057826	5.37407	2.3182042
7.743951719550762	5.393301	2.322348
7.761518655310149	5.425876	2.329351
7.779085773754511	5.431063	2.3304641
7.796653075302419	5.4228396	2.328699
7.814220560372475	5.3852196	2.3206077
7.831788229383323	5.3549767	2.3140821
7.8493560827536495	5.335979	2.3099737
7.866924120902174	5.3273892	2.3081138
7.884492344247663	5.315728	2.3055863
7.9020607532089135	5.338931	2.3106127
7.919629348204771	5.3696513	2.3172507
7.937198129654115	5.472931	2.3394296
7.954767097975865	5.516022	2.3486214
7.972336253588986	5.461614	2.3370097
7.989905596912472	5.4530005	2.335166
8.007475128365371	5.5022593	2.3456895
8.025044848366756	5.583015	2.3628404
8.042614757335754	5.6595798	2.378987
8.060184855691523	5.6748366	2.3821917
8.07775514385327	5.7717104	2.4024384
8.095325622240228	5.824326	2.413364
8.112896291271687	5.903398	2.4296908
8.130467151366968	6.0032067	2.4501443
8.148038202945436	6.0100536	2.4515412
8.165609446426497	6.000798	2.4496527
8.183180882229594	6.0580173	2.461304
8.200752510774217	6.0665617	2.4630392
8.218324332479893	6.0751743	2.4647868
8.235896347766193	6.049137	2.4594994
8.253468557052724	6.0877748	2.4673417
8.27104096075914	6.098691	2.4695528
8.288613559305137	6.118314	2.4735227
8.306186353110448	6.149518	2.4798222
8.32375934259485	6.2838054	2.506752
8.341332528178162	6.362676	2.5224345
8.358905910280246	6.3371177	2.5173633
8.376479489321003	6.2450585	2.4990115
8.394053265720377	6.214615	2.492913
8.411627239898356	6.185934	2.4871538
8.42920141227497	6.262999	2.5025985
8.44677578327029	6.3009896	2.5101771
8.464350353304427	6.2547154	2.500943
8.48192512279754	6.2050247	2.4909887
8.499500092169827	6.121124	2.4740906
8.51707526184153	6.1458325	2.479079
8.534650632232934	6.1640067	2.4827418
8.552226203764365	6.2139945	2.4927886
8.569801976856192	6.2729936	2.5045946
8.587377951928834	6.28782	2.5075526
8.60495412940274	6.3158035	2.5131261
8.622530509698416	6.2935724	2.5086994
8.6401070932364	6.4238896	2.5345392
8.657683880437283	6.540717	2.5574825
8.675260871721695	6.7470207	2.5975027
8.692838067510303	6.9112673	2.628929
8.710415468223834	7.0636044	2.6577442
8.727993074283043	7.2111807	2.6853642
8.745570886108737	7.170167	2.6777167
8.763148904121765	7.1937637	2.6821194
8.78072712874302	7.153912	2.6746798
8.798305560393441	7.395309	2.7194316
8.815884199494006	7.5444765	2.746721
8.833463046465745	7.7035804	2.7755325
8.851042101729728	7.8580036	2.8032131
8.86862136570707	8.157798	2.856186
8.886200838818924	8.352257	2.890027
8.903780521486505	8.509231	2.9170585
8.921360414131055	8.578095	2.9288385
8.938940517173874	8.703178	2.950115
8.956520831036297	8.776383	2.962496
8.97410135613971	9.107387	3.0178447
8.99168209290554	9.316848	3.0523512
9.009263041755265	9.59397	3.0974135
9.026844203110405	9.834898	3.136064
9.044425577392525	9.946418	3.1537943
9.062007165023239	9.993115	3.1611888
9.079588966424197	10.202926	3.194202
9.097170982017108	10.339379	3.2154906
9.11475321222372	11.402188	3.3767126
9.132335657465825	12.362177	3.5159888
9.149918318165264	12.366355	3.516583
9.167501194743924	12.859555	3.5860221
9.18508428762374	12.562722	3.544393
9.202667597226693	12.553301	3.5430639
9.220251123974803	12.27077	3.502966
9.237834868290143	12.040263	3.4699082
9.255418830594836	11.885237	3.4474971
9.273003011311046	11.415908	3.3787436
9.290587410860985	11.194331	3.345793
9.308172029666911	10.49858	3.2401512
9.32575686815113	10.146752	3.1853967
9.343341926735997	8.8740015	2.9789262
9.360927205843916	8.589371	2.9307628
9.378512705897327	8.382473	2.89525
9.396098427318728	8.162985	2.8570938
9.413684370530664	8.075152	2.8416812
9.431270535955722	7.947691	2.819165
9.448856924016539	7.8368926	2.7994452
9.466443535135806	7.750855	2.7840357
9.484030369736251	7.7652	2.7866108
9.501617428240658	7.831055	2.7984023
9.519204711071852	7.873199	2.805922
9.536792218652714	7.8630543	2.8041139
9.55437995140617	7.8421445	2.8003829
9.571967909755191	7.9630523	2.821888
9.589556094122802	8.08157	2.8428102
9.60714450493207	8.147315	2.85435
9.624733142606116	8.144173	2.8537996
9.642322007568108	8.080635	2.842646
9.659911100241267	8.068489	2.8405087
9.677500421048851	8.081962	2.842879
9.695089970414175	8.107613	2.847387
9.712679748760609	8.15327	2.8553932
9.730269756511557	8.21549	2.8662677
9.747859994090492	8.218573	2.8668053
9.765450461920915	8.250899	2.872438
9.78304116042639	8.215828	2.8663266
9.800632090030527	8.278034	2.8771572
9.81822325115699	8.293404	2.879827
9.835814644229481	8.268009	2.8754146
9.853406269671762	8.361765	2.8916717
9.870998127907646	8.358477	2.891103
9.888590219360985	8.365924	2.8923907
9.906182544455698	8.383226	2.8953803
9.923775103615734	8.378868	2.8946276
9.941367897265108	8.404211	2.8990018
9.958960925827878	8.409024	2.8998318
9.97655418972816	8.373282	2.8936625
9.994147689390106	8.3194275	2.8843417
10.011741425237934	8.2871065	2.8787334
10.029335397695904	8.34305	2.888434
10.04692960718833	8.366537	2.8924966
10.06452405413958	8.341104	2.8880968
10.082118738974064	8.39114	2.8967464
10.099713662116246	8.354378	2.890394
10.117308823990651	8.392908	2.8970516
10.134904225021844	8.297818	2.8805933
10.152499865634445	8.229942	2.8687875
10.170095746253125	8.194905	2.8626745
10.18769186730261	8.203692	2.864209
10.205288229207675	8.2523	2.8726816
10.222884832393145	8.231667	2.8690882
10.2404816772839	8.198542	2.8633096
10.258078764304868	8.106677	2.8472228
10.275676093881035	8.084117	2.8432581
10.293273666437438	8.138199	2.852753
10.310871482399158	8.192899	2.862324
10.32846954219134	8.1683035	2.8580244
10.346067846239173	8.095548	2.8452675
10.363666394967908	8.076864	2.8419824
10.38126518880283	8.1177435	2.8491654
10.398864228169298	8.227272	2.8683221
10.416463513492713	8.263638	2.8746543
10.434063045198531	8.228329	2.8685064
10.451662823712262	8.231004	2.8689725
10.469262849459467	8.229669	2.8687398
10.486863122865758	8.1701	2.8583388
10.504463644356806	8.179578	2.859996
10.522064414358338	8.137839	2.8526897
10.539665433296118	8.099466	2.845956
10.557266701595987	8.117519	2.849126
10.574868219683818	8.042473	2.8359253
10.592469987985552	7.914471	2.813267
10.610072006927185	7.732978	2.7808232
10.627674276934751	7.5791025	2.753017
10.64527679843435	7.4602323	2.7313426
10.662879571852143	7.3663607	2.714104
10.680482597614331	7.2696214	2.6962235
10.698085876147173	7.1185193	2.6680553
10.715689407876988	7.045883	2.6544082
10.733293193230146	6.961914	2.6385438
10.750897232633072	6.956459	2.63751
10.76850152651225	6.9157925	2.6297894
10.786106075294207	6.8260226	2.612666
10.803710879405534	6.6901145	2.5865257
10.821315939272877	6.553278	2.559937
10.83892125532294	6.4061856	2.5310445
10.856526827982472	6.354051	2.5207243
10.874132657678285	6.32398	2.5147524
10.891738744837243	6.3073616	2.511446
10.909345089886271	6.263121	2.5026228
10.926951693252343	6.2331424	2.4966261
10.944558555362494	6.157186	2.4813678
10.96216567664381	6.086578	2.4670992
10.979773057523436	5.966354	2.4426122
10.997380698428573	5.912345	2.4315314
11.014988599786477	5.88174	2.4252298
11.032596762024461	5.87946	2.4247599
11.050205185569892	5.832669	2.415092
11.067813870850198	5.7145653	2.3905158
11.085422818292859	5.571366	2.360374
11.10303202832541	5.4948473	2.344109
11.120641501375454	5.4554243	2.335685
11.138251237870636	5.4260893	2.3293967
11.155861238238671	5.3436656	2.311637
11.173471502907317	5.22055	2.2848523
11.191082032304402	5.2141714	2.283456
11.208692826857805	5.192131	2.2786248
11.226303886995465	5.087393	2.2555249
11.243915213145371	5.013231	2.2390244
11.261526805735578	4.9430976	2.2233078
11.279138665194196	4.947216	2.2242339
11.296750791949393	4.94758	2.2243156
11.314363186429393	4.899401	2.213459
11.331975849062479	4.8231716	2.196172
11.34958878027699	4.7625628	2.1823297
11.36720198050133	4.6931577	2.1663697
11.384815450163948	4.710484	2.1703649
11.402429189693366	4.668966	2.160779
11.420043199518153	4.5763	2.1392288
11.437657480066942	63.506184	7.9690766
11.455272031768422	85.195755	9.230155
11.472886855051353	107.635574	10.374757
11.490501950344528	99.25655	9.962758
11.508117318076819	84.564415	9.195891
11.52573295867715	45.92104	6.7765064
11.543348872574514	4.1741395	2.043071
11.560965060197946	4.100766	2.025035
11.57858152197655	4.032036	2.007993
11.59619825833949	4.0385785	2.0096214
11.613815269715985	4.0819726	2.0203893
11.631432556535323	38.59172	6.2122235
11.649050119226837	83.132256	9.117689
11.666667958219929	93.524445	9.670804
11.68428607394406	107.794754	10.382425
11.701904466828756	82.61726	9.089404
11.719523137303586	65.43073	8.088926
11.737142085798196	4.671127	2.161279
11.754761312742286	3.7668002	1.9408246
11.772380818565619	3.7460132	1.935462
11.790000603698015	3.7349074	1.9325908
11.80762066856935	3.7217388	1.9291809
11.825241013609572	3.6519504	1.9110076
11.842861639248683	3.541758	1.8819559
11.860482545916748	3.4507325	1.8576148
11.878103734043883	3.4040527	1.8450075
11.895725204060282	3.4508858	1.857656
11.91334695639619	3.4483063	1.8569616
11.930968991481919	3.4280665	1.8515038
11.948591309747824	3.4055128	1.8454032
11.966213911624347	3.389902	1.8411686
11.98383679754198	3.3650365	1.8344036
12.001459967931268	3.2812262	1.8114156
12.019083423222835	3.247241	1.8020103
12.036707163847352	3.2286856	1.7968544
12.05433119023556	3.23962	1.7998945
12.071955502818259	3.2497895	1.8027172
12.089580102026313	3.252051	1.8033444
12.107204988290643	3.2211392	1.7947532
12.12483016204224	3.1792703	1.7830508
12.142455623712152	3.130562	1.7693394
12.16008137373149	3.1099231	1.7634975
12.177707412531431	3.129137	1.7689368
12.19533374054321	3.1598291	1.7775909
12.212960358198126	3.1245744	1.7676466
12.230587265927545	3.0569515	1.748414
12.248214464162889	3.0179586	1.7372273
12.265841953335649	3.0105548	1.735095
12.283469733877375	3.0347054	1.7420406
12.301097806219685	3.0250583	1.7392695
12.31872617079425	2.9901361	1.729201
12.336354828032825	2.9999025	1.7320226
12.353983778367205	3.006888	1.734038
12.371613022229262	2.9805007	1.7264127
12.389242560050928	2.9436219	1.7156986
12.406872392264201	2.9186156	1.7083956
12.424502519301143	2.9317613	1.7122387
12.442132941593874	2.9004228	1.7030628
12.459763659574586	2.890405	1.7001191
12.477394673675532	2.8754342	1.6957105
12.49502598432903	2.8567805	1.6902013
12.51265759196746	2.8128295	1.6771492
12.530289497023267	2.8121512	1.676947
12.547921699928967	2.8406656	1.6854274
12.565554201117134	2.8728046	1.694935
12.583187001020404	2.844745	1.6866372
12.600820100071486	2.8140614	1.6775165
12.618453498703152	2.7930827	1.6712519
12.636087197348235	2.7849476	1.6688162
12.65372119643964	2.7807214	1.6675495
12.671355496410326	2.76836	1.6638389
12.68899009769333	2.816756	1.6783195
12.706625000721749	2.877012	1.6961757
12.724260205928752	2.9522467	1.7182103
12.741895713747551	2.9767869	1.7253368
12.759531524611454	3.0517259	1.7469189
12.777167638953818	3.0547256	1.7477773
12.794804057208072	3.0160377	1.7366743
12.812440779807702	3.0301013	1.7407186
12.830077807186271	3.1560726	1.7765338
12.847715139777405	3.2141237	1.7927977
12.865352778014795	3.4082925	1.8461561
12.882990722332197	3.5382032	1.8810112
12.90062897316344	3.6176648	1.902016
12.918267530942412	3.6727147	1.9164329
12.935906396103071	3.5683749	1.8890142
12.953545569079449	3.7528389	1.9372245
12.971185050305628	3.6140993	1.9010785
12.988824840215775	3.631031	1.9055264
13.006464939244115	3.6320295	1.9057884
13.024105347824943	3.48217	1.8660574
13.041746066392617	3.5518692	1.8846403
13.05938709538157	3.400584	1.8440672
13.077028435226296	3.411843	1.8471175
13.094670086361363	3.3696518	1.8356612
13.112312049221401	3.2949777	1.8152074
13.129954324241112	3.1894596	1.7859058
13.147596911855258	2.9538472	1.718676
13.165239812498685	2.8817353	1.6975675
13.182883026606293	2.7939868	1.6715223
13.200526554613058	2.7200978	1.6492718
13.218170396954017	2.6960087	1.6419528
13.235814554064284	2.7193604	1.6490483
13.253459026379034	2.7246404	1.6506485
13.271103814333523	2.7007847	1.6434064
13.288748918363058	2.6855204	1.6387558
13.306394338903031	2.7824302	1.6680619
13.32404007638889	2.8200207	1.6792917
13.341686131256164	2.8064315	1.6752408
13.359332503940449	2.7124398	1.6469486
13.376979194877402	2.677971	1.6364506
13.394626204502751	2.7012787	1.6435567
13.412273533252307	2.7034006	1.6442021
13.429921181561937	2.7015924	1.6436522
13.447569149867581	2.6861327	1.6389426
13.465217438605247	2.6938617	1.6412988
13.482866048211022	2.6758947	1.6358162
13.500514979121052	2.696704	1.6421643
13.518164231771568	2.6905835	1.6402998
13.535813806598844	2.708059	1.6456182
13.553463704039254	2.6910949	1.6404557
13.571113924529229	2.694763	1.6415733
13.588764468505275	2.7054062	1.6448119
13.606415336403956	2.7517283	1.6588334
13.624066528661917	2.7703724	1.6644436
13.641718045715882	2.801441	1.6737505
13.659369888002635	2.8873696	1.6992261
13.67702205595903	2.9572918	1.7196778
13.694674550021993	3.0122147	1.7355733
13.712327370628532	3.0572622	1.7485029
13.729980518215713	3.140216	1.7720655
13.747633993220681	3.220103	1.7944646
13.765287796080647	3.2330813	1.7980771
13.7829419272329	3.2682552	1.8078316
13.800596387114801	3.3050401	1.817977
13.818251176163775	3.323715	1.8231058
13.835906294817324	3.3572497	1.8322799
13.853561743513023	3.3875294	1.8405242
13.871217522688525	3.4916377	1.8685924
13.888873632781538	3.5203307	1.8762544
13.906530074229858	3.5615146	1.8871976
13.92418684747135	3.5721312	1.8900082
13.941843952943948	3.598672	1.8970165
13.959501391085665	3.5876825	1.8941178
13.977159162334578	3.4954717	1.869618
13.994817267128846	3.4298172	1.8519765
14.012475705906693	3.3364444	1.8265936
14.030134479106424	3.2753537	1.8097938
14.047793587166414	3.1755855	1.7820172
14.065453030525108	3.0933425	1.7587901
14.083112809621026	3.0486119	1.7460275
14.100772924892766	3.003194	1.7329726
14.118433376778997	2.9532762	1.7185099
14.136094165718458	2.9086995	1.705491
14.153755292149969	2.851694	1.688696
14.171416756512416	2.7566726	1.660323
14.189078559244768	2.6581936	1.6303967
14.20674070078606	2.5739179	1.6043434
14.224403181575408	2.518904	1.5871055
14.242066002051999	2.5207493	1.5876868
14.259729162655093	2.5073488	1.583461
14.277392663824022	2.496204	1.5799379
14.295056505998208	2.492349	1.5787175
14.312720689617128	2.4771228	1.5738878
14.330385215120348	2.458025	1.567809
14.348050082947497	2.425554	1.5574191
14.3657152935383	2.4214063	1.5560869
14.383380847332528	2.422919	1.5565728
14.401046744770051	2.437751	1.5613298
14.418712986290798	2.4104266	1.5525548
14.436379572334793	2.3919373	1.5465889
14.454046503342123	2.376622	1.5416297
14.471713779752946	2.4019923	1.5498363
14.489381402007504	2.4094033	1.5522252
14.507049370546113	2.3976889	1.5484473
14.524717685809168	2.3768969	1.5417188
14.542386348237134	2.3702507	1.5395619
14.560055358270553	2.387578	1.545179
14.577724716350051	2.4428325	1.5629563
14.595394422916325	2.4515538	1.5657438
14.61306447841015	2.450653	1.5654562
14.63073488327237	2.4411407	1.562415
14.648405637943917	2.458239	1.5678773
14.6660767428658	2.4824526	1.5755801
14.683748198479094	2.5323126	1.5913242
14.701420005224954	2.5904865	1.6094989
14.719092163544628	2.6793587	1.6368747
14.73676467387942	2.7332165	1.6532443
14.754437536670727	2.734521	1.6536387
14.772110752360014	2.7052507	1.6447647
14.78978432138882	2.7153842	1.6478423
14.807458244198777	2.736426	1.6542146
14.82513252123159	2.6972864	1.6423417
14.842807152929028	2.6939034	1.6413115
14.860482139732962	2.6348107	1.62321
14.87815748208531	2.651153	1.6282362
14.8958331804281	2.6553142	1.6295135
14.91350923520342	2.6424277	1.6255546
14.931185646853438	2.6618965	1.631532
14.948862415820408	2.672316	1.634722
14.966539542546656	2.6867342	1.6391261
14.98421702747459	2.655353	1.6295254
15.001894871046696	2.658903	1.6306143
15.019573073705542	2.705087	1.6447148
15.037251635893766	2.7106411	1.6464025
15.054930558054092	2.7451675	1.6568547
15.072609840629323	2.7965307	1.672283
15.090289484062351	2.9555418	1.7191689
15.107969488796124	3.2691245	1.8080721
15.125649855273691	3.7097113	1.926061
15.14333058393817	4.194641	2.0480824
15.161011675232768	5.138821	2.2668967
15.17869312960076	6.5062747	2.55074
15.196374947485506	8.398432	2.8980048
15.214057129330447	11.42218	3.3796716
15.231739675579114	16.01773	4.002216
15.249422586675102	20.920378	4.5738797
15.267105863062092	24.114737	4.910676
15.284789505183847	24.50243	4.949993
15.302473513484218	22.470419	4.7402973
15.320157888407127	18.882387	4.345387
15.337842630396578	14.618716	3.823443
15.355527739896656	11.369065	3.3718045
15.37321321735153	8.809362	2.968057
15.39089906320545	6.403191	2.5304527
15.408585277902748	4.8250556	2.196601
15.42627186188783	3.7096064	1.9260339
15.443958815605198	3.1920311	1.7866256
15.461646139499424	2.9052536	1.7044804
15.479333834015168	2.7480805	1.6577336
15.497021899597165	2.6660788	1.6328132
15.514710336690234	2.612575	1.6163462
15.53239914573928	2.5778155	1.6055577
15.550088327189297	2.5621564	1.6006738
15.567777881485336	2.5394516	1.5935657
15.58546780907256	2.5187435	1.587055
15.6031581103962	2.4810908	1.5751479
15.620848785901568	2.4806488	1.5750076
15.638539836034063	2.4826455	1.5756413
15.656231261239173	2.5015843	1.5816398
15.673923061962451	2.4833736	1.5758723
15.691615238649552	2.4792628	1.5745676
15.709307791746202	2.4753752	1.5733325
15.727000721698221	2.4473205	1.5643914
15.744694028951498	2.3933363	1.5470412
15.76238771395202	2.3634276	1.5373443
15.780081777145844	2.360855	1.5365075
15.797776218979125	2.3639405	1.5375111
15.815471039898094	2.3647647	1.5377791
15.833166240349064	2.3726957	1.5403557
15.850861820778437	2.3831103	1.5437325
15.868557781632699	2.3800435	1.5427389
15.886254123358412	2.382481	1.5435288
15.903950846402232	2.3728063	1.5403916
15.921647951210897	2.381223	1.5431212
15.939345438231225	2.3867202	1.5449014
15.957043307910133	2.377086	1.5417801
15.974741560694602	2.3642724	1.537619
15.992440197031714	2.3986335	1.5487522
16.01013921736862	2.4262545	1.5576439
16.02783862215259	2.4253688	1.5573596
16.045538411830933	2.4060805	1.5511546
16.06323858685107	2.3899016	1.5459306
16.080939147660512	2.3886907	1.545539
16.09864009470684	2.3995109	1.5490354
16.11634142843774	2.395447	1.5477232
16.134043149300954	2.4123003	1.5531582
16.15174525774433	2.4488323	1.5648745
16.169447754215817	2.4483778	1.5647293
16.18715063916342	2.4221156	1.5563147
16.204853913035244	2.4328256	1.5597517
16.222557576279478	2.4652376	1.5701075
16.240261629344403	22.472996	4.740569
16.257966072678386	43.003277	6.557688
16.275670906729868	38.104736	6.1729035
16.293376131947387	2.5290134	1.5902872
16.31108174877957	2.552148	1.5975444
16.328787757675133	2.5570567	1.59908
16.34649415908287	2.5946972	1.6108063
16.364200953451657	2.656286	1.6298116
16.38190814123048	2.6873863	1.6393249
16.39961572286839	2.6832693	1.6380688
16.41732369881455	2.7059684	1.6449828
16.43503206951817	2.702831	1.6440289
16.45274083542859	2.725224	1.6508253
16.47044999699522	2.7719338	1.6649126
16.488159554667558	2.8225915	1.680057
16.505869508895184	2.8717692	1.6946295
16.523579860127786	2.9173536	1.7080263
16.541290608815117	2.993029	1.7300373
16.559001755407035	3.0624807	1.7499945
16.57671330035348	3.1181464	1.7658274
16.59442524410448	3.164712	1.7789637
16.61213758711015	3.218333	1.7939713
16.629850329820705	3.2860916	1.812758
16.647563472686436	3.3499649	1.8302909
16.665277016157724	3.4135454	1.8475783
16.682990960685053	3.4774806	1.8648005
16.70070530671898	3.5508373	1.8843665
16.718420054710155	3.6041148	1.8984506
16.736135205109335	3.6705453	1.9158667
16.753850758367335	3.6703947	1.9158274
16.771566714935087	3.6161897	1.9016281
16.789283075263597	3.6777623	1.9177493
16.80699983980398	3.7773542	1.9435416
16.82471700900741	3.8769748	1.9690036
16.84243458332518	3.9390237	1.9846973
16.860152563208665	3.975024	1.9937462
16.87787094910932	4.073899	2.0183902
16.89558974147871	4.1846285	2.0456364
16.913308940768466	4.2552223	2.062819
16.931028547430333	4.2854614	2.0701356
16.94874856191613	4.3000426	2.0736544
16.966468984677785	4.3413353	2.0835872
16.98418981616729	4.4184265	2.1020052
17.00191105683676	4.4660025	2.1132917
17.019632707138374	4.4869833	2.1182501
17.03735476752442	4.557168	2.1347525
17.05507723844728	4.6200557	2.1494315
17.072800120359403	4.6581774	2.158281
17.090523413713353	4.6661983	2.1601384
17.108247118961785	4.709398	2.1701148
17.125971236557437	4.711262	2.1705441
17.143695766953133	4.7274456	2.174269
17.161420710601806	4.728401	2.1744888
17.179146067956477	4.796692	2.1901352
17.19687183947025	4.8176765	2.1949205
17.21459802559634	4.739237	2.1769788
17.232324626788028	4.6785216	2.1629891
17.25005164349871	4.6627398	2.1593378
17.267779076181863	4.6750073	2.1621766
17.285506925291074	4.6380506	2.1536133
17.30323519127999	4.577386	2.1394827
17.320963874602384	4.6025987	2.145367
17.33869297571211	4.6151266	2.1482847
17.356422495063114	4.5635166	2.1362388
17.37415243310944	4.52035	2.1261115
17.391882790305218	4.4936924	2.119833
17.40961356710468	4.510338	2.1237557
17.42734476396215	4.4910703	2.1192145
17.445076381332044	4.499304	2.1211562
17.462808419668868	4.562187	2.1359277
17.48054087942723	4.6997957	2.1679013
17.498273761061835	4.9771504	2.2309527
17.51600706502747	5.485473	2.3421087
17.533740791779024	6.2272944	2.4954548
17.551474941771485	7.7196383	2.7784238
17.56920951545993	8.849664	2.9748385
17.586944513299528	11.027363	3.3207474
17.60467993574556	12.627583	3.553531
17.622415783253373	14.241478	3.7737882
17.64015205627843	15.640637	3.9548247
17.657888755276293	16.751215	4.092825
17.675625880702604	17.305529	4.1599913
17.69336343301311	17.114454	4.136962
17.71110141266366	16.400816	4.0497923
17.728839820110178	15.4925585	3.9360588
17.746578655808705	14.557256	3.8153973
17.764317920215372	13.030137	3.609728
17.7820576137864	11.531435	3.3957968
17.79979773697811	9.532816	3.0875258
17.81753829024692	7.661039	2.7678583
17.835279274049356	5.935615	2.4363117
17.85302068884201	4.8715153	2.207151
17.870762535081607	4.2415643	2.059506
17.888504813224934	3.907674	1.9767838
17.90624752372891	3.7186751	1.9283867
17.923990667050536	3.6319182	1.9057592
17.941734243646895	3.5261693	1.8778098
17.959478253975185	3.44304	1.855543
17.9772226984927	3.456663	1.8592103
17.994967577656833	3.446668	1.8565204
18.01271289192506	3.4382365	1.8542482
18.030458641754965	3.389847	1.8411537
18.04820482760425	3.332619	1.8255463
18.06595144993067	3.303026	1.8174229
18.083698509192125	3.3018298	1.8170937
18.101446005846576	3.310608	1.8195076
18.119193940352105	3.293076	1.8146834
18.136942313166887	3.2690377	1.808048
18.1546911247492	3.2442398	1.8011774
18.1724403755574	3.1942794	1.7872547
18.19019006604997	3.1607022	1.7778364
18.207940196685467	3.1246562	1.7676697
18.225690767922575	3.100112	1.7607135
18.243441780220046	3.082653	1.7557486
18.261193234036764	3.0516043	1.7468841
18.278945129831676	3.0775397	1.7542918
18.29669746806386	3.09406	1.758994
18.314450249192483	3.0854523	1.7565455
18.3322034736768	3.0833588	1.7559495
18.349957141976184	3.0825307	1.7557137
18.3677112545501	3.0810835	1.7553016
18.385465811858108	3.080695	1.7551908
18.403220814359884	3.0815277	1.7554281
18.420976262515172	3.0918944	1.7583784
18.43873215678387	3.1225228	1.7670661
18.456488497625923	3.1667976	1.7795498
18.474245285501407	3.2585256	1.8051387
18.492002520870486	3.340176	1.8276149
18.50976020419343	3.346292	1.8292873
18.527518335930615	3.6402054	1.9079323
18.545276916542516	4.1956253	2.0483227
18.563035946489688	4.3686876	2.0901406
18.580795426232832	4.840571	2.2001297
18.598555356232698	4.7848477	2.1874294
18.616315736950185	5.153555	2.2701442
18.63407656884626	4.810792	2.1933517
18.65183785238201	4.9990277	2.2358506
18.669599588018617	4.7026863	2.168568
18.68736177621737	4.6607323	2.1588728
18.705124417439652	4.555417	2.1343422
18.72288751214696	4.390617	2.0953798
18.740651060800886	4.5757356	2.139097
18.758415063863115	4.377666	2.0922873
18.77617952179546	4.556063	2.1344936
18.793944435059814	4.3212247	2.0787556
18.811709804118184	4.347087	2.084967
18.829475629432675	4.272762	2.067066
18.8472419114655	4.0459146	2.011446
18.86500865067897	4.1090746	2.0270853
18.88277584753551	3.8434045	1.9604603
18.90054350249763	3.8776975	1.969187
18.918311616027957	3.5303638	1.8789263
18.936080188589226	3.4048815	1.8452321
18.953849220644265	3.0926845	1.758603
18.971618712656007	2.902419	1.7036488
18.9893886650875	2.8394983	1.6850811
19.007159078401887	8.006822	2.8296328
19.024929953062408	32.919914	5.737588
19.042701289532435	32.855316	5.7319555
19.060473088275405	25.441666	5.043973
19.07824534975489	2.6675053	1.6332499
19.096018074434568	2.6560402	1.6297362
19.113791262778197	2.6243353	1.61998
19.13156491524966	2.5955908	1.6110837
19.149339032312945	2.6066968	1.6145269
19.167113614432136	2.6462734	1.626737
19.184888662071433	2.6208475	1.6189032
19.202664175695123	2.5876846	1.6086282
19.220440155767623	2.5868816	1.6083785
19.238216602753447	2.5835013	1.6073273
19.2559935171172	2.539099	1.5934551
19.27377089932361	2.4924955	1.578764
19.291548749837514	2.4994485	1.5809644
19.309327069123835	2.5103037	1.5843939
19.32710585764763	2.5350034	1.5921694
19.344885115874032	2.5382698	1.5931948
19.362664844268313	2.510439	1.5844364
19.380445043295822	2.5100524	1.5843145
19.39822571342203	2.5090265	1.5839907
19.41600685511252	2.5183198	1.5869215
19.43378846883297	2.4943101	1.5793386
19.451570555049173	2.4609044	1.568727
19.469353114227037	2.4308717	1.5591253
19.48713614683254	2.4808774	1.5750802
19.50491965333182	2.5055716	1.5828997
19.52270363419109	2.4789531	1.5744692
19.540488089876686	2.4750612	1.5732328
19.55827302085503	2.5023174	1.5818715
19.576058427592674	2.536927	1.5927733
19.593844310556282	2.5662234	1.6019436
19.611630670212598	2.5425844	1.5945483
19.629417507028506	2.4868782	1.5769839
19.64720482147098	2.4492805	1.5650177
19.6649926140071	2.505886	1.5829991
19.682780885104084	2.5192688	1.5872204
19.70056963522921	2.523752	1.5886321
19.718358864849908	2.4783387	1.5742741
19.7361485744337	2.4925354	1.5787765
19.753938764448215	2.4812064	1.5751846
19.771729435361202	2.514237	1.5856346
19.789520587640506	2.5222623	1.5881631
19.807312221754092	2.5310726	1.5909345
19.825104338170043	2.5414152	1.5941817
19.842896937356517	2.5331364	1.591583
19.860690019781824	2.5394723	1.5935721
19.87848358591436	2.5379546	1.5930959
19.896277636222635	2.5544572	1.598267
19.914072171175278	2.537301	1.5928907
19.931867191241015	2.4996521	1.5810288
19.94966269688869	2.466211	1.5704175
19.967458688587264	2.43063	1.5590478
19.985255166805807	2.4606209	1.5686367
20.00305213201348	2.4811544	1.575168
20.020849584679578	2.4723055	1.5723567
20.038647525273507	2.45917	1.5681741
20.05644595426477	2.4920826	1.5786332
20.07424487212299	2.5250652	1.5890454
20.092044279317903	2.5095422	1.5841534
20.109844176319353	2.503705	1.5823101
20.127644563597304	2.4844654	1.5762187
20.145445441621817	2.4953272	1.5796605
20.16324681086307	2.4920216	1.5786138
20.181048671791373	2.4828832	1.5757167
20.198851024877122	2.4616153	1.5689536
20.216653870590836	2.4272232	1.5579548
20.234457209403146	2.4042604	1.5505677
20.252261041784802	2.3844306	1.5441601
20.270065368206662	2.4177523	1.5549123
20.287870189139685	2.4271579	1.5579338
20.305675505054968	2.3839157	1.5439935
20.323481316423702	2.374503	1.5409422
20.341287623717207	2.3742166	1.5408493
20.359094427406884	2.3903975	1.5460911
20.376901727964288	2.3624077	1.5370126
20.39470952586107	2.3530655	1.5339705
20.41251782156899	2.350058	1.5329899
20.430326615559935	2.4007425	1.549433
20.448135908305886	2.4075198	1.5516185
20.465945700278965	2.399459	1.5490187
20.483755991951384	2.3765905	1.5416194
20.50156678379548	2.3967233	1.5481354
20.519378076283708	2.4038982	1.5504509
20.537189869888635	2.3923826	1.5467329
20.55500216508294	2.364503	1.537694
20.572814962339415	2.3768845	1.5417148
20.59062826213098	2.3692682	1.5392427
20.60844206493066	2.3412824	1.5301249
20.626256371211593	2.3161879	1.5219027
20.644071181447032	2.3133733	1.5209777
20.66188649611036	2.3193898	1.5229543
20.67970231567506	2.3393643	1.5294981
20.697518640614742	2.3326764	1.5273101
20.715335471403122	2.3414457	1.5301783
20.73315280851404	2.3440058	1.5310147
20.750970652421447	2.3579855	1.5355734
20.768789003599412	2.3674798	1.5386617
20.786607862522136	2.3364022	1.5285294
20.8044272296639	2.3020675	1.5172566
20.82224710549913	2.2810867	1.5103266
20.84006749050237	2.268538	1.5061667
20.857888385148268	3.8328514	1.9577669
20.8757097899116	45.979675	6.7808313
20.893531705267254	64.82059	8.051124
20.911354131690224	83.82075	9.155367
20.92917706965566	69.074844	8.311128
20.94700051963877	50.161674	7.082491
20.96482448211493	29.403027	5.422456
20.982648957559622	4.1211886	2.030071
21.00047394644843	2.2535791	1.5011926
21.01829944925707	2.281961	1.5106161
21.036125466461375	2.3153253	1.5216193
21.053951998537297	2.257241	1.5024117
21.071779045960906	2.1999063	1.4832082
21.089606609208378	2.1663997	1.4718695
21.10743468875603	2.2005653	1.4834303
21.12526328508028	2.2353168	1.4950975
21.143092398657675	2.244854	1.4982836
21.16092202996488	2.2399042	1.4966309
21.17875217947867	2.2436807	1.4978921
21.19658284767596	2.25453	1.5015092
21.21441403503377	2.222659	1.4908586
21.232245742029225	2.2101402	1.486654
21.2500779691396	2.2186902	1.4895269
21.26791071684227	2.2244987	1.4914753
21.28574398561475	2.2154715	1.488446
21.30357777593465	2.1882575	1.479276
21.321412088279704	2.1943414	1.481331
21.339246923127792	2.1924658	1.4806978
21.357082280956888	2.15078	1.4665538
21.3749181622451	2.1409152	1.4631866
21.392754567470647	2.1525836	1.4671686
21.41059149711187	2.1708703	1.4733874
21.42842895164726	2.1811342	1.4768664
21.446266931555378	2.1782598	1.4758929
21.464105437314945	2.177288	1.4755636
21.481944469404798	2.1517787	1.4668943
21.49978402830388	2.120338	1.456138
21.51762411449127	2.1118584	1.4532235
21.53546472844617	2.1250098	1.4577414
21.553305870647876	2.1130755	1.4536421
21.571147541575865	2.093539	1.4469067
21.58898974170967	2.0992258	1.4488705
21.60683247152899	2.113225	1.4536935
21.62467573151363	2.1035604	1.4503657
21.642519522143523	2.1101117	1.4526224
21.660363843898722	2.0833714	1.4433888
21.6782086972594	2.0736017	1.4400007
21.696054082705864	2.0690823	1.4384304
21.713900000718535	2.098583	1.4486487
21.73174645177795	2.1005363	1.4493227
21.749593436364794	2.0907292	1.4459354
21.767440954959845	2.0628889	1.4362761
21.785289008044032	2.0563293	1.4339907
21.803137596098388	2.0481317	1.4311296
21.820986719604086	2.0613153	1.4357282
21.838836379042412	2.0335095	1.4260118
21.85668657489478	2.0520432	1.4324955
21.87453730764273	2.038877	1.4278926
21.892388577767914	2.0462105	1.4304582
21.91024038575213	2.011636	1.4183215
21.928092732077285	2.0059056	1.4162999
21.945945617225426	2.0385063	1.4277626
21.963799041678694	2.0522017	1.4325508
21.981653005919398	31.378056	5.601612
21.999507510429943	78.147766	8.840122
22.01736255569286	73.10527	8.550162
22.035218142190818	4.204435	2.0504718
22.05307427040661	2.0060663	1.4163567
22.07093094082315	1.9881516	1.4100183
22.088788153923474	1.9615409	1.4005502
22.106645910190746	1.980186	1.4071908
22.12450421010827	1.9883857	1.4101013
22.142363054159464	2.0261831	1.4234406
22.16022244282787	2.0199096	1.4212352
22.178082376597164	1.9961635	1.4128565
22.195942855951145	1.9473143	1.395462
22.213803881373742	1.9283594	1.3886538
22.231665453349002	1.964401	1.4015709
22.24952757236111	1.952458	1.3973038
22.26739023889438	1.9279525	1.3885072
22.28525345343323	1.9005189	1.3785931
22.30311721646225	1.9227253	1.3866237
22.320981528466113	1.9291902	1.3889529
22.33884638992964	1.9097403	1.3819336
22.356711801337788	1.914437	1.3836318
22.37457776317561	1.9502451	1.3965118
22.392444275928337	1.9921699	1.4114425
22.410311340081282	1.9712263	1.4040037
22.428178956119904	1.9649867	1.4017798
22.446047124529805	1.9436214	1.3941382
22.46391584579669	1.9439839	1.3942683
22.481785120406414	1.9335774	1.3905313
22.49965494884496	1.9239883	1.3870791
22.51752533159841	1.9511405	1.3968323
22.53539626915302	1.9643551	1.4015546
22.553267761995137	1.9683597	1.4029825
22.571139810611264	1.9446719	1.3945149
22.589012415488025	1.9590163	1.3996487
22.60688557711216	1.9782968	1.4065194
22.624759295970566	1.9297174	1.3891428
22.642633572550263	1.8950601	1.3766118
22.660508407338362	1.8855565	1.3731557
22.67838380082217	1.9398274	1.3927768
22.696259753489077	1.9545674	1.3980584
22.714136265826614	1.9542663	1.3979508
22.73201333832246	1.9731613	1.4046926
22.74989097146439	1.9764526	1.4058636
22.76776916574035	1.9741776	1.4050543
22.785647921638393	1.9659054	1.4021075
22.803527239646712	1.9656788	1.4020267
22.82140712025363	1.9556971	1.3984624
22.839287563947593	1.9258598	1.3877535
22.85716857121719	1.922003	1.3863633
22.875050142551135	1.9364634	1.3915687
22.892932278438277	1.9381046	1.3921583
22.910814979367604	1.9243791	1.3872199
22.928698245828222	1.9311632	1.389663
22.946582078309387	1.9562914	1.3986748
22.96446647730047	1.9339492	1.390665
22.98235144329098	1.8897464	1.3746805
23.000236976770562	1.8691369	1.3671638
23.018123078229	1.8873161	1.3737962
23.03600974815619	1.8967727	1.3772337
23.053896987042194	1.8988343	1.377982
23.071784795377173	1.8992541	1.3781343
23.08967317365145	1.9282013	1.3885969
23.10756212235546	1.9437636	1.3941892
23.125451641979787	1.9522711	1.397237
23.143341733015134	1.9893252	1.4104344
23.161232395952357	1.9806439	1.4073535
23.179123631282426	1.9428974	1.3938786
23.197015439496468	1.9234307	1.386878
23.214907821085717	1.9131045	1.3831502
23.23280077654157	1.948085	1.3957381
23.250694306355538	1.9528058	1.3974283
23.268588411019277	1.9540677	1.3978797
23.28648309102458	1.9117984	1.3826779
23.304378346863356	1.910147	1.3820807
23.322274179027676	1.9010657	1.3787915
23.340170588009723	1.9285583	1.3887254
23.358067574301852	1.9513003	1.3968894
23.37596513839651	1.9606167	1.4002203
23.39386328078629	1.9394872	1.3926548
23.411762001963947	1.9170557	1.3845779
23.429661302422353	1.9175465	1.384755
23.4475611826545	1.9374183	1.3919117
23.46546164315356	1.981276	1.4075781
23.48336268441279	2.0082233	1.417118
23.501264306925638	1.9842408	1.4086308
23.51916651118564	1.9747779	1.405268
23.537069297686497	1.9842411	1.408631
23.554972666922037	1.9465239	1.3951788
23.57287661938623	1.9213351	1.3861223
23.59078115557318	1.8770747	1.3700638
23.608686275977128	1.8997943	1.3783302
23.62659198109246	1.9141246	1.3835189
23.6444982714137	1.936871	1.3917152
23.66240514743549	1.9071529	1.3809971
23.68031260965263	1.9156345	1.3840644
23.698220658560068	1.9121121	1.3827914
23.716129294652845	1.9327892	1.390248
23.7340385184262	1.9451348	1.3946809
23.75194833037546	1.9656714	1.402024
23.769858730996123	1.9514561	1.3969452
23.78776972078382	1.9149404	1.3838137
23.80568130023431	1.8681264	1.3667942
23.823593469843495	1.87734	1.3701606
23.841506230107424	1.8787215	1.3706646
23.859419581522275	1.856971	1.3627073
23.87733352458438	1.825236	1.351013
23.89524805979019	1.8658569	1.3659637
23.913163187636318	1.9146655	1.3837143
23.931078908619508	1.9951289	1.4124902
23.948995223236633	2.017417	1.4203581
23.966912131984735	2.028521	1.4242616
23.98482963536096	2.0356507	1.4267623
24.002747733862616	2.0119357	1.4184272
24.020666427987155	1.992737	1.4116434
24.038585718232156	2.0153794	1.4196405
24.056505605095353	2.041773	1.4289062
24.074426089074617	2.0754526	1.4406431
24.092347170667946	2.1084845	1.4520621
24.110268850373515	2.1057985	1.451137
24.128191128689586	2.1186612	1.4555621
24.146114006114626	2.1330225	1.4604871
24.164037483147187	2.1438854	1.4642013
24.181961560286005	2.1164052	1.454787
24.199886238029926	2.1274948	1.4585935
24.21781151687797	2.132527	1.4603175
24.235737397329274	2.0770373	1.441193
24.253663879883135	1.9757212	1.4056035
24.271590965038975	1.9652349	1.4018683
24.289518653296376	2.039004	1.427937
24.30744694515505	2.109505	1.4524134
24.32537584111486	2.07696	1.4411663
24.34330534167581	2.093306	1.4468262
24.361235447338046	2.104924	1.4508356
24.379166158601876	2.0501683	1.4318409
24.39709747596772	2.0136616	1.4190354
24.41502939993615	2.0075333	1.4168745
24.432961931007917	2.0161796	1.4199224
24.450895069683856	2.010001	1.417745
24.468828816465	2.0161386	1.4199079
24.4867631718525	2.0528367	1.4327724
24.504698136347656	2.0680373	1.4380672
24.52263371045192	2.0582457	1.4346588
24.540569894666874	2.004923	1.415953
24.558506689494266	1.9338775	1.3906392
24.57644409543597	1.9362245	1.3914828
24.594382112994012	1.9779034	1.4063796
24.61232074267057	1.9905834	1.4108803
24.630259984967953	1.9714054	1.4040674
24.64819984038863	1.9845434	1.4087383
24.66614030943522	1.9967194	1.4130532
24.684081392610462	1.9669683	1.4024864
24.702023090417274	1.9375494	1.3919588
24.7199654033587	1.9501152	1.3964653
24.737908331937927	1.986047	1.4092718
24.755851876658305	2.009337	1.4175109
24.773796038023324	2.0445313	1.4298711
24.79174081653661	2.08101	1.4425707
24.809686212701962	2.0907924	1.4459573
24.827632227023294	2.0505302	1.4319673
24.8455788600047	2.0288625	1.4243815
24.8635261121504	2.0404592	1.4284464
24.88147398396475	2.046378	1.4305166
24.899422475952303	2.0702538	1.4388376
24.917371588617698	2.1004314	1.4492866
24.935321322465768	2.1461482	1.4649738
24.953271678001478	2.218341	1.4894097
24.97122265572994	2.3687766	1.539083
24.989174256156414	2.7091506	1.6459497
25.00712647978632	3.1639864	1.7787598
25.02507932712521	3.7297266	1.93125
25.043032798678798	4.3171935	2.0777857
25.060986894952933	5.0120754	2.2387664
25.078941616453637	5.8031187	2.4089663
25.096896963687055	6.7246585	2.5931947
25.114852937159508	7.781645	2.78956
25.132809537377444	8.197548	2.863136
25.150766764847468	8.247155	2.871786
25.168724620076347	7.7076674	2.7762687
25.186683103570985	6.7525806	2.5985727
25.204642215838426	5.6319194	2.3731666
25.222601957385894	4.2893786	2.0710814
25.24056232872074	3.2771773	1.8102976
25.25852333035048	2.6738365	1.635187
25.276484962782778	2.2941692	1.5146515
25.294447226525435	2.1479187	1.465578
25.312410122086423	2.0732057	1.4398631
25.330373649973843	2.0594432	1.435076
25.348337810695988	2.0207827	1.4215424
25.366302604761245	1.9774809	1.4062293
25.384268032678207	1.9024397	1.3792896
25.40223409495558	1.8782278	1.3704845
25.420200792102257	1.920019	1.3856475
25.438168124627246	1.8871918	1.373751
25.45613609303974	1.8522607	1.3609779
25.474104697849057	1.8280057	1.3520375
25.492073939564698	1.838331	1.3558507
25.510043818696285	1.851439	1.3606759
25.528014335753614	1.8948741	1.3765442
25.54598549124664	1.9113666	1.3825219
25.56395728568544	1.8943412	1.3763506
25.58192971958028	1.8845382	1.3727849
25.59990279344156	1.8747998	1.3692333
25.617876507779833	1.863571	1.3651267
25.635850863105826	1.8237734	1.3504715
25.653825859930386	1.8272882	1.3517722
25.671801498764548	1.8519313	1.3608569
25.68977778011949	1.9140472	1.3834909
25.707754704506524	1.8971857	1.3773836
25.725732272437153	1.8777992	1.3703281
25.743710484423012	1.872692	1.3684634
25.761689340975888	1.9130416	1.3831275
25.77966884260774	1.8838811	1.3725455
25.797648989830662	1.9219381	1.3863398
25.815629783156922	1.9110278	1.3823993
25.83361122309895	1.8454504	1.3584735
25.85159331016929	1.8043045	1.343244
25.869576044880695	1.8010601	1.3420358
25.887559427746034	1.8403271	1.3565866
25.90554345927836	1.8266052	1.3515196
25.92352813999086	1.842656	1.3574446
25.94151347039689	1.8661562	1.3660733
25.959499451009965	1.8503797	1.3602866
25.97748608234374	1.8319502	1.3534956
25.995473364912062	1.8404036	1.3566147
26.013461299228904	1.8760494	1.3696896
26.03144988580839	1.9074968	1.3811216
26.04943912516483	1.887571	1.373889
26.067429017812675	1.826348	1.3514245
26.085419564266537	1.7927985	1.3389542
26.103410765041186	1.8089674	1.3449786
26.12140262065155	1.8083103	1.3447343
26.139395131612723	1.8061131	1.3439171
26.157388298439948	1.80954	1.3451915
26.17538212164861	1.8306413	1.353012
26.193376601754295	1.8720086	1.3682137
26.211371739272714	1.8801183	1.3711741
26.229367534719746	1.8679392	1.3667257
26.247363988611433	1.8322783	1.3536167
26.26536110146397	1.8607168	1.3640809
26.283358873793727	1.8820211	1.3718678
26.301357306117204	1.8656695	1.3658952
26.319356398951104	1.8685025	1.3669318
26.33735615281224	1.8768003	1.3699636
26.35535656821762	1.8739159	1.3689104
26.373357645684404	1.8403658	1.3566008
26.39135938572991	1.8093182	1.345109
26.409361788871614	1.8252366	1.3510132
26.427364855627165	1.835672	1.3548697
26.445368586514352	1.8028678	1.3427091
26.46337298205115	1.8036877	1.3430144
26.48137804275568	1.7778251	1.3333511
26.499383769146217	1.7624041	1.3275557
26.517390161741215	1.7606897	1.3269099
26.53539722105928	1.7748082	1.3322192
26.553404947619182	1.7901828	1.3379772
26.571413341939856	1.7889948	1.3375331
26.589422404540397	1.7926726	1.3389072
26.60743213594006	1.826141	1.3513478
26.62544253665827	1.8867437	1.3735878
26.64345360721459	1.8467354	1.3589464
26.66146534812879	1.8368578	1.3553072
26.679477759920758	1.8147476	1.3471256
26.69749084311057	1.801571	1.3422261
26.71550459821847	1.7906656	1.3381575
26.733519025764842	1.8203003	1.3491851
26.751534126270258	1.8077973	1.3445436
26.769549900255434	1.8161606	1.34765
26.787566348241267	1.8177758	1.3482492
26.80558347074881	1.8154962	1.3474035
26.823601268299267	1.7862486	1.3365061
26.841619741414036	1.7764238	1.3328255
26.85963889061465	1.7787917	1.3337135
26.877658716422832	1.7910849	1.3383142
26.89567921936045	1.8058915	1.3438346
26.913700399949544	1.8242811	1.3506595
26.93172225871233	1.8339798	1.3542451
26.949744796171174	1.8206824	1.3493266
26.967768012848605	1.810861	1.3456824
26.98579190926733	1.7848841	1.3359956
27.003816485950225	1.7952151	1.3398564
27.021841743420318	1.8085214	1.3448128
27.039867682200814	1.8121679	1.3461678
27.057894302815072	1.7933472	1.3391591
27.07592160578664	1.7996701	1.3415178
27.0939495916392	1.7583743	1.326037
27.111978260896635	1.7808307	1.3344777
27.13000761408296	1.857096	1.362753
27.148037651722397	1.9421278	1.3936025
27.166068374339304	1.893171	1.3759255
27.184099782458215	1.8608106	1.3641154
27.20213187660384	1.82664	1.3515325
27.22016465730105	1.7695807	1.3302559
27.23819812507487	1.7850609	1.3360617
27.256232280450533	1.8251911	1.3509964
27.274267123953383	1.827317	1.3517829
27.292302656108987	1.780829	1.3344771
27.31033887744306	1.7863958	1.3365612
27.32837578848146	1.8293816	1.3525463
27.34641338975026	1.8470831	1.3590744
27.364451681775673	1.8559017	1.3623148
27.382490665084074	1.8456562	1.3585492
27.400530340202046	1.8498433	1.3600894
27.41857070765629	1.8362292	1.3550754
27.436611767973726	1.7998145	1.3415717
27.454653521681404	1.7673635	1.3294222
27.472695969306564	1.7999437	1.3416198
27.490739111376627	1.7831284	1.3353384
27.508782948419153	1.7941433	1.3394563
27.526827480961902	1.7913694	1.3384205
27.54487270953279	1.7978121	1.3408252
27.562918634659898	1.7432897	1.3203369
27.580965256871508	1.7105014	1.3078614
27.599012576696026	1.7368789	1.317907
27.617060594662068	1.7462331	1.3214512
27.63510931129842	1.7460587	1.3213851
27.65315872713401	1.7845199	1.3358593
27.67120884269797	1.8466387	1.3589108
27.68925965851958	1.8453976	1.3584541
27.707311175128307	1.8827147	1.3721205
27.725363393053787	1.9021142	1.3791715
27.74341631282583	1.8741949	1.3690124
27.7614699349744	1.8957431	1.3768599
27.77952426002968	2.0957944	1.4476858
27.797579288521973	2.1535292	1.4674908
27.815635020981784	2.5698454	1.6030737
27.83369145793979	2.6406875	1.6250192
27.85174859992682	2.4957223	1.5797855
27.869806447473923	2.3548317	1.5345461
27.887865001112267	2.0628746	1.4362711
27.905924261373233	1.9837942	1.4084723
27.92398422878836	1.9204866	1.3858162
27.94204490388936	1.8921365	1.3755496
27.96010628720813	1.8677473	1.3666555
27.978168379276728	1.8542234	1.3616987
27.9962311806274	1.872467	1.3683811
28.014294691792568	1.8800575	1.3711519
28.0323589133048	1.899997	1.3784038
28.050423845696887	1.948506	1.3958889
28.068489489501758	1.9546747	1.3980968
28.086555845252523	1.9279588	1.3885096
28.104622913482487	1.8828651	1.3721753
28.122690694725115	1.8674	1.3665285
28.14075918951405	1.8771286	1.3700835
28.15882839838312	1.9164175	1.3843473
28.176898321866304	1.9528693	1.397451
28.1949689604978	1.919098	1.3853152
28.213040314811945	1.8811244	1.3715409
28.23111238534327	1.8128104	1.3464065
28.249185172626493	1.9014019	1.3789133
28.267258677196473	1.9726477	1.4045098
28.285332899588294	1.9875654	1.4098104
28.303407840337172	1.9759935	1.4057003
28.321483499978545	1.9514421	1.3969402
28.33955987904799	1.9187994	1.3852073
28.357636978081285	1.8971664	1.3773767
28.37571479761439	1.9118696	1.3827038
28.393793338183425	1.963614	1.40129
28.41187260032469	1.9714414	1.4040803
28.429952584574686	1.9780983	1.4064488
28.448033291470065	1.9304696	1.3894134
28.46611472154769	1.9601582	1.4000565
28.484196875344566	1.9991015	1.4138958
28.502279753397914	2.0096939	1.4176368
28.52036335624511	1.9769218	1.4060305
28.538447684423716	1.9828074	1.408122
28.556532738471482	1.9944621	1.4122542
28.574618518926325	1.960903	1.4003224
28.59270502632635	2.0147898	1.4194329
28.61079226120985	2.0657806	1.4372823
28.628880224115274	2.0405638	1.428483
28.646968915581287	1.9986136	1.4137233
28.66505833614671	2.0005157	1.4143959
28.68314848635055	2.0234184	1.4224691
28.701239366732004	2.0738955	1.4401026
28.71933097783044	2.0778625	1.4414793
28.737423320185403	2.0693257	1.4385151
28.75551639433665	2.077435	1.441331
28.773610200824074	2.1114237	1.4530739
28.791704740187793	2.129053	1.4591275
28.80980001296809	2.126501	1.4582528
28.827896019705413	2.186673	1.4787403
28.845992760940433	2.1689467	1.4727345
28.86409023721397	2.1347342	1.4610729
28.88218844906704	2.1594343	1.4695014
28.900287397040845	2.2648935	1.5049564
28.918387081676755	2.3310072	1.5267637
28.936487503516343	2.3501036	1.5330048
28.954588663101365	2.2976751	1.5158085
28.97269056097374	2.3568654	1.5352086
28.990793197675597	2.4161599	1.5544002
29.00889657374923	2.4256108	1.5574373
29.027000689737125	2.3561714	1.5349826
29.04510554618196	2.3504164	1.5331068
29.06321114362659	2.4251175	1.5572789
29.08131748261405	2.4788134	1.5744247
29.099424563687567	2.5819476	1.606844
29.11753238739057	2.6300068	1.6217296
29.13564095426663	2.6618712	1.6315242
29.15375026485954	2.6461384	1.6266955
29.171860319713275	2.6191623	1.6183826
29.18997111937199	2.599908	1.6124231
29.20808266438002	2.661888	1.6315293
29.226194955281898	2.7352848	1.6538696
29.244307992622335	2.8339005	1.6834192
29.26242177694624	2.8633275	1.692137
29.2805363087987	2.9061995	1.7047579
29.29865158872498	3.0094657	1.7347811
29.316767617270557	3.0320983	1.7412921
29.334884394981064	3.0253298	1.7393476
29.353001922402367	3.0592835	1.7490808
29.37112020008047	3.1037343	1.7617419
29.389239228561596	3.1444273	1.7732533
29.407359008392152	3.3268182	1.8239567
29.42547954011872	3.6815686	1.9187415
29.44360082428809	4.287254	2.0705686
29.46172286144722	5.3132453	2.3050478
29.479845652143283	6.858204	2.6188173
29.497969196923606	8.881099	2.9801173
29.516093496335728	11.448515	3.3835654
29.5342185509274	14.251031	3.7750537
29.55234436124651	16.516472	4.0640464
29.570470927841175	17.920183	4.233224
29.588598251259686	17.811216	4.2203336
29.60672633205055	16.709143	4.087682
29.624855170762405	14.469323	3.8038564
29.642984767944146	11.678051	3.4173164
29.66111512414481	8.865378	2.9774785
29.67924623991366	6.675335	2.583667
29.697378115800138	5.126787	2.264241
29.71551075235387	4.1860113	2.0459745
29.733644150124675	3.7834318	1.9451046
29.751778309662576	3.6747143	1.9169544
29.769913231517766	3.6212628	1.9029616
29.78804891624066	3.4602096	1.8601638
29.806185364381818	3.323477	1.8230406
29.82432257649206	3.2794216	1.8109174
29.842460553122333	3.2733953	1.8092527
29.86059929482382	3.360067	1.8330486
29.878738802147872	3.3720038	1.8363017
29.896879075646048	3.3151982	1.8207686
29.915020115870114	3.2263467	1.7962034
29.933161923371976	3.2031348	1.7897303
29.951304498703777	3.218727	1.7940811
29.969447842417857	3.1769269	1.7823936
29.987591955066733	3.2488632	1.8024603
30.005736837203123	3.2071948	1.7908642
30.023882489379943	3.1619527	1.778188
30.04202891215028	3.1448026	1.7733592
30.060176106067455	3.1657233	1.779248
30.078324071684946	3.090065	1.757858
30.09647280955646	3.0857852	1.7566403
30.114622320235863	3.1265073	1.7681932
30.132772604277257	3.1391213	1.7717565
30.1509236622349	3.1985052	1.7884365
30.16907549466328	3.1592476	1.7774272
30.18722810211705	3.1152303	1.7650015
30.205381485151097	3.0973194	1.7599202
30.22353564432045	3.0916505	1.758309
30.241690580180403	3.028019	1.7401204
30.25984629328638	3.0619953	1.7498558
30.278002784194037	3.0304008	1.7408047
30.296160053459246	3.0113895	1.7353356
30.314318101638033	2.9825993	1.7270204
30.332476929286646	2.9800844	1.7262921
30.35063653696153	3.028672	1.740308
30.368796925219307	3.042438	1.7442586
30.386958094616844	3.0168817	1.7369173
30.40512004571115	2.9246445	1.7101592
30.423282779059463	2.8775632	1.6963382
30.441446295219233	2.8508215	1.6884376
30.459610594748067	2.8984268	1.7024766
30.47777567820382	2.9004922	1.7030832
30.495941546144504	2.940168	1.7146918
30.51410819912835	2.9373093	1.713858
30.532275637713795	2.902389	1.70364
30.55044386245946	2.877678	1.696372
30.56861287392416	2.8323424	1.6829565
30.586782672666956	2.7568133	1.6603655
30.604953259247047	2.7810545	1.6676494
30.623124634223885	2.7467506	1.6573324
30.641296798157075	2.7210767	1.6495687
30.659469751606462	2.7296898	1.6521773
30.677643495132074	2.7317097	1.6527885
30.695818029294152	2.7294066	1.6520916
30.713993354653116	2.7436645	1.656401
30.73216947176962	2.729581	1.6521444
30.75034638120448	2.7871885	1.6694875
30.768524083518756	2.7548923	1.6597868
30.786702579273673	2.817141	1.6784341
30.80488186903069	2.807903	1.6756799
30.82306195335144	2.882796	1.6978799
30.841242832797782	3.0584095	1.7488309
30.85942450793176	3.3699594	1.8357449
30.877606979315637	3.68943	1.9207889
30.895790247511883	4.0150223	2.003752
30.913974313083134	4.425245	2.1036265
30.932159176592283	4.7924023	2.1891556
30.95034483860237	4.8639903	2.2054455
30.968531299676698	4.6622987	2.1592357
30.98671856037873	4.3321857	2.0813904
31.00490662127215	3.962807	1.99068
31.023095482920848	3.5390527	1.881237
31.04128514588892	3.1605358	1.7777896
31.059475610740662	2.8033493	1.6743206
31.07766687804056	2.569694	1.6030265
31.09585894835335	2.4639494	1.5696973
31.11405182224393	2.4505386	1.5654197
31.132245500277417	2.470105	1.5716567
31.15043998301914	2.5127244	1.5851575
31.168635271034628	2.5088394	1.5839316
31.18683136488964	2.4095879	1.5522847
31.20502826515008	2.3659523	1.5381652
31.223225972382135	2.3588839	1.5358658
31.241424487152155	2.4489381	1.5649084
31.259623810026692	2.5533125	1.5979089
31.27782394157253	2.5715601	1.6036085
31.296024882356644	2.5577538	1.5992979
31.314226632946237	2.5365927	1.5926684
31.332429193908684	2.509801	1.5842351
31.350632565811598	2.4492416	1.5650053
31.368836749222787	2.419099	1.5553453
31.387041744710295	2.4711044	1.5719746
31.40524755284232	2.468645	1.5711923
31.423454174187317	2.4661105	1.5703855
31.441661609313922	2.445648	1.5638567
31.459869858791002	2.3894048	1.5457699
31.478078923187628	2.33588	1.5283586
31.496288803073064	2.3397326	1.5296185
31.514499499016807	2.3017058	1.5171374
31.532711011588546	2.2699904	1.5066488
31.550923341358178	2.276367	1.5087634
31.56913648889584	2.3527148	1.5338562
31.587350454771844	2.348766	1.5325685
31.605565239556732	2.3962657	1.5479877
31.62378084382127	2.433427	1.5599446
31.641997268136382	2.38011	1.5427605
31.660214513073274	2.3544326	1.5344161
31.67843257920331	2.335922	1.5283723
31.6966514670981	2.392778	1.5468607
31.71487117732944	2.416521	1.5545163
31.733091710469346	2.3384373	1.529195
31.751313067090052	2.2343757	1.4947828
31.769535247764008	2.260066	1.5033516
31.787758253063878	2.2946787	1.5148197
31.805982083562526	2.2526836	1.5008943
31.824206739833024	2.1940987	1.4812491
31.84243222244869	2.2355402	1.4951723
31.860658531983013	2.2751389	1.5083563
31.878885669009737	2.3177836	1.5224268
31.897113634102784	2.285282	1.5117149
31.91534242783632	2.2437673	1.497921
31.933572050784694	2.213511	1.4877872
31.951802503522508	2.239937	1.4966419
31.970033786624548	2.2195027	1.4897995
31.988265900665834	2.2317402	1.493901
32.006498846221575	2.1900048	1.4798665
32.02473262386724	2.1792412	1.4762253
32.04296723417845	2.1527092	1.4672114
32.0612026777311	2.16493	1.4713701
32.07943895510129	2.0912158	1.4461037
32.097676066865304	2.1104414	1.4527359
32.115914013599685	2.1304214	1.4595963
32.13415279588115	2.1249955	1.4577364
32.152392414286666	2.1339679	1.4608107
32.1706328693934	2.2228494	1.4909223
32.18887416177875	2.1674504	1.4722264
32.20711629202032	2.132145	1.4601866
32.225359260695924	2.0988336	1.4487351
32.243603068383614	2.127988	1.4587625
32.26184771566166	2.163691	1.470949
32.28009320310852	2.1961763	1.4819502
32.2983395313029	2.192824	1.4808186
32.31658670082372	2.2481363	1.4993787
32.33483471225012	2.2558472	1.5019478
32.35308356616143	2.2578182	1.5026038
32.371333263137245	2.197698	1.4824635
32.38958380375734	2.1615424	1.4702185
32.407835188601744	2.143452	1.4640533
32.42608741825067	2.1538045	1.4675846
32.444340493284585	2.1357894	1.461434
32.46259441428416	2.0552347	1.433609
32.48084918183028	2.085139	1.4440011
32.49910479650405	2.104537	1.4507022
32.51736125888683	2.1476526	1.4654871
32.53561856956014	2.128952	1.4590929
32.5538767291058	2.13042	1.4595958
32.572135738105764	2.1084712	1.4520576
32.59039559714228	2.0656168	1.4372253
32.608656306797776	2.104498	1.4506887
32.62691786765491	2.0962822	1.4478544
32.645180280296586	2.0397778	1.4282079
32.663443545305896	1.9599737	1.3999906
32.68170766326619	1.9798403	1.407068
32.69997263476099	2.0356524	1.4267629
32.7182384603741	2.0735853	1.4399949
32.7365051406895	2.0982435	1.4485315
32.75477267629144	2.082863	1.4432127
32.77304106776434	2.1665518	1.4719211
32.79131031569289	2.2289557	1.4929688
32.809580420661966	2.1892931	1.479626
32.827851383256714	2.1493795	1.4660763
32.84612320406245	2.1352525	1.4612503
32.86439588366476	2.0351746	1.4265954
32.88266942264945	1.9691539	1.4032655
32.9009438216025	1.9053874	1.3803577
32.9192190811102	1.9088887	1.3816254
32.937495201758985	2.0324407	1.4256369
32.95577218413556	2.1200194	1.4560287
32.974050028826866	2.083121	1.4433022
32.992328736420035	2.025045	1.4230407
33.010608307502444	2.0532436	1.4329144
33.02888874266169	2.1654224	1.4715375
33.047170042485604	2.1646972	1.471291
33.06545220756225	2.0736516	1.4400179
33.083735238479896	1.9840932	1.4085784
33.10201913582707	1.9552093	1.398288
33.12030390019248	1.9968144	1.4130868
33.138589532165135	2.0048776	1.415937
33.15687603233419	2.0217402	1.421879
33.17516340128909	2.0416954	1.428879
33.19345163961947	2.119335	1.4557936
33.211740747915215	2.210644	1.4868234
33.23003072676643	2.1487036	1.4658457
33.248321576763466	2.0198464	1.421213
33.266613298496885	1.9147686	1.3837516
33.28490589255747	1.9066281	1.380807
33.30319935953626	1.9020258	1.3791395
33.32149370002451	1.874336	1.369064
33.339788914613706	1.9633797	1.4012065
33.358085003895575	2.0675094	1.4378836
33.376381968462034	2.071284	1.4391956
33.39467980890529	2.0185547	1.4207585
33.41297852581774	1.8013277	1.3421355
33.43127811979204	1.7669797	1.3292779
33.44957859142105	1.8637816	1.3652039
33.467879941297866	1.840059	1.3564878
33.486182170015844	1.8270237	1.3516744
33.50448527816853	1.8798488	1.3710757
33.522789266349754	1.9152737	1.3839341
33.541094135153514	1.8270075	1.3516685
33.55939988517411	1.7564317	1.3253044
33.57770651700602	1.8858799	1.3732734
33.59601403124398	1.9901831	1.4107385
33.61432242848296	2.0061326	1.41638
33.632631709318154	2.030162	1.4248376
33.650941874344994	2.065891	1.4373208
33.66925292415916	1.9807138	1.4073783
33.68756485935654	1.9431508	1.3939694
33.70587768053328	1.961378	1.4004921
33.724191388285746	1.9774354	1.4062132
33.74250598321054	2.0513465	1.4322523
33.760821465904506	1.9906585	1.410907
33.77913783696474	1.9503385	1.3965452
33.79745509698852	1.9295503	1.3890826
33.815773246573414	1.9793967	1.4069103
33.8340922863172	1.9709872	1.4039185
33.852412216817896	2.0064108	1.4164783
33.87073303867377	2.0572753	1.4343204
33.889054752483304	2.0723996	1.4395832
33.907377358845245	2.100182	1.4492005
33.92570085835853	2.1083925	1.4520304
33.94402525162239	2.0516841	1.4323701
33.96235053923627	1.893139	1.3759139
33.980676721799824	1.8300382	1.352789
33.999003799912984	1.821788	1.3497362
34.01733177417592	1.7990588	1.34129
34.03566064518901	1.8278519	1.3519807
34.0539904135529	1.9682884	1.4029571
34.07232107986846	2.0730395	1.4398054
34.090652644736785	2.0950222	1.4474192
34.108985108759235	2.0498388	1.4317259
34.12731847253742	1.9686753	1.4030949
34.14565273667313	1.9398259	1.3927764
34.16398790176847	1.9924865	1.4115546
34.18232396842574	1.9714506	1.4040835
34.20066093724749	1.9259521	1.3877867
34.21899880883651	1.9924783	1.4115517
34.23733758379583	1.9838511	1.4084924
34.25567726272874	1.971696	1.404171
34.27401784623872	2.032673	1.4257184
34.29235933492957	2.063787	1.4365886
34.31070172940526	1.9762478	1.4057908
34.32904503027003	1.9486254	1.3959317
34.347389238128386	1.9522996	1.3972472
34.36573435358502	1.9140505	1.3834921
34.38408037724492	1.9473101	1.3954605
34.402427309713296	1.964829	1.4017236
34.42077515159559	2.0540364	1.433191
34.43912390349752	1.8769372	1.3700136
34.45747356602499	1.7849042	1.3360031
34.47582413978423	1.8513206	1.3606324
34.49417562538163	1.8472695	1.3591429
34.51252802342388	1.865908	1.3659824
34.53088133451789	1.922953	1.3867058
34.54923555927084	1.9297625	1.389159
34.567590698290104	1.8443369	1.3580637
34.58594675218336	1.8726153	1.3684354
34.6043037215585	1.8521986	1.360955
34.62266160702365	1.8523709	1.3610183
34.641020409187234	1.7850406	1.3360541
34.65938012865785	1.973394	1.4047754
34.677740766044394	2.0993185	1.4489025
34.69610232195598	2.0233169	1.4224334
34.714464797002016	2.0409577	1.4286209
34.73282819179208	2.0438805	1.4296435
34.751192506936064	2.1559408	1.4683123
34.76955774304408	2.1902983	1.4799657
34.7879239007265	1.9925976	1.411594
34.80629098059391	1.8325256	1.3537081
34.824658983257194	1.8243141	1.3506718
34.843027909327446	1.9931053	1.4117738
34.86139775941603	2.1661844	1.4717963
34.879768534134534	2.1237037	1.4572933
34.89814023409483	1.9361393	1.3914522
34.91651285990901	1.8584998	1.363268
34.93488641218944	1.9498093	1.3963557
34.95326089154871	2.029573	1.4246308
34.97163629859967	1.8976449	1.3775504
34.99001263395542	1.8018025	1.3423123
35.00838989822934	1.8160931	1.347625
35.02676809203499	1.884998	1.3729522
35.04514721598624	1.9686612	1.4030899
35.063527270697215	1.9277277	1.3884263
35.081908256782256	1.7806593	1.3344135
35.10029017485597	1.7887044	1.3374245
35.11867302553321	2.024015	1.4226788
35.137056809429104	2.0543141	1.4332879
35.155441527159006	2.080548	1.4424105
35.173827179338524	2.234582	1.4948518
35.19221376658354	2.275295	1.5084081
35.21060128951017	2.166951	1.4720567
35.2289897487348	1.9914188	1.4111764
35.24737914487405	1.9908237	1.4109656
35.26576947854479	2.0123134	1.4185603
35.28416075036418	1.8772994	1.3701458
35.30255296094958	1.8931441	1.3759158
35.32094611091867	2.2509398	1.5003133
35.33934020088932	2.1951604	1.4816073
35.35773523147969	1.9463028	1.3950995
35.3761312033082	1.9190775	1.3853078
35.394528116993506	2.0026374	1.4151458
35.41292597315452	1.8663623	1.3661487
35.431324772410434	1.8714396	1.3680058
35.449724515380666	1.9153697	1.3839688
35.46812520268491	1.8595262	1.3636445
35.486526834943106	1.7697523	1.3303204
35.504929412775454	1.9005319	1.3785979
35.52333293680242	1.9234614	1.3868891
35.54173740764471	1.953312	1.3976094
35.560142825923286	2.2033098	1.484355
35.5785491922594	2.2286985	1.4928826
35.59695650727454	1.6070013	1.2676755
35.61536477159042	0.6149216	0.7841694
