0.008763373481513119	0.0	0.0
0.026290120649546365	0.14626539	0.3824466
0.043816868432600686	0.1255995	0.3544002
0.06134361724069026	0.1694735	0.41167158
0.07887036748382949	0.17727605	0.4210416
0.0963971195720331	0.11185448	0.33444652
0.11392387391531617	0.21141416	0.45979795
0.1314506309236943	0.23848876	0.4883531
0.1489773910071836	0.29885274	0.54667425
0.16650415457580078	0.22011033	0.46915916
0.18403092203956356	0.17940265	0.4235595
0.20155769380849	0.19902405	0.44612113
0.2190844702925996	0.21140751	0.45979074
0.2366112519019124	0.15843742	0.39804196
0.2541380390464497	0.13850723	0.3721656
0.27166483213623416	0.13529584	0.36782584
0.28919163158128947	0.13743253	0.37071893
0.3067184377916406	0.09554417	0.3091022
0.324245251177314	0.088660724	0.2977595
0.34177207214833777	0.09092434	0.30153662
0.3592989011147415	0.09395111	0.30651447
0.37682573848655654	0.12011572	0.34657714
0.39435258467381573	0.14257826	0.37759537
0.41187944008655414	0.19907714	0.4461806
0.42940630513480854	0.216859	0.46568123
0.446933180228618	0.19295123	0.43926215
0.4644600657780234	0.18828203	0.43391478
0.48198696219306775	0.15799053	0.39748022
0.49951386988379676	0.21022469	0.45850265
0.5170407892602581	0.19481179	0.4413749
0.5345677207325025	0.1879058	0.43348104
0.5520946647105822	0.17173982	0.41441503
0.5696216216045534	0.17006183	0.41238552
0.5871485918244737	0.16792965	0.4097922
0.6046755757804043	0.20699911	0.45497155
0.6222025738824094	0.2094355	0.4576412
0.6397295865405557	0.20661576	0.45455006
0.6572566141649129	0.1866646	0.43204698
0.6747836571655547	0.13958563	0.3736116
0.6923107159525568	0.13079138	0.3616509
0.7098377909359992	0.14224397	0.37715244
0.7273648825259653	0.18038458	0.42471707
0.7448919911325411	0.1992817	0.4464098
0.762419117165817	0.20351695	0.4511285
0.7799462610358868	0.1746513	0.41791302
0.7974734231528482	0.17047647	0.41288796
0.8150006039268024	0.19122264	0.4372901
0.8325278037678551	0.20910758	0.4572828
0.8500550230861152	0.22927316	0.47882476
0.8675822622916969	0.22144042	0.47057456
0.8851095217947171	0.2299186	0.47949827
0.9026368020052984	0.23064679	0.480257
0.9201641033335665	0.23622334	0.48602813
0.9376914261896523	0.20577538	0.45362473
0.9552187709836915	0.2129302	0.4614436
0.9727461381258234	0.24130528	0.49122834
0.990273528026193	0.21958758	0.46860173
1.0078009410949496	0.24243239	0.49237424
1.0253283777422473	0.24946807	0.4994678
1.0428558383782454	0.31186157	0.5584457
1.0603833234131086	0.34852588	0.5903608
1.0779108332570058	0.38099304	0.6172463
1.0954383683201119	0.3703178	0.60853744
1.112965929012607	0.3791919	0.6157856
1.1304935157446763	0.46094912	0.67893237
1.1480211289265108	0.45905477	0.67753583
1.1655487689683062	1.3023154	1.1411903
1.1830764362802655	1.6601824	1.2884806
1.200604131272596	2.1270394	1.4584373
1.2181318543555117	2.397486	1.5483817
1.235659605939232	2.3924136	1.5467429
1.253187386433982	3.995733	1.998933
1.270715196249994	6.395457	2.528924
1.2882430357975057	11.920908	3.4526668
1.3057709054867608	16.644133	4.079722
1.3232988057280106	22.570564	4.750849
1.3408267369315112	27.474632	5.241625
1.358354699507526	31.56852	5.618587
1.3758826938663256	36.479893	6.039859
1.3934107204181858	38.920788	6.2386527
1.410938779573391	39.1033	6.253263
1.4284668717422309	39.04887	6.2489095
1.4459949973350033	38.17205	6.1783533
1.4635231567620117	37.86841	6.1537313
1.4810513504335687	37.05071	6.0869293
1.4985795787599925	36.69075	6.057289
1.5161078421516088	36.51597	6.0428443
1.5336361410187505	35.58213	5.965076
1.5511644757717598	35.154846	5.929152
1.5686928468209842	35.9251	5.993755
1.58622125457678	36.636303	6.052793
1.6037496994495108	38.271328	6.1863823
1.621278181849548	38.088413	6.1715813
1.6388067021872719	39.214123	6.262118
1.6563352608730693	38.591324	6.2121916
1.673863858317336	37.323284	6.1092787
1.6913924949304753	36.361122	6.0300183
1.7089211711228998	35.466812	5.955402
1.7264498873050296	34.814205	5.9003563
1.7439786438872935	33.79927	5.813714
1.7615074412801288	32.457146	5.6971173
1.779036279893981	31.525291	5.614739
1.796565160139305	30.333506	5.507586
1.814094082426564	29.660322	5.4461293
1.8316230471662298	29.27552	5.4106855
1.849152054768784	28.746084	5.3615375
1.8666811056447168	28.144777	5.3051653
1.8842102002045273	27.252075	5.220352
1.901739338858724	26.547766	5.1524525
1.9192685220178245	26.013773	5.10037
1.9367977500923557	25.15606	5.0155816
1.9543270234928547	24.501642	4.9499135
1.971856342629867	23.826857	4.881276
1.9893857079139496	23.485716	4.846206
2.006915119755667	23.276033	4.824524
2.0244445785655945	22.960361	4.791697
2.0419740847543175	22.422827	4.735275
2.0595036387324317	21.73641	4.6622324
2.0770332409105414	21.220621	4.6065845
2.094562891699263	20.970879	4.579397
2.1120925915092217	20.535933	4.531659
2.129622340751053	20.02564	4.475002
2.1471521398354043	188.3383	13.72364
2.1646819891729323	444.66965	21.08719
2.182211889174303	441.0965	21.002298
2.1997418402501974	453.4437	21.294218
2.2172718428113023	433.00998	20.808891
2.234801897268317	320.9735	17.915733
2.2523320040319548	17.33075	4.1630216
2.269862163512935	17.109814	4.136401
2.287392376121992	16.694933	4.085943
2.304922642269869	16.363977	4.0452414
2.322452962367322	16.1415	4.0176487
2.3399833368251164	15.992727	3.999091
2.357513766054032	15.94787	3.9934785
2.3750442504648586	15.5979395	3.9494226
2.3925747904683963	15.309267	3.912706
2.410105386475459	14.856506	3.854414
2.4276360388968707	14.62597	3.8243914
2.445166748143469	14.412899	3.7964325
2.4626975146261025	14.279041	3.7787619
2.4802283387556323	14.102094	3.7552755
2.4977592209429305	13.686867	3.6995766
2.5152901615988825	13.244571	3.6393092
2.5328211611343865	13.07216	3.615544
2.5503522199603523	12.860346	3.5861325
2.5678833384877024	12.793052	3.5767376
2.5854145171273712	12.672371	3.5598273
2.6029457562903064	12.47156	3.5315096
2.620477056387469	12.231479	3.497353
2.6380084178298326	11.866511	3.4447803
2.655539841028383	11.581417	3.4031482
2.673071326394119	11.4699135	3.3867261
2.6906028743380523	11.361212	3.3706396
2.708134485271211	11.366768	3.3714638
2.7256661596046325	11.1589155	3.3404963
2.743197897749369	10.772193	3.2821019
2.760729700116486	10.639539	3.2618306
2.778261567117063	10.516822	3.242965
2.795793499162193	10.588243	3.253958
2.8133254966629817	10.50414	3.241009
2.830857560030551	10.373029	3.2207186
2.8483896896760337	10.087268	3.176046
2.865921886010578	9.68141	3.1114964
2.883454149445347	9.49196	3.0809023
2.9009864803915177	9.404839	3.066731
2.91851887926028	9.323609	3.0534587
2.9360513464628384	9.228042	3.037769
2.953583882410413	9.084834	3.0141058
2.9711164875142373	8.908757	2.984754
2.9886491621855606	8.866058	2.9775927
3.0061819068356455	8.6932125	2.9484255
3.023714721875769	8.583104	2.9296935
3.041247607717225	8.448114	2.906564
3.0587805647713213	8.469541	2.9102476
3.0763135934493806	8.402317	2.898675
3.0938466941627407	8.316953	2.8839128
3.1113798673227544	8.228896	2.8686054
3.1289131133407904	8.186356	2.8611808
3.1464464326282315	8.08875	2.8440728
3.1639798255964786	7.915023	2.813365
3.1815132926569443	7.7238336	2.7791786
3.1990468342210603	7.5957446	2.756038
3.216580450700272	7.495443	2.7377806
3.2341141425060416	7.387092	2.7179205
3.251647910049847	7.396512	2.719653
3.2691817537431813	7.489149	2.736631
3.286715673997555	7.465258	2.7322624
3.3042496712244938	7.3495235	2.7110004
3.32178374583554	7.132831	2.670736
3.339317898242251	7.0227747	2.6500518
3.3568521288562034	6.914406	2.6295257
3.3743864380889876	6.9107614	2.6288328
3.3919208263522127	6.906827	2.6280842
3.4094552940575023	6.9182425	2.6302552
3.4269898416164972	6.7674637	2.601435
3.444524469440858	6.639013	2.5766282
3.4620591779422587	6.5507145	2.5594363
3.479593967532391	6.4966345	2.5488496
3.4971288386229658	6.5167937	2.5528011
3.5146637916257086	6.4351025	2.5367503
3.5321988269523628	6.5002575	2.5495603
3.5497339450146903	6.585583	2.566239
3.5672691462244708	6.5932956	2.5677414
3.5848044309934988	6.553731	2.5600257
3.60233979973359	6.4342847	2.5365891
3.619875252856575	6.4013224	2.5300834
3.6374107907743034	6.395204	2.5288742
3.6549464138986427	6.378337	2.525537
3.6724821226414788	6.351443	2.520207
3.690017917414714	6.3726244	2.5244057
3.7075537986302702	6.4631996	2.5422823
3.7250897667000857	6.52222	2.5538638
3.7426258220361235	6.707252	2.5898364
3.7601619650503553	6.946311	2.6355855
3.777698196154779	7.5011234	2.738818
3.7952345157614067	8.571347	2.9276862
3.8127709242822716	9.4016285	3.0662074
3.830307422129425	11.576765	3.4024646
3.847844009714936	30.277292	5.5024805
3.8653806874508954	97.73254	9.885977
3.882917455749409	96.99992	9.848854
3.900454315022606	96.94426	9.846027
3.917991265682631	41.523396	6.443865
3.9355283081416506	11.268917	3.3569207
3.9530654428118495	9.027841	3.0046365
3.970602670105433	7.775305	2.7884233
3.9881399904346244	6.7180486	2.59192
4.005677404211669	6.529966	2.5553799
4.023214911848827	6.5939684	2.5678723
4.0407525137583855	6.656534	2.580026
4.058290210352644	6.7111583	2.5905902
4.075828002043927	6.5675054	2.5627143
4.0933658892445814	6.4579597	2.5412517
4.110903872366966	6.4114623	2.5320866
4.128441951823468	6.3581247	2.5215323
4.145980128026488	6.3364377	2.5172281
4.163518401388452	6.2821455	2.5064209
4.181056772321807	6.269584	2.5039139
4.1985952412390155	6.2311707	2.4962313
4.216133808552567	6.304183	2.5108132
4.233672474674966	6.327134	2.5153794
4.251211240018741	6.548884	2.5590787
4.268750104996445	6.7720666	2.6023195
4.286289070020643	7.7088346	2.7764788
4.303828135503928	9.370708	3.0611613
4.3213673018589125	29.648699	5.4450617
4.3389065694982305	90.92331	9.535372
4.356445938834537	166.0864	12.887451
4.3739854102805085	171.68445	13.102841
4.391524984248844	172.59535	13.137555
4.409064661152262	136.67177	11.69067
4.426604441403504	97.053246	9.851561
4.444144325415337	76.102196	8.723658
4.461684313600543	22.213894	4.713162
4.47922440637193	22.561619	4.749907
4.496764604142329	20.793764	4.560018
4.5143049073245916	18.814598	4.3375797
4.531845316331589	16.459146	4.0569873
4.5493858315762195	13.490347	3.6729207
4.566926453471405	11.174083	3.3427658
4.584467182430081	9.2358055	3.0390468
4.602008018865218	8.307977	2.8823562
4.619548963189798	7.6882086	2.7727618
4.637090015816834	7.2535315	2.693238
4.654631177159353	7.0127106	2.6481524
4.672172447630417	6.706587	2.5897079
4.689713827643102	6.438785	2.537476
4.7072553176105085	6.1252894	2.4749322
4.724796917945764	5.945457	2.438331
4.742338629062015	5.9131308	2.431693
4.759880451372434	5.944325	2.4380987
4.777422385290215	5.8702836	2.4228668
4.794964431228581	5.822948	2.4130785
4.812506589600768	5.7915573	2.4065654
4.830048860820047	5.748102	2.39752
4.847591245299709	5.717117	2.3910494
4.8651337434530655	5.672851	2.3817747
4.882676355693457	5.6379547	2.3744378
4.900219082434242	5.64426	2.375765
4.917761924088813	5.6309466	2.3729615
4.935304881070575	5.596531	2.3656988
4.952847953792969	5.5763497	2.3614297
4.970391142669449	5.6406364	2.3750024
4.9879344481135055	5.657569	2.3785644
5.005477870538642	5.7014627	2.3877735
5.023021410358394	5.6379995	2.374447
5.040565067986324	5.5684986	2.3597667
5.05810884383601	5.452275	2.3350108
5.075652738321066	5.499011	2.344997
5.09319675185512	5.4747114	2.3398101
5.110740884851836	5.471016	2.3390203
5.128285137724894	5.399964	2.3237822
5.145829510888007	5.311961	2.3047693
5.163374004754908	5.306788	2.3036466
5.1809186197393595	5.272766	2.2962503
5.198463356255145	5.2631803	2.2941623
5.216008214716077	5.297044	2.3015308
5.233553195535998	5.279351	2.297684
5.251098299128764	5.3174863	2.3059676
5.268643525908272	5.305628	2.3033948
5.286188876288432	5.309098	2.304148
5.3037343506831895	5.2917027	2.3003702
5.32127994950651	5.2808194	2.2980034
5.3388256731723915	5.307022	2.3036976
5.356371522094851	5.303379	2.3029068
5.373917496687938	5.3053617	2.303337
5.391463597365729	5.2836647	2.2986224
5.40900982454232	5.262674	2.294052
5.426556178631843	5.201145	2.280602
5.444102660048449	5.2077737	2.2820547
5.4616492692063225	5.270278	2.2957087
5.479196006519669	5.3746305	2.318325
5.496742872402727	5.3289742	2.3084571
5.514289867269756	5.280783	2.2979956
5.531836991535049	5.2009907	2.2805681
5.549384245612924	5.138112	2.2667403
5.566931629917724	5.1906395	2.2782974
5.584479144863822	5.22798	2.2864776
5.6020267908656205	5.236769	2.2883987
5.619574568337545	5.1900115	2.2781596
5.637122477694054	5.2232957	2.285453
5.654670519349629	5.237849	2.2886348
5.672218693718784	5.2956696	2.301232
5.689767001216059	5.3756404	2.3185427
5.707315442256021	5.401564	2.3241265
5.724864017253266	5.3508334	2.313187
5.7424127266224225	5.307922	2.3038929
5.75996157077814	5.4022446	2.3242729
5.777510550135105	5.369865	2.317297
5.795059665108022	5.3032627	2.3028815
5.812608916111639	5.2114406	2.282858
5.830158303560715	5.350863	2.3131933
5.847707827870055	5.4001985	2.3238328
5.86525748945448	5.4799156	2.3409219
5.8828072887288485	5.5522904	2.35633
5.900357226108044	5.6403823	2.374949
5.917907302006979	5.724527	2.3925984
5.9354575168406	6.374856	2.5248477
5.9530078710238765	6.9838786	2.6427028
5.970558364971812	7.5277624	2.743677
5.988108999099438	7.860431	2.803646
6.005659773821818	8.463468	2.909204
6.023210689554039	8.215935	2.8663452
6.040761746711227	8.608454	2.9340167
6.058312945708531	7.9069076	2.8119223
6.075864286961132	7.3804913	2.716706
6.093415770884244	6.7132163	2.5909874
6.1109673978931065	6.2222295	2.4944396
6.128519168402993	5.581534	2.3625271
6.146071082829204	5.418843	2.3278408
6.163623141587075	5.3492756	2.31285
6.181175345091969	5.3410487	2.311071
6.198727693759281	5.354115	2.3138962
6.216280188004435	5.3255324	2.3077116
6.233832828242885	5.267452	2.295093
6.251385614890126	5.293238	2.3007038
6.268938548361669	5.2359858	2.2882276
6.286491629073067	5.1444955	2.268148
6.304044857439898	5.1021004	2.2587829
6.321598233877777	5.0341587	2.243693
6.339151758802344	5.006063	2.2374232
6.356705432629277	5.0345883	2.2437887
6.37425925577428	5.014793	2.2393734
6.391813228653095	5.064939	2.250542
6.409367351681486	5.0600877	2.2494638
6.426921625275259	5.070986	2.251885
6.44447604985025	5.080623	2.2540238
6.46203062582232	5.104841	2.2593896
6.47958535360737	5.11587	2.261829
6.497140233621328	5.224113	2.285632
6.514695266280161	5.2529426	2.29193
6.532250451999859	5.2618604	2.2938745
6.549805791196454	5.2288303	2.2866635
6.567361284286002	5.191668	2.2785232
6.584916931684597	5.1503725	2.2694433
6.602472733808367	5.1497583	2.2693079
6.6200286910734665	5.041247	2.2452722
6.637584803896092	5.060534	2.249563
6.655141072692462	5.084499	2.2548833
6.672697497878842	5.128841	2.2646945
6.690254079871514	5.127618	2.2644243
6.707810819086808	5.0848174	2.2549539
6.725367715941078	5.1381702	2.2667532
6.742924770850719	5.096215	2.2574797
6.760481984232151	5.1219273	2.2631676
6.778039356501836	5.074572	2.252681
6.795596888076266	5.06433	2.2504067
6.813154579371963	5.0409584	2.2452078
6.830712430805492	5.0714126	2.2519796
6.84827044279344	5.12742	2.2643807
6.865828615752445	5.1225166	2.2632978
6.883386950099159	5.1628766	2.2721965
6.900945446250287	5.0733027	2.2523994
6.918504104622553	5.0762305	2.2530491
6.936062925632727	5.132115	2.265417
6.953621909697607	5.1696615	2.273689
6.971181057234028	5.220456	2.2848318
6.988740368658859	5.213651	2.2833421
7.006299844389007	5.2340784	2.2878108
7.023859484841407	5.2477965	2.290807
7.041419290433036	5.3054166	2.303349
7.058979261580902	5.445483	2.333556
7.0765393987020495	5.727233	2.3931637
7.094099702213559	6.0886135	2.4675117
7.111660172532549	6.438581	2.537436
7.129220810076164	6.746337	2.597371
7.146781615261595	7.3483424	2.7107825
7.16434258850606	7.643329	2.7646573
7.181903730226821	8.118719	2.8493366
7.1994650408411704	8.229161	2.8686514
7.217026520766437	8.286259	2.8785863
7.234588170419983	8.567552	2.927038
7.252149990219215	8.586904	2.930342
7.269711980581568	8.485281	2.9129505
7.2872741419245175	8.273762	2.8764148
7.304836474665574	7.833714	2.7988772
7.322398979222286	7.4959025	2.7378645
7.339961656012233	7.2557693	2.6936536
7.357524505453039	6.8967566	2.6261678
7.375087527962357	6.6794276	2.5844588
7.392650723957886	6.362707	2.5224407
7.410214093857353	5.9818063	2.4457731
7.427777638078528	5.7322598	2.394214
7.445341357039213	5.5045	2.346167
7.4629052511572525	5.4291487	2.3300533
7.480469320850524	5.4033017	2.3245003
7.498033566536948	5.416424	2.327321
7.5155979886344735	5.3190045	2.3062968
7.5331625875610975	5.251496	2.2916143
7.550727363734844	5.2215323	2.2850673
7.568292317573788	5.2612405	2.2937393
7.585857449496025	5.201681	2.2807195
7.603422759919705	5.223872	2.2855792
7.620988249263007	5.2746763	2.2966664
7.638553917944147	5.32391	2.30736
7.656119766381391	5.321344	2.306804
7.673685794993023	5.31381	2.3051703
7.691252004197388	5.3137474	2.3051567
7.70881839441285	5.28721	2.2993934
7.726384966057826	5.248466	2.2909532
7.743951719550762	5.2606854	2.2936184
7.761518655310149	5.3479004	2.3125527
7.779085773754511	5.388294	2.32127
7.796653075302419	5.367738	2.3168378
7.814220560372475	5.320366	2.3065917
7.831788229383323	5.32507	2.3076112
7.8493560827536495	5.355103	2.3141096
7.866924120902174	5.3585505	2.3148544
7.884492344247663	5.3793	2.319332
7.9020607532089135	5.425955	2.3293679
7.919629348204771	5.477211	2.3403442
7.937198129654115	5.509865	2.34731
7.954767097975865	5.471937	2.3392172
7.972336253588986	5.4595737	2.3365731
7.989905596912472	5.388226	2.3212552
8.007475128365371	5.4413104	2.3326616
8.025044848366756	5.5256653	2.3506734
8.042614757335754	5.648044	2.3765614
8.060184855691523	5.679654	2.3832026
8.07775514385327	5.7748704	2.403096
8.095325622240228	5.8254757	2.413602
8.112896291271687	5.9103327	2.4311175
8.130467151366968	5.9822226	2.4458582
8.148038202945436	5.9992704	2.4493408
8.165609446426497	5.9913015	2.4477136
8.183180882229594	6.037551	2.4571428
8.200752510774217	6.0367575	2.4569814
8.218324332479893	6.048647	2.4593997
8.235896347766193	6.018751	2.4533143
8.253468557052724	5.9801283	2.44543
8.27104096075914	6.0044537	2.4503987
8.288613559305137	6.0788393	2.4655302
8.306186353110448	6.199532	2.489886
8.32375934259485	6.31748	2.5134597
8.341332528178162	6.329398	2.5158296
8.358905910280246	6.3340945	2.5167627
8.376479489321003	6.293735	2.5087318
8.394053265720377	6.384418	2.5267406
8.411627239898356	6.430739	2.53589
8.42920141227497	6.411856	2.5321643
8.44677578327029	6.3933973	2.5285168
8.464350353304427	6.367725	2.523435
8.48192512279754	6.3566484	2.5212395
8.499500092169827	6.29418	2.5088205
8.51707526184153	6.2876797	2.5075247
8.534650632232934	6.355154	2.5209432
8.552226203764365	6.3308125	2.5161107
8.569801976856192	6.3116016	2.51229
8.587377951928834	6.3034105	2.5106595
8.60495412940274	6.3505535	2.5200305
8.622530509698416	6.376818	2.5252364
8.6401070932364	6.5097446	2.5514202
8.657683880437283	6.5712256	2.56344
8.675260871721695	6.7835193	2.604519
8.692838067510303	6.9722557	2.640503
8.710415468223834	7.1964846	2.6826265
8.727993074283043	7.325983	2.7066553
8.745570886108737	7.302924	2.7023923
8.763148904121765	7.3259873	2.7066562
8.78072712874302	7.285726	2.6992085
8.798305560393441	7.501135	2.73882
8.815884199494006	7.669219	2.7693355
8.833463046465745	7.9003243	2.8107517
8.851042101729728	8.090327	2.84435
8.86862136570707	8.372139	2.8934648
8.886200838818924	8.5367365	2.9217694
8.903780521486505	8.611973	2.9346163
8.921360414131055	8.702098	2.9499319
8.938940517173874	8.768182	2.9611115
8.956520831036297	8.910917	2.985116
8.97410135613971	9.176362	3.029251
8.99168209290554	9.31151	3.0514767
9.009263041755265	9.545478	3.0895758
9.026844203110405	9.739173	3.1207647
9.044425577392525	9.9255295	3.1504807
9.062007165023239	10.090286	3.176521
9.079588966424197	10.446404	3.2320898
9.097170982017108	10.57071	3.251263
9.11475321222372	11.519307	3.3940105
9.132335657465825	12.4191475	3.524081
9.149918318165264	12.509183	3.5368323
9.167501194743924	12.876429	3.5883741
9.18508428762374	12.561336	3.5441976
9.202667597226693	12.604609	3.550297
9.220251123974803	12.392699	3.5203266
9.237834868290143	12.107541	3.4795892
9.255418830594836	11.915341	3.4518607
9.273003011311046	11.434649	3.3815157
9.290587410860985	11.280932	3.35871
9.308172029666911	10.608165	3.2570179
9.32575686815113	10.303388	3.209889
9.343341926735997	8.977122	2.9961846
9.360927205843916	8.710725	2.9513936
9.378512705897327	8.496762	2.9149206
9.396098427318728	8.218504	2.8667934
9.413684370530664	8.066195	2.8401046
9.431270535955722	8.002747	2.8289125
9.448856924016539	7.949621	2.8195074
9.466443535135806	7.9088945	2.8122756
9.484030369736251	7.910142	2.8124974
9.501617428240658	7.9237437	2.8149145
9.519204711071852	7.940234	2.817842
9.536792218652714	8.012115	2.8305678
9.55437995140617	7.96238	2.821769
9.571967909755191	7.985353	2.8258367
9.589556094122802	7.9972906	2.827948
9.60714450493207	8.077777	2.842143
9.624733142606116	8.100486	2.8461351
9.642322007568108	8.050589	2.8373559
9.659911100241267	8.032803	2.83422
9.677500421048851	8.082473	2.842969
9.695089970414175	8.126272	2.8506618
9.712679748760609	8.186101	2.8611362
9.730269756511557	8.182473	2.8605022
9.747859994090492	8.250695	2.8724024
9.765450461920915	8.285888	2.8785217
9.78304116042639	8.298316	2.8806798
9.800632090030527	8.3489685	2.8894582
9.81822325115699	8.350041	2.889644
9.835814644229481	8.349208	2.8894997
9.853406269671762	8.400187	2.8983076
9.870998127907646	8.428479	2.9031844
9.888590219360985	8.422924	2.9022274
9.906182544455698	8.403434	2.8988676
9.923775103615734	8.35951	2.8912818
9.941367897265108	8.399914	2.8982606
9.958960925827878	8.393068	2.8970792
9.97655418972816	8.44857	2.9066424
9.994147689390106	8.390233	2.89659
10.011741425237934	8.276696	2.8769248
10.029335397695904	8.268989	2.8755848
10.04692960718833	8.33721	2.8874226
10.06452405413958	8.426252	2.9028008
10.082118738974064	8.506085	2.9165194
10.099713662116246	8.444108	2.9058747
10.117308823990651	8.443901	2.9058392
10.134904225021844	8.404816	2.899106
10.152499865634445	8.424714	2.902536
10.170095746253125	8.430326	2.9035025
10.18769186730261	8.414798	2.9008272
10.205288229207675	8.424741	2.9025404
10.222884832393145	8.414886	2.9008424
10.2404816772839	8.414798	2.9008272
10.258078764304868	8.385705	2.8958082
10.275676093881035	8.35295	2.890147
10.293273666437438	8.248074	2.8719459
10.310871482399158	8.231355	2.8690338
10.32846954219134	8.142502	2.853507
10.346067846239173	8.118249	2.8492541
10.363666394967908	8.15996	2.8565643
10.38126518880283	8.253978	2.8729737
10.398864228169298	8.32437	2.8851986
10.416463513492713	8.370121	2.8931162
10.434063045198531	8.300459	2.8810518
10.451662823712262	8.337727	2.8875122
10.469262849459467	8.335888	2.8871937
10.486863122865758	8.285974	2.8785367
10.504463644356806	8.279869	2.8774762
10.522064414358338	8.151729	2.8551233
10.539665433296118	8.090369	2.8443575
10.557266701595987	7.9681535	2.8227918
10.574868219683818	7.8948107	2.8097706
10.592469987985552	7.8125453	2.795093
10.610072006927185	7.6929526	2.7736173
10.627674276934751	7.6473	2.7653751
10.64527679843435	7.479351	2.7348402
10.662879571852143	7.383053	2.7171774
10.680482597614331	7.267676	2.6958628
10.698085876147173	7.2536435	2.693259
10.715689407876988	7.1826153	2.6800401
10.733293193230146	7.1598883	2.6757967
10.750897232633072	7.068233	2.6586149
10.76850152651225	6.920767	2.630735
10.786106075294207	6.723922	2.5930526
10.803710879405534	6.5591497	2.5610838
10.821315939272877	6.5088434	2.5512435
10.83892125532294	6.456436	2.5409517
10.856526827982472	6.379163	2.5257006
10.874132657678285	6.389179	2.5276825
10.891738744837243	6.3471155	2.5193481
10.909345089886271	6.298095	2.5096006
10.926951693252343	6.180001	2.4859607
10.944558555362494	6.0655217	2.462828
10.96216567664381	5.9663486	2.442611
10.979773057523436	5.9523993	2.439754
10.997380698428573	5.8649774	2.4217715
11.014988599786477	5.8323097	2.4150176
11.032596762024461	5.7759233	2.403315
11.050205185569892	5.721475	2.3919606
11.067813870850198	5.6621127	2.3795195
11.085422818292859	5.609274	2.3683906
11.10303202832541	5.5907345	2.3644733
11.120641501375454	5.501656	2.345561
11.138251237870636	5.4167833	2.3273983
11.155861238238671	5.387065	2.321005
11.173471502907317	5.357787	2.3146894
11.191082032304402	5.287091	2.2993674
11.208692826857805	5.124056	2.2636378
11.226303886995465	5.014066	2.239211
11.243915213145371	4.9564114	2.2263
11.261526805735578	5.013134	2.239003
11.279138665194196	4.990871	2.2340257
11.296750791949393	4.9728603	2.2299912
11.314363186429393	4.8578553	2.2040544
11.331975849062479	4.8088164	2.1929014
11.34958878027699	4.713905	2.1711528
11.36720198050133	4.679526	2.1632211
11.384815450163948	4.636594	2.1532753
11.402429189693366	4.610394	2.1471827
11.420043199518153	4.6026073	2.1453688
11.437657480066942	63.58761	7.974184
11.455272031768422	85.23826	9.232457
11.472886855051353	107.60267	10.373171
11.490501950344528	99.15382	9.957601
11.508117318076819	84.496086	9.192175
11.52573295867715	45.91335	6.775939
11.543348872574514	4.225982	2.0557194
11.560965060197946	4.2075305	2.0512266
11.57858152197655	4.1384892	2.0343277
11.59619825833949	4.078719	2.019584
11.613815269715985	4.048503	2.0120893
11.631432556535323	38.634113	6.215635
11.649050119226837	83.19746	9.1212635
11.666667958219929	93.58148	9.673752
11.68428607394406	107.79981	10.3826685
11.701904466828756	82.63748	9.090516
11.719523137303586	65.48053	8.092004
11.737142085798196	4.675647	2.1623244
11.754761312742286	3.7607822	1.9392736
11.772380818565619	3.7601013	1.9390981
11.790000603698015	3.7739139	1.9426564
11.80762066856935	3.7314632	1.9316995
11.825241013609572	3.631443	1.9056345
11.842861639248683	3.5545661	1.8853557
11.860482545916748	3.5327687	1.8795661
11.878103734043883	3.5334353	1.8797435
11.895725204060282	3.500551	1.870976
11.91334695639619	3.4676373	1.8621593
11.930968991481919	3.4585197	1.8597096
11.948591309747824	3.4344907	1.8532379
11.966213911624347	3.4236941	1.8503227
11.98383679754198	3.3546762	1.8315775
12.001459967931268	3.3069243	1.818495
12.019083423222835	3.2674804	1.8076173
12.036707163847352	3.2561283	1.8044745
12.05433119023556	3.2234473	1.7953961
12.071955502818259	3.1993637	1.7886765
12.089580102026313	3.1860328	1.7849462
12.107204988290643	3.1706693	1.7806374
12.12483016204224	3.1596868	1.7775508
12.142455623712152	3.120468	1.7664846
12.16008137373149	3.1419268	1.7725481
12.177707412531431	3.1496644	1.7747294
12.19533374054321	3.1940796	1.7871988
12.212960358198126	3.178859	1.7829355
12.230587265927545	3.1241543	1.7675277
12.248214464162889	3.074716	1.7534869
12.265841953335649	3.020968	1.7380931
12.283469733877375	2.9864628	1.7281386
12.301097806219685	2.9872613	1.7283696
12.31872617079425	2.9962246	1.7309606
12.336354828032825	3.033417	1.7416707
12.353983778367205	3.0419648	1.744123
12.371613022229262	3.0048835	1.73346
12.389242560050928	2.9875875	1.7284639
12.406872392264201	2.9663308	1.7223039
12.424502519301143	2.937	1.7137678
12.442132941593874	2.8942971	1.7012634
12.459763659574586	2.869381	1.6939247
12.477394673675532	2.8759868	1.6958735
12.49502598432903	2.8574212	1.6903908
12.51265759196746	2.8344402	1.6835796
12.530289497023267	2.8288927	1.6819313
12.547921699928967	2.815911	1.6780677
12.565554201117134	2.806275	1.675194
12.583187001020404	2.7987232	1.6729385
12.600820100071486	2.814039	1.6775098
12.618453498703152	2.8338711	1.6834105
12.636087197348235	2.849012	1.6879016
12.65372119643964	2.843813	1.6863608
12.671355496410326	2.8871822	1.6991711
12.68899009769333	2.915558	1.7075006
12.706625000721749	2.9234066	1.7097973
12.724260205928752	2.9463382	1.71649
12.741895713747551	2.9402883	1.7147269
12.759531524611454	2.9552891	1.7190955
12.777167638953818	2.9288058	1.7113755
12.794804057208072	2.9328856	1.712567
12.812440779807702	3.0027153	1.7328345
12.830077807186271	3.2177265	1.7938023
12.847715139777405	3.265567	1.807088
12.865352778014795	3.5036736	1.8718102
12.882990722332197	3.6148536	1.9012768
12.90062897316344	3.688335	1.9205039
12.918267530942412	3.6782916	1.9178872
12.935906396103071	3.507497	1.8728313
12.953545569079449	3.6631846	1.9139448
12.971185050305628	3.5229099	1.8769417
12.988824840215775	3.5719678	1.889965
13.006464939244115	3.6066632	1.8991216
13.024105347824943	3.4632473	1.8609802
13.041746066392617	3.5855656	1.893559
13.05938709538157	3.3708973	1.8360003
13.077028435226296	3.3964512	1.8429463
13.094670086361363	3.314656	1.8206197
13.112312049221401	3.261866	1.8060637
13.129954324241112	3.1711218	1.7807643
13.147596911855258	2.944329	1.7159047
13.165239812498685	2.892288	1.7006727
13.182883026606293	2.8188713	1.6789495
13.200526554613058	2.7738822	1.6654975
13.218170396954017	2.742714	1.6561141
13.235814554064284	2.7173007	1.6484237
13.253459026379034	2.7705724	1.6645037
13.271103814333523	2.7372074	1.6544508
13.288748918363058	2.73178	1.6528097
13.306394338903031	2.7412672	1.6556773
13.32404007638889	2.753321	1.6593134
13.341686131256164	2.7606204	1.6615114
13.359332503940449	2.7270505	1.6513784
13.376979194877402	2.7404141	1.6554196
13.394626204502751	2.7825115	1.6680862
13.412273533252307	2.8269148	1.6813432
13.429921181561937	2.7764037	1.6662544
13.447569149867581	2.739804	1.6552353
13.465217438605247	2.698641	1.6427541
13.482866048211022	2.6637685	1.6321056
13.500514979121052	2.6796086	1.636951
13.518164231771568	2.6919453	1.6407149
13.535813806598844	2.7014425	1.6436065
13.553463704039254	2.6788511	1.6367196
13.571113924529229	2.6692924	1.6337969
13.588764468505275	2.6910765	1.6404501
13.606415336403956	2.735191	1.6538414
13.624066528661917	2.7652347	1.6628995
13.641718045715882	2.8115494	1.6767676
13.659369888002635	2.8985443	1.7025112
13.67702205595903	2.9726243	1.72413
13.694674550021993	3.0487976	1.7460806
13.712327370628532	3.0816875	1.7554736
13.729980518215713	3.1637232	1.7786858
13.747633993220681	3.212678	1.7923945
13.765287796080647	3.2639499	1.8066405
13.7829419272329	3.3140898	1.8204641
13.800596387114801	3.413555	1.8475808
13.818251176163775	3.4430523	1.8555464
13.835906294817324	3.478586	1.8650968
13.853561743513023	3.5016873	1.8712796
13.871217522688525	3.481385	1.865847
13.888873632781538	3.505854	1.8723925
13.906530074229858	3.5677865	1.8888586
13.92418684747135	3.6290452	1.9050053
13.941843952943948	3.6433783	1.9087635
13.959501391085665	3.5619166	1.8873041
13.977159162334578	3.472808	1.8635471
13.994817267128846	3.3899238	1.8411746
14.012475705906693	3.3120697	1.8199092
14.030134479106424	3.2448487	1.8013464
14.047793587166414	3.1965308	1.7878845
14.065453030525108	3.1433585	1.772952
14.083112809621026	3.0930536	1.7587079
14.100772924892766	3.0403259	1.743653
14.118433376778997	2.9712248	1.7237241
14.136094165718458	2.8692036	1.6938723
14.153755292149969	2.7920623	1.6709465
14.171416756512416	2.7380073	1.6546925
14.189078559244768	2.67793	1.6364383
14.20674070078606	2.6124957	1.6163217
14.224403181575408	2.585764	1.608031
14.242066002051999	2.5759914	1.6049895
14.259729162655093	2.535409	1.5922967
14.277392663824022	2.5332205	1.5916094
14.295056505998208	2.495427	1.579692
14.312720689617128	2.464553	1.5698895
14.330385215120348	2.4267824	1.5578133
14.348050082947497	2.4096696	1.5523111
14.3657152935383	2.3718405	1.540078
14.383380847332528	2.3671472	1.5385536
14.401046744770051	2.4514885	1.565723
14.418712986290798	2.5010164	1.5814602
14.436379572334793	2.4821076	1.5754706
14.454046503342123	2.4493048	1.5650254
14.471713779752946	2.4357998	1.560705
14.489381402007504	2.4305875	1.5590341
14.507049370546113	2.4168112	1.5546097
14.524717685809168	2.4162784	1.5544382
14.542386348237134	2.4239156	1.556893
14.560055358270553	2.4357805	1.5606987
14.577724716350051	2.4681103	1.571022
14.595394422916325	2.4835975	1.5759434
14.61306447841015	2.5060997	1.5830666
14.63073488327237	2.5496957	1.5967767
14.648405637943917	2.5730336	1.6040678
14.6660767428658	2.5506623	1.5970793
14.683748198479094	2.5617	1.6005312
14.701420005224954	2.575766	1.6049193
14.719092163544628	2.6400914	1.6248358
14.73676467387942	2.6555467	1.6295848
14.754437536670727	2.702015	1.6437807
14.772110752360014	2.7146273	1.6476126
14.78978432138882	2.7071736	1.645349
14.807458244198777	2.7288811	1.6519326
14.82513252123159	2.7064648	1.6451336
14.842807152929028	2.7418535	1.6558543
14.860482139732962	2.7167246	1.6482489
14.87815748208531	2.7341142	1.6535157
14.8958331804281	2.7487388	1.657932
14.91350923520342	2.7656095	1.6630121
14.931185646853438	2.7963154	1.6722187
14.948862415820408	2.7791514	1.6670787
14.966539542546656	2.7668803	1.6633942
14.98421702747459	2.7153153	1.6478214
15.001894871046696	2.707508	1.6454507
15.019573073705542	2.6755219	1.6357023
15.037251635893766	2.6792898	1.6368536
15.054930558054092	2.746504	1.657258
15.072609840629323	2.7770472	1.6664475
15.090289484062351	2.8920743	1.70061
15.107969488796124	3.131187	1.769516
15.125649855273691	3.5248568	1.8774602
15.14333058393817	4.012068	2.0030146
15.161011675232768	4.97409	2.2302668
15.17869312960076	6.391273	2.5280967
15.196374947485506	8.321774	2.8847485
15.214057129330447	11.485218	3.388985
15.231739675579114	16.154144	4.019222
15.249422586675102	21.320683	4.6174326
15.267105863062092	24.462482	4.945956
15.284789505183847	24.89446	4.9894347
15.302473513484218	22.778254	4.772657
15.320157888407127	19.201702	4.3819747
15.337842630396578	14.995986	3.8724651
15.355527739896656	11.71493	3.422708
15.37321321735153	9.123052	3.020439
15.39089906320545	6.6079926	2.5706017
15.408585277902748	4.9067345	2.215115
15.42627186188783	3.7704873	1.9417742
15.443958815605198	3.2336853	1.7982451
15.461646139499424	2.9735937	1.7244111
15.479333834015168	2.8328617	1.6831107
15.497021899597165	2.7747304	1.6657522
15.514710336690234	2.7102878	1.6462952
15.53239914573928	2.6433904	1.6258507
15.550088327189297	2.5596604	1.5998939
15.567777881485336	2.526487	1.5894927
15.58546780907256	2.5111015	1.5846455
15.6031581103962	2.5353184	1.5922683
15.620848785901568	2.5589278	1.5996649
15.638539836034063	2.5753071	1.6047764
15.656231261239173	2.602662	1.6132768
15.673923061962451	2.5635958	1.6011233
15.691615238649552	2.5406864	1.593953
15.709307791746202	2.5114648	1.5847602
15.727000721698221	2.4920592	1.5786258
15.744694028951498	2.4464383	1.5641094
15.76238771395202	2.4228296	1.5565442
15.780081777145844	2.4219582	1.5562642
15.797776218979125	2.4080648	1.551794
15.815471039898094	2.4000058	1.5491952
15.833166240349064	2.4086587	1.5519854
15.850861820778437	2.416326	1.5544536
15.868557781632699	2.3969007	1.5481927
15.886254123358412	2.3814754	1.543203
15.903950846402232	2.3973815	1.548348
15.921647951210897	2.397682	1.548445
15.939345438231225	2.3883088	1.5454154
15.957043307910133	2.4159486	1.5543323
15.974741560694602	2.4390728	1.5617532
15.992440197031714	2.4383385	1.5615181
16.01013921736862	2.4334671	1.5599574
16.02783862215259	2.418646	1.5551997
16.045538411830933	2.4125323	1.5532329
16.06323858685107	2.4141538	1.5537548
16.080939147660512	2.415446	1.5541705
16.09864009470684	2.401105	1.5495499
16.11634142843774	2.3993177	1.5489731
16.134043149300954	2.3977528	1.5484679
16.15174525774433	2.4772763	1.5739366
16.169447754215817	2.493501	1.5790824
16.18715063916342	2.5000465	1.5811535
16.204853913035244	2.45404	1.5665376
16.222557576279478	2.4288306	1.5584706
16.240261629344403	22.408422	4.7337537
16.257966072678386	42.955997	6.5540824
16.275670906729868	38.10508	6.172931
16.293376131947387	2.541771	1.5942932
16.31108174877957	2.512909	1.5852157
16.328787757675133	2.5274463	1.5897944
16.34649415908287	2.542163	1.5944161
16.364200953451657	2.6189947	1.6183308
16.38190814123048	2.6392336	1.6245718
16.39961572286839	2.6752512	1.6356195
16.41732369881455	2.7471085	1.6574403
16.43503206951817	2.794703	1.6717365
16.45274083542859	2.8016782	1.6738214
16.47044999699522	2.8002133	1.6733838
16.488159554667558	2.8027136	1.6741307
16.505869508895184	2.8325093	1.683006
16.523579860127786	2.888081	1.6994355
16.541290608815117	2.954645	1.7189081
16.559001755407035	3.058232	1.7487801
16.57671330035348	3.1144805	1.7647891
16.59442524410448	3.1839354	1.7843585
16.61213758711015	3.197421	1.7881334
16.629850329820705	3.262201	1.8061564
16.647563472686436	3.3101544	1.819383
16.665277016157724	3.374639	1.8370191
16.682990960685053	3.4660254	1.8617264
16.70070530671898	3.4998953	1.8708007
16.718420054710155	3.5078804	1.8729336
16.736135205109335	3.5341024	1.8799208
16.753850758367335	3.5842364	1.8932079
16.771566714935087	3.6865234	1.9200321
16.789283075263597	3.767357	1.940968
16.80699983980398	3.8331435	1.9578415
16.82471700900741	3.8971045	1.9741086
16.84243458332518	3.9438732	1.9859188
16.860152563208665	4.0232573	2.005806
16.87787094910932	4.1060505	2.0263393
16.89558974147871	4.1993394	2.049229
16.913308940768466	4.238442	2.0587478
16.931028547430333	4.2510633	2.0618107
16.94874856191613	4.248207	2.061118
16.966468984677785	4.3063946	2.0751855
16.98418981616729	4.4098563	2.0999658
17.00191105683676	4.488082	2.1185093
17.019632707138374	4.4935007	2.119788
17.03735476752442	4.513012	2.124385
17.05507723844728	4.542361	2.1312814
17.072800120359403	4.608479	2.1467369
17.090523413713353	4.6851	2.1645093
17.108247118961785	4.6833215	2.1640983
17.125971236557437	4.68548	2.164597
17.143695766953133	4.636976	2.153364
17.161420710601806	4.674444	2.1620462
17.179146067956477	4.676644	2.162555
17.19687183947025	4.69126	2.1659317
17.21459802559634	4.6962333	2.1670794
17.232324626788028	4.735083	2.1760247
17.25005164349871	4.762349	2.1822808
17.267779076181863	4.736744	2.1764061
17.285506925291074	4.709705	2.1701856
17.30323519127999	4.690415	2.1657367
17.320963874602384	4.6707244	2.161186
17.33869297571211	4.605602	2.1460667
17.356422495063114	4.529934	2.128364
17.37415243310944	4.5632086	2.1361668
17.391882790305218	4.6190825	2.149205
17.40961356710468	4.6670904	2.160345
17.42734476396215	4.6242313	2.1504025
17.445076381332044	4.5419197	2.131178
17.462808419668868	4.598759	2.144472
17.48054087942723	4.77975	2.1862638
17.498273761061835	5.1126447	2.2611158
17.51600706502747	5.5736685	2.3608618
17.533740791779024	6.307398	2.5114534
17.551474941771485	7.7641654	2.786425
17.56920951545993	8.853549	2.9754913
17.586944513299528	11.082492	3.3290377
17.60467993574556	12.78016	3.574935
17.622415783253373	14.448274	3.8010886
17.64015205627843	15.814225	3.9767103
17.657888755276293	16.93362	4.115048
17.675625880702604	17.52901	4.186766
17.69336343301311	17.45436	4.1778417
17.71110141266366	16.650364	4.080486
17.728839820110178	15.610151	3.9509685
17.746578655808705	14.595099	3.8203533
17.764317920215372	13.01651	3.60784
17.7820576137864	11.416011	3.3787587
17.79979773697811	9.480652	3.0790668
17.81753829024692	7.6029735	2.757349
17.835279274049356	5.9685035	2.443052
17.85302068884201	4.886364	2.2105122
17.870762535081607	4.221465	2.0546205
17.888504813224934	3.8995934	1.9747388
17.90624752372891	3.7327266	1.9320265
17.923990667050536	3.6454163	1.9092973
17.941734243646895	3.5394602	1.8813453
17.959478253975185	3.4934852	1.8690867
17.9772226984927	3.491069	1.8684403
17.994967577656833	3.5015657	1.871247
18.01271289192506	3.4436326	1.8557028
18.030458641754965	3.3984766	1.8434957
18.04820482760425	3.3649344	1.8343757
18.06595144993067	3.3746665	1.8370265
18.083698509192125	3.3726711	1.8364834
18.101446005846576	3.3475788	1.829639
18.119193940352105	3.31531	1.8207992
18.136942313166887	3.248091	1.8022461
18.1546911247492	3.2232492	1.795341
18.1724403755574	3.189099	1.7858049
18.19019006604997	3.1789582	1.7829633
18.207940196685467	3.1831086	1.7841269
18.225690767922575	3.1686914	1.7800819
18.243441780220046	3.1852744	1.7847337
18.261193234036764	3.1325603	1.769904
18.278945129831676	3.1320124	1.7697493
18.29669746806386	3.0999715	1.7606736
18.314450249192483	3.0970244	1.7598364
18.3322034736768	3.0482922	1.7459359
18.349957141976184	3.0430138	1.7444236
18.3677112545501	3.073866	1.7532444
18.385465811858108	3.0755317	1.7537194
18.403220814359884	3.0844083	1.7562484
18.420976262515172	3.098246	1.7601836
18.43873215678387	3.1362903	1.7709575
18.456488497625923	3.1866899	1.7851303
18.474245285501407	3.2426188	1.8007272
18.492002520870486	3.2762887	1.8100522
18.50976020419343	3.3393028	1.8273759
18.527518335930615	3.6715922	1.91614
18.545276916542516	4.31516	2.0772963
18.563035946489688	4.501061	2.1215703
18.580795426232832	4.9488444	2.2245998
18.598555356232698	4.826192	2.1968596
18.616315736950185	5.186545	2.2773988
18.63407656884626	4.8804502	2.2091742
18.65183785238201	5.062097	2.2499104
18.669599588018617	4.8291154	2.1975248
18.68736177621737	4.813062	2.193869
18.705124417439652	4.753808	2.180323
18.72288751214696	4.5183578	2.125643
18.740651060800886	4.638866	2.1538026
18.758415063863115	4.357437	2.0874474
18.77617952179546	4.566516	2.1369407
18.793944435059814	4.343065	2.084002
18.811709804118184	4.3685055	2.090097
18.829475629432675	4.347251	2.0850062
18.8472419114655	4.1373696	2.0340526
18.86500865067897	4.180291	2.044576
18.88277584753551	3.7796068	1.9441211
18.90054350249763	3.7955525	1.9482177
18.918311616027957	3.4981914	1.8703452
18.936080188589226	3.3957381	1.8427528
18.953849220644265	3.1328495	1.7699857
18.971618712656007	2.98258	1.7270148
18.9893886650875	2.8878877	1.6993786
19.007159078401887	8.008009	2.8298426
19.024929953062408	32.87997	5.734106
19.042701289532435	32.863598	5.732678
19.060473088275405	25.449362	5.044736
19.07824534975489	2.7294054	1.6520913
19.096018074434568	2.6957417	1.6418713
19.113791262778197	2.6517632	1.6284236
19.13156491524966	2.6110494	1.6158742
19.149339032312945	2.586262	1.6081859
19.167113614432136	2.5909917	1.6096557
19.184888662071433	2.5772686	1.6053873
19.202664175695123	2.5609534	1.6002979
19.220440155767623	2.56932	1.6029098
19.238216602753447	2.5379	1.5930787
19.2559935171172	2.5389652	1.5934131
19.27377089932361	2.5610058	1.6003143
19.291548749837514	2.579472	1.6060735
19.309327069123835	2.5560596	1.5987681
19.32710585764763	2.565802	1.6018121
19.344885115874032	2.5665264	1.6020383
19.362664844268313	2.5096579	1.58419
19.380445043295822	2.490832	1.578237
19.39822571342203	2.5084112	1.5837965
19.41600685511252	2.5485358	1.5964134
19.43378846883297	2.531581	1.5910943
19.451570555049173	2.5367756	1.5927259
19.469353114227037	2.5574815	1.5992128
19.48713614683254	2.5701468	1.6031678
19.50491965333182	2.5500467	1.5968865
19.52270363419109	2.5275528	1.5898279
19.540488089876686	2.5161932	1.5862513
19.55827302085503	2.5088937	1.5839487
19.576058427592674	2.5460556	1.5956364
19.593844310556282	2.555036	1.598448
19.611630670212598	2.5579224	1.5993506
19.629417507028506	2.5501857	1.59693
19.64720482147098	2.5768776	1.6052656
19.6649926140071	2.5801623	1.6062883
19.682780885104084	2.567026	1.6021941
19.70056963522921	2.5149257	1.5858518
19.718358864849908	2.5054173	1.582851
19.7361485744337	2.552359	1.5976105
19.753938764448215	2.5445642	1.5951691
19.771729435361202	2.5019207	1.5817461
19.789520587640506	2.4809353	1.5750985
19.807312221754092	2.4826167	1.5756321
19.825104338170043	2.5008607	1.581411
19.842896937356517	2.5226872	1.5882969
19.860690019781824	2.5604277	1.6001337
19.87848358591436	2.5882008	1.6087886
19.896277636222635	2.5789447	1.6059093
19.914072171175278	2.570192	1.6031818
19.931867191241015	2.5458205	1.5955627
19.94966269688869	2.553561	1.5979866
19.967458688587264	2.5307324	1.5908276
19.985255166805807	2.502421	1.5819042
20.00305213201348	2.4882555	1.5774205
20.020849584679578	2.4922602	1.5786895
20.038647525273507	2.4971862	1.5802487
20.05644595426477	2.4805984	1.5749916
20.07424487212299	2.458655	1.56801
20.092044279317903	2.46974	1.5715406
20.109844176319353	2.4639926	1.569711
20.127644563597304	2.4275515	1.5580602
20.145445441621817	2.4069817	1.551445
20.16324681086307	2.4067605	1.5513737
20.181048671791373	2.406939	1.5514313
20.198851024877122	2.4258094	1.557501
20.216653870590836	2.4318361	1.5594345
20.234457209403146	2.457426	1.567618
20.252261041784802	2.4474583	1.5644355
20.270065368206662	2.4090865	1.5521232
20.287870189139685	2.4242103	1.5569875
20.305675505054968	2.4225655	1.5564593
20.323481316423702	2.4118352	1.5530084
20.341287623717207	2.380186	1.5427852
20.359094427406884	2.3580863	1.5356061
20.376901727964288	2.335585	1.5282621
20.39470952586107	2.330612	1.5266342
20.41251782156899	2.3627527	1.5371248
20.430326615559935	2.4016156	1.5497147
20.448135908305886	2.4054568	1.5509535
20.465945700278965	2.363465	1.5373565
20.483755991951384	2.315586	1.521705
20.50156678379548	2.3109405	1.5201778
20.519378076283708	2.3312147	1.5268316
20.537189869888635	2.3696206	1.5393572
20.55500216508294	2.4024193	1.549974
20.572814962339415	2.393742	1.5471723
20.59062826213098	2.3695157	1.5393231
20.60844206493066	2.338383	1.5291772
20.626256371211593	2.3348444	1.5280198
20.644071181447032	2.370461	1.5396302
20.66188649611036	2.3953607	1.5476953
20.67970231567506	2.3742704	1.5408667
20.697518640614742	2.3537416	1.5341909
20.715335471403122	2.3469892	1.5319886
20.73315280851404	2.3626719	1.5370985
20.750970652421447	2.3636024	1.5374012
20.768789003599412	2.3349793	1.5280639
20.786607862522136	2.302618	1.5174379
20.8044272296639	2.2913423	1.513718
20.82224710549913	2.3128693	1.520812
20.84006749050237	2.2851067	1.5116569
20.857888385148268	3.8414388	1.9599589
20.8757097899116	45.95354	6.778904
20.893531705267254	64.8231	8.051279
20.911354131690224	83.86091	9.15756
20.92917706965566	69.123955	8.314082
20.94700051963877	50.172173	7.083232
20.96482448211493	29.436132	5.4255075
20.982648957559622	4.1893835	2.0467985
21.00047394644843	2.31197	1.5205164
21.01829944925707	2.3122325	1.5206027
21.036125466461375	2.314562	1.5213685
21.053951998537297	2.269786	1.5065808
21.071779045960906	2.2565818	1.5021924
21.089606609208378	2.2789898	1.5096323
21.10743468875603	2.2893662	1.5130652
21.12526328508028	2.260356	1.503448
21.143092398657675	2.2577355	1.5025762
21.16092202996488	2.2432187	1.4977379
21.17875217947867	2.257523	1.5025055
21.19658284767596	2.2515938	1.5005312
21.21441403503377	2.2464023	1.4988003
21.232245742029225	2.2434845	1.4978266
21.2500779691396	2.249209	1.4997363
21.26791071684227	2.2190511	1.489648
21.28574398561475	2.1869159	1.4788225
21.30357777593465	2.1802459	1.4765656
21.321412088279704	2.2073185	1.4857048
21.339246923127792	2.192495	1.4807076
21.357082280956888	2.1916308	1.4804158
21.3749181622451	2.1948814	1.4815133
21.392754567470647	2.2112095	1.4870136
21.41059149711187	2.167963	1.4724004
21.42842895164726	2.1329327	1.4604564
21.446266931555378	2.1101975	1.4526519
21.464105437314945	2.130852	1.4597439
21.481944469404798	2.1576006	1.4688773
21.49978402830388	2.157191	1.468738
21.51762411449127	2.1644857	1.4712191
21.53546472844617	2.1603212	1.4698031
21.553305870647876	2.1392806	1.462628
21.571147541575865	2.1232495	1.4571375
21.58898974170967	2.1328368	1.4604235
21.60683247152899	2.126966	1.4584122
21.62467573151363	2.11689	1.4549536
21.642519522143523	2.0840728	1.4436318
21.660363843898722	2.0723727	1.4395738
21.6782086972594	2.0524077	1.4326227
21.696054082705864	2.065126	1.4370546
21.713900000718535	2.0830896	1.4432912
21.73174645177795	2.103978	1.4505095
21.749593436364794	2.113321	1.4537266
21.767440954959845	2.0951746	1.4474717
21.785289008044032	2.0535367	1.4330167
21.803137596098388	2.0212984	1.4217237
21.820986719604086	2.036428	1.4270347
21.838836379042412	2.0444884	1.4298561
21.85668657489478	2.060627	1.4354885
21.87453730764273	2.0177677	1.4204814
21.892388577767914	2.0199068	1.4212343
21.91024038575213	2.0116425	1.4183239
21.928092732077285	1.9991506	1.4139132
21.945945617225426	2.0185702	1.420764
21.963799041678694	2.0519342	1.4324574
21.981653005919398	31.406507	5.604151
21.999507510429943	78.214935	8.843921
22.01736255569286	73.176315	8.554316
22.035218142190818	4.2264447	2.055832
22.05307427040661	2.0185826	1.4207683
22.07093094082315	2.01837	1.4206935
22.088788153923474	2.0739658	1.440127
22.106645910190746	2.0721853	1.4395087
22.12450421010827	2.0320554	1.4255018
22.142363054159464	2.0270038	1.4237288
22.16022244282787	2.009318	1.4175042
22.178082376597164	2.0161223	1.4199022
22.195942855951145	2.0024412	1.4150764
22.213803881373742	2.0122545	1.4185395
22.231665453349002	2.0333061	1.4259404
22.24952757236111	2.005703	1.4162284
22.26739023889438	1.9799774	1.4071167
22.28525345343323	1.9526161	1.3973604
22.30311721646225	1.9560337	1.3985827
22.320981528466113	1.9863518	1.40938
22.33884638992964	1.9917098	1.4112796
22.356711801337788	1.9608144	1.4002908
22.37457776317561	1.923213	1.3867996
22.392444275928337	1.9210291	1.386012
22.410311340081282	1.9492407	1.3961521
22.428178956119904	1.9695798	1.4034172
22.446047124529805	1.9835919	1.4084005
22.46391584579669	1.9897819	1.4105963
22.481785120406414	1.9963185	1.4129113
22.49965494884496	1.9759119	1.4056714
22.51752533159841	1.9817191	1.4077355
22.53539626915302	1.9768091	1.4059905
22.553267761995137	1.97677	1.4059765
22.571139810611264	1.9451686	1.394693
22.589012415488025	1.9528776	1.397454
22.60688557711216	1.9362332	1.3914859
22.624759295970566	1.9403306	1.3929576
22.642633572550263	1.9509288	1.3967565
22.660508407338362	1.9400178	1.3928453
22.67838380082217	1.952312	1.3972516
22.696259753489077	1.9468887	1.3953096
22.714136265826614	1.9637376	1.4013342
22.73201333832246	1.9654258	1.4019364
22.74989097146439	1.9789602	1.4067552
22.76776916574035	1.9729729	1.4046255
22.785647921638393	1.9263335	1.3879242
22.803527239646712	1.9328351	1.3902644
22.82140712025363	1.9414074	1.3933439
22.839287563947593	1.9192683	1.3853766
22.85716857121719	1.9182565	1.3850114
22.875050142551135	1.9519352	1.3971168
22.892932278438277	1.9893193	1.4104323
22.910814979367604	1.9646591	1.401663
22.928698245828222	1.9044917	1.3800333
22.946582078309387	1.9087284	1.3815674
22.96446647730047	1.9314044	1.3897498
22.98235144329098	1.9777776	1.4063348
23.000236976770562	1.9517847	1.3970629
23.018123078229	1.9459538	1.3949745
23.03600974815619	1.9344665	1.390851
23.053896987042194	1.9418364	1.393498
23.071784795377173	1.9319732	1.3899544
23.08967317365145	1.9170641	1.3845809
23.10756212235546	1.8771615	1.3700955
23.125451641979787	1.8607862	1.3641064
23.143341733015134	1.864436	1.3654436
23.161232395952357	1.8842549	1.3726816
23.179123631282426	1.9171344	1.3846062
23.197015439496468	1.9691527	1.403265
23.214907821085717	1.976806	1.4059893
23.23280077654157	1.9572643	1.3990226
23.250694306355538	1.9531286	1.3975438
23.268588411019277	1.950352	1.39655
23.28648309102458	1.9755884	1.4055563
23.304378346863356	1.9533709	1.3976305
23.322274179027676	1.937399	1.3919048
23.340170588009723	1.9503851	1.3965619
23.358067574301852	1.9707903	1.4038484
23.37596513839651	1.9415431	1.3933927
23.39386328078629	1.9045424	1.3800516
23.411762001963947	1.8894795	1.3745834
23.429661302422353	1.9240762	1.3871107
23.4475611826545	1.974189	1.4050584
23.46546164315356	1.9904807	1.410844
23.48336268441279	1.9669658	1.4024856
23.501264306925638	1.9341078	1.390722
23.51916651118564	1.9076542	1.3811785
23.537069297686497	1.8930308	1.3758745
23.554972666922037	1.9073281	1.3810605
23.57287661938623	1.9033682	1.3796262
23.59078115557318	1.9178118	1.3848509
23.608686275977128	1.9122634	1.3828461
23.62659198109246	1.8903241	1.3748906
23.6444982714137	1.8798305	1.3710691
23.66240514743549	1.927939	1.3885025
23.68031260965263	1.9642295	1.4015098
23.698220658560068	1.9530073	1.3975004
23.716129294652845	1.8900533	1.3747921
23.7340385184262	1.8707497	1.3677535
23.75194833037546	1.8701707	1.3675419
23.769858730996123	1.8893768	1.374546
23.78776972078382	1.9028505	1.3794385
23.80568130023431	1.9268708	1.3881177
23.823593469843495	1.916278	1.3842969
23.841506230107424	1.8911389	1.3751869
23.859419581522275	1.8850098	1.3729566
23.87733352458438	1.8950157	1.3765957
23.89524805979019	1.9267175	1.3880625
23.913163187636318	1.9262583	1.3878971
23.931078908619508	1.9466395	1.3952203
23.948995223236633	1.9580934	1.3993189
23.966912131984735	2.0213568	1.4217443
23.98482963536096	2.1084764	1.4520594
24.002747733862616	2.115791	1.4545759
24.020666427987155	2.067083	1.4377353
24.038585718232156	2.0394797	1.4281036
24.056505605095353	2.058175	1.4346341
24.074426089074617	2.0738075	1.4400721
24.092347170667946	2.094074	1.4470916
24.110268850373515	2.1140575	1.4539798
24.128191128689586	2.1529562	1.4672955
24.146114006114626	2.1063123	1.451314
24.164037483147187	2.111668	1.453158
24.181961560286005	2.1117544	1.4531877
24.199886238029926	2.0711262	1.4391408
24.21781151687797	2.0442197	1.4297621
24.235737397329274	2.0213704	1.4217491
24.253663879883135	2.0680401	1.4380682
24.271590965038975	2.0289998	1.4244297
24.289518653296376	2.0294878	1.424601
24.30744694515505	2.0661738	1.4374192
24.32537584111486	2.084636	1.4438268
24.34330534167581	2.1007814	1.4494072
24.361235447338046	2.1044626	1.4506766
24.379166158601876	2.046483	1.4305534
24.39709747596772	1.983036	1.4082031
24.41502939993615	1.9737089	1.4048874
24.432961931007917	2.015228	1.4195873
24.450895069683856	2.0459745	1.4303757
24.468828816465	2.0260346	1.4233884
24.4867631718525	1.9950606	1.4124662
24.504698136347656	1.9790008	1.4067696
24.52263371045192	1.9834602	1.4083537
24.540569894666874	1.9675319	1.4026874
24.558506689494266	1.9400525	1.3928577
24.57644409543597	1.9366399	1.3916321
24.594382112994012	1.9584607	1.3994502
24.61232074267057	1.9685416	1.4030472
24.630259984967953	1.9493253	1.3961824
24.64819984038863	1.9427997	1.3938435
24.66614030943522	1.9608657	1.4003092
24.684081392610462	1.9711237	1.4039671
24.702023090417274	2.0116751	1.4183353
24.7199654033587	2.0204294	1.4214181
24.737908331937927	2.040342	1.4284054
24.755851876658305	2.0467489	1.4306463
24.773796038023324	2.0551023	1.4335629
24.79174081653661	2.1180007	1.4553353
24.809686212701962	2.172394	1.4739044
24.827632227023294	2.1732085	1.4741806
24.8455788600047	2.1139226	1.4539335
24.8635261121504	2.094808	1.4473451
24.88147398396475	2.0699003	1.4387147
24.899422475952303	2.0578513	1.4345213
24.917371588617698	2.0783746	1.441657
24.935321322465768	2.1438572	1.4641917
24.953271678001478	2.2818255	1.5105712
24.97122265572994	2.4821987	1.5754995
24.989174256156414	2.8162932	1.6781815
25.00712647978632	3.290503	1.8139744
25.02507932712521	3.7946165	1.9479775
25.043032798678798	4.3294907	2.0807428
25.060986894952933	5.0902467	2.2561574
25.078941616453637	5.944738	2.4381833
25.096896963687055	6.8768086	2.622367
25.114852937159508	7.979734	2.8248422
25.132809537377444	8.432868	2.9039402
25.150766764847468	8.412411	2.9004157
25.168724620076347	7.8231845	2.7969956
25.186683103570985	6.896487	2.6261163
25.204642215838426	5.7085576	2.3892589
25.222601957385894	4.3234096	2.079281
25.24056232872074	3.2468464	1.8019007
25.25852333035048	2.6287751	1.6213498
25.276484962782778	2.246078	1.4986922
25.294447226525435	2.0804071	1.4423617
25.312410122086423	2.0252748	1.4231215
25.330373649973843	2.0113478	1.4182199
25.348337810695988	2.022334	1.4220879
25.366302604761245	2.0328789	1.4257907
25.384268032678207	2.007033	1.416698
25.40223409495558	2.0176141	1.4204274
25.420200792102257	2.0008352	1.4145088
25.438168124627246	1.9760462	1.4057192
25.45613609303974	1.9438238	1.3942108
25.474104697849057	1.9139407	1.3834524
25.492073939564698	1.9280794	1.388553
25.510043818696285	1.9473107	1.3954607
25.528014335753614	1.9634459	1.4012301
25.54598549124664	1.9140474	1.383491
25.56395728568544	1.9321575	1.3900207
25.58192971958028	1.9554889	1.398388
25.59990279344156	1.9084994	1.3814845
25.617876507779833	1.8714929	1.3680252
25.635850863105826	1.8803822	1.3712703
25.653825859930386	1.9168772	1.3845134
25.671801498764548	1.9149987	1.3838347
25.68977778011949	1.9207878	1.3859249
25.707754704506524	1.93313	1.3903705
25.725732272437153	1.8825338	1.3720546
25.743710484423012	1.8323178	1.3536314
25.761689340975888	1.8500385	1.3601612
25.77966884260774	1.8671206	1.3664262
25.797648989830662	1.8519078	1.3608482
25.815629783156922	1.8528012	1.3611764
25.83361122309895	1.8515438	1.3607144
25.85159331016929	1.8547528	1.361893
25.869576044880695	1.8557683	1.3622658
25.887559427746034	1.8496886	1.3600326
25.90554345927836	1.8704169	1.3676318
25.92352813999086	1.8768854	1.3699946
25.94151347039689	1.8647712	1.3655663
25.959499451009965	1.815707	1.3474817
25.97748608234374	1.8594984	1.3636342
25.995473364912062	1.9267967	1.388091
26.013461299228904	1.9879538	1.4099481
26.03144988580839	1.9710805	1.4039518
26.04943912516483	1.85716	1.3627765
26.067429017812675	1.7899891	1.3379047
26.085419564266537	1.8004596	1.341812
26.103410765041186	1.8579773	1.3630764
26.12140262065155	1.8908873	1.3750954
26.139395131612723	1.8540355	1.3616297
26.157388298439948	1.8000035	1.3416421
26.17538212164861	1.8042004	1.3432053
26.193376601754295	1.8717606	1.368123
26.211371739272714	1.8905421	1.3749698
26.229367534719746	1.8436096	1.3577958
26.247363988611433	1.7753855	1.332436
26.26536110146397	1.8042614	1.343228
26.283358873793727	1.7629279	1.327753
26.301357306117204	1.7541589	1.3244467
26.319356398951104	1.7988706	1.3412198
26.33735615281224	1.8720834	1.368241
26.35535656821762	1.8773688	1.3701711
26.373357645684404	1.8338588	1.3542005
26.39135938572991	1.8301355	1.352825
26.409361788871614	1.8089767	1.344982
26.427364855627165	1.8190665	1.3487277
26.445368586514352	1.8263159	1.3514125
26.46337298205115	1.7853743	1.336179
26.48137804275568	1.7992235	1.3413514
26.499383769146217	1.8400737	1.3564931
26.517390161741215	1.8654238	1.3658051
26.53539722105928	1.8098248	1.3452973
26.553404947619182	1.8026719	1.3426362
26.571413341939856	1.809953	1.3453449
26.589422404540397	1.8509359	1.360491
26.60743213594006	1.830271	1.3528751
26.62544253665827	1.7806437	1.3344076
26.64345360721459	1.7592866	1.3263811
26.66146534812879	1.7352475	1.3172879
26.679477759920758	1.7141092	1.30924
26.69749084311057	1.7736032	1.331767
26.71550459821847	1.8436172	1.3577987
26.733519025764842	1.8590063	1.3634539
26.751534126270258	1.8377275	1.3556281
26.769549900255434	1.8516806	1.3607647
26.787566348241267	1.8186343	1.3485675
26.80558347074881	1.8159399	1.3475682
26.823601268299267	1.8615146	1.3643733
26.841619741414036	1.9251493	1.3874975
26.85963889061465	1.9441595	1.3943312
26.877658716422832	1.8673439	1.3665079
26.89567921936045	1.8623537	1.3646808
26.913700399949544	1.8481395	1.359463
26.93172225871233	1.8258374	1.3512355
26.949744796171174	1.7751927	1.3323636
26.967768012848605	1.7651117	1.328575
26.98579190926733	1.7867781	1.3367041
27.003816485950225	1.8216408	1.3496817
27.021841743420318	1.8451256	1.358354
27.039867682200814	1.8918022	1.375428
27.057894302815072	1.8724481	1.3683742
27.07592160578664	1.8815222	1.3716859
27.0939495916392	1.863249	1.3650087
27.111978260896635	1.8834213	1.372378
27.13000761408296	1.8661398	1.3660673
27.148037651722397	1.8649973	1.365649
27.166068374339304	1.8329948	1.3538814
27.184099782458215	1.8385341	1.3559256
27.20213187660384	1.8632654	1.3650148
27.22016465730105	1.8454441	1.3584713
27.23819812507487	1.8140367	1.3468618
27.256232280450533	1.7645271	1.3283551
27.274267123953383	1.770741	1.3306919
27.292302656108987	1.8550738	1.362011
27.31033887744306	1.8840045	1.3725904
27.32837578848146	1.8209958	1.3494427
27.34641338975026	1.8091849	1.3450594
27.364451681775673	1.8445497	1.358142
27.382490665084074	1.859011	1.3634555
27.400530340202046	1.8318278	1.3534503
27.41857070765629	1.812102	1.3461434
27.436611767973726	1.8506227	1.3603759
27.454653521681404	1.8662585	1.3661107
27.472695969306564	1.7925116	1.3388472
27.490739111376627	1.7681382	1.3297136
27.508782948419153	1.8168888	1.3479202
27.526827480961902	1.8522167	1.3609617
27.54487270953279	1.8264446	1.3514602
27.562918634659898	1.7952257	1.3398603
27.580965256871508	1.8107932	1.3456571
27.599012576696026	1.8118865	1.3460634
27.617060594662068	1.8093082	1.3451053
27.63510931129842	1.8125849	1.3463228
27.65315872713401	1.8416641	1.3570793
27.67120884269797	1.849171	1.3598423
27.68925965851958	1.8678154	1.3666804
27.707311175128307	1.8729007	1.3685397
27.725363393053787	1.8953952	1.3767335
27.74341631282583	1.9393604	1.3926092
27.7614699349744	1.9367975	1.3916887
27.77952426002968	2.1127517	1.4535308
27.797579288521973	2.1913643	1.4803257
27.815635020981784	2.5977302	1.6117475
27.83369145793979	2.6342814	1.623047
27.85174859992682	2.4671118	1.5707042
27.869806447473923	2.385617	1.5445442
27.887865001112267	2.0581393	1.4346217
27.905924261373233	1.9407283	1.3931003
27.92398422878836	1.9164816	1.3843704
27.94204490388936	1.881911	1.3718276
27.96010628720813	1.8424758	1.3573782
27.978168379276728	1.8705837	1.3676928
27.9962311806274	1.9112555	1.3824817
28.014294691792568	1.8965918	1.377168
28.0323589133048	1.8813972	1.3716403
28.050423845696887	1.8961878	1.3770213
28.068489489501758	1.8776692	1.3702807
28.086555845252523	1.8522387	1.3609698
28.104622913482487	1.8839788	1.3725811
28.122690694725115	1.88347	1.3723958
28.14075918951405	1.8578995	1.3630478
28.15882839838312	1.8786356	1.3706332
28.176898321866304	1.8763697	1.3698064
28.1949689604978	1.9026711	1.3793734
28.213040314811945	1.9040626	1.3798778
28.23111238534327	1.940021	1.3928463
28.249185172626493	1.887312	1.3737948
28.267258677196473	1.8738174	1.3688745
28.285332899588294	1.9195967	1.3854951
28.303407840337172	1.9583344	1.399405
28.321483499978545	1.9154813	1.3840091
28.33955987904799	1.9703215	1.4036814
28.357636978081285	1.9912719	1.4111243
28.37571479761439	1.9383088	1.3922316
28.393793338183425	1.9228162	1.3866565
28.41187260032469	1.9625509	1.4009107
28.429952584574686	2.0110965	1.4181314
28.448033291470065	2.0181942	1.4206316
28.46611472154769	2.021868	1.421924
28.484196875344566	2.0042052	1.4156996
28.502279753397914	1.9634068	1.4012161
28.52036335624511	1.970271	1.4036634
28.538447684423716	2.0516262	1.4323499
28.556532738471482	2.0464177	1.4305305
28.574618518926325	2.0645947	1.4368697
28.59270502632635	2.1134505	1.4537711
28.61079226120985	2.1228817	1.4570112
28.628880224115274	2.0895364	1.4455229
28.646968915581287	2.0610735	1.4356439
28.66505833614671	2.0775368	1.4413663
28.68314848635055	2.105793	1.451135
28.701239366732004	2.0992074	1.4488642
28.71933097783044	2.1015434	1.4496701
28.737423320185403	2.1518848	1.4669304
28.75551639433665	2.1755543	1.4749761
28.773610200824074	2.2180421	1.4893093
28.791704740187793	2.2376733	1.4958855
28.80980001296809	2.2075725	1.4857901
28.827896019705413	2.1659524	1.4717175
28.845992760940433	2.108351	1.4520162
28.86409023721397	2.0846746	1.4438403
28.88218844906704	2.1601253	1.4697365
28.900287397040845	2.2597394	1.503243
28.918387081676755	2.2603972	1.5034617
28.936487503516343	2.2894285	1.5130857
28.954588663101365	2.3732946	1.5405501
28.97269056097374	2.3942661	1.5473416
28.990793197675597	2.368796	1.5390893
29.00889657374923	2.384158	1.5440719
29.027000689737125	2.4253933	1.5573674
29.04510554618196	2.446716	1.5641983
29.06321114362659	2.4237745	1.5568476
29.08131748261405	2.4303513	1.5589584
29.099424563687567	2.433243	1.5598856
29.11753238739057	2.461414	1.5688895
29.13564095426663	2.4864619	1.5768518
29.15375026485954	2.537832	1.5930574
29.171860319713275	2.5877888	1.6086606
29.18997111937199	2.7154357	1.6478579
29.20808266438002	2.7707133	1.664546
29.226194955281898	2.8155086	1.6779478
29.244307992622335	2.8259237	1.6810484
29.26242177694624	2.8684554	1.6936516
29.2805363087987	2.922782	1.7096145
29.29865158872498	2.990965	1.7294406
29.316767617270557	2.9993942	1.7318759
29.334884394981064	2.9667974	1.7224394
29.353001922402367	2.9937143	1.7302353
29.37112020008047	3.1279955	1.768614
29.389239228561596	3.2132323	1.7925491
29.407359008392152	3.3661675	1.8347118
29.42547954011872	3.7700813	1.9416697
29.44360082428809	4.4023795	2.0981848
29.46172286144722	5.433549	2.3309975
29.479845652143283	7.045131	2.6542666
29.497969196923606	9.199236	3.0330243
29.516093496335728	11.672969	3.4165726
29.5342185509274	14.301562	3.7817407
29.55234436124651	16.573183	4.0710173
29.570470927841175	18.04845	4.248347
29.588598251259686	17.774511	4.215983
29.60672633205055	16.324806	4.0403967
29.624855170762405	14.084472	3.7529285
29.642984767944146	11.511527	3.3928642
29.66111512414481	8.832718	2.971989
29.67924623991366	6.6451187	2.5778127
29.697378115800138	5.1923914	2.278682
29.71551075235387	4.303216	2.0744195
29.733644150124675	3.792019	1.9473107
29.751778309662576	3.5238874	1.877202
29.769913231517766	3.385553	1.8399872
29.78804891624066	3.3247077	1.8233781
29.806185364381818	3.3545792	1.8315511
29.82432257649206	3.4236202	1.8503027
29.842460553122333	3.400688	1.8440955
29.86059929482382	3.2826211	1.8118005
29.878738802147872	3.2490804	1.8025206
29.896879075646048	3.2072814	1.7908884
29.915020115870114	3.2573051	1.8048006
29.933161923371976	3.283172	1.8119525
29.951304498703777	3.3126693	1.820074
29.969447842417857	3.287642	1.8131856
29.987591955066733	3.2705965	1.8084791
30.005736837203123	3.3137562	1.8203726
30.023882489379943	3.2702823	1.8083922
30.04202891215028	3.1712883	1.7808111
30.060176106067455	3.2110822	1.7919493
30.078324071684946	3.2060304	1.7905391
30.09647280955646	3.1800697	1.783275
30.114622320235863	3.1855853	1.7848208
30.132772604277257	3.193006	1.7868985
30.1509236622349	3.1670556	1.7796223
30.16907549466328	3.170339	1.7805446
30.18722810211705	3.1775384	1.7825651
30.205381485151097	3.1964095	1.7878505
30.22353564432045	3.1878622	1.7854586
30.241690580180403	3.154439	1.776074
30.25984629328638	3.1689918	1.7801663
30.278002784194037	3.101895	1.7612197
30.296160053459246	2.9968746	1.7311484
30.314318101638033	2.956374	1.7194109
30.332476929286646	2.9589345	1.7201554
30.35063653696153	2.9217143	1.7093023
30.368796925219307	2.9736667	1.7244322
30.386958094616844	3.0292377	1.7404705
30.40512004571115	2.9942765	1.7303978
30.423282779059463	2.953454	1.7185616
30.441446295219233	2.898386	1.7024647
30.459610594748067	2.8221476	1.6799248
30.47777567820382	2.8575778	1.6904372
30.495941546144504	2.9641848	1.7216808
30.51410819912835	3.0154977	1.7365189
30.532275637713795	2.9761732	1.7251589
30.55044386245946	2.87722	1.696237
30.56861287392416	2.7952013	1.6718856
30.586782672666956	2.7416055	1.6557795
30.604953259247047	2.795463	1.6719638
30.623124634223885	2.851146	1.6885337
30.641296798157075	2.8664622	1.693063
30.659469751606462	2.890366	1.7001077
30.677643495132074	2.9047487	1.7043324
30.695818029294152	2.8622856	1.6918291
30.713993354653116	2.81957	1.6791575
30.73216947176962	2.7520423	1.658928
30.75034638120448	2.7187214	1.6488546
30.768524083518756	2.6947682	1.6415749
30.786702579273673	2.7614322	1.6617558
30.80488186903069	2.8906102	1.7001795
30.82306195335144	3.0133202	1.7358918
30.841242832797782	3.159821	1.7775885
30.85942450793176	3.3948162	1.8425027
30.877606979315637	3.7496889	1.9364114
30.895790247511883	4.130556	2.032377
30.913974313083134	4.5546165	2.1341548
30.932159176592283	4.9211946	2.2183766
30.95034483860237	5.012063	2.2387638
30.968531299676698	4.7604485	2.1818452
30.98671856037873	4.3786807	2.0925298
31.00490662127215	4.0340514	2.0084949
31.023095482920848	3.563237	1.8876538
31.04128514588892	3.0648427	1.7506692
31.059475610740662	2.765901	1.6630999
31.07766687804056	2.662208	1.6316274
31.09585894835335	2.6670377	1.6331068
31.11405182224393	2.677455	1.636293
31.132245500277417	2.5896544	1.6092403
31.15043998301914	2.5391383	1.5934674
31.168635271034628	2.4652026	1.5700964
31.18683136488964	2.4686217	1.5711849
31.20502826515008	2.4562893	1.5672554
31.223225972382135	2.3972266	1.548298
31.241424487152155	2.3666418	1.5383893
31.259623810026692	2.416894	1.5546362
31.27782394157253	2.4656265	1.5702313
31.296024882356644	2.4743865	1.5730183
31.314226632946237	2.5454586	1.5954493
31.332429193908684	2.5244455	1.5888504
31.350632565811598	2.5188448	1.5870869
31.368836749222787	2.5847993	1.6077311
31.387041744710295	2.6241152	1.6199121
31.40524755284232	2.6531239	1.6288413
31.423454174187317	2.6586106	1.6305246
31.441661609313922	2.7246451	1.6506499
31.459869858791002	2.7103918	1.6463268
31.478078923187628	2.6267033	1.6207107
31.496288803073064	2.52311	1.58843
31.514499499016807	2.4197588	1.5555574
31.532711011588546	2.362463	1.5370306
31.550923341358178	2.324701	1.5246971
31.56913648889584	2.3599741	1.5362208
31.587350454771844	2.4236758	1.5568159
31.605565239556732	2.4167418	1.5545874
31.62378084382127	2.3588345	1.5358498
31.641997268136382	2.3463452	1.5317785
31.660214513073274	2.2894394	1.5130894
31.67843257920331	2.2569394	1.5023113
31.6966514670981	2.3027773	1.5174905
31.71487117732944	2.3134277	1.5209956
31.733091710469346	2.2403543	1.4967813
31.751313067090052	2.1832693	1.477589
31.769535247764008	2.247259	1.499086
31.787758253063878	2.3361938	1.5284612
31.805982083562526	2.3698525	1.5394325
31.824206739833024	2.3565211	1.5350964
31.84243222244869	2.3539357	1.5342541
31.860658531983013	2.3405623	1.5298897
31.878885669009737	2.3367507	1.5286435
31.897113634102784	2.3050525	1.51824
31.91534242783632	2.2409723	1.4969877
31.933572050784694	2.2385473	1.4961776
31.951802503522508	2.3225214	1.523982
31.970033786624548	2.337785	1.5289817
31.988265900665834	2.2305067	1.4934881
32.006498846221575	2.1108732	1.4528844
32.02473262386724	2.1129394	1.4535953
32.04296723417845	2.155144	1.4680408
32.0612026777311	2.118617	1.455547
32.07943895510129	2.1217103	1.4566091
32.097676066865304	2.1461327	1.4649684
32.115914013599685	2.1452794	1.4646772
32.13415279588115	2.1612945	1.4701341
32.152392414286666	2.2089076	1.4862394
32.1706328693934	2.1499245	1.4662621
32.18887416177875	2.1171734	1.4550511
32.20711629202032	2.0867922	1.4445734
32.225359260695924	2.0270503	1.4237452
32.243603068383614	2.0107915	1.4180238
32.26184771566166	2.0197978	1.4211959
32.28009320310852	2.093294	1.446822
32.2983395313029	2.0627239	1.4362186
32.31658670082372	2.0590959	1.434955
32.33483471225012	2.0680819	1.4380827
32.35308356616143	2.137186	1.4619118
32.371333263137245	2.1529827	1.4673046
32.38958380375734	2.1482284	1.4656836
32.407835188601744	2.1169827	1.4549855
32.42608741825067	2.1475217	1.4654425
32.444340493284585	2.120093	1.456054
32.46259441428416	2.1262233	1.4581575
32.48084918183028	2.0599341	1.4352471
32.49910479650405	2.0139315	1.4191306
32.51736125888683	2.021914	1.4219402
32.53561856956014	2.048358	1.4312086
32.5538767291058	2.037378	1.4273676
32.572135738105764	2.0881202	1.445033
32.59039559714228	2.1360455	1.4615216
32.608656306797776	2.0776265	1.4413974
32.62691786765491	2.13558	1.4613624
32.645180280296586	2.2041545	1.4846395
32.663443545305896	2.1616986	1.4702716
32.68170766326619	2.061537	1.4358053
32.69997263476099	2.0426998	1.4292305
32.7182384603741	2.0525806	1.432683
32.7365051406895	2.0517938	1.4324085
32.75477267629144	2.0685472	1.4382445
32.77304106776434	2.086943	1.4446255
32.79131031569289	2.0881348	1.445038
32.809580420661966	2.0695956	1.4386089
32.827851383256714	2.0080078	1.4170419
32.84612320406245	1.9903163	1.4107857
32.86439588366476	2.0145314	1.4193419
32.88266942264945	1.9949058	1.4124113
32.9009438216025	1.9525127	1.3973234
32.9192190811102	1.9713695	1.4040546
32.937495201758985	1.9750369	1.4053601
32.95577218413556	2.0407417	1.4285454
32.974050028826866	1.9905009	1.4108511
32.992328736420035	1.9516336	1.3970088
33.010608307502444	1.924414	1.3872325
33.02888874266169	1.9859047	1.4092213
33.047170042485604	2.0150552	1.4195263
33.06545220756225	2.059256	1.4350108
33.083735238479896	2.0797126	1.4421209
33.10201913582707	2.0772626	1.4412712
33.12030390019248	1.948177	1.3957711
33.138589532165135	1.87732	1.3701533
33.15687603233419	1.929298	1.3889917
33.17516340128909	2.015957	1.419844
33.19345163961947	2.0179746	1.4205543
33.211740747915215	1.957158	1.3989847
33.23003072676643	1.9131966	1.3831835
33.248321576763466	1.9130645	1.3831358
33.266613298496885	1.9292923	1.3889897
33.28490589255747	1.9691484	1.4032634
33.30319935953626	1.9773948	1.4061987
33.32149370002451	2.0031674	1.4153329
33.339788914613706	2.0752623	1.440577
33.358085003895575	2.0345953	1.4263924
33.376381968462034	1.9600666	1.4000238
33.39467980890529	1.8528355	1.361189
33.41297852581774	1.836429	1.355149
33.43127811979204	1.8296369	1.3526407
33.44957859142105	1.9216732	1.3862443
33.467879941297866	1.9117316	1.3826538
33.486182170015844	1.8539028	1.361581
33.50448527816853	1.8696125	1.3673377
33.522789266349754	1.8380933	1.355763
33.541094135153514	1.7850329	1.3360512
33.55939988517411	1.7955395	1.3399774
33.57770651700602	1.9038993	1.3798186
33.59601403124398	2.035149	1.4265865
33.61432242848296	2.0597682	1.4351892
33.632631709318154	1.9953299	1.4125614
33.650941874344994	1.9714831	1.4040952
33.66925292415916	1.8252465	1.3510169
33.68756485935654	1.7894002	1.3376846
33.70587768053328	1.8973205	1.3774326
33.724191388285746	1.9555198	1.398399
33.74250598321054	1.876754	1.3699467
33.760821465904506	1.8949847	1.3765844
33.77913783696474	1.9527874	1.3974217
33.79745509698852	1.8965809	1.3771641
33.815773246573414	1.9419467	1.3935375
33.8340922863172	2.029905	1.4247473
33.852412216817896	2.109453	1.4523956
33.87073303867377	2.1494467	1.4660991
33.889054752483304	2.109883	1.4525436
33.907377358845245	2.0786386	1.4417484
33.92570085835853	2.0781813	1.4415898
33.94402525162239	2.0358872	1.4268452
33.96235053923627	2.0363173	1.4269959
33.980676721799824	1.9907213	1.4109292
33.999003799912984	1.8947715	1.3765069
34.01733177417592	1.9826518	1.4080667
34.03566064518901	2.148474	1.4657674
34.0539904135529	2.1479006	1.4655718
34.07232107986846	2.0858512	1.4442476
34.090652644736785	2.0044336	1.4157802
34.108985108759235	1.9287288	1.3887868
34.12731847253742	1.8288223	1.3523395
34.14565273667313	1.8731886	1.3686448
34.16398790176847	1.9609634	1.400344
34.18232396842574	2.0043974	1.4157674
34.20066093724749	2.0793526	1.4419961
34.21899880883651	2.158897	1.4693185
34.23733758379583	2.0180068	1.4205656
34.25567726272874	1.9813807	1.4076153
34.27401784623872	2.0672705	1.4378005
34.29235933492957	2.065821	1.4372964
34.31070172940526	2.0037746	1.4155475
34.32904503027003	1.9891719	1.41038
34.347389238128386	1.9917437	1.4112915
34.36573435358502	1.9973416	1.4132733
34.38408037724492	2.053871	1.4331332
34.402427309713296	2.120629	1.456238
34.42077515159559	2.1602209	1.469769
34.43912390349752	2.0170462	1.4202275
34.45747356602499	1.9220196	1.3863692
34.47582413978423	2.0788302	1.4418149
34.49417562538163	2.1036527	1.4503975
34.51252802342388	2.069388	1.4385368
34.53088133451789	1.9887723	1.4102384
34.54923555927084	1.8258514	1.3512408
34.567590698290104	1.8217089	1.349707
34.58594675218336	1.9742731	1.4050883
34.6043037215585	2.0328844	1.4257926
34.62266160702365	1.8843313	1.3727095
34.641020409187234	1.8468627	1.3589933
34.65938012865785	1.9584242	1.3994371
34.677740766044394	2.155459	1.4681481
34.69610232195598	2.0247433	1.4229348
34.714464797002016	1.8655459	1.3658499
34.73282819179208	1.7610617	1.32705
34.751192506936064	1.8233379	1.3503103
34.76955774304408	1.7676169	1.3295175
34.7879239007265	1.8223704	1.349952
34.80629098059391	1.9864998	1.4094324
34.824658983257194	1.9529773	1.3974897
34.843027909327446	1.8404999	1.3566502
34.86139775941603	1.9274346	1.3883208
34.879768534134534	1.8637683	1.365199
34.89814023409483	1.8630457	1.3649343
34.91651285990901	1.8679534	1.3667309
34.93488641218944	1.9371982	1.3918327
34.95326089154871	1.9956094	1.4126604
34.97163629859967	1.973103	1.4046719
34.99001263395542	2.008877	1.4173486
35.00838989822934	1.9959124	1.4127676
35.02676809203499	1.9334058	1.3904697
35.04514721598624	1.7840629	1.3356881
35.063527270697215	1.8850312	1.3729644
35.081908256782256	1.8607287	1.3640853
35.10029017485597	1.968237	1.4029387
35.11867302553321	2.0227704	1.4222413
35.137056809429104	1.7412213	1.3195535
35.155441527159006	1.8465906	1.3588932
35.173827179338524	2.0628424	1.4362599
35.19221376658354	2.104776	1.4507846
35.21060128951017	2.131392	1.4599288
35.2289897487348	1.7787513	1.3336984
35.24737914487405	1.6567892	1.2871633
35.26576947854479	1.9242882	1.3871871
35.28416075036418	2.0287054	1.4243263
35.30255296094958	2.0269547	1.4237115
35.32094611091867	2.1351504	1.4612154
35.33934020088932	2.106638	1.4514261
35.35773523147969	1.9900802	1.410702
35.3761312033082	2.1324346	1.4602858
35.394528116993506	2.1828752	1.4774556
35.41292597315452	1.8382905	1.3558357
35.431324772410434	1.6479021	1.2837064
35.449724515380666	1.993463	1.4119005
35.46812520268491	2.4585161	1.5679656
35.486526834943106	2.2500112	1.5000037
35.504929412775454	1.9518212	1.3970759
35.52333293680242	2.0733855	1.4399256
35.54173740764471	2.3073626	1.5190005
35.560142825923286	2.489264	1.5777402
35.5785491922594	1.7718129	1.3310946
35.59695650727454	1.33962	1.1574196
35.61536477159042	1.3578206	1.1652557
