0.008763373481513119	0.56609195	0.7523908
0.026290120649546365	0.33515513	0.57892585
0.043816868432600686	0.2164704	0.4652638
0.06134361724069026	0.08669658	0.29444283
0.07887036748382949	0.08809265	0.29680407
0.0963971195720331	0.10524672	0.3244175
0.11392387391531617	0.13019618	0.3608271
0.1314506309236943	0.14496459	0.38074216
0.1489773910071836	0.08968729	0.29947835
0.16650415457580078	0.16455479	0.40565354
0.18403092203956356	0.13552041	0.36813098
0.20155769380849	0.13956727	0.37358704
0.2190844702925996	0.16851729	0.41050857
0.2366112519019124	0.24592738	0.49591064
0.2541380390464497	0.280926	0.5300245
0.27166483213623416	0.23024738	0.479841
0.28919163158128947	0.15445898	0.3930127
0.3067184377916406	0.09676943	0.31107786
0.324245251177314	0.07327774	0.2706986
0.34177207214833777	0.09346508	0.3057206
0.3592989011147415	0.12593043	0.35486677
0.37682573848655654	0.12753579	0.35712153
0.39435258467381573	0.13433069	0.36651152
0.41187944008655414	0.14448893	0.380117
0.42940630513480854	0.15984748	0.3998093
0.446933180228618	0.190442	0.4363966
0.4644600657780234	0.16672878	0.40832436
0.48198696219306775	0.20555283	0.45337933
0.49951386988379676	0.18996932	0.4358547
0.5170407892602581	0.20173632	0.44915065
0.5345677207325025	0.20921704	0.4574025
0.5520946647105822	0.19903937	0.4461383
0.5696216216045534	0.1935655	0.4399608
0.5871485918244737	0.19495513	0.44153723
0.6046755757804043	0.19698113	0.44382557
0.6222025738824094	0.17258994	0.41543946
0.6397295865405557	0.18124218	0.4257255
0.6572566141649129	0.21072046	0.459043
0.6747836571655547	0.21970183	0.46872362
0.6923107159525568	0.22305132	0.4722831
0.7098377909359992	0.1839956	0.4289471
0.7273648825259653	0.14021929	0.37445867
0.7448919911325411	0.12629353	0.355378
0.762419117165817	0.14814182	0.38489196
0.7799462610358868	0.15544128	0.39426044
0.7974734231528482	0.22260723	0.4718127
0.8150006039268024	0.25558296	0.5055521
0.8325278037678551	0.29588485	0.543953
0.8500550230861152	0.27378488	0.52324456
0.8675822622916969	0.24167983	0.49160942
0.8851095217947171	0.24055913	0.49046826
0.9026368020052984	0.23339362	0.48310828
0.9201641033335665	0.23039176	0.4799914
0.9376914261896523	0.17766261	0.4215004
0.9552187709836915	0.19466084	0.44120386
0.9727461381258234	0.18843815	0.43409464
0.990273528026193	0.19582875	0.44252542
1.0078009410949496	0.21555287	0.4642767
1.0253283777422473	0.23400003	0.4837355
1.0428558383782454	0.28448036	0.533367
1.0603833234131086	0.30022112	0.5479244
1.0779108332570058	0.35153913	0.59290737
1.0954383683201119	0.37272748	0.6105141
1.112965929012607	0.4260862	0.65275276
1.1304935157446763	0.5621799	0.74978656
1.1480211289265108	0.60444224	0.77745885
1.1655487689683062	1.5091925	1.2284919
1.1830764362802655	1.8410121	1.3568391
1.200604131272596	2.2165117	1.4887954
1.2181318543555117	2.4575603	1.5676608
1.235659605939232	2.4727225	1.5724893
1.253187386433982	3.9738762	1.9934584
1.270715196249994	6.290496	2.5080862
1.2882430357975057	11.54878	3.3983498
1.3057709054867608	16.335743	4.04175
1.3232988057280106	22.035482	4.6941967
1.3408267369315112	26.936651	5.190053
1.358354699507526	30.683483	5.5392675
1.3758826938663256	35.014828	5.9173326
1.3934107204181858	37.5155	6.1249895
1.410938779573391	38.45336	6.2010775
1.4284668717422309	39.29271	6.2683897
1.4459949973350033	38.7018	6.221077
1.4635231567620117	38.139442	6.175714
1.4810513504335687	37.06305	6.087943
1.4985795787599925	36.221577	6.0184364
1.5161078421516088	35.27637	5.9393916
1.5336361410187505	34.52932	5.8761654
1.5511644757717598	34.40579	5.865645
1.5686928468209842	35.44212	5.9533286
1.58622125457678	36.182243	6.0151677
1.6037496994495108	37.650444	6.135996
1.621278181849548	37.425804	6.1176634
1.6388067021872719	38.047962	6.168303
1.6563352608730693	37.287193	6.106324
1.673863858317336	36.1758	6.014632
1.6913924949304753	35.587517	5.9655275
1.7089211711228998	34.49973	5.873647
1.7264498873050296	33.517136	5.7893987
1.7439786438872935	32.46344	5.6976695
1.7615074412801288	31.749311	5.6346526
1.779036279893981	31.443674	5.6074657
1.796565160139305	30.878292	5.5568237
1.814094082426564	30.21988	5.497261
1.8316230471662298	29.207357	5.404383
1.849152054768784	27.86397	5.278633
1.8666811056447168	27.18746	5.2141595
1.8842102002045273	26.670515	5.1643505
1.901739338858724	26.454998	5.143442
1.9192685220178245	25.822344	5.081569
1.9367977500923557	24.970795	4.9970784
1.9543270234928547	24.42405	4.9420695
1.971856342629867	23.93491	4.8923316
1.9893857079139496	23.229223	4.8196707
2.006915119755667	22.984823	4.794249
2.0244445785655945	22.4789	4.741192
2.0419740847543175	22.081472	4.699093
2.0595036387324317	21.671783	4.6552963
2.0770332409105414	21.282303	4.6132746
2.094562891699263	21.040422	4.586984
2.1120925915092217	20.430475	4.520008
2.129622340751053	19.853415	4.455717
2.1471521398354043	187.8512	13.705882
2.1646819891729323	444.23712	21.076933
2.182211889174303	440.4464	20.986814
2.1997418402501974	453.0765	21.285593
2.2172718428113023	433.0724	20.81039
2.234801897268317	320.90442	17.913805
2.2523320040319548	17.276003	4.156441
2.269862163512935	16.789883	4.097546
2.287392376121992	16.447212	4.0555162
2.304922642269869	16.232573	4.028967
2.322452962367322	15.932059	3.9914985
2.3399833368251164	15.712307	3.9638753
2.357513766054032	15.229485	3.9024973
2.3750442504648586	15.149217	3.8921995
2.3925747904683963	15.173142	3.8952718
2.410105386475459	15.034343	3.8774145
2.4276360388968707	14.729091	3.8378499
2.445166748143469	14.395055	3.7940814
2.4626975146261025	14.114504	3.7569275
2.4802283387556323	13.845575	3.7209642
2.4977592209429305	13.514861	3.6762564
2.5152901615988825	13.2210865	3.6360812
2.5328211611343865	13.1094055	3.6206913
2.5503522199603523	12.837635	3.5829647
2.5678833384877024	12.586289	3.5477161
2.5854145171273712	12.27885	3.504119
2.6029457562903064	11.917942	3.4522374
2.620477056387469	11.85995	3.4438279
2.6380084178298326	11.660787	3.4147894
2.655539841028383	11.552697	3.3989258
2.673071326394119	11.410681	3.37797
2.6906028743380523	11.226188	3.3505504
2.708134485271211	11.177157	3.3432257
2.7256661596046325	11.0895405	3.3300962
2.743197897749369	10.936742	3.3070745
2.760729700116486	10.740975	3.2773428
2.778261567117063	10.413789	3.2270403
2.795793499162193	10.418929	3.2278366
2.8133254966629817	10.299195	3.209236
2.830857560030551	10.196296	3.1931639
2.8483896896760337	10.057415	3.1713428
2.865921886010578	9.789693	3.1288486
2.883454149445347	9.602021	3.098713
2.9009864803915177	9.388705	3.0640993
2.91851887926028	9.206046	3.0341468
2.9360513464628384	9.057887	3.0096323
2.953583882410413	8.956341	2.9927146
2.9711164875142373	8.850322	2.9749491
2.9886491621855606	8.848454	2.9746351
3.0061819068356455	8.781908	2.9634285
3.023714721875769	8.722377	2.953367
3.041247607717225	8.536014	2.9216456
3.0587805647713213	8.2744055	2.8765266
3.0763135934493806	8.173459	2.8589263
3.0938466941627407	8.1104	2.8478765
3.1113798673227544	8.073008	2.8413038
3.1289131133407904	7.990931	2.8268235
3.1464464326282315	7.906469	2.8118443
3.1639798255964786	7.887102	2.8083985
3.1815132926569443	7.814021	2.795357
3.1990468342210603	7.705105	2.7758071
3.216580450700272	7.6360455	2.7633395
3.2341141425060416	7.5764976	2.752544
3.251647910049847	7.3585005	2.7126555
3.2691817537431813	7.214412	2.6859658
3.286715673997555	7.1330757	2.6707819
3.3042496712244938	7.136031	2.671335
3.32178374583554	7.1468363	2.6733568
3.339317898242251	7.0179543	2.6491423
3.3568521288562034	6.939233	2.6342423
3.3743864380889876	6.8955555	2.625939
3.3919208263522127	6.9321313	2.632894
3.4094552940575023	6.85214	2.6176593
3.4269898416164972	6.6970005	2.5878563
3.444524469440858	6.603632	2.5697534
3.4620591779422587	6.6138725	2.571745
3.479593967532391	6.6564927	2.580018
3.4971288386229658	6.595718	2.568213
3.5146637916257086	6.4482384	2.539338
3.5321988269523628	6.3119545	2.5123603
3.5497339450146903	6.315365	2.5130389
3.5672691462244708	6.2592845	2.5018563
3.5848044309934988	6.226312	2.4952579
3.60233979973359	6.2409086	2.498181
3.619875252856575	6.2551365	2.501027
3.6374107907743034	6.2561684	2.5012333
3.6549464138986427	6.3098774	2.511947
3.6724821226414788	6.351715	2.5202608
3.690017917414714	6.3100686	2.511985
3.7075537986302702	6.370647	2.524014
3.7250897667000857	6.337166	2.5173728
3.7426258220361235	6.474947	2.5445917
3.7601619650503553	6.8281736	2.6130774
3.777698196154779	7.352272	2.7115073
3.7952345157614067	8.436995	2.9046504
3.8127709242822716	9.202195	3.033512
3.830307422129425	11.402642	3.3767798
3.847844009714936	30.23474	5.4986124
3.8653806874508954	97.77397	9.888072
3.882917455749409	97.058395	9.851822
3.900454315022606	96.985054	9.848099
3.917991265682631	41.556686	6.4464474
3.9355283081416506	11.112373	3.3335226
3.9530654428118495	8.808112	2.9678464
3.970602670105433	7.49045	2.7368686
3.9881399904346244	6.666455	2.5819478
4.005677404211669	6.611912	2.5713637
4.023214911848827	6.6153812	2.5720384
4.0407525137583855	6.68602	2.585734
4.058290210352644	6.658201	2.580349
4.075828002043927	6.5203595	2.5534995
4.0933658892445814	6.3787518	2.525619
4.110903872366966	6.3110337	2.512177
4.128441951823468	6.247103	2.4994206
4.145980128026488	6.2055416	2.4910924
4.163518401388452	6.0979967	2.4694123
4.181056772321807	6.24536	2.4990718
4.1985952412390155	6.2444253	2.498885
4.216133808552567	6.3069863	2.5113714
4.233672474674966	6.271181	2.5042326
4.251211240018741	6.486263	2.5468142
4.268750104996445	6.6434107	2.5774815
4.286289070020643	7.6212144	2.7606547
4.303828135503928	9.271009	3.0448332
4.3213673018589125	29.617546	5.4422007
4.3389065694982305	90.83582	9.530783
4.356445938834537	166.1151	12.888564
4.3739854102805085	171.74	13.104961
4.391524984248844	172.59238	13.137442
4.409064661152262	136.73537	11.69339
4.426604441403504	97.01378	9.849557
4.444144325415337	76.06287	8.721403
4.461684313600543	21.942728	4.6843066
4.47922440637193	22.152836	4.70668
4.496764604142329	20.360159	4.5122232
4.5143049073245916	18.497004	4.300814
4.531845316331589	16.36378	4.045217
4.5493858315762195	13.512506	3.675936
4.566926453471405	11.155658	3.3400087
4.584467182430081	9.11065	3.0183854
4.602008018865218	7.9920025	2.827013
4.619548963189798	7.439586	2.7275605
4.637090015816834	6.985444	2.6429992
4.654631177159353	6.7985888	2.6074104
4.672172447630417	6.485001	2.5465665
4.689713827643102	6.3593454	2.5217743
4.7072553176105085	6.1584487	2.4816222
4.724796917945764	5.987249	2.4468856
4.742338629062015	5.8289585	2.4143236
4.759880451372434	5.7382493	2.3954644
4.777422385290215	5.717123	2.3910506
4.794964431228581	5.8108087	2.4105618
4.812506589600768	5.792657	2.4067938
4.830048860820047	5.699395	2.3873405
4.847591245299709	5.629512	2.3726592
4.8651337434530655	5.6027145	2.3670053
4.882676355693457	5.574957	2.3611348
4.900219082434242	5.5828342	2.3628023
4.917761924088813	5.5975246	2.3659089
4.935304881070575	5.5551133	2.3569288
4.952847953792969	5.5345817	2.352569
4.970391142669449	5.492353	2.343577
4.9879344481135055	5.4723425	2.3393037
5.005477870538642	5.438343	2.3320255
5.023021410358394	5.378288	2.3191135
5.040565067986324	5.3671594	2.316713
5.05810884383601	5.451347	2.334812
5.075652738321066	5.573439	2.3608131
5.09319675185512	5.5270047	2.3509583
5.110740884851836	5.4431562	2.3330572
5.128285137724894	5.399631	2.3237107
5.145829510888007	5.4220486	2.3285294
5.163374004754908	5.399924	2.3237736
5.1809186197393595	5.425353	2.3292387
5.198463356255145	5.46015	2.3366964
5.216008214716077	5.5066056	2.3466158
5.233553195535998	5.4639044	2.3374996
5.251098299128764	5.4391127	2.3321905
5.268643525908272	5.3661723	2.3165
5.286188876288432	5.330043	2.3086886
5.3037343506831895	5.3215423	2.3068469
5.32127994950651	5.29067	2.3001456
5.3388256731723915	5.319338	2.306369
5.356371522094851	5.3000164	2.3021765
5.373917496687938	5.1996794	2.2802806
5.391463597365729	5.1347475	2.2659981
5.40900982454232	5.087183	2.2554784
5.426556178631843	5.103059	2.258995
5.444102660048449	5.103881	2.259177
5.4616492692063225	5.157349	2.27098
5.479196006519669	5.143656	2.267963
5.496742872402727	5.196517	2.279587
5.514289867269756	5.280356	2.2979026
5.531836991535049	5.3259106	2.3077934
5.549384245612924	5.318641	2.306218
5.566931629917724	5.239389	2.2889712
5.584479144863822	5.2408533	2.289291
5.6020267908656205	5.314598	2.3053412
5.619574568337545	5.3546853	2.3140192
5.637122477694054	5.309132	2.3041553
5.654670519349629	5.2443676	2.2900584
5.672218693718784	5.1970577	2.2797055
5.689767001216059	5.169894	2.27374
5.707315442256021	5.153226	2.2700717
5.724864017253266	5.135626	2.266192
5.7424127266224225	5.122232	2.2632349
5.75996157077814	5.186923	2.2774818
5.777510550135105	5.1615634	2.2719073
5.795059665108022	5.190361	2.2782364
5.812608916111639	5.1790395	2.2757504
5.830158303560715	5.340164	2.3108795
5.847707827870055	5.3731065	2.3179963
5.86525748945448	5.424885	2.3291383
5.8828072887288485	5.4939704	2.343922
5.900357226108044	5.514758	2.3483522
5.917907302006979	5.6192718	2.3705003
5.9354575168406	6.1458554	2.4790835
5.9530078710238765	6.8785963	2.6227078
5.970558364971812	7.4379373	2.7272582
5.988108999099438	7.7685738	2.7872162
6.005659773821818	8.357535	2.8909402
6.023210689554039	8.115113	2.8487039
6.040761746711227	8.491299	2.9139833
6.058312945708531	7.7644053	2.7864683
6.075864286961132	7.2104425	2.6852267
6.093415770884244	6.663975	2.5814676
6.1109673978931065	6.207148	2.4914148
6.128519168402993	5.7299213	2.3937254
6.146071082829204	5.5766153	2.3614857
6.163623141587075	5.43667	2.3316667
6.181175345091969	5.3190355	2.3063035
6.198727693759281	5.233046	2.2875853
6.216280188004435	5.2344413	2.2878902
6.233832828242885	5.234553	2.2879145
6.251385614890126	5.1840053	2.2768412
6.268938548361669	5.073641	2.2524743
6.286491629073067	4.947865	2.2243798
6.304044857439898	4.9611287	2.227359
6.321598233877777	4.9915657	2.2341812
6.339151758802344	5.066197	2.2508214
6.356705432629277	5.0564933	2.2486649
6.37425925577428	4.999581	2.2359743
6.391813228653095	4.9560647	2.226222
6.409367351681486	4.953919	2.2257402
6.426921625275259	4.9898114	2.2337885
6.44447604985025	5.064589	2.2504642
6.46203062582232	5.043341	2.2457385
6.47958535360737	5.0538464	2.2480762
6.497140233621328	5.111629	2.2608912
6.514695266280161	5.1720247	2.2742085
6.532250451999859	5.254978	2.292374
6.549805791196454	5.2373443	2.2885244
6.567361284286002	5.144731	2.2682
6.584916931684597	5.1287594	2.2646763
6.602472733808367	5.0164266	2.239738
6.6200286910734665	5.0888214	2.2558417
6.637584803896092	5.1154313	2.2617319
6.655141072692462	5.0630755	2.2501278
6.672697497878842	5.028232	2.242372
6.690254079871514	5.020107	2.2405596
6.707810819086808	5.0115976	2.2386599
6.725367715941078	4.984378	2.232572
6.742924770850719	4.935908	2.2216904
6.760481984232151	4.9587526	2.2268257
6.778039356501836	4.99569	2.235104
6.795596888076266	5.000107	2.2360919
6.813154579371963	4.943692	2.2234416
6.830712430805492	4.9695153	2.229241
6.84827044279344	4.9536366	2.2256768
6.865828615752445	5.0522785	2.2477274
6.883386950099159	5.068632	2.2513623
6.900945446250287	5.0805397	2.2540052
6.918504104622553	5.093751	2.256934
6.936062925632727	5.0973644	2.2577343
6.953621909697607	5.0993	2.258163
6.971181057234028	5.131539	2.26529
6.988740368658859	5.143899	2.2680166
7.006299844389007	5.157792	2.2710774
7.023859484841407	5.2416925	2.2894742
7.041419290433036	5.3522	2.3134823
7.058979261580902	5.5641837	2.3588521
7.0765393987020495	5.7713013	2.4023533
7.094099702213559	6.129871	2.4758575
7.111660172532549	6.4026413	2.530344
7.129220810076164	6.7553816	2.5991118
7.146781615261595	7.3524365	2.7115376
7.16434258850606	7.659332	2.7675498
7.181903730226821	8.125499	2.850526
7.1994650408411704	8.188384	2.8615353
7.217026520766437	8.33268	2.8866382
7.234588170419983	8.576508	2.9285674
7.252149990219215	8.608366	2.9340017
7.269711980581568	8.494449	2.9145238
7.2872741419245175	8.32596	2.885474
7.304836474665574	7.8435693	2.8006372
7.322398979222286	7.567805	2.7509644
7.339961656012233	7.2872953	2.6994991
7.357524505453039	6.945766	2.635482
7.375087527962357	6.6337953	2.5756154
7.392650723957886	6.364834	2.5228622
7.410214093857353	5.976704	2.4447298
7.427777638078528	5.762808	2.400585
7.445341357039213	5.5037127	2.3459992
7.4629052511572525	5.35166	2.3133655
7.480469320850524	5.285085	2.2989314
7.498033566536948	5.2767096	2.297109
7.5155979886344735	5.2902985	2.3000648
7.5331625875610975	5.199231	2.2801824
7.550727363734844	5.203378	2.2810915
7.568292317573788	5.1514845	2.2696881
7.585857449496025	5.1808853	2.2761557
7.603422759919705	5.2057147	2.2816036
7.620988249263007	5.203398	2.2810957
7.638553917944147	5.2434316	2.289854
7.656119766381391	5.270198	2.2956913
7.673685794993023	5.290613	2.3001332
7.691252004197388	5.256807	2.2927728
7.70881839441285	5.2531505	2.2919753
7.726384966057826	5.28265	2.2984016
7.743951719550762	5.3273873	2.3081133
7.761518655310149	5.2948456	2.301053
7.779085773754511	5.2955093	2.3011973
7.796653075302419	5.2978754	2.3017113
7.814220560372475	5.3370576	2.3102074
7.831788229383323	5.3572717	2.314578
7.8493560827536495	5.359864	2.315138
7.866924120902174	5.3753133	2.3184721
7.884492344247663	5.434028	2.3311002
7.9020607532089135	5.446281	2.333727
7.919629348204771	5.4709063	2.338997
7.937198129654115	5.4262543	2.3294322
7.954767097975865	5.4038115	2.32461
7.972336253588986	5.398824	2.323537
7.989905596912472	5.4196954	2.328024
8.007475128365371	5.551122	2.356082
8.025044848366756	5.566385	2.3593187
8.042614757335754	5.6620874	2.3795142
8.060184855691523	5.738162	2.395446
8.07775514385327	5.877479	2.4243512
8.095325622240228	5.9314137	2.4354494
8.112896291271687	5.9407845	2.4373724
8.130467151366968	5.970224	2.4434042
8.148038202945436	5.961601	2.441639
8.165609446426497	5.9583235	2.4409678
8.183180882229594	5.9756308	2.4445102
8.200752510774217	6.0315585	2.455923
8.218324332479893	6.014893	2.452528
8.235896347766193	5.987735	2.4469848
8.253468557052724	5.9553614	2.440361
8.27104096075914	5.9646587	2.442265
8.288613559305137	5.9999905	2.4494877
8.306186353110448	6.0921006	2.468218
8.32375934259485	6.204046	2.4907923
8.341332528178162	6.269957	2.5039883
8.358905910280246	6.3016005	2.510299
8.376479489321003	6.2958856	2.5091603
8.394053265720377	6.358514	2.5216093
8.411627239898356	6.295365	2.5090566
8.42920141227497	6.275452	2.5050852
8.44677578327029	6.288507	2.5076895
8.464350353304427	6.3120832	2.512386
8.48192512279754	6.3709593	2.524076
8.499500092169827	6.298423	2.509666
8.51707526184153	6.2058253	2.4911494
8.534650632232934	6.149251	2.4797683
8.552226203764365	6.180202	2.4860013
8.569801976856192	6.252571	2.5005143
8.587377951928834	6.3484993	2.5196228
8.60495412940274	6.382565	2.5263739
8.622530509698416	6.385814	2.5270169
8.6401070932364	6.444294	2.5385613
8.657683880437283	6.53988	2.557319
8.675260871721695	6.6964283	2.587746
8.692838067510303	6.8673716	2.620567
8.710415468223834	6.9974675	2.6452727
8.727993074283043	7.1093626	2.6663387
8.745570886108737	7.1261687	2.6694884
8.763148904121765	7.1649404	2.6767406
8.78072712874302	7.1847515	2.6804388
8.798305560393441	7.4187274	2.7237341
8.815884199494006	7.6310124	2.7624288
8.833463046465745	7.880136	2.807158
8.851042101729728	8.009264	2.8300643
8.86862136570707	8.255429	2.8732262
8.886200838818924	8.389643	2.896488
8.903780521486505	8.389222	2.8964155
8.921360414131055	8.507785	2.9168108
8.938940517173874	8.715194	2.9521506
8.956520831036297	8.89236	2.982006
8.97410135613971	9.139882	3.0232239
8.99168209290554	9.204235	3.0338483
9.009263041755265	9.46218	3.0760658
9.026844203110405	9.716332	3.117103
9.044425577392525	9.885859	3.1441786
9.062007165023239	10.008113	3.1635602
9.079588966424197	10.275788	3.2055871
9.097170982017108	10.393568	3.2239058
9.11475321222372	11.42261	3.3797352
9.132335657465825	12.341388	3.5130312
9.149918318165264	12.444543	3.5276823
9.167501194743924	13.051054	3.6126242
9.18508428762374	12.77524	3.574247
9.202667597226693	12.685728	3.561703
9.220251123974803	12.324582	3.5106385
9.237834868290143	11.996692	3.463624
9.255418830594836	11.848832	3.4422133
9.273003011311046	11.315986	3.3639243
9.290587410860985	11.097073	3.3312268
9.308172029666911	10.3103485	3.210973
9.32575686815113	9.982049	3.1594381
9.343341926735997	8.689641	2.9478197
9.360927205843916	8.52682	2.9200718
9.378512705897327	8.335049	2.8870485
9.396098427318728	8.115977	2.8488555
9.413684370530664	8.015377	2.831144
9.431270535955722	7.9419346	2.8181438
9.448856924016539	7.9204564	2.8143306
9.466443535135806	7.8237233	2.797092
9.484030369736251	7.8209624	2.7965984
9.501617428240658	7.8145213	2.7954466
9.519204711071852	7.7786584	2.7890246
9.536792218652714	7.837928	2.79963
9.55437995140617	7.882153	2.8075173
9.571967909755191	7.8871145	2.8084006
9.589556094122802	7.9169807	2.813713
9.60714450493207	7.9167175	2.813666
9.624733142606116	7.951948	2.8199198
9.642322007568108	7.933326	2.816616
9.659911100241267	7.9449835	2.8186848
9.677500421048851	8.0318365	2.8340495
9.695089970414175	8.049583	2.8371787
9.712679748760609	8.072133	2.84115
9.730269756511557	8.136084	2.8523822
9.747859994090492	8.165886	2.8576014
9.765450461920915	8.248361	2.871996
9.78304116042639	8.268826	2.8755565
9.800632090030527	8.269792	2.8757246
9.81822325115699	8.339633	2.8878422
9.835814644229481	8.319677	2.884385
9.853406269671762	8.3109	2.882863
9.870998127907646	8.334657	2.8869805
9.888590219360985	8.429717	2.9033976
9.906182544455698	8.490748	2.913889
9.923775103615734	8.507711	2.916798
9.941367897265108	8.38434	2.8955724
9.958960925827878	8.326076	2.885494
9.97655418972816	8.379279	2.8946984
9.994147689390106	8.371089	2.8932834
10.011741425237934	8.376959	2.8942976
10.029335397695904	8.289544	2.8791568
10.04692960718833	8.299363	2.8808615
10.06452405413958	8.256545	2.8734205
10.082118738974064	8.274115	2.876476
10.099713662116246	8.280139	2.877523
10.117308823990651	8.322925	2.884948
10.134904225021844	8.351205	2.8898451
10.152499865634445	8.294735	2.880058
10.170095746253125	8.28701	2.8787167
10.18769186730261	8.20786	2.8649364
10.205288229207675	8.1980295	2.8632202
10.222884832393145	8.1501	2.854838
10.2404816772839	8.069044	2.8406062
10.258078764304868	8.056622	2.838419
10.275676093881035	8.057271	2.8385332
10.293273666437438	8.143677	2.8537128
10.310871482399158	8.182222	2.8604584
10.32846954219134	8.180419	2.8601432
10.346067846239173	8.229933	2.8687859
10.363666394967908	8.227332	2.8683326
10.38126518880283	8.22434	2.8678112
10.398864228169298	8.218239	2.8667471
10.416463513492713	8.248899	2.8720896
10.434063045198531	8.164054	2.857281
10.451662823712262	8.139562	2.8529918
10.469262849459467	8.176871	2.8595228
10.486863122865758	8.155494	2.8557825
10.504463644356806	8.179624	2.8600042
10.522064414358338	8.046189	2.8365805
10.539665433296118	7.993545	2.8272858
10.557266701595987	7.937911	2.8174298
10.574868219683818	7.866186	2.8046722
10.592469987985552	7.7411776	2.7822971
10.610072006927185	7.6294584	2.7621474
10.627674276934751	7.518816	2.7420459
10.64527679843435	7.4197755	2.7239265
10.662879571852143	7.2819743	2.6985133
10.680482597614331	7.1324162	2.6706583
10.698085876147173	7.048298	2.654863
10.715689407876988	6.981651	2.6422813
10.733293193230146	6.9572325	2.6376567
10.750897232633072	6.952424	2.636745
10.76850152651225	6.802477	2.6081557
10.786106075294207	6.712421	2.5908341
10.803710879405534	6.518832	2.5532005
10.821315939272877	6.4554796	2.5407636
10.83892125532294	6.341014	2.518137
10.856526827982472	6.2975454	2.509491
10.874132657678285	6.2558594	2.5011716
10.891738744837243	6.259218	2.501843
10.909345089886271	6.2117352	2.4923353
10.926951693252343	6.1745563	2.4848654
10.944558555362494	6.121895	2.4742463
10.96216567664381	6.0878763	2.4673622
10.979773057523436	6.0423846	2.4581263
10.997380698428573	5.980296	2.4454644
11.014988599786477	5.866793	2.4221463
11.032596762024461	5.7960477	2.4074981
11.050205185569892	5.719857	2.3916223
11.067813870850198	5.6293917	2.372634
11.085422818292859	5.5902314	2.364367
11.10303202832541	5.4767613	2.340248
11.120641501375454	5.4640455	2.33753
11.138251237870636	5.4033036	2.3245008
11.155861238238671	5.33506	2.3097749
11.173471502907317	5.257359	2.2928932
11.191082032304402	5.150726	2.269521
11.208692826857805	5.089413	2.2559729
11.226303886995465	5.0941844	2.25703
11.243915213145371	5.070461	2.2517684
11.261526805735578	5.084616	2.2549093
11.279138665194196	5.0053983	2.2372746
11.296750791949393	4.9229665	2.218776
11.314363186429393	4.813395	2.1939452
11.331975849062479	4.787892	2.1881251
11.34958878027699	4.7779946	2.1858625
11.36720198050133	4.7039485	2.1688588
11.384815450163948	4.607296	2.1464612
11.402429189693366	4.5074363	2.1230724
11.420043199518153	4.4888434	2.118689
11.437657480066942	63.477776	7.967294
11.455272031768422	85.199394	9.230351
11.472886855051353	107.6203	10.374021
11.490501950344528	99.19324	9.95958
11.508117318076819	84.5267	9.19384
11.52573295867715	45.914314	6.77601
11.543348872574514	4.233355	2.0575118
11.560965060197946	4.2087607	2.0515265
11.57858152197655	4.1690097	2.0418153
11.59619825833949	4.072918	2.0181472
11.613815269715985	4.0321555	2.0080228
11.631432556535323	38.518723	6.2063456
11.649050119226837	83.059906	9.113721
11.666667958219929	93.426445	9.665735
11.68428607394406	107.67222	10.376522
11.701904466828756	82.49548	9.082703
11.719523137303586	65.417755	8.088124
11.737142085798196	4.6433606	2.154846
11.754761312742286	3.708002	1.9256173
11.772380818565619	3.6491148	1.9102657
11.790000603698015	3.595973	1.8963051
11.80762066856935	3.552119	1.8847066
11.825241013609572	3.5641603	1.8878984
11.842861639248683	3.5744317	1.8906168
11.860482545916748	3.5367248	1.8806182
11.878103734043883	3.4510036	1.8576877
11.895725204060282	3.386426	1.8402244
11.91334695639619	3.3283958	1.8243892
11.930968991481919	3.3771193	1.837694
11.948591309747824	3.3818777	1.8389882
11.966213911624347	3.3540227	1.8313991
11.98383679754198	3.2934444	1.814785
12.001459967931268	3.248358	1.8023201
12.019083423222835	3.233123	1.7980887
12.036707163847352	3.2460072	1.8016679
12.05433119023556	3.2813382	1.8114464
12.071955502818259	3.269007	1.8080395
12.089580102026313	3.2422137	1.8006148
12.107204988290643	3.254193	1.8039383
12.12483016204224	3.1794863	1.7831115
12.142455623712152	3.13032	1.769271
12.16008137373149	3.0734487	1.7531254
12.177707412531431	3.090326	1.7579323
12.19533374054321	3.089777	1.7577761
12.212960358198126	3.0983763	1.7602205
12.230587265927545	3.111705	1.7640026
12.248214464162889	3.1058495	1.7623421
12.265841953335649	3.1125658	1.7642465
12.283469733877375	3.0863583	1.7568034
12.301097806219685	3.0375903	1.7428684
12.31872617079425	2.9838743	1.7273895
12.336354828032825	2.9532316	1.7184969
12.353983778367205	2.9757893	1.7250476
12.371613022229262	2.99587	1.7308582
12.389242560050928	2.9671865	1.7225523
12.406872392264201	2.9659877	1.7222043
12.424502519301143	2.9466875	1.7165918
12.442132941593874	2.92417	1.7100204
12.459763659574586	2.9316075	1.7121937
12.477394673675532	2.9151435	1.7073791
12.49502598432903	2.8906996	1.7002058
12.51265759196746	2.8604403	1.6912836
12.530289497023267	2.8489413	1.6878808
12.547921699928967	2.844403	1.6865358
12.565554201117134	2.8516483	1.6886824
12.583187001020404	2.831645	1.6827493
12.600820100071486	2.8260987	1.6811005
12.618453498703152	2.7944863	1.6716717
12.636087197348235	2.7676656	1.6636302
12.65372119643964	2.7631772	1.6622807
12.671355496410326	2.772299	1.6650223
12.68899009769333	2.8215373	1.6797432
12.706625000721749	2.8591788	1.6909106
12.724260205928752	2.9320414	1.7123204
12.741895713747551	2.9946105	1.7304943
12.759531524611454	3.0409648	1.7438363
12.777167638953818	3.04838	1.7459611
12.794804057208072	3.0314643	1.7411101
12.812440779807702	3.0888705	1.7575183
12.830077807186271	3.2375946	1.7993317
12.847715139777405	3.251285	1.803132
12.865352778014795	3.4600463	1.8601199
12.882990722332197	3.5647027	1.8880421
12.90062897316344	3.6694198	1.915573
12.918267530942412	3.7392936	1.9337254
12.935906396103071	3.639544	1.907759
12.953545569079449	3.8172097	1.9537681
12.971185050305628	3.5906382	1.8948979
12.988824840215775	3.5849247	1.8933897
13.006464939244115	3.5301175	1.8788607
13.024105347824943	3.393867	1.8422451
13.041746066392617	3.5283692	1.8783953
13.05938709538157	3.376463	1.8375155
13.077028435226296	3.3581738	1.832532
13.094670086361363	3.240875	1.800243
13.112312049221401	3.1736474	1.7814734
13.129954324241112	3.1006205	1.7608579
13.147596911855258	2.9345	1.7130382
13.165239812498685	2.8999314	1.7029185
13.182883026606293	2.8052077	1.6748754
13.200526554613058	2.7609918	1.6616232
13.218170396954017	2.7412677	1.6556774
13.235814554064284	2.7418392	1.6558499
13.253459026379034	2.750762	1.6585422
13.271103814333523	2.7209373	1.6495264
13.288748918363058	2.696558	1.64212
13.306394338903031	2.6756258	1.6357341
13.32404007638889	2.641783	1.6253563
13.341686131256164	2.7119586	1.6468025
13.359332503940449	2.7156167	1.6479129
13.376979194877402	2.7273412	1.6514664
13.394626204502751	2.7136106	1.647304
13.412273533252307	2.7586784	1.6609269
13.429921181561937	2.753806	1.6594596
13.447569149867581	2.736908	1.6543603
13.465217438605247	2.7380574	1.6547077
13.482866048211022	2.738793	1.6549299
13.500514979121052	2.7727222	1.6651493
13.518164231771568	2.7300382	1.6522827
13.535813806598844	2.6983058	1.642652
13.553463704039254	2.6740568	1.6352544
13.571113924529229	2.6849875	1.6385932
13.588764468505275	2.6829512	1.6379716
13.606415336403956	2.6806717	1.6372757
13.624066528661917	2.674823	1.6354886
13.641718045715882	2.7698808	1.6642959
13.659369888002635	2.8410587	1.685544
13.67702205595903	2.9194384	1.7086364
13.694674550021993	3.0000129	1.7320545
13.712327370628532	3.0722837	1.7527931
13.729980518215713	3.1604483	1.777765
13.747633993220681	3.2280633	1.7966812
13.765287796080647	3.2726707	1.8090525
13.7829419272329	3.3242283	1.8232466
13.800596387114801	3.3552032	1.8317213
13.818251176163775	3.4063835	1.8456391
13.835906294817324	3.4634159	1.8610255
13.853561743513023	3.48033	1.8655642
13.871217522688525	3.4813607	1.8658404
13.888873632781538	3.4539287	1.8584749
13.906530074229858	3.4492085	1.8572044
13.92418684747135	3.4899576	1.8681428
13.941843952943948	3.5337188	1.8798188
13.959501391085665	3.5501301	1.8841789
13.977159162334578	3.5484488	1.8837327
13.994817267128846	3.4921572	1.8687315
14.012475705906693	3.3688452	1.8354415
14.030134479106424	3.2430766	1.8008544
14.047793587166414	3.1545718	1.7761114
14.065453030525108	3.049399	1.7462528
14.083112809621026	3.003474	1.7330533
14.100772924892766	2.9491735	1.7173158
14.118433376778997	2.9252083	1.710324
14.136094165718458	2.8657255	1.6928453
14.153755292149969	2.7865813	1.6693057
14.171416756512416	2.750388	1.6584294
14.189078559244768	2.6821518	1.6377276
14.20674070078606	2.6027956	1.6133182
14.224403181575408	2.5501595	1.5969219
14.242066002051999	2.5245574	1.5888855
14.259729162655093	2.5099556	1.584284
14.277392663824022	2.4700875	1.5716512
14.295056505998208	2.4346123	1.5603244
14.312720689617128	2.4295912	1.5587146
14.330385215120348	2.4617965	1.5690113
14.348050082947497	2.473712	1.5728039
14.3657152935383	2.4593437	1.5682294
14.383380847332528	2.4456885	1.5638697
14.401046744770051	2.426953	1.5578681
14.418712986290798	2.4247613	1.5571645
14.436379572334793	2.3879912	1.5453126
14.454046503342123	2.383646	1.5439061
14.471713779752946	2.349759	1.5328923
14.489381402007504	2.3393693	1.5294997
14.507049370546113	2.3522537	1.5337058
14.524717685809168	2.3979855	1.548543
14.542386348237134	2.4498913	1.5652128
14.560055358270553	2.463502	1.5695547
14.577724716350051	2.4690878	1.5713332
14.595394422916325	2.4689186	1.5712793
14.61306447841015	2.508247	1.5837445
14.63073488327237	2.5295477	1.5904552
14.648405637943917	2.5449464	1.5952889
14.6660767428658	2.5214198	1.5878979
14.683748198479094	2.5196488	1.5873401
14.701420005224954	2.5662003	1.6019365
14.719092163544628	2.6412337	1.6251873
14.73676467387942	2.6911962	1.6404866
14.754437536670727	2.7056422	1.6448836
14.772110752360014	2.6930192	1.6410421
14.78978432138882	2.665013	1.6324868
14.807458244198777	2.6651864	1.6325399
14.82513252123159	2.6634536	1.632009
14.842807152929028	2.7423885	1.6560159
14.860482139732962	2.755101	1.6598496
14.87815748208531	2.7060843	1.645018
14.8958331804281	2.6612606	1.631337
14.91350923520342	2.6365955	1.6237596
14.931185646853438	2.6835723	1.6381613
14.948862415820408	2.6790833	1.6367905
14.966539542546656	2.6700478	1.6340281
14.98421702747459	2.6435363	1.6258955
15.001894871046696	2.6467068	1.6268703
15.019573073705542	2.6606312	1.6311442
15.037251635893766	2.6130667	1.6164982
15.054930558054092	2.637167	1.6239357
15.072609840629323	2.6862023	1.6389638
15.090289484062351	2.847843	1.6875553
15.107969488796124	3.1526728	1.7755767
15.125649855273691	3.5269973	1.8780302
15.14333058393817	4.0261707	2.006532
15.161011675232768	5.0259624	2.2418659
15.17869312960076	6.4636674	2.5423744
15.196374947485506	8.381699	2.8951163
15.214057129330447	11.541978	3.3973486
15.231739675579114	16.279259	4.034756
15.249422586675102	21.307243	4.615977
15.267105863062092	24.419899	4.9416494
15.284789505183847	24.621815	4.9620376
15.302473513484218	22.437696	4.7368445
15.320157888407127	18.768223	4.3322306
15.337842630396578	14.599504	3.8209298
15.355527739896656	11.417013	3.3789072
15.37321321735153	8.950435	2.9917276
15.39089906320545	6.5153832	2.5525248
15.408585277902748	4.8835583	2.2098775
15.42627186188783	3.7447557	1.9351372
15.443958815605198	3.2278826	1.7966309
15.461646139499424	2.9519963	1.7181375
15.479333834015168	2.8337088	1.6833624
15.497021899597165	2.7484882	1.6578565
15.514710336690234	2.6768296	1.636102
15.53239914573928	2.6186028	1.6182097
15.550088327189297	2.5568514	1.5990157
15.567777881485336	2.4901862	1.5780324
15.58546780907256	2.463388	1.5695183
15.6031581103962	2.4699793	1.5716168
15.620848785901568	2.4822109	1.5755033
15.638539836034063	2.470582	1.5718085
15.656231261239173	2.455886	1.5671266
15.673923061962451	2.4813943	1.5752442
15.691615238649552	2.4798653	1.5747588
15.709307791746202	2.437586	1.561277
15.727000721698221	2.403173	1.550217
15.744694028951498	2.3666558	1.5383939
15.76238771395202	2.3493915	1.5327724
15.780081777145844	2.36096	1.5365416
15.797776218979125	2.361707	1.5367846
15.815471039898094	2.3779263	1.5420526
15.833166240349064	2.3772118	1.5418209
15.850861820778437	2.401023	1.5495235
15.868557781632699	2.4104862	1.552574
15.886254123358412	2.4074378	1.551592
15.903950846402232	2.4192777	1.5554028
15.921647951210897	2.4044068	1.550615
15.939345438231225	2.3671296	1.5385479
15.957043307910133	2.3783762	1.5421985
15.974741560694602	2.372948	1.5404376
15.992440197031714	2.3867939	1.5449252
16.01013921736862	2.370807	1.5397425
16.02783862215259	2.3969278	1.5482014
16.045538411830933	2.4172966	1.5547658
16.06323858685107	2.4341836	1.560187
16.080939147660512	2.430922	1.5591414
16.09864009470684	2.3713136	1.539907
16.11634142843774	2.3326695	1.5273079
16.134043149300954	2.3436868	1.5309105
16.15174525774433	2.3956268	1.5477812
16.169447754215817	2.4343278	1.5602332
16.18715063916342	2.4491723	1.5649831
16.204853913035244	2.4672952	1.5707626
16.222557576279478	2.4691308	1.5713468
16.240261629344403	22.436045	4.73667
16.257966072678386	42.983307	6.5561657
16.275670906729868	38.10755	6.1731315
16.293376131947387	2.5327115	1.5914495
16.31108174877957	2.5273323	1.5897585
16.328787757675133	2.5774019	1.6054289
16.34649415908287	2.5997963	1.6123884
16.364200953451657	2.6012857	1.6128502
16.38190814123048	2.6230803	1.6195927
16.39961572286839	2.6547644	1.6293448
16.41732369881455	2.6868107	1.6391494
16.43503206951817	2.6576178	1.6302202
16.45274083542859	2.6515276	1.6283512
16.47044999699522	2.6817179	1.6375952
16.488159554667558	2.7917783	1.6708616
16.505869508895184	2.8646567	1.6925297
16.523579860127786	2.8954597	1.7016051
16.541290608815117	2.9050958	1.7044342
16.559001755407035	2.9571297	1.7196307
16.57671330035348	3.0270307	1.7398365
16.59442524410448	3.1229243	1.7671797
16.61213758711015	3.1484687	1.7743925
16.629850329820705	3.1853323	1.78475
16.647563472686436	3.2788637	1.8107632
16.665277016157724	3.369124	1.8355174
16.682990960685053	3.434411	1.8532164
16.70070530671898	3.4886055	1.8677809
16.718420054710155	3.5089395	1.8732164
16.736135205109335	3.568454	1.8890352
16.753850758367335	3.6241503	1.9037201
16.771566714935087	3.6608648	1.9133387
16.789283075263597	3.6792626	1.9181404
16.80699983980398	3.7377973	1.9333384
16.82471700900741	3.834644	1.9582248
16.84243458332518	3.9255807	1.9813079
16.860152563208665	3.991	1.9977487
16.87787094910932	4.049557	2.0123513
16.89558974147871	4.12989	2.032213
16.913308940768466	4.1979184	2.0488822
16.931028547430333	4.2205653	2.0544014
16.94874856191613	4.2161794	2.0533338
16.966468984677785	4.283399	2.0696375
16.98418981616729	4.3748	2.0916023
17.00191105683676	4.454811	2.1106424
17.019632707138374	4.525919	2.1274207
17.03735476752442	4.5866623	2.1416495
17.05507723844728	4.6202426	2.1494749
17.072800120359403	4.6542335	2.1573672
17.090523413713353	4.670226	2.1610706
17.108247118961785	4.644232	2.155048
17.125971236557437	4.667937	2.1605408
17.143695766953133	4.6890283	2.1654165
17.161420710601806	4.7157297	2.1715732
17.179146067956477	4.705942	2.1693184
17.19687183947025	4.6670995	2.160347
17.21459802559634	4.6654844	2.1599731
17.232324626788028	4.679147	2.1631336
17.25005164349871	4.7042923	2.1689382
17.267779076181863	4.702247	2.1684666
17.285506925291074	4.6586046	2.15838
17.30323519127999	4.572074	2.1382408
17.320963874602384	4.5574446	2.1348171
17.33869297571211	4.5702763	2.1378205
17.356422495063114	4.585961	2.1414857
17.37415243310944	4.531715	2.1287825
17.391882790305218	4.519204	2.125842
17.40961356710468	4.497036	2.1206217
17.42734476396215	4.538972	2.1304862
17.445076381332044	4.5394106	2.1305892
17.462808419668868	4.604542	2.1458197
17.48054087942723	4.7027225	2.1685762
17.498273761061835	4.989932	2.2338157
17.51600706502747	5.5102344	2.3473887
17.533740791779024	6.353934	2.5207012
17.551474941771485	7.8255734	2.7974226
17.56920951545993	8.980404	2.9967322
17.586944513299528	11.081386	3.3288715
17.60467993574556	12.783844	3.5754502
17.622415783253373	14.3912	3.7935736
17.64015205627843	15.759237	3.9697907
17.657888755276293	16.68093	4.0842295
17.675625880702604	17.232134	4.1511607
17.69336343301311	17.157007	4.142102
17.71110141266366	16.472364	4.058616
17.728839820110178	15.563597	3.9450724
17.746578655808705	14.570376	3.8171163
17.764317920215372	13.079164	3.6165125
17.7820576137864	11.531779	3.3958473
17.79979773697811	9.461981	3.0760334
17.81753829024692	7.541048	2.7460968
17.835279274049356	5.8663135	2.4220474
17.85302068884201	4.8230014	2.1961334
17.870762535081607	4.202865	2.0500891
17.888504813224934	3.8752604	1.9685681
17.90624752372891	3.6925063	1.9215895
17.923990667050536	3.6131604	1.9008315
17.941734243646895	3.57197	1.8899657
17.959478253975185	3.52615	1.8778045
17.9772226984927	3.4398909	1.8546942
17.994967577656833	3.3639245	1.8341005
18.01271289192506	3.3399012	1.8275397
18.030458641754965	3.338401	1.8271292
18.04820482760425	3.2960103	1.8154918
18.06595144993067	3.2684267	1.8078791
18.083698509192125	3.2518363	1.8032849
18.101446005846576	3.2706256	1.808487
18.119193940352105	3.2568479	1.8046739
18.136942313166887	3.2397826	1.7999396
18.1546911247492	3.2055779	1.7904128
18.1724403755574	3.1625586	1.7783583
18.19019006604997	3.114763	1.7648691
18.207940196685467	3.0863965	1.7568142
18.225690767922575	3.118297	1.7658701
18.243441780220046	3.1009576	1.7609537
18.261193234036764	3.0633972	1.7502563
18.278945129831676	3.0459595	1.7452677
18.29669746806386	3.0848598	1.7563769
18.314450249192483	3.1251795	1.7678177
18.3322034736768	3.1001575	1.7607265
18.349957141976184	3.0652633	1.7507893
18.3677112545501	3.0605025	1.7494292
18.385465811858108	3.1227744	1.7671373
18.403220814359884	3.131703	1.7696618
18.420976262515172	3.1135302	1.7645198
18.43873215678387	3.113634	1.7645493
18.456488497625923	3.1674402	1.7797303
18.474245285501407	3.2378538	1.7994037
18.492002520870486	3.3255622	1.8236125
18.50976020419343	3.3864658	1.8402352
18.527518335930615	3.7293718	1.9311582
18.545276916542516	4.278755	2.0685153
18.563035946489688	4.4552584	2.1107483
18.580795426232832	4.875282	2.208004
18.598555356232698	4.764921	2.18287
18.616315736950185	5.062005	2.24989
18.63407656884626	4.687067	2.1649635
18.65183785238201	4.9191823	2.217923
18.669599588018617	4.6469216	2.155672
18.68736177621737	4.660177	2.1587443
18.705124417439652	4.6340346	2.1526809
18.72288751214696	4.4757843	2.1156049
18.740651060800886	4.593849	2.1433268
18.758415063863115	4.3014855	2.0740023
18.77617952179546	4.5322638	2.1289115
18.793944435059814	4.365584	2.089398
18.811709804118184	4.4121413	2.10051
18.829475629432675	4.297674	2.0730832
18.8472419114655	4.054209	2.0135067
18.86500865067897	4.07415	2.0184524
18.88277584753551	3.769423	1.9415002
18.90054350249763	3.7690349	1.9414003
18.918311616027957	3.4522226	1.8580158
18.936080188589226	3.3754306	1.8372345
18.953849220644265	3.1137004	1.7645681
18.971618712656007	2.945955	1.7163785
18.9893886650875	2.8589947	1.6908562
19.007159078401887	8.031767	2.8340373
19.024929953062408	32.892544	5.7352023
19.042701289532435	32.853077	5.7317605
19.060473088275405	25.409155	5.0407495
19.07824534975489	2.6634517	1.6320084
19.096018074434568	2.6235096	1.6197252
19.113791262778197	2.6128368	1.6164272
19.13156491524966	2.6014724	1.612908
19.149339032312945	2.584221	1.6075512
19.167113614432136	2.5713372	1.603539
19.184888662071433	2.5308905	1.5908773
19.202664175695123	2.5339434	1.5918365
19.220440155767623	2.5182583	1.5869021
19.238216602753447	2.5742922	1.6044601
19.2559935171172	2.5746458	1.6045703
19.27377089932361	2.5517373	1.5974158
19.291548749837514	2.5411172	1.5940882
19.309327069123835	2.5388076	1.5933636
19.32710585764763	2.5499344	1.5968513
19.344885115874032	2.5134656	1.5853913
19.362664844268313	2.5042582	1.5824848
19.380445043295822	2.4873593	1.5771364
19.39822571342203	2.492197	1.5786694
19.41600685511252	2.4971294	1.5802308
19.43378846883297	2.4919596	1.5785942
19.451570555049173	2.472298	1.5723542
19.469353114227037	2.4669242	1.5706445
19.48713614683254	2.4884598	1.5774853
19.50491965333182	2.5365431	1.5926529
19.52270363419109	2.5418277	1.594311
19.540488089876686	2.5130615	1.5852638
19.55827302085503	2.45529	1.5669365
19.576058427592674	2.467062	1.5706884
19.593844310556282	2.5046306	1.5826025
19.611630670212598	2.5444999	1.5951488
19.629417507028506	2.5779052	1.6055856
19.64720482147098	2.5548651	1.5983945
19.6649926140071	2.5026166	1.581966
19.682780885104084	2.4607282	1.5686709
19.70056963522921	2.463081	1.5694206
19.718358864849908	2.5238285	1.5886562
19.7361485744337	2.5294511	1.5904248
19.753938764448215	2.5164776	1.5863409
19.771729435361202	2.5021174	1.5818082
19.789520587640506	2.5183	1.5869153
19.807312221754092	2.5161598	1.5862408
19.825104338170043	2.5114436	1.5847535
19.842896937356517	2.5248363	1.5889734
19.860690019781824	2.545542	1.5954754
19.87848358591436	2.5617905	1.6005595
19.896277636222635	2.5487652	1.5964853
19.914072171175278	2.5104167	1.5844295
19.931867191241015	2.4813442	1.5752283
19.94966269688869	2.4611182	1.5687952
19.967458688587264	2.4500926	1.5652771
19.985255166805807	2.4864087	1.576835
20.00305213201348	2.5254686	1.5891722
20.020849584679578	2.5241256	1.5887496
20.038647525273507	2.490589	1.5781599
20.05644595426477	2.452696	1.5661086
20.07424487212299	2.4347982	1.560384
20.092044279317903	2.44945	1.565072
20.109844176319353	2.4809763	1.5751115
20.127644563597304	2.4526641	1.5660983
20.145445441621817	2.4588385	1.5680684
20.16324681086307	2.4378688	1.5613676
20.181048671791373	2.403583	1.5503494
20.198851024877122	2.365557	1.5380367
20.216653870590836	2.352523	1.5337937
20.234457209403146	2.3670685	1.5385281
20.252261041784802	2.352245	1.5337031
20.270065368206662	2.3501308	1.5330136
20.287870189139685	2.358943	1.5358851
20.305675505054968	2.3557107	1.5348325
20.323481316423702	2.3590586	1.5359228
20.341287623717207	2.3624103	1.5370134
20.359094427406884	2.350346	1.5330838
20.376901727964288	2.3457305	1.5315778
20.39470952586107	2.3703506	1.5395943
20.41251782156899	2.3449626	1.5313271
20.430326615559935	2.3290157	1.5261114
20.448135908305886	2.3339798	1.5277368
20.465945700278965	2.3390532	1.5293963
20.483755991951384	2.308149	1.5192593
20.50156678379548	2.3003383	1.5166866
20.519378076283708	2.3294969	1.526269
20.537189869888635	2.3366058	1.528596
20.55500216508294	2.3266716	1.5253431
20.572814962339415	2.2707574	1.5069033
20.59062826213098	2.2489264	1.4996421
20.60844206493066	2.2810173	1.5103037
20.626256371211593	2.3189423	1.5228074
20.644071181447032	2.3131018	1.5208884
20.66188649611036	2.3065672	1.5187386
20.67970231567506	2.3357317	1.5283101
20.697518640614742	2.3217962	1.5237441
20.715335471403122	2.315701	1.5217427
20.73315280851404	2.313442	1.5210004
20.750970652421447	2.3758957	1.5413941
20.768789003599412	2.3742366	1.5408558
20.786607862522136	2.3373477	1.5288386
20.8044272296639	2.2715652	1.5071713
20.82224710549913	2.2841423	1.5113379
20.84006749050237	2.269347	1.5064352
20.857888385148268	3.817358	1.953806
20.8757097899116	45.914455	6.7760205
20.893531705267254	64.77019	8.047993
20.911354131690224	83.78954	9.153663
20.92917706965566	69.06357	8.31045
20.94700051963877	50.150978	7.0817356
20.96482448211493	29.4294	5.424887
20.982648957559622	4.143	2.0354362
21.00047394644843	2.2238975	1.4912738
21.01829944925707	2.2209206	1.4902754
21.036125466461375	2.2490413	1.4996804
21.053951998537297	2.2688253	1.5062621
21.071779045960906	2.2532613	1.5010867
21.089606609208378	2.2431931	1.4977293
21.10743468875603	2.258116	1.502703
21.12526328508028	2.2721698	1.5073718
21.143092398657675	2.2683077	1.5060902
21.16092202996488	2.249713	1.4999043
21.17875217947867	2.249378	1.4997927
21.19658284767596	2.2674773	1.5058144
21.21441403503377	2.2439501	1.497982
21.232245742029225	2.1813657	1.4769447
21.2500779691396	2.1781883	1.4758687
21.26791071684227	2.2069352	1.4855757
21.28574398561475	2.196566	1.4820817
21.30357777593465	2.1729777	1.4741024
21.321412088279704	2.1532574	1.4673982
21.339246923127792	2.1475723	1.4654597
21.357082280956888	2.176454	1.475281
21.3749181622451	2.159886	1.469655
21.392754567470647	2.1304693	1.4596127
21.41059149711187	2.1085727	1.4520925
21.42842895164726	2.1418605	1.4635097
21.446266931555378	2.1656191	1.4716042
21.464105437314945	2.1468818	1.4652241
21.481944469404798	2.1041923	1.4505835
21.49978402830388	2.0993104	1.4488997
21.51762411449127	2.0926642	1.4466044
21.53546472844617	2.0744197	1.4402846
21.553305870647876	2.067383	1.4378397
21.571147541575865	2.076262	1.440924
21.58898974170967	2.0997834	1.449063
21.60683247152899	2.0944233	1.4472122
21.62467573151363	2.089534	1.4455221
21.642519522143523	2.0915234	1.44621
21.660363843898722	2.0763135	1.4409419
21.6782086972594	2.0839522	1.44359
21.696054082705864	2.0970592	1.4481226
21.713900000718535	2.0966494	1.4479811
21.73174645177795	2.0526474	1.4327064
21.749593436364794	2.0301058	1.4248178
21.767440954959845	2.0224168	1.422117
21.785289008044032	1.9903351	1.4107924
21.803137596098388	1.9897945	1.4106008
21.820986719604086	2.0222435	1.4220561
21.838836379042412	2.0422118	1.4290597
21.85668657489478	2.025358	1.4231507
21.87453730764273	2.0157957	1.4197872
21.892388577767914	2.0562065	1.4339478
21.91024038575213	2.065072	1.4370359
21.928092732077285	2.050479	1.4319494
21.945945617225426	2.0528529	1.432778
21.963799041678694	2.0373087	1.4273432
21.981653005919398	31.33916	5.5981393
21.999507510429943	78.124016	8.838779
22.01736255569286	73.063446	8.547716
22.035218142190818	4.190803	2.0471451
22.05307427040661	2.0220945	1.4220037
22.07093094082315	2.0148501	1.4194542
22.088788153923474	1.9972173	1.4132293
22.106645910190746	1.997865	1.4134585
22.12450421010827	2.0107982	1.4180262
22.142363054159464	2.022727	1.4222261
22.16022244282787	1.9949667	1.4124329
22.178082376597164	1.9727246	1.4045371
22.195942855951145	1.9311491	1.389658
22.213803881373742	1.9416666	1.393437
22.231665453349002	1.9555414	1.3984067
22.24952757236111	1.949651	1.396299
22.26739023889438	1.9268043	1.3880937
22.28525345343323	1.9343686	1.3908159
22.30311721646225	1.9488155	1.3959998
22.320981528466113	1.972809	1.4045671
22.33884638992964	1.9489719	1.3960558
22.356711801337788	1.946816	1.3952835
22.37457776317561	1.9353341	1.3911629
22.392444275928337	1.9659898	1.4021376
22.410311340081282	1.9782213	1.4064926
22.428178956119904	1.9705949	1.4037788
22.446047124529805	1.9599537	1.3999834
22.46391584579669	1.9619586	1.4006994
22.481785120406414	1.9604574	1.4001634
22.49965494884496	1.9699874	1.4035624
22.51752533159841	1.954627	1.3980798
22.53539626915302	1.9262998	1.387912
22.553267761995137	1.8988492	1.3779874
22.571139810611264	1.9128926	1.3830736
22.589012415488025	1.9608678	1.4003099
22.60688557711216	1.9639273	1.4014019
22.624759295970566	1.9639999	1.4014277
22.642633572550263	1.9350002	1.3910428
22.660508407338362	1.966203	1.4022136
22.67838380082217	1.9475005	1.3955288
22.696259753489077	1.9681879	1.4029212
22.714136265826614	2.0003114	1.4143237
22.73201333832246	1.9961036	1.4128354
22.74989097146439	1.9579026	1.3992507
22.76776916574035	1.9222425	1.3864496
22.785647921638393	1.908517	1.3814908
22.803527239646712	1.8783937	1.370545
22.82140712025363	1.8788698	1.3707187
22.839287563947593	1.895666	1.3768319
22.85716857121719	1.9361439	1.3914539
22.875050142551135	1.9527507	1.3974086
22.892932278438277	1.9547101	1.3981094
22.910814979367604	1.9080058	1.3813058
22.928698245828222	1.91081	1.3823205
22.946582078309387	1.9393892	1.3926196
22.96446647730047	1.9736627	1.4048711
22.98235144329098	1.9861208	1.409298
23.000236976770562	1.9627979	1.4009988
23.018123078229	1.9501704	1.396485
23.03600974815619	1.9150772	1.3838631
23.053896987042194	1.8925639	1.3757049
23.071784795377173	1.8604541	1.3639846
23.08967317365145	1.8651661	1.3657109
23.10756212235546	1.9017422	1.3790367
23.125451641979787	1.9249198	1.3874148
23.143341733015134	1.9512376	1.396867
23.161232395952357	1.9092364	1.3817512
23.179123631282426	1.8983715	1.377814
23.197015439496468	1.9467263	1.3952514
23.214907821085717	1.9679024	1.4028194
23.23280077654157	1.9675758	1.402703
23.250694306355538	1.9225795	1.3865712
23.268588411019277	1.9579012	1.3992503
23.28648309102458	1.9284697	1.3886935
23.304378346863356	1.9225653	1.386566
23.322274179027676	1.9432974	1.394022
23.340170588009723	1.9398977	1.3928021
23.358067574301852	1.9335197	1.3905106
23.37596513839651	1.9391142	1.3925208
23.39386328078629	1.9701658	1.403626
23.411762001963947	1.9291483	1.3889378
23.429661302422353	1.9143895	1.3836147
23.4475611826545	1.9266717	1.388046
23.46546164315356	2.0189693	1.4209044
23.48336268441279	2.0409615	1.4286222
23.501264306925638	1.9804541	1.407286
23.51916651118564	1.8956641	1.3768312
23.537069297686497	1.8601774	1.3638833
23.554972666922037	1.880015	1.3711364
23.57287661938623	1.9181007	1.3849552
23.59078115557318	1.9188155	1.3852131
23.608686275977128	1.9174095	1.3847055
23.62659198109246	1.9125478	1.382949
23.6444982714137	1.90947	1.3818357
23.66240514743549	1.9051117	1.3802578
23.68031260965263	1.8892522	1.3745008
23.698220658560068	1.8865448	1.3735155
23.716129294652845	1.897477	1.3774894
23.7340385184262	1.9028494	1.379438
23.75194833037546	1.9306116	1.3894645
23.769858730996123	1.9420042	1.3935581
23.78776972078382	1.9484817	1.3958802
23.80568130023431	1.9305937	1.3894581
23.823593469843495	1.9004941	1.3785841
23.841506230107424	1.9134176	1.3832633
23.859419581522275	1.9316676	1.3898444
23.87733352458438	1.9481193	1.3957504
23.89524805979019	1.9418651	1.3935082
23.913163187636318	1.905872	1.3805332
23.931078908619508	1.8963665	1.3770863
23.948995223236633	1.9172263	1.3846394
23.966912131984735	1.9842677	1.4086404
23.98482963536096	2.033611	1.4260473
24.002747733862616	2.033799	1.4261132
24.020666427987155	2.0291903	1.4244965
24.038585718232156	2.0337667	1.4261019
24.056505605095353	2.0187018	1.4208102
24.074426089074617	2.0656798	1.4372473
24.092347170667946	2.0683239	1.4381669
24.110268850373515	2.0804634	1.4423811
24.128191128689586	2.116223	1.4547244
24.146114006114626	2.1339557	1.4608065
24.164037483147187	2.112023	1.4532801
24.181961560286005	2.0873597	1.4447697
24.199886238029926	2.085988	1.444295
24.21781151687797	2.116398	1.4547845
24.235737397329274	2.045081	1.4300632
24.253663879883135	2.0538	1.4331086
24.271590965038975	2.0743847	1.4402725
24.289518653296376	2.0850286	1.4439628
24.30744694515505	2.0469255	1.430708
24.32537584111486	2.0333984	1.4259728
24.34330534167581	1.9920537	1.4114014
24.361235447338046	2.0022397	1.4150052
24.379166158601876	1.9762522	1.4057924
24.39709747596772	1.9695008	1.403389
24.41502939993615	2.004784	1.415904
24.432961931007917	2.056522	1.4340578
24.450895069683856	2.0715947	1.4393035
24.468828816465	2.0458457	1.4303306
24.4867631718525	2.010261	1.4178368
24.504698136347656	1.9725063	1.4044595
24.52263371045192	1.9612933	1.4004618
24.540569894666874	1.9606878	1.4002455
24.558506689494266	1.989332	1.4104367
24.57644409543597	1.9977567	1.4134202
24.594382112994012	1.970538	1.4037585
24.61232074267057	1.941748	1.3934662
24.630259984967953	1.913898	1.383437
24.64819984038863	1.9102758	1.3821273
24.66614030943522	1.9545761	1.3980615
24.684081392610462	1.9627798	1.4009924
24.702023090417274	1.9877186	1.4098648
24.7199654033587	2.00452	1.4158107
24.737908331937927	2.0397975	1.4282148
24.755851876658305	2.0575113	1.4344028
24.773796038023324	2.08275	1.4431736
24.79174081653661	2.1158624	1.4546005
24.809686212701962	2.1156352	1.4545224
24.827632227023294	2.1205328	1.4562049
24.8455788600047	2.1129754	1.4536077
24.8635261121504	2.1198833	1.4559819
24.88147398396475	2.120361	1.456146
24.899422475952303	2.142165	1.4636136
24.917371588617698	2.149017	1.4659526
24.935321322465768	2.2008338	1.4835207
24.953271678001478	2.2730083	1.5076499
24.97122265572994	2.4937415	1.5791584
24.989174256156414	2.8378587	1.6845945
25.00712647978632	3.2762475	1.8100407
25.02507932712521	3.765943	1.9406037
25.043032798678798	4.2414327	2.059474
25.060986894952933	4.9498057	2.2248158
25.078941616453637	5.805702	2.4095025
25.096896963687055	6.790418	2.605843
25.114852937159508	7.8561244	2.802878
25.132809537377444	8.206984	2.8647833
25.150766764847468	8.2029505	2.8640792
25.168724620076347	7.673555	2.7701182
25.186683103570985	6.7146645	2.5912669
25.204642215838426	5.5444965	2.3546755
25.222601957385894	4.2366414	2.0583103
25.24056232872074	3.242324	1.8006455
25.25852333035048	2.6390827	1.6245253
25.276484962782778	2.278796	1.5095681
25.294447226525435	2.1301572	1.4595058
25.312410122086423	2.0256667	1.4232591
25.330373649973843	2.0030494	1.4152913
25.348337810695988	1.9558294	1.3985097
25.366302604761245	1.9517261	1.3970419
25.384268032678207	1.9644072	1.4015731
25.40223409495558	1.960427	1.4001526
25.420200792102257	1.9308513	1.3895508
25.438168124627246	1.8939859	1.3762215
25.45613609303974	1.9328393	1.390266
25.474104697849057	1.9605336	1.4001906
25.492073939564698	1.9873377	1.4097296
25.510043818696285	1.9875859	1.4098177
25.528014335753614	1.9543062	1.3979651
25.54598549124664	1.8587234	1.36335
25.56395728568544	1.8320692	1.3535395
25.58192971958028	1.8425027	1.3573881
25.59990279344156	1.8804685	1.3713018
25.617876507779833	1.8785115	1.3705881
25.635850863105826	1.870399	1.3676254
25.653825859930386	1.866852	1.366328
25.671801498764548	1.8495284	1.3599737
25.68977778011949	1.833231	1.3539686
25.707754704506524	1.8314829	1.3533229
25.725732272437153	1.8519313	1.3608569
25.743710484423012	1.8299645	1.3527619
25.761689340975888	1.8307378	1.3530476
25.77966884260774	1.776042	1.3326823
25.797648989830662	1.7510133	1.3232586
25.815629783156922	1.800305	1.3417544
25.83361122309895	1.8871866	1.3737491
25.85159331016929	1.9100108	1.3820314
25.869576044880695	1.8501749	1.3602114
25.887559427746034	1.825916	1.3512646
25.90554345927836	1.8455416	1.3585072
25.92352813999086	1.8596814	1.3637013
25.94151347039689	1.8552209	1.362065
25.959499451009965	1.845545	1.3585083
25.97748608234374	1.8575042	1.3629029
25.995473364912062	1.8134497	1.3466439
26.013461299228904	1.7807426	1.3344446
26.03144988580839	1.8164239	1.3477477
26.04943912516483	1.8419846	1.3571973
26.067429017812675	1.8562208	1.362432
26.085419564266537	1.8174653	1.348134
26.103410765041186	1.8328955	1.3538448
26.12140262065155	1.8268954	1.3516269
26.139395131612723	1.8636636	1.3651606
26.157388298439948	1.874904	1.3692714
26.17538212164861	1.8775742	1.370246
26.193376601754295	1.8432205	1.3576525
26.211371739272714	1.8376509	1.3555999
26.229367534719746	1.8862653	1.3734137
26.247363988611433	1.8692418	1.3672022
26.26536110146397	1.8469362	1.3590204
26.283358873793727	1.8489926	1.3597766
26.301357306117204	1.847224	1.3591262
26.319356398951104	1.8161381	1.3476417
26.33735615281224	1.8080572	1.3446401
26.35535656821762	1.8077577	1.3445288
26.373357645684404	1.8094773	1.3451681
26.39135938572991	1.8188887	1.3486618
26.409361788871614	1.8055689	1.3437146
26.427364855627165	1.8253816	1.3510668
26.445368586514352	1.8408744	1.3567883
26.46337298205115	1.8231727	1.3502492
26.48137804275568	1.7891668	1.3375974
26.499383769146217	1.7988989	1.3412304
26.517390161741215	1.8338876	1.3542111
26.53539722105928	1.8200551	1.3490942
26.553404947619182	1.8198221	1.3490078
26.571413341939856	1.8125706	1.3463174
26.589422404540397	1.7949404	1.3397539
26.60743213594006	1.7295511	1.315124
26.62544253665827	1.7900959	1.3379446
26.64345360721459	1.822021	1.3498226
26.66146534812879	1.8131515	1.3465332
26.679477759920758	1.7846003	1.3358893
26.69749084311057	1.7836703	1.3355412
26.71550459821847	1.8289353	1.3523813
26.733519025764842	1.8499186	1.3601171
26.751534126270258	1.8648006	1.365577
26.769549900255434	1.8727999	1.3685027
26.787566348241267	1.8409919	1.3568316
26.80558347074881	1.8128468	1.3464199
26.823601268299267	1.8357646	1.3549039
26.841619741414036	1.8291243	1.3524512
26.85963889061465	1.881722	1.3717587
26.877658716422832	1.8709929	1.3678424
26.89567921936045	1.8253438	1.3510529
26.913700399949544	1.7856038	1.3362648
26.93172225871233	1.7758987	1.3326285
26.949744796171174	1.7842798	1.3357694
26.967768012848605	1.8217803	1.3497335
26.98579190926733	1.8640925	1.3653177
27.003816485950225	1.8422005	1.3572769
27.021841743420318	1.8736602	1.3688171
27.039867682200814	1.8720987	1.3682466
27.057894302815072	1.7765926	1.3328888
27.07592160578664	1.7277842	1.314452
27.0939495916392	1.7728108	1.3314694
27.111978260896635	1.8276793	1.3519169
27.13000761408296	1.8049166	1.3434719
27.148037651722397	1.7994816	1.3414476
27.166068374339304	1.831248	1.3532361
27.184099782458215	1.8648918	1.3656104
27.20213187660384	1.8641613	1.3653429
27.22016465730105	1.8424536	1.3573701
27.23819812507487	1.7913306	1.338406
27.256232280450533	1.7516938	1.3235158
27.274267123953383	1.7648873	1.3284906
27.292302656108987	1.8408229	1.3567693
27.31033887744306	1.8570652	1.3627418
27.32837578848146	1.8191595	1.3487622
27.34641338975026	1.8202885	1.3491807
27.364451681775673	1.8377148	1.3556234
27.382490665084074	1.8428308	1.357509
27.400530340202046	1.8320253	1.3535233
27.41857070765629	1.7923812	1.3387984
27.436611767973726	1.779288	1.3338996
27.454653521681404	1.7913487	1.3384128
27.472695969306564	1.794104	1.3394417
27.490739111376627	1.8246567	1.3507986
27.508782948419153	1.8019365	1.3423623
27.526827480961902	1.8034681	1.3429327
27.54487270953279	1.7830813	1.3353207
27.562918634659898	1.8359954	1.354989
27.580965256871508	1.8524256	1.3610384
27.599012576696026	1.8442814	1.3580432
27.617060594662068	1.8343353	1.3543763
27.63510931129842	1.81613	1.3476387
27.65315872713401	1.8426397	1.3574387
27.67120884269797	1.8359565	1.3549747
27.68925965851958	1.8339438	1.3542318
27.707311175128307	1.8479608	1.3593972
27.725363393053787	1.8865318	1.3735107
27.74341631282583	1.9171174	1.3846
27.7614699349744	1.937309	1.3918725
27.77952426002968	2.0914426	1.446182
27.797579288521973	2.1124396	1.4534234
27.815635020981784	2.512489	1.5850832
27.83369145793979	2.5762331	1.6050649
27.85174859992682	2.458822	1.5680631
27.869806447473923	2.331116	1.5267992
27.887865001112267	2.0312564	1.4252216
27.905924261373233	1.9074659	1.3811104
27.92398422878836	1.8919888	1.3754958
27.94204490388936	1.9448147	1.3945662
27.96010628720813	1.9065864	1.3807919
27.978168379276728	1.8646216	1.3655115
27.9962311806274	1.8113844	1.3458768
28.014294691792568	1.8151191	1.3472636
28.0323589133048	1.8543128	1.3617315
28.050423845696887	1.8798516	1.3710768
28.068489489501758	1.8561296	1.3623985
28.086555845252523	1.8343322	1.3543752
28.104622913482487	1.8656611	1.365892
28.122690694725115	1.8775522	1.370238
28.14075918951405	1.8836442	1.3724592
28.15882839838312	1.9036041	1.3797116
28.176898321866304	1.8527889	1.3611718
28.1949689604978	1.8228368	1.3501247
28.213040314811945	1.8650373	1.3656636
28.23111238534327	1.942981	1.3939085
28.249185172626493	1.9321738	1.3900266
28.267258677196473	1.9028083	1.3794231
28.285332899588294	1.8477619	1.3593241
28.303407840337172	1.8074043	1.3443974
28.321483499978545	1.8211306	1.3494928
28.33955987904799	1.8931469	1.3759167
28.357636978081285	1.9690505	1.4032286
28.37571479761439	1.9682034	1.4029267
28.393793338183425	1.9216869	1.3862492
28.41187260032469	1.9387932	1.3924055
28.429952584574686	1.9851812	1.4089646
28.448033291470065	1.9958104	1.4127315
28.46611472154769	1.9315537	1.3898035
28.484196875344566	1.935753	1.3913134
28.502279753397914	2.036759	1.4271506
28.52036335624511	2.0554266	1.4336759
28.538447684423716	2.0035837	1.41548
28.556532738471482	1.974591	1.4052014
28.574618518926325	1.9866629	1.4094902
28.59270502632635	2.0233817	1.4224563
28.61079226120985	2.0650747	1.4370368
28.628880224115274	2.0246992	1.4229193
28.646968915581287	1.9960375	1.4128119
28.66505833614671	2.0523095	1.4325883
28.68314848635055	2.0544696	1.4333421
28.701239366732004	2.0141664	1.4192133
28.71933097783044	1.996742	1.4130613
28.737423320185403	2.0775168	1.4413594
28.75551639433665	2.1555912	1.4681932
28.773610200824074	2.1919193	1.4805132
28.791704740187793	2.21664	1.4888384
28.80980001296809	2.2650995	1.5050248
28.827896019705413	2.2383308	1.4961052
28.845992760940433	2.1948245	1.481494
28.86409023721397	2.1714244	1.4735754
28.88218844906704	2.204321	1.4846956
28.900287397040845	2.2178895	1.489258
28.918387081676755	2.2528088	1.500936
28.936487503516343	2.27207	1.5073386
28.954588663101365	2.3358445	1.528347
28.97269056097374	2.4406168	1.5622474
28.990793197675597	2.4778452	1.5741173
29.00889657374923	2.4151418	1.5540726
29.027000689737125	2.3625464	1.5370578
29.04510554618196	2.3835208	1.5438656
29.06321114362659	2.4197433	1.5555524
29.08131748261405	2.417922	1.5549669
29.099424563687567	2.3987715	1.5487968
29.11753238739057	2.447632	1.564491
29.13564095426663	2.5716653	1.6036413
29.15375026485954	2.6312752	1.6221206
29.171860319713275	2.646252	1.6267304
29.18997111937199	2.7096074	1.6460885
29.20808266438002	2.7737114	1.6654463
29.226194955281898	2.7617378	1.6618477
29.244307992622335	2.759836	1.6612754
29.26242177694624	2.8037417	1.6744378
29.2805363087987	2.817596	1.6785697
29.29865158872498	2.8835366	1.698098
29.316767617270557	2.973407	1.724357
29.334884394981064	2.985479	1.7278539
29.353001922402367	2.9818797	1.726812
29.37112020008047	3.1091874	1.7632887
29.389239228561596	3.284147	1.8122215
29.407359008392152	3.4925249	1.8688298
29.42547954011872	3.7558122	1.9379917
29.44360082428809	4.3640385	2.0890281
29.46172286144722	5.3633704	2.315895
29.479845652143283	6.9958754	2.6449716
29.497969196923606	9.04347	3.0072362
29.516093496335728	11.630422	3.4103403
29.5342185509274	14.500041	3.8078918
29.55234436124651	16.923006	4.113758
29.570470927841175	18.202301	4.2664156
29.588598251259686	17.64118	4.2001405
29.60672633205055	15.968025	3.9960012
29.624855170762405	13.689435	3.6999238
29.642984767944146	11.127632	3.3358107
29.66111512414481	8.593102	2.9313993
29.67924623991366	6.486062	2.5467749
29.697378115800138	4.929073	2.2201514
29.71551075235387	4.0805397	2.0200346
29.733644150124675	3.7048378	1.9247955
29.751778309662576	3.4863393	1.8671741
29.769913231517766	3.381312	1.8388344
29.78804891624066	3.3671603	1.8349824
29.806185364381818	3.2898157	1.813785
29.82432257649206	3.2186394	1.7940567
29.842460553122333	3.1995876	1.7887391
29.86059929482382	3.2689433	1.8080219
29.878738802147872	3.3035934	1.817579
29.896879075646048	3.3394978	1.8274293
29.915020115870114	3.3129177	1.8201423
29.933161923371976	3.29472	1.8151363
29.951304498703777	3.2289484	1.7969275
29.969447842417857	3.1769843	1.7824097
29.987591955066733	3.1802425	1.7833234
30.005736837203123	3.1651216	1.7790788
30.023882489379943	3.1638498	1.7787215
30.04202891215028	3.1467009	1.7738943
30.060176106067455	3.1523967	1.775499
30.078324071684946	3.1588762	1.7773228
30.09647280955646	3.1967502	1.7879457
30.114622320235863	3.195051	1.7874706
30.132772604277257	3.108627	1.76313
30.1509236622349	3.050814	1.746658
30.16907549466328	2.985962	1.7279936
30.18722810211705	3.0585876	1.7488818
30.205381485151097	3.0630507	1.7501574
30.22353564432045	3.0480027	1.745853
30.241690580180403	3.056248	1.7482128
30.25984629328638	3.0028803	1.7328821
30.278002784194037	2.9730814	1.7242626
30.296160053459246	2.9908524	1.7294081
30.314318101638033	3.047128	1.7456025
30.332476929286646	3.0023794	1.7327375
30.35063653696153	2.9550738	1.7190328
30.368796925219307	2.9600039	1.7204661
30.386958094616844	2.946694	1.7165937
30.40512004571115	2.8568678	1.6902272
30.423282779059463	2.846305	1.6870996
30.441446295219233	2.8412876	1.685612
30.459610594748067	2.8484406	1.6877323
30.47777567820382	2.8854725	1.6986679
30.495941546144504	2.8548515	1.6896306
30.51410819912835	2.8504214	1.6883191
30.532275637713795	2.8444712	1.686556
30.55044386245946	2.7895656	1.6701993
30.56861287392416	2.7157454	1.6479518
30.586782672666956	2.7448206	1.65675
30.604953259247047	2.8067105	1.675324
30.623124634223885	2.8425164	1.6859764
30.641296798157075	2.7973523	1.6725287
30.659469751606462	2.8460665	1.6870289
30.677643495132074	2.816718	1.6783081
30.695818029294152	2.7104275	1.6463376
30.713993354653116	2.6620007	1.6315639
30.73216947176962	2.6506364	1.6280775
30.75034638120448	2.6746495	1.6354356
30.768524083518756	2.7190084	1.6489416
30.786702579273673	2.780511	1.6674864
30.80488186903069	2.793051	1.6712424
30.82306195335144	2.885611	1.6987087
30.841242832797782	3.1243112	1.7675722
30.85942450793176	3.3904934	1.8413292
30.877606979315637	3.7239282	1.9297482
30.895790247511883	4.0661683	2.0164742
30.913974313083134	4.5151277	2.124883
30.932159176592283	4.9116483	2.216224
30.95034483860237	4.9412613	2.222895
30.968531299676698	4.701714	2.1683435
30.98671856037873	4.334719	2.0819988
31.00490662127215	3.8856442	1.9712037
31.023095482920848	3.5150027	1.8748341
31.04128514588892	3.1353376	1.7706884
31.059475610740662	2.7860658	1.6691512
31.07766687804056	2.549758	1.5967962
31.09585894835335	2.496821	1.5801332
31.11405182224393	2.5100176	1.5843035
31.132245500277417	2.5476499	1.596136
31.15043998301914	2.5813785	1.6066669
31.168635271034628	2.5517137	1.5974084
31.18683136488964	2.5028949	1.582054
31.20502826515008	2.4434152	1.5631428
31.223225972382135	2.4340322	1.5601385
31.241424487152155	2.4192104	1.5553812
31.259623810026692	2.4519236	1.5658619
31.27782394157253	2.4865687	1.5768857
31.296024882356644	2.479582	1.5746689
31.314226632946237	2.410454	1.5525637
31.332429193908684	2.3595872	1.5360948
31.350632565811598	2.359127	1.535945
31.368836749222787	2.39921	1.5489384
31.387041744710295	2.4888575	1.5776113
31.40524755284232	2.536261	1.5925643
31.423454174187317	2.5505264	1.5970367
31.441661609313922	2.5405726	1.5939174
31.459869858791002	2.4996557	1.58103
31.478078923187628	2.4611495	1.5688051
31.496288803073064	2.4930036	1.5789248
31.514499499016807	2.4617305	1.5689902
31.532711011588546	2.434535	1.5602996
31.550923341358178	2.353655	1.5341626
31.56913648889584	2.2979908	1.5159125
31.587350454771844	2.3386426	1.5292621
31.605565239556732	2.3816075	1.5432458
31.62378084382127	2.2888813	1.5129049
31.641997268136382	2.2009485	1.4835594
31.660214513073274	2.2379744	1.4959861
31.67843257920331	2.2933056	1.5143664
31.6966514670981	2.286256	1.512037
31.71487117732944	2.3260734	1.525147
31.733091710469346	2.3730044	1.5404559
31.751313067090052	2.385553	1.5445235
31.769535247764008	2.2730482	1.5076631
31.787758253063878	2.2193344	1.489743
31.805982083562526	2.2497153	1.4999051
31.824206739833024	2.1956067	1.481758
31.84243222244869	2.211057	1.4869623
31.860658531983013	2.2341802	1.4947175
31.878885669009737	2.2203174	1.490073
31.897113634102784	2.184139	1.4778833
31.91534242783632	2.2298257	1.4932601
31.933572050784694	2.244227	1.4980744
31.951802503522508	2.19536	1.4816747
31.970033786624548	2.2104673	1.4867641
31.988265900665834	2.2388167	1.4962676
32.006498846221575	2.13808	1.4622175
32.02473262386724	2.0875678	1.4448417
32.04296723417845	2.0824256	1.4430612
32.0612026777311	2.1266248	1.4582952
32.07943895510129	2.0896943	1.4455775
32.097676066865304	2.149764	1.4662074
32.115914013599685	2.2017555	1.4838314
32.13415279588115	2.2567463	1.5022471
32.152392414286666	2.21747	1.4891171
32.1706328693934	2.204774	1.4848481
32.18887416177875	2.230681	1.4935465
32.20711629202032	2.199439	1.4830506
32.225359260695924	2.139232	1.4626113
32.243603068383614	2.1037917	1.4504453
32.26184771566166	2.1480596	1.465626
32.28009320310852	2.2018914	1.4838772
32.2983395313029	2.223854	1.4912592
32.31658670082372	2.095818	1.4476941
32.33483471225012	2.0418417	1.4289303
32.35308356616143	2.0839324	1.4435831
32.371333263137245	2.1544235	1.4677955
32.38958380375734	2.131949	1.4601195
32.407835188601744	2.105668	1.451092
32.42608741825067	2.1003666	1.4492642
32.444340493284585	2.1811507	1.476872
32.46259441428416	2.222364	1.4907595
32.48084918183028	2.1947074	1.4814545
32.49910479650405	2.1724203	1.4739132
32.51736125888683	2.0820422	1.4429283
32.53561856956014	2.0482488	1.4311705
32.5538767291058	2.066061	1.43738
32.572135738105764	2.004871	1.4159347
32.59039559714228	2.0117722	1.4183695
32.608656306797776	2.0541136	1.4332179
32.62691786765491	2.1340265	1.4608308
32.645180280296586	2.1158946	1.4546114
32.663443545305896	1.9841868	1.4086117
32.68170766326619	1.9188305	1.3852186
32.69997263476099	1.9762571	1.4057941
32.7182384603741	2.034413	1.4263285
32.7365051406895	2.0669863	1.4377017
32.75477267629144	2.0462334	1.4304662
32.77304106776434	2.022379	1.4221036
32.79131031569289	1.950762	1.3966968
32.809580420661966	1.884128	1.3726354
32.827851383256714	1.9551123	1.3982533
32.84612320406245	1.9281794	1.388589
32.86439588366476	1.822462	1.349986
32.88266942264945	1.8532734	1.3613498
32.9009438216025	1.9372953	1.3918675
32.9192190811102	1.9459263	1.3949646
32.937495201758985	2.0059257	1.4163071
32.95577218413556	2.040615	1.428501
32.974050028826866	1.943444	1.3940746
32.992328736420035	1.8698229	1.3674147
33.010608307502444	1.9401132	1.3928795
33.02888874266169	2.020218	1.4213437
33.047170042485604	2.0074165	1.4168333
33.06545220756225	2.0523496	1.4326024
33.083735238479896	2.067133	1.4377527
33.10201913582707	2.0476038	1.430945
33.12030390019248	1.9798638	1.4070764
33.138589532165135	1.9809825	1.4074738
33.15687603233419	2.0037582	1.4155416
33.17516340128909	1.9972514	1.4132415
33.19345163961947	2.0680478	1.4380709
33.211740747915215	2.065634	1.4372314
33.23003072676643	2.0566375	1.4340981
33.248321576763466	2.0405848	1.4284904
33.266613298496885	2.0828836	1.4432199
33.28490589255747	2.0736806	1.440028
33.30319935953626	2.0511038	1.4321675
33.32149370002451	2.0349228	1.4265072
33.339788914613706	1.9732443	1.4047221
33.358085003895575	1.9554018	1.3983568
33.376381968462034	1.9720905	1.4043114
33.39467980890529	1.972279	1.4043785
33.41297852581774	1.95033	1.3965422
33.43127811979204	1.9348626	1.3909934
33.44957859142105	1.9333442	1.3904475
33.467879941297866	1.8890725	1.3744353
33.486182170015844	1.8596461	1.3636885
33.50448527816853	1.920044	1.3856565
33.522789266349754	1.9716899	1.4041687
33.541094135153514	2.034635	1.4264064
33.55939988517411	2.020416	1.4214134
33.57770651700602	1.9181181	1.3849614
33.59601403124398	1.9174736	1.3847287
33.61432242848296	2.0598154	1.4352057
33.632631709318154	2.08121	1.44264
33.650941874344994	1.990195	1.4107428
33.66925292415916	1.8632946	1.3650255
33.68756485935654	1.8483578	1.3595432
33.70587768053328	1.8994417	1.3782023
33.724191388285746	1.940328	1.3929566
33.74250598321054	1.9727823	1.4045577
33.760821465904506	2.0801613	1.4422765
33.77913783696474	2.0628235	1.4362533
33.79745509698852	1.8931555	1.3759198
33.815773246573414	1.7544429	1.3245538
33.8340922863172	1.8317256	1.3534126
33.852412216817896	1.8765401	1.3698686
33.87073303867377	1.915613	1.3840567
33.889054752483304	1.9431024	1.393952
33.907377358845245	1.9868382	1.4095525
33.92570085835853	1.9936647	1.4119719
33.94402525162239	1.9458432	1.3949349
33.96235053923627	1.9894481	1.410478
33.980676721799824	2.078945	1.4418547
33.999003799912984	2.1026087	1.4500375
34.01733177417592	2.0367668	1.4271533
34.03566064518901	2.0382576	1.4276756
34.0539904135529	1.9439799	1.3942667
34.07232107986846	1.9003367	1.378527
34.090652644736785	1.8916695	1.3753798
34.108985108759235	1.9084505	1.3814667
34.12731847253742	1.9635757	1.4012765
34.14565273667313	1.9948086	1.4123769
34.16398790176847	2.0509133	1.432101
34.18232396842574	2.093665	1.4469502
34.20066093724749	1.9812012	1.4075515
34.21899880883651	1.9867271	1.4095131
34.23733758379583	2.0916562	1.4462559
34.25567726272874	2.018733	1.4208213
34.27401784623872	1.9815648	1.4076806
34.29235933492957	1.9450203	1.3946398
34.31070172940526	1.9263641	1.3879352
34.32904503027003	1.9503899	1.3965636
34.347389238128386	1.8987573	1.377954
34.36573435358502	1.859556	1.3636553
34.38408037724492	1.9226966	1.3866134
34.402427309713296	1.9238733	1.3870376
34.42077515159559	1.9195385	1.3854741
34.43912390349752	1.8671576	1.3664397
34.45747356602499	1.8683842	1.3668885
34.47582413978423	1.9759711	1.4056923
34.49417562538163	2.0105667	1.4179446
34.51252802342388	1.898604	1.3778985
34.53088133451789	1.7787137	1.3336842
34.54923555927084	1.8134661	1.3466499
34.567590698290104	1.8032039	1.3428342
34.58594675218336	1.9379424	1.3921
34.6043037215585	1.9458706	1.3949447
34.62266160702365	1.9582886	1.3993887
34.641020409187234	1.9702439	1.4036537
34.65938012865785	1.9219286	1.3863364
34.677740766044394	1.8797488	1.3710393
34.69610232195598	1.8916688	1.3753796
34.714464797002016	1.9769919	1.4060555
34.73282819179208	2.066348	1.4374797
34.751192506936064	2.0504172	1.4319278
34.76955774304408	1.8617707	1.3644671
34.7879239007265	1.8044708	1.343306
34.80629098059391	1.8027081	1.3426497
34.824658983257194	1.817426	1.3481194
34.843027909327446	1.8890728	1.3744354
34.86139775941603	1.9675362	1.402689
34.879768534134534	2.075347	1.4406065
34.89814023409483	2.122322	1.4568192
34.91651285990901	2.0444455	1.429841
34.93488641218944	1.8791268	1.3708124
34.95326089154871	1.8285168	1.3522266
34.97163629859967	2.083707	1.4435052
34.99001263395542	2.3299782	1.5264267
35.00838989822934	2.2192109	1.4897016
35.02676809203499	2.089759	1.4455999
35.04514721598624	2.046204	1.4304559
35.063527270697215	2.1010184	1.449489
35.081908256782256	2.1886525	1.4794095
35.10029017485597	2.1431098	1.4639364
35.11867302553321	1.9505253	1.396612
35.137056809429104	1.9399033	1.3928041
35.155441527159006	1.798395	1.3410425
35.173827179338524	1.8718917	1.368171
35.19221376658354	1.79401	1.3394066
35.21060128951017	1.7060112	1.3061436
35.2289897487348	1.7205322	1.3116906
35.24737914487405	1.9704779	1.4037372
35.26576947854479	2.0179818	1.4205569
35.28416075036418	1.7107327	1.3079498
35.30255296094958	1.6243699	1.2745076
35.32094611091867	1.9546547	1.3980896
35.33934020088932	2.0061548	1.4163879
35.35773523147969	1.7997239	1.3415378
35.3761312033082	1.8764155	1.3698232
35.394528116993506	2.012595	1.4186596
35.41292597315452	1.9306095	1.3894638
35.431324772410434	1.9813874	1.4076176
35.449724515380666	2.0787315	1.4417807
35.46812520268491	1.89002	1.3747799
35.486526834943106	2.2665644	1.5055113
35.504929412775454	2.0857959	1.4442285
35.52333293680242	1.5034559	1.2261549
35.54173740764471	1.2409323	1.1139715
35.560142825923286	1.1349105	1.0653218
35.5785491922594	0.8378296	0.9153303
35.59695650727454	0.7548969	0.868848
35.61536477159042	0.4990961	0.70646733
