0.008763373481513119	0.0	0.0
0.026290120649546365	0.0	0.0
0.043816868432600686	0.06476262	0.254485
0.06134361724069026	0.16674376	0.4083427
0.07887036748382949	0.13025668	0.3609109
0.0963971195720331	0.107694246	0.328168
0.11392387391531617	0.023742173	0.15408495
0.1314506309236943	0.0	0.0
0.1489773910071836	0.021220885	0.1456739
0.16650415457580078	0.08388677	0.28963214
0.18403092203956356	0.11471191	0.33869147
0.20155769380849	0.13068478	0.36150348
0.2190844702925996	0.123723425	0.3517434
0.2366112519019124	0.14341226	0.3786981
0.2541380390464497	0.21963258	0.46864974
0.27166483213623416	0.19282386	0.43911713
0.28919163158128947	0.18433139	0.4293383
0.3067184377916406	0.13159306	0.3627576
0.324245251177314	0.1222607	0.34965798
0.34177207214833777	0.12457032	0.3529452
0.3592989011147415	0.21385354	0.46244302
0.37682573848655654	0.23958868	0.48947796
0.39435258467381573	0.22080722	0.4699013
0.41187944008655414	0.17800729	0.4219091
0.42940630513480854	0.19898222	0.44607425
0.446933180228618	0.18093225	0.42536134
0.4644600657780234	0.16425158	0.40527964
0.48198696219306775	0.12720773	0.35666192
0.49951386988379676	0.10538512	0.32463074
0.5170407892602581	0.09785371	0.3128158
0.5345677207325025	0.1176778	0.343042
0.5520946647105822	0.1351458	0.3676218
0.5696216216045534	0.122241385	0.34963036
0.5871485918244737	0.107342936	0.3276323
0.6046755757804043	0.114767686	0.3387738
0.6222025738824094	0.16023065	0.40028822
0.6397295865405557	0.18070407	0.42509302
0.6572566141649129	0.15978181	0.39972717
0.6747836571655547	0.118536085	0.3442907
0.6923107159525568	0.14007811	0.3742701
0.7098377909359992	0.12133171	0.348327
0.7273648825259653	0.16135046	0.40168452
0.7448919911325411	0.17864197	0.4226606
0.762419117165817	0.2108386	0.45917165
0.7799462610358868	0.2021634	0.44962585
0.7974734231528482	0.19223212	0.43844283
0.8150006039268024	0.1705233	0.41294467
0.8325278037678551	0.15848114	0.3980969
0.8500550230861152	0.18216145	0.42680377
0.8675822622916969	0.23466282	0.4844201
0.8851095217947171	0.23339503	0.48310974
0.9026368020052984	0.237902	0.487752
0.9201641033335665	0.2225811	0.471785
0.9376914261896523	0.22667581	0.47610483
0.9552187709836915	0.23054318	0.48014912
0.9727461381258234	0.26071754	0.5106051
0.990273528026193	0.24529518	0.49527285
1.0078009410949496	0.26791215	0.5176023
1.0253283777422473	0.24136034	0.49128437
1.0428558383782454	0.23676768	0.4865878
1.0603833234131086	0.28475356	0.53362304
1.0779108332570058	0.3283172	0.5729897
1.0954383683201119	0.35779956	0.5981635
1.112965929012607	0.352386	0.5936211
1.1304935157446763	0.44296974	0.6655597
1.1480211289265108	0.4402051	0.66347957
1.1655487689683062	1.2955539	1.138224
1.1830764362802655	1.6029212	1.2660652
1.200604131272596	2.0993242	1.4489045
1.2181318543555117	2.5051193	1.5827569
1.235659605939232	2.5049496	1.5827032
1.253187386433982	4.0521774	2.0130022
1.270715196249994	6.3211966	2.514199
1.2882430357975057	11.74993	3.427817
1.3057709054867608	16.417585	4.051862
1.3232988057280106	22.2617	4.7182307
1.3408267369315112	26.888823	5.1854434
1.358354699507526	30.393612	5.51304
1.3758826938663256	34.580463	5.8805156
1.3934107204181858	36.418705	6.034791
1.410938779573391	36.795395	6.065921
1.4284668717422309	37.05851	6.08757
1.4459949973350033	36.42627	6.035418
1.4635231567620117	36.186268	6.0155025
1.4810513504335687	34.993214	5.9155064
1.4985795787599925	34.600826	5.8822465
1.5161078421516088	34.842194	5.9027276
1.5336361410187505	34.55345	5.878218
1.5511644757717598	34.60952	5.8829856
1.5686928468209842	34.84456	5.902928
1.58622125457678	34.97613	5.914062
1.6037496994495108	36.214474	6.017846
1.621278181849548	35.611248	5.967516
1.6388067021872719	36.170933	6.0142274
1.6563352608730693	35.851307	5.987596
1.673863858317336	35.374855	5.9476767
1.6913924949304753	34.70429	5.8910346
1.7089211711228998	33.831295	5.816468
1.7264498873050296	32.883892	5.734448
1.7439786438872935	32.004337	5.6572375
1.7615074412801288	31.211565	5.586731
1.779036279893981	30.243132	5.4993753
1.796565160139305	29.716663	5.451299
1.814094082426564	29.35127	5.417681
1.8316230471662298	28.487682	5.337385
1.849152054768784	27.550278	5.248836
1.8666811056447168	26.735598	5.1706476
1.8842102002045273	26.020033	5.1009836
1.901739338858724	25.474134	5.0471907
1.9192685220178245	25.071842	5.0071793
1.9367977500923557	24.41211	4.940861
1.9543270234928547	24.176702	4.916981
1.971856342629867	23.476547	4.84526
1.9893857079139496	22.994938	4.795304
2.006915119755667	22.274029	4.719537
2.0244445785655945	21.637543	4.651617
2.0419740847543175	21.319252	4.6172776
2.0595036387324317	20.926355	4.5745335
2.0770332409105414	20.26101	4.501223
2.094562891699263	19.683949	4.43666
2.1120925915092217	19.071224	4.367061
2.129622340751053	18.98453	4.357124
2.1471521398354043	187.26627	13.684526
2.1646819891729323	443.61362	21.062138
2.182211889174303	439.91904	20.974247
2.1997418402501974	452.43073	21.270418
2.2172718428113023	432.39752	20.79417
2.234801897268317	320.40366	17.899822
2.2523320040319548	16.887085	4.10939
2.269862163512935	16.68543	4.08478
2.287392376121992	16.234823	4.029246
2.304922642269869	15.891793	3.9864511
2.322452962367322	15.49963	3.936957
2.3399833368251164	15.317325	3.9137354
2.357513766054032	15.079492	3.883232
2.3750442504648586	14.748279	3.8403487
2.3925747904683963	14.462142	3.8029122
2.410105386475459	14.148693	3.7614748
2.4276360388968707	13.63913	3.6931193
2.445166748143469	13.615519	3.6899211
2.4626975146261025	13.425568	3.6640916
2.4802283387556323	13.498501	3.6740305
2.4977592209429305	13.223533	3.6364176
2.5152901615988825	12.9001665	3.5916803
2.5328211611343865	12.622255	3.5527813
2.5503522199603523	12.334447	3.5120432
2.5678833384877024	12.130239	3.4828491
2.5854145171273712	11.738729	3.4261827
2.6029457562903064	11.620985	3.4089565
2.620477056387469	11.454009	3.3843772
2.6380084178298326	11.391863	3.3751833
2.655539841028383	11.276289	3.3580186
2.673071326394119	11.11961	3.3346078
2.6906028743380523	10.892713	3.300411
2.708134485271211	10.675447	3.2673304
2.7256661596046325	10.450043	3.2326527
2.743197897749369	10.31596	3.2118468
2.760729700116486	10.153372	3.1864357
2.778261567117063	9.897763	3.1460712
2.795793499162193	9.854268	3.1391509
2.8133254966629817	9.808072	3.1317842
2.830857560030551	9.598076	3.098076
2.8483896896760337	9.610843	3.1001358
2.865921886010578	9.379981	3.0626755
2.883454149445347	9.322132	3.0532167
2.9009864803915177	9.166686	3.0276535
2.91851887926028	8.987883	2.9979796
2.9360513464628384	8.92771	2.9879272
2.953583882410413	8.798105	2.96616
2.9711164875142373	8.756561	2.9591486
2.9886491621855606	8.683406	2.9467618
3.0061819068356455	8.568562	2.9272106
3.023714721875769	8.390506	2.896637
3.041247607717225	8.160618	2.8566794
3.0587805647713213	8.060635	2.8391256
3.0763135934493806	7.9711723	2.8233263
3.0938466941627407	7.8056307	2.793856
3.1113798673227544	7.599089	2.7566445
3.1289131133407904	7.446451	2.7288187
3.1464464326282315	7.4225063	2.7244277
3.1639798255964786	7.502636	2.739094
3.1815132926569443	7.4545217	2.730297
3.1990468342210603	7.363421	2.7135625
3.216580450700272	7.1422563	2.6725
3.2341141425060416	7.047972	2.6548016
3.251647910049847	7.019489	2.6494317
3.2691817537431813	7.0591207	2.6569006
3.286715673997555	7.076869	2.6602385
3.3042496712244938	7.0169015	2.6489434
3.32178374583554	6.8222985	2.611953
3.339317898242251	6.690769	2.586652
3.3568521288562034	6.5324726	2.5558703
3.3743864380889876	6.5450835	2.558336
3.3919208263522127	6.5936565	2.5678117
3.4094552940575023	6.556187	2.5605052
3.4269898416164972	6.513957	2.5522454
3.444524469440858	6.447933	2.539278
3.4620591779422587	6.336268	2.5171945
3.479593967532391	6.2810946	2.5062113
3.4971288386229658	6.2136436	2.4927182
3.5146637916257086	6.237026	2.4974039
3.5321988269523628	6.2497635	2.4999528
3.5497339450146903	6.172766	2.4845052
3.5672691462244708	6.1975617	2.4894903
3.5848044309934988	6.0709205	2.4639237
3.60233979973359	6.141437	2.4781923
3.619875252856575	6.14395	2.4786992
3.6374107907743034	6.05432	2.4605527
3.6549464138986427	6.0288086	2.4553633
3.6724821226414788	5.937825	2.4367654
3.690017917414714	6.126797	2.475237
3.7075537986302702	6.235278	2.4970539
3.7250897667000857	6.2964163	2.5092661
3.7426258220361235	6.4908333	2.5477114
3.7601619650503553	6.7436495	2.5968537
3.777698196154779	7.1974263	2.682802
3.7952345157614067	8.181883	2.860399
3.8127709242822716	8.936879	2.9894614
3.830307422129425	11.147065	3.338722
3.847844009714936	30.067114	5.483349
3.8653806874508954	97.43672	9.871004
3.882917455749409	96.66612	9.831893
3.900454315022606	96.24324	9.810364
3.917991265682631	40.816765	6.3888
3.9355283081416506	10.588351	3.2539747
3.9530654428118495	8.626646	2.9371152
3.970602670105433	7.4436293	2.7283015
3.9881399904346244	6.5221634	2.5538526
4.005677404211669	6.3847966	2.5268154
4.023214911848827	6.2684903	2.5036952
4.0407525137583855	6.353149	2.5205455
4.058290210352644	6.402574	2.530331
4.075828002043927	6.3054147	2.5110586
4.0933658892445814	6.172305	2.4844124
4.110903872366966	6.083823	2.4665408
4.128441951823468	5.960355	2.4413838
4.145980128026488	5.9446034	2.4381557
4.163518401388452	5.8682327	2.4224436
4.181056772321807	5.833719	2.4153092
4.1985952412390155	5.7961745	2.4075246
4.216133808552567	5.8174205	2.411933
4.233672474674966	5.905148	2.430051
4.251211240018741	6.1453376	2.478979
4.268750104996445	6.455087	2.5406864
4.286289070020643	7.430397	2.7258754
4.303828135503928	9.052027	3.0086586
4.3213673018589125	29.338905	5.41654
4.3389065694982305	90.5872	9.517731
4.356445938834537	165.82037	12.877126
4.3739854102805085	171.08176	13.079823
4.391524984248844	171.89471	13.110863
4.409064661152262	135.99678	11.661766
4.426604441403504	96.30315	9.8134165
4.444144325415337	75.375145	8.681886
4.461684313600543	21.397623	4.6257563
4.47922440637193	21.651505	4.6531177
4.496764604142329	20.083546	4.481467
4.5143049073245916	18.182928	4.2641444
4.531845316331589	16.113548	4.0141683
4.5493858315762195	13.17013	3.6290674
4.566926453471405	10.982368	3.3139656
4.584467182430081	8.941691	2.990266
4.602008018865218	7.962534	2.8217962
4.619548963189798	7.344862	2.7101405
4.637090015816834	6.9283686	2.6321795
4.654631177159353	6.608627	2.570725
4.672172447630417	6.307906	2.5115545
4.689713827643102	6.1075296	2.4713416
4.7072553176105085	5.840429	2.416698
4.724796917945764	5.7414474	2.3961318
4.742338629062015	5.6326923	2.3733294
4.759880451372434	5.6418967	2.3752677
4.777422385290215	5.522136	2.3499227
4.794964431228581	5.430258	2.3302913
4.812506589600768	5.4221396	2.328549
4.830048860820047	5.387739	2.3211503
4.847591245299709	5.453184	2.3352053
4.8651337434530655	5.4455295	2.3335657
4.882676355693457	5.4268813	2.3295667
4.900219082434242	5.3711686	2.317578
4.917761924088813	5.335691	2.3099115
4.935304881070575	5.3635864	2.3159418
4.952847953792969	5.437861	2.331922
4.970391142669449	5.482719	2.3415205
4.9879344481135055	5.46886	2.3385594
5.005477870538642	5.415076	2.3270316
5.023021410358394	5.3390675	2.3106422
5.040565067986324	5.225006	2.2858272
5.05810884383601	5.2142143	2.2834654
5.075652738321066	5.2230153	2.2853918
5.09319675185512	5.2770247	2.2971776
5.110740884851836	5.375374	2.3184853
5.128285137724894	5.4683967	2.3384602
5.145829510888007	5.475165	2.339907
5.163374004754908	5.435677	2.3314538
5.1809186197393595	5.4045343	2.3247654
5.198463356255145	5.337324	2.310265
5.216008214716077	5.2763624	2.2970333
5.233553195535998	5.1836176	2.276756
5.251098299128764	5.0710497	2.2518992
5.268643525908272	5.0368037	2.2442825
5.286188876288432	5.077895	2.2534184
5.3037343506831895	5.1007385	2.2584815
5.32127994950651	5.0725856	2.2522402
5.3388256731723915	5.007806	2.2378128
5.356371522094851	4.9981484	2.2356539
5.373917496687938	5.014749	2.2393634
5.391463597365729	5.0252795	2.2417135
5.40900982454232	4.9971695	2.235435
5.426556178631843	5.0059524	2.2373986
5.444102660048449	4.9868045	2.2331154
5.4616492692063225	4.993683	2.234655
5.479196006519669	5.025271	2.2417116
5.496742872402727	4.9887056	2.233541
5.514289867269756	5.0227304	2.241145
5.531836991535049	4.9628997	2.2277567
5.549384245612924	5.000098	2.23609
5.566931629917724	4.9609013	2.227308
5.584479144863822	4.971029	2.2295804
5.6020267908656205	4.936399	2.2218008
5.619574568337545	4.898664	2.2132926
5.637122477694054	4.941665	2.2229857
5.654670519349629	5.0005293	2.2361863
5.672218693718784	5.0110006	2.2385263
5.689767001216059	4.999795	2.2360222
5.707315442256021	4.9356823	2.2216396
5.724864017253266	4.9326386	2.2209544
5.7424127266224225	4.966491	2.2285626
5.75996157077814	5.0458317	2.2462928
5.777510550135105	5.106579	2.259774
5.795059665108022	5.1204953	2.2628512
5.812608916111639	5.138542	2.2668352
5.830158303560715	5.208396	2.282191
5.847707827870055	5.2117577	2.2829275
5.86525748945448	5.229063	2.2867146
5.8828072887288485	5.311783	2.3047307
5.900357226108044	5.363272	2.3158739
5.917907302006979	5.4457073	2.3336039
5.9354575168406	6.036785	2.456987
5.9530078710238765	6.658692	2.580444
5.970558364971812	7.20661	2.684513
5.988108999099438	7.5919604	2.7553513
6.005659773821818	8.126941	2.850779
6.023210689554039	7.891456	2.8091736
6.040761746711227	8.27395	2.8764474
6.058312945708531	7.6309137	2.7624109
6.075864286961132	7.1875668	2.6809638
6.093415770884244	6.5961924	2.5683053
6.1109673978931065	6.0535707	2.4604006
6.128519168402993	5.5355206	2.3527687
6.146071082829204	5.370198	2.3173687
6.163623141587075	5.2830524	2.298489
6.181175345091969	5.1386294	2.2668545
6.198727693759281	5.0062346	2.2374616
6.216280188004435	4.9290404	2.2201443
6.233832828242885	4.9586973	2.2268133
6.251385614890126	5.080848	2.2540736
6.268938548361669	5.0853496	2.2550719
6.286491629073067	5.0177236	2.2400277
6.304044857439898	4.970646	2.2294946
6.321598233877777	4.945909	2.22394
6.339151758802344	4.9242196	2.2190583
6.356705432629277	4.9716487	2.2297194
6.37425925577428	4.908795	2.21558
6.391813228653095	4.893339	2.2120893
6.409367351681486	4.824257	2.196419
6.426921625275259	4.835743	2.1990323
6.44447604985025	4.875717	2.2081027
6.46203062582232	4.884814	2.2101614
6.47958535360737	4.9219103	2.2185378
6.497140233621328	4.8293834	2.1975858
6.514695266280161	4.8025265	2.1914668
6.532250451999859	4.864333	2.2055233
6.549805791196454	4.924673	2.2191606
6.567361284286002	4.923793	2.2189622
6.584916931684597	4.8536525	2.2031007
6.602472733808367	4.7585936	2.18142
6.6200286910734665	4.8201976	2.195495
6.637584803896092	4.88535	2.2102828
6.655141072692462	4.966112	2.2284775
6.672697497878842	4.9869876	2.2331564
6.690254079871514	4.940647	2.2227566
6.707810819086808	4.8667192	2.2060642
6.725367715941078	4.842557	2.200581
6.742924770850719	4.8297634	2.1976724
6.760481984232151	4.8492894	2.2021103
6.778039356501836	4.8009953	2.1911173
6.795596888076266	4.7696404	2.1839507
6.813154579371963	4.816337	2.1946154
6.830712430805492	4.885791	2.2103825
6.84827044279344	4.8813133	2.2093694
6.865828615752445	4.820302	2.1955187
6.883386950099159	4.7239637	2.173468
6.900945446250287	4.7273884	2.1742558
6.918504104622553	4.7961416	2.1900096
6.936062925632727	4.8606787	2.2046947
6.953621909697607	4.852363	2.202808
6.971181057234028	4.8645167	2.205565
6.988740368658859	4.9327397	2.2209773
7.006299844389007	5.036704	2.2442603
7.023859484841407	5.1835985	2.2767518
7.041419290433036	5.2719364	2.2960699
7.058979261580902	5.3967047	2.3230808
7.0765393987020495	5.5719466	2.360497
7.094099702213559	5.8875384	2.426425
7.111660172532549	6.216845	2.4933603
7.129220810076164	6.5605736	2.5613616
7.146781615261595	7.2241335	2.687775
7.16434258850606	7.4909635	2.7369626
7.181903730226821	7.920631	2.8143616
7.1994650408411704	8.0196295	2.831895
7.217026520766437	8.107568	2.8473792
7.234588170419983	8.283339	2.878079
7.252149990219215	8.235364	2.8697324
7.269711980581568	8.133982	2.8520136
7.2872741419245175	8.003071	2.82897
7.304836474665574	7.62229	2.7608495
7.322398979222286	7.3473144	2.710593
7.339961656012233	7.080486	2.6609182
7.357524505453039	6.82102	2.6117082
7.375087527962357	6.5797048	2.5650935
7.392650723957886	6.348936	2.5197096
7.410214093857353	5.9680533	2.44296
7.427777638078528	5.699724	2.3874094
7.445341357039213	5.546067	2.355009
7.4629052511572525	5.421685	2.3284512
7.480469320850524	5.287652	2.2994895
7.498033566536948	5.1465406	2.2685988
7.5155979886344735	5.081095	2.2541285
7.5331625875610975	5.0199633	2.2405274
7.550727363734844	5.0146856	2.2393494
7.568292317573788	4.951585	2.2252157
7.585857449496025	4.9050045	2.2147245
7.603422759919705	4.9498563	2.2248273
7.620988249263007	4.9917326	2.2342186
7.638553917944147	5.071046	2.2518983
7.656119766381391	5.0828733	2.2545228
7.673685794993023	5.087252	2.2554939
7.691252004197388	5.018501	2.240201
7.70881839441285	4.9824376	2.2321374
7.726384966057826	5.010268	2.2383628
7.743951719550762	5.049837	2.2471843
7.761518655310149	5.1234674	2.2635078
7.779085773754511	5.1661153	2.272909
7.796653075302419	5.1121945	2.2610164
7.814220560372475	5.1150017	2.261637
7.831788229383323	5.093664	2.2569149
7.8493560827536495	5.0815554	2.2542305
7.866924120902174	5.1275735	2.2644145
7.884492344247663	5.1412873	2.2674408
7.9020607532089135	5.156805	2.27086
7.919629348204771	5.1268034	2.2642446
7.937198129654115	5.2242312	2.2856576
7.954767097975865	5.2806196	2.2979598
7.972336253588986	5.33037	2.3087595
7.989905596912472	5.3224063	2.307034
8.007475128365371	5.308825	2.3040888
8.025044848366756	5.3503995	2.313093
8.042614757335754	5.4308662	2.330422
8.060184855691523	5.495685	2.3442879
8.07775514385327	5.6334825	2.3734958
8.095325622240228	5.709999	2.3895605
8.112896291271687	5.7168927	2.3910024
8.130467151366968	5.7296243	2.3936634
8.148038202945436	5.7969813	2.4076922
8.165609446426497	5.8317094	2.4148932
8.183180882229594	5.8633895	2.4214437
8.200752510774217	5.8167806	2.4118004
8.218324332479893	5.7965326	2.407599
8.235896347766193	5.8542976	2.4195657
8.253468557052724	5.892693	2.427487
8.27104096075914	5.8747563	2.4237897
8.288613559305137	5.9173336	2.432557
8.306186353110448	5.964745	2.4422827
8.32375934259485	6.0226316	2.4541051
8.341332528178162	6.0450926	2.458677
8.358905910280246	6.1004744	2.4699137
8.376479489321003	6.102521	2.470328
8.394053265720377	6.1577935	2.4814901
8.411627239898356	6.1318502	2.4762573
8.42920141227497	6.144723	2.4788551
8.44677578327029	6.1139035	2.472631
8.464350353304427	6.090973	2.4679897
8.48192512279754	6.0722017	2.4641838
8.499500092169827	6.048129	2.4592943
8.51707526184153	6.0364213	2.456913
8.534650632232934	6.0328703	2.45619
8.552226203764365	6.03916	2.4574702
8.569801976856192	6.0840387	2.4665844
8.587377951928834	6.15679	2.481288
8.60495412940274	6.1908846	2.488149
8.622530509698416	6.2162313	2.493237
8.6401070932364	6.285349	2.5070598
8.657683880437283	6.3816447	2.5261917
8.675260871721695	6.5540795	2.5600936
8.692838067510303	6.630589	2.574993
8.710415468223834	6.7577014	2.5995579
8.727993074283043	6.8829303	2.623534
8.745570886108737	6.921637	2.6309004
8.763148904121765	6.99335	2.6444943
8.78072712874302	6.9916143	2.644166
8.798305560393441	7.2612	2.6946614
8.815884199494006	7.388055	2.7180977
8.833463046465745	7.5098863	2.7404172
8.851042101729728	7.603389	2.7574244
8.86862136570707	7.9066834	2.8118825
8.886200838818924	8.096429	2.8454225
8.903780521486505	8.180842	2.860217
8.921360414131055	8.203759	2.8642206
8.938940517173874	8.319225	2.8843067
8.956520831036297	8.533232	2.9211695
8.97410135613971	8.825366	2.9707518
8.99168209290554	8.982766	2.9971263
9.009263041755265	9.219733	3.0364013
9.026844203110405	9.410916	3.0677216
9.044425577392525	9.57986	3.0951347
9.062007165023239	9.667514	3.1092627
9.079588966424197	10.017801	3.165091
9.097170982017108	10.129126	3.1826286
9.11475321222372	11.0783825	3.3284204
9.132335657465825	11.818861	3.4378572
9.149918318165264	11.934049	3.4545693
9.167501194743924	12.663466	3.5585763
9.18508428762374	12.474717	3.5319567
9.202667597226693	12.442863	3.5274444
9.220251123974803	12.028812	3.468258
9.237834868290143	11.687746	3.4187346
9.255418830594836	11.566747	3.400992
9.273003011311046	11.072179	3.3274884
9.290587410860985	10.845905	3.2933123
9.308172029666911	10.160225	3.1875107
9.32575686815113	9.859736	3.1400218
9.343341926735997	8.570559	2.9275517
9.360927205843916	8.359259	2.8912382
9.378512705897327	8.180945	2.8602352
9.396098427318728	8.030112	2.8337452
9.413684370530664	7.934134	2.8167596
9.431270535955722	7.7843857	2.7900512
9.448856924016539	7.5996027	2.7567377
9.466443535135806	7.4062724	2.7214468
9.484030369736251	7.415854	2.7232065
9.501617428240658	7.5312214	2.744307
9.519204711071852	7.61939	2.7603242
9.536792218652714	7.6521544	2.7662528
9.55437995140617	7.7658806	2.786733
9.571967909755191	7.724798	2.7793522
9.589556094122802	7.7343006	2.7810612
9.60714450493207	7.6882358	2.7727668
9.624733142606116	7.687949	2.772715
9.642322007568108	7.745765	2.7831216
9.659911100241267	7.777319	2.7887845
9.677500421048851	7.8099775	2.7946336
9.695089970414175	7.8407574	2.8001351
9.712679748760609	7.826464	2.797582
9.730269756511557	7.9461126	2.818885
9.747859994090492	8.012256	2.8305929
9.765450461920915	8.0463085	2.8366015
9.78304116042639	8.047118	2.8367443
9.800632090030527	8.002089	2.8287964
9.81822325115699	8.130309	2.8513696
9.835814644229481	8.157465	2.8561277
9.853406269671762	8.12524	2.8504808
9.870998127907646	8.083016	2.8430645
9.888590219360985	7.9959598	2.8277128
9.906182544455698	8.038258	2.8351822
9.923775103615734	8.096914	2.8455076
9.941367897265108	8.112228	2.8481975
9.958960925827878	8.141005	2.8532445
9.97655418972816	8.071721	2.8410776
9.994147689390106	8.1099825	2.847803
10.011741425237934	8.117113	2.8490548
10.029335397695904	8.206135	2.8646352
10.04692960718833	8.308821	2.8825026
10.06452405413958	8.203821	2.8642313
10.082118738974064	8.219007	2.866881
10.099713662116246	8.131494	2.8515773
10.117308823990651	8.135567	2.8522916
10.134904225021844	8.1014805	2.84631
10.152499865634445	8.050589	2.8373559
10.170095746253125	8.028792	2.8335123
10.18769186730261	8.000407	2.828499
10.205288229207675	8.01803	2.8316126
10.222884832393145	7.9812913	2.8251178
10.2404816772839	8.002522	2.828873
10.258078764304868	7.9402285	2.817841
10.275676093881035	7.861108	2.8037667
10.293273666437438	7.7649293	2.7865622
10.310871482399158	7.825846	2.7974713
10.32846954219134	7.849765	2.8017433
10.346067846239173	7.902179	2.8110814
10.363666394967908	7.914116	2.8132038
10.38126518880283	7.9386163	2.817555
10.398864228169298	8.004959	2.8293037
10.416463513492713	8.019184	2.8318164
10.434063045198531	7.960284	2.8213975
10.451662823712262	7.94769	2.8191648
10.469262849459467	7.933434	2.8166351
10.486863122865758	7.9245505	2.8150578
10.504463644356806	7.883254	2.8077133
10.522064414358338	7.817161	2.7959187
10.539665433296118	7.7973595	2.7923753
10.557266701595987	7.7457805	2.7831242
10.574868219683818	7.619646	2.7603707
10.592469987985552	7.534108	2.744833
10.610072006927185	7.4495697	2.72939
10.627674276934751	7.3972287	2.7197847
10.64527679843435	7.2728753	2.696827
10.662879571852143	7.117575	2.6678784
10.680482597614331	6.9499345	2.636273
10.698085876147173	6.828022	2.6130483
10.715689407876988	6.7429194	2.5967133
10.733293193230146	6.637969	2.5764256
10.750897232633072	6.5782256	2.5648053
10.76850152651225	6.5629096	2.5618176
10.786106075294207	6.5377917	2.5569105
10.803710879405534	6.444612	2.538624
10.821315939272877	6.324495	2.514855
10.83892125532294	6.2294445	2.4958856
10.856526827982472	6.232726	2.496543
10.874132657678285	6.2190347	2.4937992
10.891738744837243	6.1400867	2.4779198
10.909345089886271	6.064022	2.4625235
10.926951693252343	5.983298	2.446078
10.944558555362494	5.9552627	2.4403408
10.96216567664381	5.9010625	2.4292102
10.979773057523436	5.849776	2.418631
10.997380698428573	5.7844934	2.4050975
11.014988599786477	5.701692	2.3878217
11.032596762024461	5.63216	2.3732173
11.050205185569892	5.5662465	2.3592894
11.067813870850198	5.493628	2.343849
11.085422818292859	5.4455843	2.3335776
11.10303202832541	5.367441	2.316774
11.120641501375454	5.3268795	2.3080034
11.138251237870636	5.253898	2.2921383
11.155861238238671	5.1997433	2.2802947
11.173471502907317	5.131886	2.2653666
11.191082032304402	5.0912724	2.2563848
11.208692826857805	5.0522046	2.247711
11.226303886995465	4.974403	2.230337
11.243915213145371	4.9549785	2.2259781
11.261526805735578	4.904233	2.2145503
11.279138665194196	4.8236127	2.1962724
11.296750791949393	4.7460423	2.1785414
11.314363186429393	4.728908	2.1746054
11.331975849062479	4.6966653	2.167179
11.34958878027699	4.65253	2.1569724
11.36720198050133	4.578411	2.139722
11.384815450163948	4.5178914	2.125533
11.402429189693366	4.4429445	2.1078293
11.420043199518153	4.354849	2.0868275
11.437657480066942	63.299683	7.95611
11.455272031768422	85.04327	9.22189
11.472886855051353	107.3884	10.362838
11.490501950344528	99.01724	9.950741
11.508117318076819	84.40856	9.187413
11.52573295867715	45.869663	6.7727146
11.543348872574514	4.1300054	2.0322413
11.560965060197946	4.061329	2.0152738
11.57858152197655	3.9783432	1.9945785
11.59619825833949	3.9381175	1.984469
11.613815269715985	3.970334	1.9925697
11.631432556535323	38.486385	6.2037396
11.649050119226837	83.013565	9.111178
11.666667958219929	93.38355	9.663517
11.68428607394406	107.66448	10.37615
11.701904466828756	82.444336	9.079886
11.719523137303586	65.259155	8.078314
11.737142085798196	4.487667	2.1184115
11.754761312742286	3.6586418	1.9127576
11.772380818565619	3.645773	1.9093907
11.790000603698015	3.6178482	1.9020642
11.80762066856935	3.5529587	1.8849294
11.825241013609572	3.5044084	1.8720065
11.842861639248683	3.4778786	1.8649071
11.860482545916748	3.4344418	1.8532248
11.878103734043883	3.4120421	1.8471714
11.895725204060282	3.3737202	1.836769
11.91334695639619	3.352627	1.8310181
11.930968991481919	3.3225682	1.8227913
11.948591309747824	3.2908409	1.8140675
11.966213911624347	3.197575	1.7881764
11.98383679754198	3.190974	1.7863297
12.001459967931268	3.1512733	1.7751826
12.019083423222835	3.1886933	1.7856913
12.036707163847352	3.193579	1.7870587
12.05433119023556	3.2003775	1.7889599
12.071955502818259	3.1892154	1.7858374
12.089580102026313	3.1580005	1.7770764
12.107204988290643	3.113065	1.764388
12.12483016204224	3.1102438	1.7635883
12.142455623712152	3.080545	1.7551482
12.16008137373149	3.0456812	1.745188
12.177707412531431	2.9812424	1.7266275
12.19533374054321	2.9256668	1.710458
12.212960358198126	2.9421434	1.7152678
12.230587265927545	2.9378467	1.7140148
12.248214464162889	2.9527268	1.71835
12.265841953335649	2.9767575	1.7253282
12.283469733877375	3.0020313	1.732637
12.301097806219685	2.976245	1.7251797
12.31872617079425	2.9630537	1.7213523
12.336354828032825	2.8960354	1.7017742
12.353983778367205	2.887352	1.699221
12.371613022229262	2.8224146	1.6800044
12.389242560050928	2.802812	1.6741601
12.406872392264201	2.8064141	1.6752355
12.424502519301143	2.825224	1.6808403
12.442132941593874	2.8181155	1.6787244
12.459763659574586	2.804351	1.6746197
12.477394673675532	2.7945817	1.6717002
12.49502598432903	2.8172624	1.6784703
12.51265759196746	2.823789	1.6804134
12.530289497023267	2.8047578	1.6747411
12.547921699928967	2.7761137	1.6661674
12.565554201117134	2.7484267	1.657838
12.583187001020404	2.7271712	1.6514149
12.600820100071486	2.7117949	1.6467528
12.618453498703152	2.687793	1.639449
12.636087197348235	2.6860888	1.6389291
12.65372119643964	2.7153578	1.6478343
12.671355496410326	2.6986942	1.6427703
12.68899009769333	2.712073	1.6468374
12.706625000721749	2.7445028	1.6566541
12.724260205928752	2.8127632	1.6771295
12.741895713747551	2.847861	1.6875607
12.759531524611454	2.8990123	1.7026486
12.777167638953818	2.9064035	1.7048178
12.794804057208072	2.8848028	1.6984707
12.812440779807702	2.8966298	1.7019489
12.830077807186271	3.013919	1.7360643
12.847715139777405	3.100752	1.7608953
12.865352778014795	3.3597806	1.8329704
12.882990722332197	3.5039053	1.8718722
12.90062897316344	3.6080122	1.8994768
12.918267530942412	3.6602547	1.9131792
12.935906396103071	3.516066	1.8751177
12.953545569079449	3.678683	1.9179894
12.971185050305628	3.5065196	1.8725703
12.988824840215775	3.5243638	1.8773289
13.006464939244115	3.488711	1.8678092
13.024105347824943	3.3357491	1.8264034
13.041746066392617	3.4028935	1.8446933
13.05938709538157	3.2312596	1.7975705
13.077028435226296	3.2325785	1.7979373
13.094670086361363	3.1346052	1.7704816
13.112312049221401	3.0637155	1.7503473
13.129954324241112	3.0155673	1.7365389
13.147596911855258	2.840064	1.685249
13.165239812498685	2.821078	1.6796066
13.182883026606293	2.7213464	1.6496503
13.200526554613058	2.6705723	1.6341885
13.218170396954017	2.6152532	1.6171745
13.235814554064284	2.6067162	1.6145328
13.253459026379034	2.643431	1.6258632
13.271103814333523	2.6693654	1.6338192
13.288748918363058	2.6764627	1.6359898
13.306394338903031	2.6413453	1.6252216
13.32404007638889	2.6000614	1.6124706
13.341686131256164	2.616441	1.6175417
13.359332503940449	2.6222034	1.6193218
13.376979194877402	2.6473415	1.6270653
13.394626204502751	2.6727872	1.6348661
13.412273533252307	2.6551082	1.6294503
13.429921181561937	2.6486735	1.6274745
13.447569149867581	2.6571114	1.6300648
13.465217438605247	2.6456702	1.6265516
13.482866048211022	2.6707873	1.6342543
13.500514979121052	2.6831837	1.6380427
13.518164231771568	2.6520987	1.6285266
13.535813806598844	2.5977294	1.6117474
13.553463704039254	2.5860474	1.6081192
13.571113924529229	2.6121616	1.6162183
13.588764468505275	2.6308365	1.6219853
13.606415336403956	2.6704202	1.634142
13.624066528661917	2.6732886	1.6350194
13.641718045715882	2.732147	1.6529207
13.659369888002635	2.8059042	1.6750833
13.67702205595903	2.8750784	1.6956056
13.694674550021993	2.9625278	1.7211995
13.712327370628532	3.0135026	1.7359443
13.729980518215713	3.0525708	1.7471608
13.747633993220681	3.1214802	1.7667711
13.765287796080647	3.155009	1.7762345
13.7829419272329	3.2239306	1.7955307
13.800596387114801	3.224182	1.7956007
13.818251176163775	3.2501504	1.8028173
13.835906294817324	3.329087	1.8245786
13.853561743513023	3.4000144	1.8439128
13.871217522688525	3.4521601	1.857999
13.888873632781538	3.4771504	1.8647119
13.906530074229858	3.506489	1.8725622
13.92418684747135	3.4742286	1.8639283
13.941843952943948	3.420966	1.8495853
13.959501391085665	3.3991969	1.8436911
13.977159162334578	3.3518503	1.8308059
13.994817267128846	3.3239892	1.823181
14.012475705906693	3.213237	1.7925504
14.030134479106424	3.1516347	1.7752844
14.047793587166414	3.0817525	1.7554921
14.065453030525108	3.0441947	1.7447621
14.083112809621026	2.9924135	1.7298594
14.100772924892766	2.9093432	1.7056797
14.118433376778997	2.842534	1.6859816
14.136094165718458	2.7515697	1.6587856
14.153755292149969	2.6948779	1.6416084
14.171416756512416	2.6332796	1.6227382
14.189078559244768	2.5534418	1.5979493
14.20674070078606	2.527271	1.5897393
14.224403181575408	2.47276	1.5725012
14.242066002051999	2.4407678	1.5622957
14.259729162655093	2.3950405	1.5475918
14.277392663824022	2.4059584	1.5511153
14.295056505998208	2.395604	1.5477738
14.312720689617128	2.3482711	1.5324069
14.330385215120348	2.3133488	1.5209696
14.348050082947497	2.3099074	1.519838
14.3657152935383	2.3413808	1.5301571
14.383380847332528	2.3792105	1.5424689
14.401046744770051	2.3592236	1.5359764
14.418712986290798	2.3482993	1.5324161
14.436379572334793	2.3357859	1.5283278
14.454046503342123	2.364979	1.5378488
14.471713779752946	2.3741775	1.5408366
14.489381402007504	2.3710768	1.5398301
14.507049370546113	2.3715346	1.5399787
14.524717685809168	2.358595	1.5357717
14.542386348237134	2.3834925	1.5438564
14.560055358270553	2.376678	1.5416478
14.577724716350051	2.4063957	1.5512562
14.595394422916325	2.3962095	1.5479695
14.61306447841015	2.399	1.5488706
14.63073488327237	2.3969476	1.5482079
14.648405637943917	2.411511	1.552904
14.6660767428658	2.4248967	1.557208
14.683748198479094	2.4407225	1.5622811
14.701420005224954	2.4655023	1.5701917
14.719092163544628	2.539014	1.5934284
14.73676467387942	2.595012	1.6109041
14.754437536670727	2.6098175	1.6154929
14.772110752360014	2.5728838	1.6040212
14.78978432138882	2.5490332	1.5965692
14.807458244198777	2.5647583	1.6014863
14.82513252123159	2.584916	1.6077675
14.842807152929028	2.6118488	1.6161215
14.860482139732962	2.5812867	1.6066383
14.87815748208531	2.5967457	1.6114421
14.8958331804281	2.605538	1.6141678
14.91350923520342	2.588161	1.6087762
14.931185646853438	2.6116433	1.616058
14.948862415820408	2.583964	1.6074713
14.966539542546656	2.614939	1.6170774
14.98421702747459	2.6012259	1.6128316
15.001894871046696	2.6139884	1.6167834
15.019573073705542	2.6251862	1.6202426
15.037251635893766	2.594013	1.610594
15.054930558054092	2.6094687	1.615385
15.072609840629323	2.6151192	1.617133
15.090289484062351	2.709149	1.6459492
15.107969488796124	2.842237	1.6858935
15.125649855273691	3.0478702	1.745815
15.14333058393817	3.4303157	1.8521111
15.161011675232768	3.9571476	1.989258
15.17869312960076	4.583714	2.140961
15.196374947485506	5.27608	2.296972
15.214057129330447	6.659889	2.580676
15.231739675579114	8.853869	2.9755452
15.249422586675102	13.416118	3.662802
15.267105863062092	17.961224	4.2380686
15.284789505183847	25.025064	5.002506
15.302473513484218	29.919577	5.469879
15.320157888407127	34.242935	5.8517466
15.337842630396578	33.093365	5.752683
15.355527739896656	30.419382	5.515377
15.37321321735153	23.727222	4.87106
15.39089906320545	16.239916	4.0298777
15.408585277902748	10.416201	3.227414
15.42627186188783	6.3885956	2.5275671
15.443958815605198	4.543385	2.1315217
15.461646139499424	3.699417	1.9233869
15.479333834015168	3.2971056	1.8157934
15.497021899597165	2.977483	1.7255385
15.514710336690234	2.7647998	1.6627687
15.53239914573928	2.5981517	1.6118783
15.550088327189297	2.5149171	1.585849
15.567777881485336	2.4994454	1.5809635
15.58546780907256	2.4697754	1.5715519
15.6031581103962	2.453944	1.566507
15.620848785901568	2.4184923	1.5551503
15.638539836034063	2.419639	1.5555189
15.656231261239173	2.4180615	1.5550117
15.673923061962451	2.4134212	1.553519
15.691615238649552	2.454875	1.566804
15.709307791746202	2.4585147	1.5679651
15.727000721698221	2.4245348	1.5570918
15.744694028951498	2.36923	1.5392303
15.76238771395202	2.349248	1.5327257
15.780081777145844	2.3041146	1.517931
15.797776218979125	2.3109813	1.5201912
15.815471039898094	2.3170214	1.5221765
15.833166240349064	2.3549623	1.5345887
15.850861820778437	2.3716085	1.5400027
15.868557781632699	2.4197974	1.5555698
15.886254123358412	2.4442277	1.5634027
15.903950846402232	2.4694917	1.5714617
15.921647951210897	2.4508762	1.5655274
15.939345438231225	2.4494684	1.5650778
15.957043307910133	2.4474664	1.564438
15.974741560694602	2.4813845	1.5752411
15.992440197031714	2.4809809	1.5751129
16.01013921736862	2.4939766	1.5792329
16.02783862215259	2.4652283	1.5701046
16.045538411830933	2.4701166	1.5716605
16.06323858685107	2.4593382	1.5682278
16.080939147660512	2.4256103	1.5574371
16.09864009470684	2.387461	1.5451411
16.11634142843774	2.3725953	1.5403231
16.134043149300954	2.3809943	1.5430471
16.15174525774433	2.4099762	1.5524098
16.169447754215817	2.4156997	1.5542521
16.18715063916342	2.4327888	1.55974
16.204853913035244	2.442371	1.5628086
16.222557576279478	2.4380944	1.5614399
16.240261629344403	22.40051	4.732918
16.257966072678386	42.911316	6.550673
16.275670906729868	38.053513	6.168753
16.293376131947387	2.5017617	1.5816958
16.31108174877957	2.502411	1.5819011
16.328787757675133	2.5142612	1.5856422
16.34649415908287	2.5196025	1.5873256
16.364200953451657	2.5643296	1.6013525
16.38190814123048	2.5867293	1.6083312
16.39961572286839	2.5822768	1.6069465
16.41732369881455	2.6075263	1.6147836
16.43503206951817	2.6639411	1.6321584
16.45274083542859	2.7226613	1.6500489
16.47044999699522	2.7713418	1.6647347
16.488159554667558	2.7992976	1.6731101
16.505869508895184	2.887648	1.6993082
16.523579860127786	2.9409552	1.7149214
16.541290608815117	2.9878755	1.7285472
16.559001755407035	3.0123434	1.7356104
16.57671330035348	3.0718844	1.7526792
16.59442524410448	3.1649253	1.7790236
16.61213758711015	3.350526	1.8304442
16.629850329820705	3.4350173	1.85338
16.647563472686436	3.4910004	1.8684219
16.665277016157724	3.416575	1.848398
16.682990960685053	3.4332964	1.8529156
16.70070530671898	3.4398353	1.8546793
16.718420054710155	3.4854925	1.8669474
16.736135205109335	3.4904246	1.8682678
16.753850758367335	3.5522804	1.8847494
16.771566714935087	3.5909228	1.894973
16.789283075263597	3.6213074	1.9029733
16.80699983980398	3.6426654	1.9085768
16.82471700900741	3.7531657	1.9373089
16.84243458332518	3.8509684	1.9623884
16.860152563208665	3.9444606	1.9860666
16.87787094910932	3.9767745	1.9941852
16.89558974147871	4.024359	2.0060806
16.913308940768466	4.0988812	2.0245695
16.931028547430333	4.154227	2.038192
16.94874856191613	4.2099915	2.0518265
16.966468984677785	4.2636743	2.0648665
16.98418981616729	4.250019	2.0615575
17.00191105683676	4.3123875	2.076629
17.019632707138374	4.347142	2.0849802
17.03735476752442	4.4049687	2.0988019
17.05507723844728	4.440878	2.1073391
17.072800120359403	4.5047536	2.1224406
17.090523413713353	4.538559	2.1303895
17.108247118961785	4.5711904	2.1380343
17.125971236557437	4.627068	2.151062
17.143695766953133	4.6687636	2.1607323
17.161420710601806	4.6996446	2.1678665
17.179146067956477	4.688469	2.1652873
17.19687183947025	4.6978045	2.1674418
17.21459802559634	4.697033	2.167264
17.232324626788028	4.64725	2.1557481
17.25005164349871	4.5510607	2.1333215
17.267779076181863	4.4676847	2.11369
17.285506925291074	4.4680686	2.1137807
17.30323519127999	4.499761	2.121264
17.320963874602384	4.488887	2.1186993
17.33869297571211	4.5220065	2.126501
17.356422495063114	4.5207205	2.1261985
17.37415243310944	4.5033917	2.1221197
17.391882790305218	4.444779	2.1082644
17.40961356710468	4.4340153	2.1057103
17.42734476396215	4.4444494	2.1081862
17.445076381332044	4.4798017	2.1165543
17.462808419668868	4.517484	2.1254375
17.48054087942723	4.6052823	2.145992
17.498273761061835	4.7985854	2.1905673
17.51600706502747	5.1593814	2.2714272
17.533740791779024	5.760062	2.400013
17.551474941771485	6.576971	2.5645607
17.56920951545993	8.418025	2.9013834
17.586944513299528	9.69298	3.1133552
17.60467993574556	12.547608	3.5422604
17.622415783253373	15.170104	3.8948817
17.64015205627843	18.01902	4.2448816
17.657888755276293	20.529627	4.530963
17.675625880702604	22.126598	4.7038918
17.69336343301311	20.655512	4.5448337
17.71110141266366	18.517815	4.303233
17.728839820110178	15.802744	3.9752665
17.746578655808705	12.646348	3.5561705
17.764317920215372	10.476853	3.2367969
17.7820576137864	8.701706	2.9498653
17.79979773697811	7.2663517	2.6956172
17.81753829024692	5.9037347	2.4297602
17.835279274049356	5.1526613	2.2699475
17.85302068884201	4.422114	2.1028824
17.870762535081607	4.0415235	2.010354
17.888504813224934	3.8375793	1.958974
17.90624752372891	3.7289944	1.9310604
17.923990667050536	3.6365852	1.9069833
17.941734243646895	3.5723746	1.8900726
17.959478253975185	3.4836602	1.8664566
17.9772226984927	3.4371152	1.8539459
17.994967577656833	3.400362	1.844007
18.01271289192506	3.425767	1.8508828
18.030458641754965	3.4090734	1.8463676
18.04820482760425	3.3518348	1.8308017
18.06595144993067	3.304367	1.8177918
18.083698509192125	3.2633193	1.806466
18.101446005846576	3.2159908	1.7933184
18.119193940352105	3.1389923	1.7717202
18.136942313166887	3.1335175	1.7701744
18.1546911247492	3.115614	1.7651101
18.1724403755574	3.1296673	1.7690866
18.19019006604997	3.1225033	1.7670606
18.207940196685467	3.1016731	1.7611568
18.225690767922575	3.0421426	1.7441739
18.243441780220046	3.0093675	1.7347529
18.261193234036764	3.0198166	1.737762
18.278945129831676	3.059184	1.7490523
18.29669746806386	3.0546005	1.7477416
18.314450249192483	3.0222306	1.7384564
18.3322034736768	2.992563	1.7299026
18.349957141976184	2.9991536	1.7318065
18.3677112545501	2.9910333	1.7294604
18.385465811858108	2.9752662	1.724896
18.403220814359884	2.9801235	1.7263035
18.420976262515172	3.0420852	1.7441574
18.43873215678387	3.0661535	1.7510436
18.456488497625923	3.070093	1.752168
18.474245285501407	3.1664183	1.7794433
18.492002520870486	3.2453582	1.8014878
18.50976020419343	3.361592	1.8334645
18.527518335930615	3.6126146	1.9006879
18.545276916542516	4.106094	2.0263498
18.563035946489688	4.248755	2.061251
18.580795426232832	4.662771	2.1593451
18.598555356232698	4.56232	2.135959
18.616315736950185	4.863699	2.2053795
18.63407656884626	4.5352554	2.1296139
18.65183785238201	4.7230234	2.1732519
18.669599588018617	4.456123	2.110953
18.68736177621737	4.442823	2.1078005
18.705124417439652	4.428303	2.1043532
18.72288751214696	4.2690797	2.0661752
18.740651060800886	4.401766	2.0980387
18.758415063863115	4.1632786	2.0404115
18.77617952179546	4.319145	2.0782554
18.793944435059814	4.0989995	2.0245986
18.811709804118184	4.0462546	2.0115304
18.829475629432675	3.9895582	1.9973879
18.8472419114655	3.807287	1.9512271
18.86500865067897	3.9051428	1.9761434
18.88277584753551	3.623871	1.9036468
18.90054350249763	3.621828	1.9031101
18.918311616027957	3.3501287	1.8303356
18.936080188589226	3.3022885	1.81722
18.953849220644265	3.0734222	1.7531178
18.971618712656007	2.8923051	1.7006779
18.9893886650875	2.7737706	1.665464
19.007159078401887	7.9036207	2.811338
19.024929953062408	32.83548	5.730225
19.042701289532435	32.839725	5.7305956
19.060473088275405	25.406008	5.040437
19.07824534975489	2.6460912	1.6266811
19.096018074434568	2.6177437	1.6179442
19.113791262778197	2.6095204	1.615401
19.13156491524966	2.570039	1.6031342
19.149339032312945	2.5560179	1.5987551
19.167113614432136	2.5442212	1.5950615
19.184888662071433	2.546129	1.5956594
19.202664175695123	2.521475	1.5879153
19.220440155767623	2.5133212	1.5853457
19.238216602753447	2.5371006	1.5928278
19.2559935171172	2.5272784	1.5897416
19.27377089932361	2.5203705	1.5875674
19.291548749837514	2.5264902	1.5894938
19.309327069123835	2.5482852	1.5963349
19.32710585764763	2.4924328	1.578744
19.344885115874032	2.4477382	1.5645249
19.362664844268313	2.4519796	1.5658798
19.380445043295822	2.4927227	1.5788358
19.39822571342203	2.5111234	1.5846524
19.41600685511252	2.497653	1.5803964
19.43378846883297	2.4561775	1.5672196
19.451570555049173	2.4456875	1.5638694
19.469353114227037	2.4783096	1.5742648
19.48713614683254	2.491688	1.5785081
19.50491965333182	2.4514759	1.565719
19.52270363419109	2.41354	1.5535572
19.540488089876686	2.4104865	1.5525742
19.55827302085503	2.4555838	1.5670303
19.576058427592674	2.473488	1.5727327
19.593844310556282	2.4829261	1.5757303
19.611630670212598	2.4659874	1.5703462
19.629417507028506	2.4472654	1.5643739
19.64720482147098	2.4380796	1.5614351
19.6649926140071	2.463949	1.5696971
19.682780885104084	2.4918754	1.5785675
19.70056963522921	2.470745	1.5718604
19.718358864849908	2.4505968	1.5654383
19.7361485744337	2.4280546	1.5582216
19.753938764448215	2.4437082	1.5632365
19.771729435361202	2.4456398	1.5638542
19.789520587640506	2.472892	1.5725431
19.807312221754092	2.4777124	1.5740751
19.825104338170043	2.5026543	1.581978
19.842896937356517	2.4847927	1.5763226
19.860690019781824	2.4532812	1.5662954
19.87848358591436	2.439013	1.561734
19.896277636222635	2.461909	1.5690472
19.914072171175278	2.4947126	1.5794659
19.931867191241015	2.4793308	1.5745891
19.94966269688869	2.433859	1.560083
19.967458688587264	2.4144912	1.5538633
19.985255166805807	2.3876808	1.5452121
20.00305213201348	2.4053736	1.5509267
20.020849584679578	2.4292312	1.5585991
20.038647525273507	2.4874873	1.577177
20.05644595426477	2.4470928	1.5643187
20.07424487212299	2.403613	1.550359
20.092044279317903	2.3522892	1.5337174
20.109844176319353	2.3808496	1.5430002
20.127644563597304	2.3990698	1.5488931
20.145445441621817	2.4157176	1.5542579
20.16324681086307	2.4100769	1.5524422
20.181048671791373	2.4125838	1.5532495
20.198851024877122	2.4005485	1.5493703
20.216653870590836	2.3769987	1.5417519
20.234457209403146	2.3525693	1.5338088
20.252261041784802	2.316121	1.5218807
20.270065368206662	2.2830424	1.510974
20.287870189139685	2.2845538	1.511474
20.305675505054968	2.2803855	1.5100945
20.323481316423702	2.29027	1.5133638
20.341287623717207	2.2906978	1.5135051
20.359094427406884	2.2900982	1.5133071
20.376901727964288	2.2701056	1.5066869
20.39470952586107	2.243217	1.4977373
20.41251782156899	2.2602901	1.5034262
20.430326615559935	2.293281	1.5143583
20.448135908305886	2.3344243	1.5278823
20.465945700278965	2.3232439	1.5242192
20.483755991951384	2.3038118	1.5178313
20.50156678379548	2.296209	1.5153247
20.519378076283708	2.3114622	1.5203494
20.537189869888635	2.3163223	1.5219469
20.55500216508294	2.292518	1.5141063
20.572814962339415	2.3129458	1.5208372
20.59062826213098	2.321035	1.5234944
20.60844206493066	2.3275206	1.5256214
20.626256371211593	2.2962575	1.5153407
20.644071181447032	2.2885957	1.5128105
20.66188649611036	2.2860389	1.5119653
20.67970231567506	2.299805	1.5165107
20.697518640614742	2.2749517	1.5082943
20.715335471403122	2.2727928	1.5075785
20.73315280851404	2.26495	1.5049751
20.750970652421447	2.2703748	1.5067763
20.768789003599412	2.2449033	1.4983002
20.786607862522136	2.2405567	1.496849
20.8044272296639	2.2644126	1.5047965
20.82224710549913	2.2824943	1.5107926
20.84006749050237	2.2771854	1.5090346
20.857888385148268	3.8423934	1.9602023
20.8757097899116	45.91429	6.7760086
20.893531705267254	64.75816	8.047246
20.911354131690224	83.76493	9.152318
20.92917706965566	69.03172	8.308533
20.94700051963877	50.08392	7.076999
20.96482448211493	29.37666	5.420024
20.982648957559622	4.1214027	2.0301237
21.00047394644843	2.2276373	1.4925271
21.01829944925707	2.2101507	1.4866576
21.036125466461375	2.229706	1.49322
21.053951998537297	2.209127	1.4863132
21.071779045960906	2.1897907	1.4797941
21.089606609208378	2.1617134	1.4702766
21.10743468875603	2.184851	1.4781241
21.12526328508028	2.1520214	1.466977
21.143092398657675	2.1230984	1.4570856
21.16092202996488	2.1277995	1.4586979
21.17875217947867	2.1571276	1.4687163
21.19658284767596	2.1958263	1.481832
21.21441403503377	2.1997125	1.4831427
21.232245742029225	2.1950939	1.4815849
21.2500779691396	2.1348684	1.4611189
21.26791071684227	2.1132338	1.4536966
21.28574398561475	2.113442	1.4537681
21.30357777593465	2.119318	1.4557878
21.321412088279704	2.1046221	1.4507316
21.339246923127792	2.1090057	1.4522417
21.357082280956888	2.113519	1.4537947
21.3749181622451	2.090675	1.4459167
21.392754567470647	2.0812497	1.4426537
21.41059149711187	2.0762656	1.4409252
21.42842895164726	2.0880797	1.4450189
21.446266931555378	2.0706291	1.4389681
21.464105437314945	2.0658448	1.4373047
21.481944469404798	2.0705323	1.4389344
21.49978402830388	2.0666802	1.4375952
21.51762411449127	2.0583138	1.4346825
21.53546472844617	2.0296435	1.4246556
21.553305870647876	2.0159566	1.4198439
21.571147541575865	2.0330918	1.4258653
21.58898974170967	2.0749433	1.4404664
21.60683247152899	2.0718584	1.4393952
21.62467573151363	2.034628	1.4264039
21.642519522143523	2.0108223	1.4180347
21.660363843898722	2.0228918	1.422284
21.6782086972594	2.0083222	1.4171529
21.696054082705864	1.9938335	1.4120317
21.713900000718535	2.0225277	1.422156
21.73174645177795	2.0074744	1.4168537
21.749593436364794	2.0142431	1.4192404
21.767440954959845	2.0007026	1.414462
21.785289008044032	1.9911083	1.4110664
21.803137596098388	1.9748577	1.4052963
21.820986719604086	2.0008433	1.4145117
21.838836379042412	2.0580564	1.4345927
21.85668657489478	2.0374827	1.4274042
21.87453730764273	1.9776833	1.4063013
21.892388577767914	1.9506794	1.3966672
21.91024038575213	1.9884962	1.4101405
21.928092732077285	1.9893132	1.4104302
21.945945617225426	1.9826599	1.4080696
21.963799041678694	1.9605734	1.4002048
21.981653005919398	31.268993	5.5918684
21.999507510429943	78.03342	8.8336525
22.01736255569286	73.01243	8.544731
22.035218142190818	4.144773	2.0358715
22.05307427040661	2.0171463	1.4202628
22.07093094082315	2.0181565	1.4206184
22.088788153923474	2.0031016	1.4153097
22.106645910190746	1.97192	1.4042507
22.12450421010827	1.9540838	1.3978854
22.142363054159464	1.9627852	1.4009944
22.16022244282787	1.9631503	1.4011246
22.178082376597164	1.9702865	1.4036689
22.195942855951145	1.9789056	1.4067358
22.213803881373742	1.9949613	1.412431
22.231665453349002	1.9678452	1.402799
22.24952757236111	1.9539746	1.3978465
22.26739023889438	1.9381946	1.3921906
22.28525345343323	1.9756618	1.4055823
22.30311721646225	1.9777021	1.4063079
22.320981528466113	1.9838974	1.4085089
22.33884638992964	1.9279768	1.3885161
22.356711801337788	1.9060555	1.3805996
22.37457776317561	1.9093091	1.3817775
22.392444275928337	1.9154663	1.3840038
22.410311340081282	1.8930095	1.3758669
22.428178956119904	1.8954144	1.3767405
22.446047124529805	1.9285799	1.3887333
22.46391584579669	1.9662856	1.402243
22.481785120406414	1.9605718	1.4002042
22.49965494884496	1.970233	1.4036499
22.51752533159841	1.9588566	1.3995916
22.53539626915302	1.9493086	1.3961765
22.553267761995137	1.9510351	1.3967946
22.571139810611264	1.9512697	1.3968786
22.589012415488025	1.9976403	1.4133791
22.60688557711216	2.0243096	1.4227823
22.624759295970566	1.989702	1.410568
22.642633572550263	1.9629999	1.401071
22.660508407338362	1.9587932	1.3995689
22.67838380082217	1.9693216	1.4033252
22.696259753489077	1.9230242	1.3867315
22.714136265826614	1.905856	1.3805275
22.73201333832246	1.884088	1.3726208
22.74989097146439	1.8519297	1.3608562
22.76776916574035	1.8165534	1.3477957
22.785647921638393	1.8447651	1.3582213
22.803527239646712	1.897313	1.3774298
22.82140712025363	1.9312027	1.3896772
22.839287563947593	1.9252465	1.3875325
22.85716857121719	1.9011097	1.3788073
22.875050142551135	1.8877009	1.3739363
22.892932278438277	1.9094365	1.3818237
22.910814979367604	1.9203547	1.3857687
22.928698245828222	1.922558	1.3865633
22.946582078309387	1.9291034	1.3889216
22.96446647730047	1.9416465	1.3934298
22.98235144329098	1.9740686	1.4050156
23.000236976770562	1.9544165	1.3980045
23.018123078229	1.9191093	1.3853192
23.03600974815619	1.911926	1.3827242
23.053896987042194	1.8999628	1.3783914
23.071784795377173	1.8730845	1.3686068
23.08967317365145	1.8849891	1.3729491
23.10756212235546	1.8974366	1.3774748
23.125451641979787	1.9048449	1.3801612
23.143341733015134	1.8550562	1.3620045
23.161232395952357	1.83732	1.3554778
23.179123631282426	1.8513249	1.360634
23.197015439496468	1.9103316	1.3821474
23.214907821085717	1.9759846	1.4056972
23.23280077654157	1.9937854	1.4120146
23.250694306355538	1.9616663	1.400595
23.268588411019277	1.9281756	1.3885876
23.28648309102458	1.9186037	1.3851367
23.304378346863356	1.9069517	1.3809242
23.322274179027676	1.9261067	1.3878424
23.340170588009723	1.9527868	1.3974215
23.358067574301852	1.9642528	1.401518
23.37596513839651	1.9422443	1.3936442
23.39386328078629	1.918628	1.3851454
23.411762001963947	1.8801875	1.3711993
23.429661302422353	1.8612254	1.3642673
23.4475611826545	1.8572407	1.3628062
23.46546164315356	1.8974296	1.3774722
23.48336268441279	1.8988163	1.3779755
23.501264306925638	1.912986	1.3831074
23.51916651118564	1.9268074	1.3880949
23.537069297686497	1.9603487	1.4001245
23.554972666922037	1.9219778	1.3863541
23.57287661938623	1.8875532	1.3738825
23.59078115557318	1.8756661	1.3695496
23.608686275977128	1.9004849	1.3785808
23.62659198109246	1.9004045	1.3785516
23.6444982714137	1.8891394	1.3744596
23.66240514743549	1.901039	1.3787817
23.68031260965263	1.9237233	1.3869835
23.698220658560068	1.9642617	1.4015212
23.716129294652845	1.9345049	1.3908648
23.7340385184262	1.9202082	1.3857157
23.75194833037546	1.9225429	1.3865579
23.769858730996123	1.927366	1.3882961
23.78776972078382	1.8866397	1.37355
23.80568130023431	1.8829423	1.3722035
23.823593469843495	1.8868303	1.3736194
23.841506230107424	1.9310766	1.3896319
23.859419581522275	1.9329269	1.3902974
23.87733352458438	1.8942897	1.3763319
23.89524805979019	1.8718367	1.3681508
23.913163187636318	1.8723783	1.3683487
23.931078908619508	1.9141937	1.383544
23.948995223236633	1.9338754	1.3906385
23.966912131984735	1.9306858	1.3894912
23.98482963536096	1.9290553	1.3889043
24.002747733862616	1.933587	1.3905348
24.020666427987155	1.9507884	1.3967062
24.038585718232156	1.9757402	1.4056102
24.056505605095353	1.9908899	1.4109889
24.074426089074617	2.057443	1.434379
24.092347170667946	2.0240188	1.4226801
24.110268850373515	2.009773	1.4176646
24.128191128689586	1.9857497	1.4091663
24.146114006114626	1.9806385	1.4073516
24.164037483147187	1.9894842	1.4104908
24.181961560286005	1.9751784	1.4054104
24.199886238029926	1.9827825	1.4081131
24.21781151687797	2.0262315	1.4234576
24.235737397329274	2.0222108	1.4220446
24.253663879883135	1.9996351	1.4140846
24.271590965038975	1.9911183	1.4110699
24.289518653296376	2.0091825	1.4174564
24.30744694515505	1.9811248	1.4075243
24.32537584111486	1.9310693	1.3896291
24.34330534167581	1.8974097	1.3774649
24.361235447338046	1.9523273	1.3972571
24.379166158601876	1.9627455	1.4009802
24.39709747596772	1.9482262	1.3957888
24.41502939993615	1.9616182	1.4005778
24.432961931007917	1.9733832	1.4047716
24.450895069683856	1.9845808	1.4087515
24.468828816465	1.9192365	1.3853651
24.4867631718525	1.9096667	1.3819069
24.504698136347656	1.9233682	1.3868555
24.52263371045192	1.9986134	1.4137232
24.540569894666874	1.9825399	1.4080269
24.558506689494266	1.9087361	1.3815702
24.57644409543597	1.8947709	1.3765068
24.594382112994012	1.9175829	1.3847681
24.61232074267057	1.9426155	1.3937774
24.630259984967953	1.9372554	1.3918532
24.64819984038863	1.9426352	1.3937845
24.66614030943522	1.9532039	1.3975707
24.684081392610462	1.9243423	1.3872067
24.702023090417274	1.948601	1.395923
24.7199654033587	1.9946012	1.4123036
24.737908331937927	2.0558195	1.433813
24.755851876658305	2.0636852	1.4365532
24.773796038023324	2.0453994	1.4301746
24.79174081653661	2.0470092	1.4307373
24.809686212701962	2.057711	1.4344723
24.827632227023294	2.0498667	1.4317355
24.8455788600047	2.0681686	1.4381129
24.8635261121504	2.084211	1.4436797
24.88147398396475	2.0250137	1.4230298
24.899422475952303	2.0437024	1.4295812
24.917371588617698	2.0991843	1.4488562
24.935321322465768	2.172365	1.4738945
24.953271678001478	2.2955298	1.5151006
24.97122265572994	2.489784	1.5779049
24.989174256156414	2.8173041	1.6784827
25.00712647978632	3.3855696	1.8399917
25.02507932712521	4.3789544	2.092595
25.043032798678798	5.8734446	2.4235191
25.060986894952933	7.5377083	2.7454886
25.078941616453637	8.979697	2.9966142
25.096896963687055	9.834265	3.1359632
25.114852937159508	10.463853	3.234788
25.132809537377444	10.299581	3.209296
25.150766764847468	9.673604	3.110242
25.168724620076347	8.318663	2.8842092
25.186683103570985	7.1533146	2.6745682
25.204642215838426	5.837122	2.4160137
25.222601957385894	4.669651	2.1609375
25.24056232872074	3.5791714	1.8918698
25.25852333035048	2.8035564	1.6743824
25.276484962782778	2.3286872	1.5260037
25.294447226525435	2.103575	1.4503707
25.312410122086423	2.0367808	1.4271584
25.330373649973843	1.9867603	1.4095248
25.348337810695988	1.9327027	1.3902167
25.366302604761245	1.8691998	1.3671868
25.384268032678207	1.8372785	1.3554624
25.40223409495558	1.8261218	1.3513408
25.420200792102257	1.8499162	1.3601162
25.438168124627246	1.8667039	1.3662738
25.45613609303974	1.8943988	1.3763716
25.474104697849057	1.8818709	1.3718129
25.492073939564698	1.8922117	1.3755769
25.510043818696285	1.8727286	1.3684767
25.528014335753614	1.8767219	1.369935
25.54598549124664	1.8998708	1.378358
25.56395728568544	1.855483	1.3621612
25.58192971958028	1.8091329	1.3450401
25.59990279344156	1.8165138	1.3477811
25.617876507779833	1.8320037	1.3535153
25.635850863105826	1.8122236	1.3461885
25.653825859930386	1.8625574	1.3647554
25.671801498764548	1.8795571	1.3709694
25.68977778011949	1.8871558	1.3737379
25.707754704506524	1.8499469	1.3601276
25.725732272437153	1.8323388	1.3536391
25.743710484423012	1.856429	1.3625083
25.761689340975888	1.8395691	1.3563071
25.77966884260774	1.7915215	1.3384774
25.797648989830662	1.7475739	1.3219583
25.815629783156922	1.743121	1.320273
25.83361122309895	1.8003852	1.3417844
25.85159331016929	1.8093455	1.3451191
25.869576044880695	1.7627033	1.3276684
25.887559427746034	1.7115569	1.3082649
25.90554345927836	1.763673	1.3280334
25.92352813999086	1.8310798	1.353174
25.94151347039689	1.8449125	1.3582755
25.959499451009965	1.8139923	1.3468453
25.97748608234374	1.7604417	1.3268163
25.995473364912062	1.7660857	1.3289416
26.013461299228904	1.7631373	1.3278319
26.03144988580839	1.7947036	1.3396655
26.04943912516483	1.8245078	1.3507434
26.067429017812675	1.8212211	1.3495263
26.085419564266537	1.8092456	1.345082
26.103410765041186	1.859679	1.3637005
26.12140262065155	1.8873352	1.3738031
26.139395131612723	1.8754994	1.3694887
26.157388298439948	1.8115568	1.3459408
26.17538212164861	1.8010582	1.342035
26.193376601754295	1.8141831	1.3469162
26.211371739272714	1.8635303	1.3651118
26.229367534719746	1.8214059	1.3495947
26.247363988611433	1.7932476	1.3391219
26.26536110146397	1.7834548	1.3354605
26.283358873793727	1.7638375	1.3280954
26.301357306117204	1.7233101	1.312749
26.319356398951104	1.7238996	1.3129736
26.33735615281224	1.7338023	1.3167393
26.35535656821762	1.7516438	1.3234968
26.373357645684404	1.7929128	1.338997
26.39135938572991	1.850972	1.3605044
26.409361788871614	1.8370534	1.3553795
26.427364855627165	1.8238744	1.3505089
26.445368586514352	1.7840633	1.3356884
26.46337298205115	1.8140696	1.346874
26.48137804275568	1.8158897	1.3475496
26.499383769146217	1.8118349	1.3460442
26.517390161741215	1.771229	1.3308753
26.53539722105928	1.734282	1.3169215
26.553404947619182	1.8020233	1.3423946
26.571413341939856	1.8379803	1.3557214
26.589422404540397	1.8395451	1.3562983
26.60743213594006	1.8338021	1.3541795
26.62544253665827	1.8179538	1.3483152
26.64345360721459	1.8003775	1.3417815
26.66146534812879	1.7818732	1.3348682
26.679477759920758	1.7714489	1.3309579
26.69749084311057	1.7289987	1.314914
26.71550459821847	1.7590421	1.3262888
26.733519025764842	1.7914418	1.3384476
26.751534126270258	1.7826672	1.3351656
26.769549900255434	1.770823	1.3307227
26.787566348241267	1.7527505	1.3239149
26.80558347074881	1.7842727	1.3357667
26.823601268299267	1.8036774	1.3430105
26.841619741414036	1.7819145	1.3348837
26.85963889061465	1.7556733	1.3250182
26.877658716422832	1.7640681	1.3281822
26.89567921936045	1.7994628	1.3414406
26.913700399949544	1.8177909	1.3482548
26.93172225871233	1.7860427	1.3364291
26.949744796171174	1.7716529	1.3310345
26.967768012848605	1.7952814	1.3398811
26.98579190926733	1.7936356	1.3392668
27.003816485950225	1.7697799	1.3303307
27.021841743420318	1.76568	1.3287889
27.039867682200814	1.7837299	1.3355635
27.057894302815072	1.8182093	1.3484099
27.07592160578664	1.8250518	1.3509448
27.0939495916392	1.806897	1.3442087
27.111978260896635	1.7843655	1.3358015
27.13000761408296	1.7585566	1.3261058
27.148037651722397	1.7545973	1.3246121
27.166068374339304	1.7442646	1.3207061
27.184099782458215	1.7363061	1.3176897
27.20213187660384	1.728768	1.3148263
27.22016465730105	1.7421176	1.319893
27.23819812507487	1.7448076	1.3209116
27.256232280450533	1.816473	1.3477659
27.274267123953383	1.8528883	1.3612084
27.292302656108987	1.848133	1.3594606
27.31033887744306	1.8136779	1.3467286
27.32837578848146	1.8077061	1.3445096
27.34641338975026	1.7841548	1.3357226
27.364451681775673	1.8290907	1.3524388
27.382490665084074	1.8094629	1.3451627
27.400530340202046	1.7956477	1.3400178
27.41857070765629	1.8072735	1.3443488
27.436611767973726	1.7844534	1.3358344
27.454653521681404	1.7116685	1.3083075
27.472695969306564	1.7109967	1.3080508
27.490739111376627	1.7313368	1.3158027
27.508782948419153	1.7730637	1.3315643
27.526827480961902	1.7932919	1.3391385
27.54487270953279	1.7910246	1.3382916
27.562918634659898	1.7827936	1.335213
27.580965256871508	1.7358526	1.3175176
27.599012576696026	1.7369263	1.317925
27.617060594662068	1.7647158	1.328426
27.63510931129842	1.7890325	1.3375472
27.65315872713401	1.8683745	1.366885
27.67120884269797	1.9018148	1.379063
27.68925965851958	1.8597461	1.3637251
27.707311175128307	1.8629494	1.364899
27.725363393053787	1.8386616	1.3559725
27.74341631282583	1.8248944	1.3508866
27.7614699349744	1.8272266	1.3517494
27.77952426002968	2.032274	1.4255785
27.797579288521973	2.2069774	1.4855899
27.815635020981784	2.6314182	1.6221647
27.83369145793979	2.6665044	1.6329435
27.85174859992682	2.4801438	1.5748472
27.869806447473923	2.362223	1.5369525
27.887865001112267	2.0760922	1.4408652
27.905924261373233	1.9422473	1.3936453
27.92398422878836	1.8719357	1.3681871
27.94204490388936	1.8202637	1.3491715
27.96010628720813	1.774771	1.3322053
27.978168379276728	1.8142052	1.3469243
27.9962311806274	1.8348618	1.3545707
28.014294691792568	1.8256853	1.3511792
28.0323589133048	1.8071765	1.3443127
28.050423845696887	1.8197846	1.3489939
28.068489489501758	1.8740553	1.3689613
28.086555845252523	1.8662516	1.3661082
28.104622913482487	1.8752905	1.3694124
28.122690694725115	1.8821999	1.3719329
28.14075918951405	1.9174051	1.384704
28.15882839838312	1.9412198	1.3932767
28.176898321866304	1.9136213	1.383337
28.1949689604978	1.93163	1.389831
28.213040314811945	1.9373251	1.3918782
28.23111238534327	1.9408782	1.393154
28.249185172626493	1.9297886	1.3891683
28.267258677196473	1.9428195	1.3938506
28.285332899588294	1.9592	1.3997142
28.303407840337172	1.932526	1.3901532
28.321483499978545	1.9410148	1.393203
28.33955987904799	1.9308311	1.3895435
28.357636978081285	1.940195	1.3929088
28.37571479761439	1.9355466	1.3912393
28.393793338183425	1.9380152	1.3921262
28.41187260032469	1.9747455	1.4052564
28.429952584574686	2.012442	1.4186057
28.448033291470065	2.0126197	1.4186683
28.46611472154769	1.9875716	1.4098126
28.484196875344566	2.0087965	1.4173201
28.502279753397914	1.9892099	1.4103935
28.52036335624511	1.9804268	1.4072764
28.538447684423716	1.998078	1.4135338
28.556532738471482	2.0034108	1.415419
28.574618518926325	1.9888953	1.410282
28.59270502632635	1.9531468	1.3975503
28.61079226120985	1.9602232	1.4000797
28.628880224115274	2.0192275	1.4209952
28.646968915581287	2.0528986	1.432794
28.66505833614671	2.0133975	1.4189423
28.68314848635055	2.023294	1.4224254
28.701239366732004	2.0506392	1.4320053
28.71933097783044	2.0583217	1.4346852
28.737423320185403	2.0631056	1.4363515
28.75551639433665	2.0885503	1.4451817
28.773610200824074	2.1547863	1.4679191
28.791704740187793	2.1825027	1.4773296
28.80980001296809	2.1599588	1.4696798
28.827896019705413	2.092617	1.446588
28.845992760940433	2.099679	1.449027
28.86409023721397	2.209457	1.4864242
28.88218844906704	2.2805161	1.5101378
28.900287397040845	2.3020203	1.517241
28.918387081676755	2.2398345	1.4966077
28.936487503516343	2.261795	1.5039265
28.954588663101365	2.340176	1.5297635
28.97269056097374	2.3262877	1.5252173
28.990793197675597	2.2699363	1.5066308
29.00889657374923	2.329322	1.5262117
29.027000689737125	2.3531055	1.5339836
29.04510554618196	2.4048107	1.5507452
29.06321114362659	2.4241972	1.5569834
29.08131748261405	2.4275043	1.558045
29.099424563687567	2.3900337	1.5459734
29.11753238739057	2.4261017	1.5575949
29.13564095426663	2.4834461	1.5758953
29.15375026485954	2.5550346	1.5984476
29.171860319713275	2.6493804	1.6276917
29.18997111937199	2.7045295	1.6445454
29.20808266438002	2.7469218	1.657384
29.226194955281898	2.7953603	1.671933
29.244307992622335	2.783274	1.6683147
29.26242177694624	2.822688	1.6800858
29.2805363087987	2.8600519	1.6911688
29.29865158872498	2.8651102	1.6926637
29.316767617270557	2.8702688	1.6941868
29.334884394981064	2.973522	1.7243903
29.353001922402367	2.9948606	1.7305666
29.37112020008047	3.0236936	1.738877
29.389239228561596	3.1131537	1.7644131
29.407359008392152	3.2468343	1.8018974
29.42547954011872	3.5528793	1.8849083
29.44360082428809	4.095067	2.0236273
29.46172286144722	4.8775606	2.20852
29.479845652143283	6.4502187	2.5397282
29.497969196923606	9.259043	3.0428674
29.516093496335728	13.259965	3.6414235
29.5342185509274	17.042692	4.1282797
29.55234436124651	20.383343	4.5147915
29.570470927841175	21.745283	4.6631837
29.588598251259686	21.54959	4.6421537
29.60672633205055	19.68152	4.436386
29.624855170762405	16.586843	4.072695
29.642984767944146	12.947315	3.5982378
29.66111512414481	9.541635	3.0889537
29.67924623991366	7.052028	2.6555655
29.697378115800138	5.2065725	2.2817914
29.71551075235387	4.2727323	2.0670588
29.733644150124675	3.8062	1.9509485
29.751778309662576	3.5735958	1.8903956
29.769913231517766	3.4233327	1.8502251
29.78804891624066	3.283635	1.8120803
29.806185364381818	3.2399902	1.7999973
29.82432257649206	3.2716048	1.8087578
29.842460553122333	3.3321967	1.8254305
29.86059929482382	3.3355746	1.8263556
29.878738802147872	3.3343678	1.8260251
29.896879075646048	3.2909214	1.8140897
29.915020115870114	3.2702258	1.8083766
29.933161923371976	3.2768242	1.8102001
29.951304498703777	3.2796383	1.8109772
29.969447842417857	3.2573445	1.8048115
29.987591955066733	3.2819867	1.8116255
30.005736837203123	3.3096552	1.8192458
30.023882489379943	3.2672434	1.8075517
30.04202891215028	3.213811	1.7927105
30.060176106067455	3.257294	1.8047975
30.078324071684946	3.3369076	1.8267205
30.09647280955646	3.3273594	1.8241051
30.114622320235863	3.2174056	1.7937127
30.132772604277257	3.1429994	1.7728506
30.1509236622349	3.1032212	1.7615962
30.16907549466328	3.0989268	1.7603769
30.18722810211705	3.0939634	1.7589666
30.205381485151097	3.1305919	1.7693479
30.22353564432045	3.097102	1.7598585
30.241690580180403	3.0158646	1.7366245
30.25984629328638	2.9770195	1.7254041
30.278002784194037	3.0063033	1.7338694
30.296160053459246	2.9931633	1.7300761
30.314318101638033	2.959641	1.7203608
30.332476929286646	3.0309093	1.7409507
30.35063653696153	3.0042405	1.7332745
30.368796925219307	2.9385536	1.714221
30.386958094616844	2.875135	1.6956223
30.40512004571115	2.8480031	1.6876028
30.423282779059463	2.8372025	1.6843997
30.441446295219233	2.8122678	1.6769818
30.459610594748067	2.7844892	1.6686789
30.47777567820382	2.848286	1.6876866
30.495941546144504	2.8834584	1.6980749
30.51410819912835	2.850483	1.6883373
30.532275637713795	2.8474097	1.6874269
30.55044386245946	2.7886705	1.6699313
30.56861287392416	2.7684102	1.663854
30.586782672666956	2.7805092	1.667486
30.604953259247047	2.8089297	1.6759862
30.623124634223885	2.7759233	1.6661102
30.641296798157075	2.7169852	1.6483281
30.659469751606462	2.6908123	1.6403695
30.677643495132074	2.6927428	1.640958
30.695818029294152	2.7143648	1.6475329
30.713993354653116	2.778753	1.6669592
30.73216947176962	2.8455825	1.6868855
30.75034638120448	2.8511105	1.6885232
30.768524083518756	2.7793353	1.6671338
30.786702579273673	2.7314346	1.6527052
30.80488186903069	2.8193069	1.6790792
30.82306195335144	3.0071175	1.7341043
30.841242832797782	3.3295493	1.8247052
30.85942450793176	3.665495	1.9145483
30.877606979315637	4.0037494	2.0009372
30.895790247511883	4.3870287	2.0945234
30.913974313083134	4.8038464	2.191768
30.932159176592283	5.245062	2.29021
30.95034483860237	5.56623	2.3592858
30.968531299676698	5.591673	2.364672
30.98671856037873	5.2131577	2.2832341
31.00490662127215	4.6577673	2.1581862
31.023095482920848	4.1954017	2.048268
31.04128514588892	3.718928	1.9284523
31.059475610740662	3.1850455	1.7846695
31.07766687804056	2.7492778	1.6580946
31.09585894835335	2.5893261	1.6091384
31.11405182224393	2.5904987	1.6095027
31.132245500277417	2.5551312	1.5984777
31.15043998301914	2.5035367	1.5822568
31.168635271034628	2.4984183	1.5806385
31.18683136488964	2.550404	1.5969985
31.20502826515008	2.5058775	1.5829964
31.223225972382135	2.421049	1.5559721
31.241424487152155	2.3858318	1.5446138
31.259623810026692	2.432948	1.5597911
31.27782394157253	2.4706664	1.5718354
31.296024882356644	2.4240458	1.5569347
31.314226632946237	2.4289284	1.558502
31.332429193908684	2.4642193	1.5697832
31.350632565811598	2.4730675	1.5725989
31.368836749222787	2.422928	1.5565758
31.387041744710295	2.4645731	1.5698959
31.40524755284232	2.4823632	1.5755517
31.423454174187317	2.517797	1.5867567
31.441661609313922	2.5423822	1.5944849
31.459869858791002	2.492637	1.5788087
31.478078923187628	2.4742992	1.5729905
31.496288803073064	2.4655006	1.5701913
31.514499499016807	2.4415514	1.5625465
31.532711011588546	2.3414586	1.5301825
31.550923341358178	2.253341	1.5011133
31.56913648889584	2.251659	1.5005529
31.587350454771844	2.2769647	1.5089614
31.605565239556732	2.2673635	1.5057768
31.62378084382127	2.3045485	1.5180739
31.641997268136382	2.327029	1.5254602
31.660214513073274	2.3368876	1.5286882
31.67843257920331	2.3262317	1.5251989
31.6966514670981	2.3101933	1.519932
31.71487117732944	2.277732	1.5092157
31.733091710469346	2.2782383	1.5093834
31.751313067090052	2.2606971	1.5035615
31.769535247764008	2.245788	1.4985954
31.787758253063878	2.1458542	1.4648734
31.805982083562526	2.1251628	1.4577938
31.824206739833024	2.1634352	1.470862
31.84243222244869	2.1916049	1.480407
31.860658531983013	2.3204398	1.523299
31.878885669009737	2.366863	1.5384612
31.897113634102784	2.3271375	1.5254958
31.91534242783632	2.2574158	1.5024699
31.933572050784694	2.2438152	1.497937
31.951802503522508	2.2243564	1.4914277
31.970033786624548	2.2348578	1.4949441
31.988265900665834	2.251677	1.5005589
32.006498846221575	2.2768097	1.5089101
32.02473262386724	2.2417178	1.4972367
32.04296723417845	2.2016249	1.4837873
32.0612026777311	2.1686685	1.47264
32.07943895510129	2.1881452	1.479238
32.097676066865304	2.1958394	1.4818364
32.115914013599685	2.1645267	1.471233
32.13415279588115	2.1547215	1.4678969
32.152392414286666	2.1464682	1.465083
32.1706328693934	2.1253679	1.4578642
32.18887416177875	2.1003776	1.449268
32.20711629202032	2.100514	1.449315
32.225359260695924	2.1728208	1.4740491
32.243603068383614	2.2019136	1.4838846
32.26184771566166	2.2612326	1.5037396
32.28009320310852	2.2336297	1.4945333
32.2983395313029	2.182721	1.4774034
32.31658670082372	2.1964424	1.4820399
32.33483471225012	2.1620412	1.470388
32.35308356616143	2.1054883	1.4510301
32.371333263137245	2.0499108	1.4317509
32.38958380375734	2.0232315	1.4224035
32.407835188601744	2.0361385	1.4269333
32.42608741825067	2.0612874	1.4357184
32.444340493284585	2.0608966	1.4355823
32.46259441428416	2.0769536	1.441164
32.48084918183028	2.1035156	1.4503502
32.49910479650405	2.0341542	1.4262378
32.51736125888683	1.9328257	1.390261
32.53561856956014	2.0496027	1.4316434
32.5538767291058	2.0830827	1.4432888
32.572135738105764	2.0317776	1.4254044
32.59039559714228	2.024281	1.4227723
32.608656306797776	2.0219707	1.4219602
32.62691786765491	2.005845	1.4162786
32.645180280296586	2.0536156	1.4330442
32.663443545305896	2.0664372	1.4375107
32.68170766326619	2.0508924	1.4320937
32.69997263476099	2.0493166	1.4315435
32.7182384603741	2.0678203	1.4379917
32.7365051406895	2.0827575	1.4431762
32.75477267629144	1.9787508	1.4066808
32.77304106776434	1.8921715	1.3755622
32.79131031569289	1.9092939	1.381772
32.809580420661966	1.973002	1.4046359
32.827851383256714	2.0034971	1.4154495
32.84612320406245	1.9883658	1.4100943
32.86439588366476	1.9359754	1.3913933
32.88266942264945	1.8441731	1.3580034
32.9009438216025	1.8107158	1.3456284
32.9192190811102	1.9106903	1.3822773
32.937495201758985	1.9372741	1.3918599
32.95577218413556	1.8543811	1.3617566
32.974050028826866	1.8602868	1.3639233
32.992328736420035	1.9089524	1.3816484
33.010608307502444	1.8993951	1.3781854
33.02888874266169	1.8688005	1.3670408
33.047170042485604	1.9111489	1.3824431
33.06545220756225	1.9689023	1.4031758
33.083735238479896	2.0363193	1.4269966
33.10201913582707	1.995424	1.4125948
33.12030390019248	1.9097236	1.3819275
33.138589532165135	1.9090723	1.3816918
33.15687603233419	1.9105014	1.3822088
33.17516340128909	1.8990095	1.3780456
33.19345163961947	1.9768422	1.4060022
33.211740747915215	2.0647688	1.4369303
33.23003072676643	2.0548296	1.4334676
33.248321576763466	1.9822394	1.4079202
33.266613298496885	1.9391274	1.3925256
33.28490589255747	1.9531265	1.3975431
33.30319935953626	1.9542139	1.397932
33.32149370002451	2.0509791	1.432124
33.339788914613706	2.06111	1.4356567
33.358085003895575	1.9959579	1.4127837
33.376381968462034	1.9764831	1.4058745
33.39467980890529	1.9207381	1.3859069
33.41297852581774	1.7311494	1.3157315
33.43127811979204	1.6906725	1.3002586
33.44957859142105	1.8063003	1.3439867
33.467879941297866	1.9133462	1.3832376
33.486182170015844	1.8931564	1.3759202
33.50448527816853	1.893261	1.3759582
33.522789266349754	1.9399678	1.3928273
33.541094135153514	1.916099	1.3842323
33.55939988517411	1.9652871	1.4018869
33.57770651700602	1.961406	1.4005021
33.59601403124398	1.9301678	1.3893048
33.61432242848296	1.8985926	1.3778943
33.632631709318154	1.9408833	1.3931558
33.650941874344994	1.8976614	1.3775563
33.66925292415916	1.8779644	1.3703884
33.68756485935654	2.0136924	1.4190463
33.70587768053328	2.1194263	1.455825
33.724191388285746	2.0394218	1.4280833
33.74250598321054	1.9145279	1.3836646
33.760821465904506	1.9168293	1.3844961
33.77913783696474	1.938667	1.3923602
33.79745509698852	1.9061458	1.3806324
33.815773246573414	1.8985493	1.3778785
33.8340922863172	1.9703149	1.403679
33.852412216817896	2.024228	1.4227537
33.87073303867377	1.9464923	1.3951675
33.889054752483304	1.957674	1.3991691
33.907377358845245	1.9429289	1.3938899
33.92570085835853	1.9038451	1.3797989
33.94402525162239	1.9490763	1.3960932
33.96235053923627	2.017675	1.4204489
33.980676721799824	2.0253792	1.4231582
33.999003799912984	2.0859468	1.4442807
34.01733177417592	2.0967672	1.4480218
34.03566064518901	2.1111934	1.4529946
34.0539904135529	2.0623047	1.4360727
34.07232107986846	2.0455525	1.4302281
34.090652644736785	2.0058618	1.4162844
34.108985108759235	1.9852247	1.40898
34.12731847253742	2.103402	1.450311
34.14565273667313	2.1138716	1.453916
34.16398790176847	1.9412187	1.3932762
34.18232396842574	1.9704419	1.4037243
34.20066093724749	2.0389605	1.4279218
34.21899880883651	2.0080802	1.4170675
34.23733758379583	1.8404057	1.3566155
34.25567726272874	1.8195186	1.3488953
34.27401784623872	1.9732031	1.4047074
34.29235933492957	2.0352619	1.4266261
34.31070172940526	1.9499333	1.3964001
34.32904503027003	1.9810793	1.4075083
34.347389238128386	2.1341588	1.4608761
34.36573435358502	2.0597734	1.435191
34.38408037724492	2.0559895	1.4338722
34.402427309713296	2.0322025	1.4255534
34.42077515159559	1.9408143	1.3931311
34.43912390349752	1.7353324	1.3173201
34.45747356602499	1.815349	1.3473489
34.47582413978423	1.9924846	1.411554
34.49417562538163	1.9273869	1.3883036
34.51252802342388	1.7682691	1.3297628
34.53088133451789	1.6529353	1.2856653
34.54923555927084	1.7437763	1.3205212
34.567590698290104	1.9000269	1.3784146
34.58594675218336	1.9399759	1.3928301
34.6043037215585	1.9042387	1.3799416
34.62266160702365	1.8479875	1.3594071
34.641020409187234	1.915305	1.3839455
34.65938012865785	1.9476483	1.3955817
34.677740766044394	1.9302558	1.3893365
34.69610232195598	2.0045383	1.4158171
34.714464797002016	1.9906783	1.410914
34.73282819179208	1.926003	1.3878051
34.751192506936064	1.9857701	1.4091736
34.76955774304408	2.0327327	1.4257394
34.7879239007265	1.8685497	1.3669491
34.80629098059391	1.8733034	1.3686868
34.824658983257194	1.9002465	1.3784943
34.843027909327446	2.0552652	1.4336196
34.86139775941603	2.029929	1.4247557
34.879768534134534	2.054956	1.4335117
34.89814023409483	1.9105072	1.382211
34.91651285990901	1.8960419	1.3769684
34.93488641218944	1.9753741	1.40548
34.95326089154871	2.1280806	1.4587942
34.97163629859967	2.187496	1.4790186
34.99001263395542	2.1676824	1.4723052
35.00838989822934	2.115035	1.454316
35.02676809203499	2.1676996	1.472311
35.04514721598624	2.0558538	1.4338249
35.063527270697215	2.043154	1.4293894
35.081908256782256	2.1700947	1.4731241
35.10029017485597	2.0967855	1.4480282
35.11867302553321	2.1029189	1.4501444
35.137056809429104	1.8450401	1.3583225
35.155441527159006	1.8614945	1.3643659
35.173827179338524	2.105337	1.4509779
35.19221376658354	1.9231597	1.3867804
35.21060128951017	1.843035	1.3575842
35.2289897487348	2.0106907	1.4179883
35.24737914487405	2.0582404	1.4346569
35.26576947854479	1.9223187	1.3864771
35.28416075036418	2.0413783	1.428768
35.30255296094958	2.0224314	1.4221221
35.32094611091867	2.1225069	1.4568826
35.33934020088932	2.0408702	1.4285903
35.35773523147969	1.9239038	1.3870486
35.3761312033082	1.7987251	1.3411655
35.394528116993506	1.9818847	1.4077942
35.41292597315452	2.3635952	1.5373988
35.431324772410434	2.4670181	1.5706744
35.449724515380666	2.1955495	1.4817387
35.46812520268491	2.0008526	1.414515
35.486526834943106	1.802692	1.3426437
35.504929412775454	1.7049073	1.305721
35.52333293680242	1.8895532	1.3746102
35.54173740764471	1.9602325	1.4000831
35.560142825923286	1.6425058	1.2816029
35.5785491922594	1.3845959	1.1766886
35.59695650727454	2.2228034	1.4909068
35.61536477159042	3.5334268	1.8797412
