0.008763373481513119	0.0	0.0
0.026290120649546365	0.0	0.0
0.043816868432600686	0.03550094	0.18841693
0.06134361724069026	0.15354197	0.3918443
0.07887036748382949	0.13604817	0.36884707
0.0963971195720331	0.18869404	0.43438926
0.11392387391531617	0.17973012	0.4239459
0.1314506309236943	0.19666241	0.44346637
0.1489773910071836	0.16711652	0.40879887
0.16650415457580078	0.07673885	0.27701777
0.18403092203956356	0.018048288	0.13434392
0.20155769380849	0.004856394	0.069687836
0.2190844702925996	0.112217	0.33498806
0.2366112519019124	0.15809035	0.39760578
0.2541380390464497	0.16020557	0.40025687
0.27166483213623416	0.10609364	0.3257202
0.28919163158128947	0.11544544	0.33977264
0.3067184377916406	0.1304641	0.36119816
0.324245251177314	0.16339368	0.40421984
0.34177207214833777	0.15960565	0.39950675
0.3592989011147415	0.15140882	0.38911286
0.37682573848655654	0.17785384	0.4217272
0.39435258467381573	0.16203262	0.40253276
0.41187944008655414	0.15147819	0.389202
0.42940630513480854	0.12672794	0.35598868
0.446933180228618	0.17307043	0.41601735
0.4644600657780234	0.20575476	0.453602
0.48198696219306775	0.194735	0.4412879
0.49951386988379676	0.17522295	0.41859642
0.5170407892602581	0.16689421	0.40852687
0.5345677207325025	0.16393955	0.4048945
0.5520946647105822	0.16065364	0.4008162
0.5696216216045534	0.14385529	0.3792826
0.5871485918244737	0.19258693	0.43884727
0.6046755757804043	0.19963409	0.4468043
0.6222025738824094	0.19095598	0.4369851
0.6397295865405557	0.18123318	0.4257149
0.6572566141649129	0.18425159	0.42924538
0.6747836571655547	0.19503482	0.44162747
0.6923107159525568	0.22365269	0.47291932
0.7098377909359992	0.23393635	0.48366967
0.7273648825259653	0.23312809	0.4828334
0.7448919911325411	0.22226273	0.47144747
0.762419117165817	0.22370782	0.4729776
0.7799462610358868	0.1831886	0.42800537
0.7974734231528482	0.19754548	0.4444609
0.8150006039268024	0.17587094	0.4193697
0.8325278037678551	0.23895745	0.48883274
0.8500550230861152	0.21013016	0.45839956
0.8675822622916969	0.22674192	0.47617427
0.8851095217947171	0.21595897	0.46471384
0.9026368020052984	0.19543573	0.44208112
0.9201641033335665	0.18301395	0.42780128
0.9376914261896523	0.1936847	0.44009623
0.9552187709836915	0.20252188	0.4500243
0.9727461381258234	0.23568696	0.48547602
0.990273528026193	0.24505194	0.4950272
1.0078009410949496	0.26253483	0.51238155
1.0253283777422473	0.33133727	0.57561904
1.0428558383782454	0.34573054	0.58798856
1.0603833234131086	0.31981033	0.5655178
1.0779108332570058	0.31858838	0.5644363
1.0954383683201119	0.3097913	0.556589
1.112965929012607	0.37569353	0.61293846
1.1304935157446763	0.50891936	0.7133858
1.1480211289265108	0.54137945	0.73578495
1.1655487689683062	1.4155785	1.1897808
1.1830764362802655	1.6628512	1.2895159
1.200604131272596	2.1384654	1.4623493
1.2181318543555117	2.5443387	1.5950984
1.235659605939232	2.5493035	1.5966538
1.253187386433982	4.0891595	2.022167
1.270715196249994	6.2604046	2.50208
1.2882430357975057	11.82196	3.4383078
1.3057709054867608	16.613565	4.075974
1.3232988057280106	22.561327	4.7498765
1.3408267369315112	27.510223	5.245019
1.358354699507526	31.087496	5.5756164
1.3758826938663256	34.947094	5.911607
1.3934107204181858	36.93819	6.0776796
1.410938779573391	37.34458	6.1110215
1.4284668717422309	38.287384	6.1876802
1.4459949973350033	37.86169	6.1531854
1.4635231567620117	38.024704	6.1664176
1.4810513504335687	37.458855	6.1203637
1.4985795787599925	36.79723	6.066072
1.5161078421516088	36.155895	6.012977
1.5336361410187505	35.290882	5.940613
1.5511644757717598	35.138878	5.9278054
1.5686928468209842	36.11053	6.009204
1.58622125457678	36.496426	6.0412273
1.6037496994495108	37.60558	6.132339
1.621278181849548	37.12631	6.0931363
1.6388067021872719	37.50501	6.124133
1.6563352608730693	37.17288	6.0969563
1.673863858317336	36.244156	6.020312
1.6913924949304753	35.627956	5.968916
1.7089211711228998	34.94718	5.911614
1.7264498873050296	34.45039	5.8694453
1.7439786438872935	33.664036	5.8020716
1.7615074412801288	32.333168	5.6862264
1.779036279893981	31.270803	5.5920305
1.796565160139305	30.467764	5.519761
1.814094082426564	30.202084	5.495642
1.8316230471662298	29.985714	5.475921
1.849152054768784	29.008333	5.3859386
1.8666811056447168	28.361328	5.3255353
1.8842102002045273	27.238415	5.2190433
1.901739338858724	26.410582	5.1391225
1.9192685220178245	25.637632	5.0633616
1.9367977500923557	24.750206	4.974958
1.9543270234928547	24.386782	4.9382973
1.971856342629867	24.023642	4.901392
1.9893857079139496	23.762598	4.8746896
2.006915119755667	23.402237	4.837586
2.0244445785655945	23.059261	4.802006
2.0419740847543175	22.399193	4.7327785
2.0595036387324317	21.758072	4.664555
2.0770332409105414	21.269442	4.6118803
2.094562891699263	21.077398	4.591013
2.1120925915092217	20.74689	4.5548754
2.129622340751053	20.206741	4.495191
2.1471521398354043	188.24542	13.720256
2.1646819891729323	444.31827	21.078857
2.182211889174303	440.37024	20.985
2.1997418402501974	452.69006	21.276514
2.2172718428113023	432.50696	20.796803
2.234801897268317	320.62	17.905865
2.2523320040319548	17.050999	4.1292853
2.269862163512935	16.748444	4.0924864
2.287392376121992	16.491753	4.0610037
2.304922642269869	16.30092	4.03744
2.322452962367322	16.0507	4.0063324
2.3399833368251164	15.66519	3.9579275
2.357513766054032	15.329277	3.915262
2.3750442504648586	15.237883	3.903573
2.3925747904683963	15.085386	3.883991
2.410105386475459	14.977311	3.870053
2.4276360388968707	14.486516	3.8061156
2.445166748143469	14.192961	3.7673545
2.4626975146261025	13.915896	3.7304018
2.4802283387556323	13.569917	3.6837368
2.4977592209429305	13.293796	3.6460657
2.5152901615988825	12.942252	3.5975342
2.5328211611343865	12.738405	3.5690904
2.5503522199603523	12.516035	3.5378008
2.5678833384877024	12.554795	3.5432746
2.5854145171273712	12.427147	3.5252159
2.6029457562903064	12.258627	3.5012321
2.620477056387469	12.004707	3.464781
2.6380084178298326	11.729754	3.4248729
2.655539841028383	11.571328	3.4016654
2.673071326394119	11.400352	3.3764408
2.6906028743380523	11.298637	3.3613446
2.708134485271211	11.223985	3.3502216
2.7256661596046325	10.868406	3.2967267
2.743197897749369	10.64064	3.2619994
2.760729700116486	10.504664	3.24109
2.778261567117063	10.491822	3.2391083
2.795793499162193	10.459759	3.234155
2.8133254966629817	10.2746105	3.2054033
2.830857560030551	9.983393	3.1596508
2.8483896896760337	9.680894	3.1114135
2.865921886010578	9.635168	3.1040566
2.883454149445347	9.503678	3.0828037
2.9009864803915177	9.351314	3.0579917
2.91851887926028	9.213053	3.0353012
2.9360513464628384	9.078152	3.0129972
2.953583882410413	8.9711275	2.995184
2.9711164875142373	8.837984	2.9728746
2.9886491621855606	8.827726	2.971149
3.0061819068356455	8.815308	2.9690583
3.023714721875769	8.800096	2.9664955
3.041247607717225	8.652073	2.9414406
3.0587805647713213	8.42435	2.902473
3.0763135934493806	8.350614	2.8897429
3.0938466941627407	8.286227	2.8785808
3.1113798673227544	8.275032	2.8766356
3.1289131133407904	8.081029	2.842715
3.1464464326282315	7.7281866	2.7799616
3.1639798255964786	7.5113616	2.7406864
3.1815132926569443	7.416294	2.7232873
3.1990468342210603	7.495686	2.7378252
3.216580450700272	7.465283	2.732267
3.2341141425060416	7.3566623	2.7123168
3.251647910049847	7.2893023	2.6998708
3.2691817537431813	7.2810636	2.6983447
3.286715673997555	7.299937	2.7018394
3.3042496712244938	7.2683163	2.6959815
3.32178374583554	7.097032	2.6640255
3.339317898242251	6.875194	2.622059
3.3568521288562034	6.6933413	2.5871491
3.3743864380889876	6.644092	2.5776136
3.3919208263522127	6.731287	2.5944724
3.4094552940575023	6.8161774	2.610781
3.4269898416164972	6.756247	2.5992782
3.444524469440858	6.6482368	2.5784175
3.4620591779422587	6.5297422	2.555336
3.479593967532391	6.456125	2.5408905
3.4971288386229658	6.4530663	2.5402887
3.5146637916257086	6.4464607	2.538988
3.5321988269523628	6.487151	2.5469887
3.5497339450146903	6.5199027	2.55341
3.5672691462244708	6.491465	2.5478354
3.5848044309934988	6.3541126	2.5207365
3.60233979973359	6.274791	2.5049531
3.619875252856575	6.257138	2.5014272
3.6374107907743034	6.2802896	2.5060506
3.6549464138986427	6.3420296	2.5183387
3.6724821226414788	6.3320312	2.5163527
3.690017917414714	6.3092933	2.5118306
3.7075537986302702	6.339676	2.5178714
3.7250897667000857	6.372252	2.524332
3.7426258220361235	6.5004277	2.5495937
3.7601619650503553	6.7956343	2.6068437
3.777698196154779	7.284768	2.6990309
3.7952345157614067	8.416399	2.901103
3.8127709242822716	9.305233	3.050448
3.830307422129425	11.345843	3.368359
3.847844009714936	30.059214	5.4826283
3.8653806874508954	97.508026	9.874616
3.882917455749409	96.883545	9.842944
3.900454315022606	96.772224	9.837288
3.917991265682631	41.400017	6.4342847
3.9355283081416506	11.039161	3.3225234
3.9530654428118495	8.846608	2.974325
3.970602670105433	7.543141	2.7464778
3.9881399904346244	6.7075925	2.589902
4.005677404211669	6.568321	2.5628736
4.023214911848827	6.5457463	2.5584657
4.0407525137583855	6.5095344	2.551379
4.058290210352644	6.5209208	2.5536094
4.075828002043927	6.4577837	2.541217
4.0933658892445814	6.3652854	2.5229518
4.110903872366966	6.3149247	2.5129514
4.128441951823468	6.1929936	2.4885726
4.145980128026488	6.1452627	2.478964
4.163518401388452	6.0646076	2.4626424
4.181056772321807	6.053107	2.4603062
4.1985952412390155	6.1403203	2.477967
4.216133808552567	6.2538843	2.5007768
4.233672474674966	6.456623	2.5409887
4.251211240018741	6.6487875	2.5785244
4.268750104996445	6.826735	2.612802
4.286289070020643	7.782944	2.7897928
4.303828135503928	9.414077	3.0682368
4.3213673018589125	29.573187	5.4381237
4.3389065694982305	90.722755	9.524849
4.356445938834537	165.90837	12.880543
4.3739854102805085	171.71892	13.1041565
4.391524984248844	172.61037	13.138126
4.409064661152262	136.64038	11.689327
4.426604441403504	96.910736	9.844325
4.444144325415337	75.94469	8.714625
4.461684313600543	21.84351	4.673704
4.47922440637193	22.007183	4.691181
4.496764604142329	20.082823	4.481386
4.5143049073245916	18.441578	4.294366
4.531845316331589	16.503973	4.062508
4.5493858315762195	13.893312	3.7273734
4.566926453471405	11.437861	3.3819907
4.584467182430081	9.438718	3.0722497
4.602008018865218	8.230717	2.8689225
4.619548963189798	7.6128597	2.7591412
4.637090015816834	7.1583285	2.6755054
4.654631177159353	6.8510323	2.6174476
4.672172447630417	6.4917197	2.5478854
4.689713827643102	6.296423	2.5092673
4.7072553176105085	6.149794	2.479878
4.724796917945764	6.02459	2.454504
4.742338629062015	5.9633403	2.4419951
4.759880451372434	5.8493876	2.4185507
4.777422385290215	5.8195114	2.4123664
4.794964431228581	5.733166	2.3944032
4.812506589600768	5.716613	2.390944
4.830048860820047	5.702145	2.3879166
4.847591245299709	5.657378	2.3785243
4.8651337434530655	5.6425014	2.375395
4.882676355693457	5.5845184	2.3631585
4.900219082434242	5.5766015	2.3614829
4.917761924088813	5.5552173	2.3569508
4.935304881070575	5.516668	2.3487587
4.952847953792969	5.4913797	2.3433692
4.970391142669449	5.4062357	2.3251314
4.9879344481135055	5.4075813	2.3254206
5.005477870538642	5.4148307	2.326979
5.023021410358394	5.443289	2.3330858
5.040565067986324	5.453501	2.3352733
5.05810884383601	5.436008	2.3315248
5.075652738321066	5.4442225	2.3332858
5.09319675185512	5.44143	2.3326874
5.110740884851836	5.4923344	2.343573
5.128285137724894	5.4542904	2.3354423
5.145829510888007	5.4316874	2.330598
5.163374004754908	5.409678	2.3258715
5.1809186197393595	5.3846555	2.320486
5.198463356255145	5.427676	2.3297374
5.216008214716077	5.386406	2.3208632
5.233553195535998	5.405561	2.3249862
5.251098299128764	5.35911	2.314975
5.268643525908272	5.297424	2.3016133
5.286188876288432	5.2702813	2.2957094
5.3037343506831895	5.2760067	2.296956
5.32127994950651	5.3416615	2.3112035
5.3388256731723915	5.365364	2.3163257
5.356371522094851	5.3192315	2.306346
5.373917496687938	5.2463913	2.2905002
5.391463597365729	5.2165112	2.2839682
5.40900982454232	5.2199903	2.2847297
5.426556178631843	5.2613673	2.293767
5.444102660048449	5.2586536	2.2931755
5.4616492692063225	5.2126966	2.283133
5.479196006519669	5.173294	2.2744877
5.496742872402727	5.194617	2.2791703
5.514289867269756	5.2867517	2.2992938
5.531836991535049	5.3123097	2.3048449
5.549384245612924	5.2661653	2.2948127
5.566931629917724	5.177281	2.275364
5.584479144863822	5.1424937	2.2677066
5.6020267908656205	5.168408	2.2734132
5.619574568337545	5.1904407	2.2782538
5.637122477694054	5.1815886	2.2763102
5.654670519349629	5.1835456	2.27674
5.672218693718784	5.22786	2.2864513
5.689767001216059	5.225981	2.2860405
5.707315442256021	5.2369223	2.2884324
5.724864017253266	5.1943064	2.279102
5.7424127266224225	5.181749	2.2763455
5.75996157077814	5.178862	2.2757113
5.777510550135105	5.227545	2.2863824
5.795059665108022	5.275031	2.2967436
5.812608916111639	5.2766	2.297085
5.830158303560715	5.3629117	2.3157961
5.847707827870055	5.2830577	2.2984903
5.86525748945448	5.2977877	2.3016922
5.8828072887288485	5.3517246	2.3133795
5.900357226108044	5.5007615	2.3453703
5.917907302006979	5.6036067	2.367194
5.9354575168406	6.2193184	2.4938562
5.9530078710238765	6.7408147	2.596308
5.970558364971812	7.281132	2.6983573
5.988108999099438	7.626412	2.761596
6.005659773821818	8.171014	2.8584986
6.023210689554039	7.987719	2.8262553
6.040761746711227	8.297765	2.880584
6.058312945708531	7.579698	2.7531252
6.075864286961132	7.1336656	2.6708922
6.093415770884244	6.5642824	2.5620856
6.1109673978931065	6.0845003	2.466678
6.128519168402993	5.55415	2.3567245
6.146071082829204	5.435121	2.3313346
6.163623141587075	5.333316	2.3093972
6.181175345091969	5.2649355	2.2945447
6.198727693759281	5.1899195	2.2781396
6.216280188004435	5.1450706	2.2682748
6.233832828242885	5.1597066	2.2714987
6.251385614890126	5.17355	2.274544
6.268938548361669	5.162896	2.2722008
6.286491629073067	5.1554904	2.2705705
6.304044857439898	5.1364384	2.2663713
6.321598233877777	5.121237	2.263015
6.339151758802344	5.106915	2.2598484
6.356705432629277	5.069497	2.2515545
6.37425925577428	5.047679	2.246704
6.391813228653095	5.012623	2.2388887
6.409367351681486	4.979926	2.2315748
6.426921625275259	4.9301796	2.2204008
6.44447604985025	4.9347477	2.221429
6.46203062582232	4.9957333	2.2351136
6.47958535360737	5.1302624	2.2650082
6.497140233621328	5.1647015	2.272598
6.514695266280161	5.1325693	2.2655175
6.532250451999859	5.066668	2.250926
6.549805791196454	5.0746665	2.252702
6.567361284286002	5.120985	2.2629592
6.584916931684597	5.138588	2.2668455
6.602472733808367	5.138905	2.2669153
6.6200286910734665	5.0685806	2.2513509
6.637584803896092	5.0337267	2.2435968
6.655141072692462	4.9862585	2.2329931
6.672697497878842	4.9962096	2.2352202
6.690254079871514	5.007651	2.2377782
6.707810819086808	5.043061	2.245676
6.725367715941078	5.074394	2.2526417
6.742924770850719	5.089813	2.2560616
6.760481984232151	5.0748773	2.2527487
6.778039356501836	5.0247345	2.241592
6.795596888076266	5.039784	2.2449462
6.813154579371963	5.031593	2.2431211
6.830712430805492	4.971716	2.2297344
6.84827044279344	4.960827	2.2272913
6.865828615752445	4.9412327	2.2228885
6.883386950099159	4.9483685	2.2244928
6.900945446250287	4.9644136	2.2280965
6.918504104622553	4.9725494	2.2299213
6.936062925632727	5.0046916	2.2371168
6.953621909697607	5.019852	2.2405026
6.971181057234028	5.0725784	2.2522385
6.988740368658859	5.122787	2.2633574
7.006299844389007	5.1836934	2.2767725
7.023859484841407	5.2636943	2.2942743
7.041419290433036	5.329047	2.3084729
7.058979261580902	5.4503427	2.3345969
7.0765393987020495	5.6424866	2.375392
7.094099702213559	6.0197678	2.4535215
7.111660172532549	6.3950906	2.5288517
7.129220810076164	6.803644	2.6083796
7.146781615261595	7.4961114	2.7379026
7.16434258850606	7.760169	2.785708
7.181903730226821	8.180343	2.8601298
7.1994650408411704	8.256182	2.8733573
7.217026520766437	8.385008	2.8956878
7.234588170419983	8.542685	2.9227872
7.252149990219215	8.462543	2.909045
7.269711980581568	8.2983675	2.8806887
7.2872741419245175	8.113344	2.8483932
7.304836474665574	7.7748632	2.7883441
7.322398979222286	7.504243	2.7393873
7.339961656012233	7.280184	2.6981816
7.357524505453039	6.910427	2.6287692
7.375087527962357	6.6084094	2.5706828
7.392650723957886	6.326284	2.5152106
7.410214093857353	5.992906	2.4480412
7.427777638078528	5.8250194	2.4135077
7.445341357039213	5.653327	2.3776727
7.4629052511572525	5.529452	2.3514786
7.480469320850524	5.406063	2.3250942
7.498033566536948	5.3194914	2.3064022
7.5155979886344735	5.3401785	2.3108826
7.5331625875610975	5.260044	2.2934785
7.550727363734844	5.2126284	2.283118
7.568292317573788	5.1028986	2.2589595
7.585857449496025	5.128004	2.2645097
7.603422759919705	5.1061077	2.2596698
7.620988249263007	5.092491	2.2566547
7.638553917944147	5.0591974	2.249266
7.656119766381391	5.1210313	2.2629695
7.673685794993023	5.2061186	2.281692
7.691252004197388	5.199043	2.2801409
7.70881839441285	5.194478	2.2791398
7.726384966057826	5.2309275	2.287122
7.743951719550762	5.2313476	2.287214
7.761518655310149	5.240389	2.2891896
7.779085773754511	5.2632027	2.294167
7.796653075302419	5.250066	2.2913022
7.814220560372475	5.2212567	2.285007
7.831788229383323	5.2301455	2.286951
7.8493560827536495	5.3332214	2.309377
7.866924120902174	5.3893247	2.321492
7.884492344247663	5.423595	2.3288612
7.9020607532089135	5.3286347	2.3083835
7.919629348204771	5.3044286	2.3031344
7.937198129654115	5.3079705	2.3039033
7.954767097975865	5.3718777	2.3177311
7.972336253588986	5.4297657	2.3301857
7.989905596912472	5.419865	2.3280604
8.007475128365371	5.410767	2.3261056
8.025044848366756	5.455341	2.3356671
8.042614757335754	5.6495204	2.376872
8.060184855691523	5.7736125	2.4028342
8.07775514385327	5.9334073	2.4358587
8.095325622240228	5.939714	2.4371529
8.112896291271687	5.9831176	2.446041
8.130467151366968	5.971874	2.4437418
8.148038202945436	6.0063086	2.450777
8.165609446426497	6.0556507	2.460823
8.183180882229594	6.1344156	2.4767752
8.200752510774217	6.173297	2.484612
8.218324332479893	6.10395	2.4706173
8.235896347766193	6.041219	2.457889
8.253468557052724	5.990351	2.4475193
8.27104096075914	5.916025	2.4322882
8.288613559305137	5.991898	2.4478354
8.306186353110448	6.030744	2.4557574
8.32375934259485	6.1278095	2.4754412
8.341332528178162	6.192265	2.4884262
8.358905910280246	6.1862893	2.4872253
8.376479489321003	6.153266	2.4805777
8.394053265720377	6.241847	2.498369
8.411627239898356	6.3472705	2.519379
8.42920141227497	6.368466	2.523582
8.44677578327029	6.357792	2.5214663
8.464350353304427	6.3272614	2.515405
8.48192512279754	6.30479	2.510934
8.499500092169827	6.2888823	2.5077643
8.51707526184153	6.223792	2.494753
8.534650632232934	6.20631	2.4912467
8.552226203764365	6.1601005	2.481955
8.569801976856192	6.155174	2.4809623
8.587377951928834	6.2514877	2.5002975
8.60495412940274	6.3331213	2.5165694
8.622530509698416	6.363294	2.522557
8.6401070932364	6.4391646	2.537551
8.657683880437283	6.5500135	2.5592995
8.675260871721695	6.7687154	2.6016755
8.692838067510303	6.898391	2.6264787
8.710415468223834	7.0310736	2.651617
8.727993074283043	7.1571283	2.675281
8.745570886108737	7.134937	2.6711302
8.763148904121765	7.2099047	2.6851265
8.78072712874302	7.2834616	2.698789
8.798305560393441	7.535403	2.7450688
8.815884199494006	7.651425	2.766121
8.833463046465745	7.753403	2.7844934
8.851042101729728	7.944468	2.8185933
8.86862136570707	8.289204	2.8790977
8.886200838818924	8.413043	2.9005246
8.903780521486505	8.450448	2.9069655
8.921360414131055	8.575753	2.9284387
8.938940517173874	8.719862	2.9529412
8.956520831036297	8.847304	2.9744418
8.97410135613971	9.133451	3.02216
8.99168209290554	9.384308	3.0633817
9.009263041755265	9.712813	3.1165388
9.026844203110405	9.887117	3.1443787
9.044425577392525	9.969763	3.157493
9.062007165023239	9.950333	3.154415
9.079588966424197	10.19704	3.1932805
9.097170982017108	10.328203	3.2137523
9.11475321222372	11.259022	3.3554466
9.132335657465825	12.092808	3.4774714
9.149918318165264	12.111266	3.4801245
9.167501194743924	12.691344	3.5624914
9.18508428762374	12.432613	3.5259912
9.202667597226693	12.478806	3.5325353
9.220251123974803	12.148051	3.4854054
9.237834868290143	11.838495	3.4407115
9.255418830594836	11.493935	3.3902705
9.273003011311046	11.008023	3.3178341
9.290587410860985	10.854635	3.2946374
9.308172029666911	10.207636	3.1949391
9.32575686815113	9.932164	3.1515336
9.343341926735997	8.79797	2.9661372
9.360927205843916	8.59799	2.9322329
9.378512705897327	8.366765	2.8925362
9.396098427318728	8.06589	2.8400512
9.413684370530664	7.9883127	2.8263602
9.431270535955722	7.8945007	2.8097155
9.448856924016539	7.8780403	2.8067846
9.466443535135806	7.7711473	2.7876778
9.484030369736251	7.792528	2.79151
9.501617428240658	7.731789	2.7806094
9.519204711071852	7.81915	2.7962742
9.536792218652714	7.870262	2.8053987
9.55437995140617	7.905371	2.811649
9.571967909755191	7.9138145	2.8131504
9.589556094122802	7.86937	2.8052397
9.60714450493207	7.895235	2.8098462
9.624733142606116	7.9271846	2.8155255
9.642322007568108	7.957882	2.8209717
9.659911100241267	7.978425	2.8246107
9.677500421048851	8.03684	2.834932
9.695089970414175	8.063593	2.8396466
9.712679748760609	8.109511	2.8477204
9.730269756511557	8.181204	2.8602803
9.747859994090492	8.201542	2.8638334
9.765450461920915	8.31114	2.8829048
9.78304116042639	8.283785	2.8781564
9.800632090030527	8.351651	2.8899224
9.81822325115699	8.3488035	2.8894296
9.835814644229481	8.3667755	2.8925378
9.853406269671762	8.36599	2.8924022
9.870998127907646	8.387555	2.8961277
9.888590219360985	8.378599	2.894581
9.906182544455698	8.3648	2.8921964
9.923775103615734	8.287484	2.8787992
9.941367897265108	8.251635	2.8725657
9.958960925827878	8.272449	2.8761864
9.97655418972816	8.35323	2.8901956
9.994147689390106	8.373454	2.893692
10.011741425237934	8.395443	2.897489
10.029335397695904	8.416784	2.9011695
10.04692960718833	8.432866	2.9039397
10.06452405413958	8.363109	2.8919039
10.082118738974064	8.278171	2.877181
10.099713662116246	8.256356	2.8733876
10.117308823990651	8.282488	2.877931
10.134904225021844	8.28376	2.8781521
10.152499865634445	8.259416	2.87392
10.170095746253125	8.260721	2.874147
10.18769186730261	8.256794	2.8734639
10.205288229207675	8.166281	2.8576705
10.222884832393145	8.209786	2.8652725
10.2404816772839	8.198238	2.8632567
10.258078764304868	8.246767	2.8717184
10.275676093881035	8.20618	2.864643
10.293273666437438	8.200897	2.863721
10.310871482399158	8.20658	2.864713
10.32846954219134	8.229403	2.8686936
10.346067846239173	8.239518	2.870456
10.363666394967908	8.168272	2.8580189
10.38126518880283	8.106815	2.847247
10.398864228169298	8.121947	2.849903
10.416463513492713	8.196142	2.8628905
10.434063045198531	8.232341	2.8692057
10.451662823712262	8.181415	2.8603172
10.469262849459467	8.210883	2.865464
10.486863122865758	8.15403	2.8555262
10.504463644356806	8.172369	2.8587356
10.522064414358338	8.15498	2.8556926
10.539665433296118	8.0415945	2.8357706
10.557266701595987	8.017187	2.8314638
10.574868219683818	7.903081	2.8112419
10.592469987985552	7.771428	2.787728
10.610072006927185	7.635534	2.763247
10.627674276934751	7.537166	2.74539
10.64527679843435	7.447119	2.728941
10.662879571852143	7.3593893	2.7128193
10.680482597614331	7.2379208	2.6903384
10.698085876147173	7.106612	2.665823
10.715689407876988	6.954002	2.6370442
10.733293193230146	6.842868	2.6158876
10.750897232633072	6.731965	2.594603
10.76850152651225	6.685911	2.585713
10.786106075294207	6.6231008	2.5735385
10.803710879405534	6.5454893	2.5584154
10.821315939272877	6.423692	2.5345004
10.83892125532294	6.279848	2.5059626
10.856526827982472	6.165826	2.483108
10.874132657678285	6.1402483	2.4779525
10.891738744837243	6.152154	2.4803536
10.909345089886271	6.209228	2.4918323
10.926951693252343	6.1762652	2.4852092
10.944558555362494	6.131172	2.4761205
10.96216567664381	5.995992	2.4486716
10.979773057523436	5.9143105	2.4319355
10.997380698428573	5.810794	2.410559
11.014988599786477	5.7305965	2.3938665
11.032596762024461	5.7273245	2.393183
11.050205185569892	5.6676226	2.380677
11.067813870850198	5.649092	2.376782
11.085422818292859	5.5695105	2.359981
11.10303202832541	5.5021977	2.3456764
11.120641501375454	5.4784794	2.3406153
11.138251237870636	5.3940578	2.3225112
11.155861238238671	5.306337	2.3035488
11.173471502907317	5.2120075	2.282982
11.191082032304402	5.143581	2.2679465
11.208692826857805	5.0798144	2.2538443
11.226303886995465	5.0670934	2.2510204
11.243915213145371	5.026117	2.2419002
11.261526805735578	4.941143	2.2228682
11.279138665194196	4.938391	2.222249
11.296750791949393	4.916283	2.2172692
11.314363186429393	4.890565	2.2114623
11.331975849062479	4.7787666	2.186039
11.34958878027699	4.651784	2.1567996
11.36720198050133	4.569249	2.1375802
11.384815450163948	4.559699	2.1353452
11.402429189693366	4.495721	2.1203115
11.420043199518153	4.495846	2.120341
11.437657480066942	63.480293	7.967452
11.455272031768422	85.22533	9.231756
11.472886855051353	107.60789	10.373423
11.490501950344528	99.16074	9.957949
11.508117318076819	84.448204	9.18957
11.52573295867715	45.807602	6.7681313
11.543348872574514	4.131547	2.0326207
11.560965060197946	4.129892	2.0322134
11.57858152197655	4.139163	2.0344932
11.59619825833949	4.0889254	2.022109
11.613815269715985	4.0360255	2.0089862
11.631432556535323	38.520683	6.2065034
11.649050119226837	83.05738	9.113583
11.666667958219929	93.46881	9.667927
11.68428607394406	107.76548	10.381016
11.701904466828756	82.62469	9.089812
11.719523137303586	65.487206	8.092417
11.737142085798196	4.6929216	2.1663153
11.754761312742286	3.818068	1.9539877
11.772380818565619	3.730067	1.9313382
11.790000603698015	3.691002	1.921198
11.80762066856935	3.6279314	1.9047129
11.825241013609572	3.6095722	1.8998874
11.842861639248683	3.6174111	1.9019493
11.860482545916748	3.5637536	1.8877907
11.878103734043883	3.5724986	1.8901055
11.895725204060282	3.454464	1.8586189
11.91334695639619	3.41463	1.8478718
11.930968991481919	3.2999172	1.8165674
11.948591309747824	3.2891955	1.8136139
11.966213911624347	3.3224776	1.8227664
11.98383679754198	3.3256829	1.8236455
12.001459967931268	3.2989333	1.8162966
12.019083423222835	3.2755003	1.8098344
12.036707163847352	3.21027	1.7917227
12.05433119023556	3.203422	1.7898107
12.071955502818259	3.1740553	1.7815878
12.089580102026313	3.175572	1.7820134
12.107204988290643	3.1736135	1.7814639
12.12483016204224	3.125323	1.7678583
12.142455623712152	3.1057973	1.7623272
12.16008137373149	3.107049	1.7626823
12.177707412531431	3.1150815	1.7649593
12.19533374054321	3.0811293	1.7553146
12.212960358198126	3.0651152	1.7507471
12.230587265927545	3.0647445	1.7506411
12.248214464162889	3.0303755	1.7407974
12.265841953335649	3.0381718	1.7430352
12.283469733877375	3.0109727	1.7352154
12.301097806219685	3.0088944	1.7346165
12.31872617079425	2.9856215	1.7278951
12.336354828032825	2.975844	1.7250634
12.353983778367205	2.958845	1.7201294
12.371613022229262	2.957321	1.7196863
12.389242560050928	2.958529	1.7200375
12.406872392264201	2.9474761	1.7168216
12.424502519301143	2.8755097	1.6957328
12.442132941593874	2.8764153	1.6959997
12.459763659574586	2.86803	1.6935259
12.477394673675532	2.8684137	1.6936392
12.49502598432903	2.8471053	1.6873367
12.51265759196746	2.8265097	1.6812227
12.530289497023267	2.8160446	1.6781074
12.547921699928967	2.8316665	1.6827556
12.565554201117134	2.818047	1.678704
12.583187001020404	2.8291154	1.6819974
12.600820100071486	2.7921252	1.6709653
12.618453498703152	2.786386	1.6692472
12.636087197348235	2.7784483	1.6668679
12.65372119643964	2.7781556	1.66678
12.671355496410326	2.7609792	1.6616194
12.68899009769333	2.767261	1.6635087
12.706625000721749	2.8000615	1.6733384
12.724260205928752	2.8644137	1.6924579
12.741895713747551	2.9254427	1.7103926
12.759531524611454	3.025484	1.7393919
12.777167638953818	3.0090742	1.7346684
12.794804057208072	3.0348077	1.74207
12.812440779807702	3.0763686	1.753958
12.830077807186271	3.2637815	1.8065939
12.847715139777405	3.3109787	1.8196095
12.865352778014795	3.4926996	1.8688766
12.882990722332197	3.5631118	1.8876207
12.90062897316344	3.643374	1.9087625
12.918267530942412	3.6819847	1.9188498
12.935906396103071	3.5489304	1.8838605
12.953545569079449	3.6891944	1.9207276
12.971185050305628	3.5701113	1.8894738
12.988824840215775	3.5966773	1.8964908
13.006464939244115	3.571746	1.8899064
13.024105347824943	3.3996043	1.8438016
13.041746066392617	3.4944482	1.8693444
13.05938709538157	3.3511703	1.8306202
13.077028435226296	3.3442383	1.8287258
13.094670086361363	3.268947	1.808023
13.112312049221401	3.1953099	1.7875429
13.129954324241112	3.0991096	1.7604288
13.147596911855258	2.8499198	1.6881706
13.165239812498685	2.786474	1.6692735
13.182883026606293	2.7316089	1.652758
13.200526554613058	2.754898	1.6597886
13.218170396954017	2.7478788	1.6576726
13.235814554064284	2.7298295	1.6522195
13.253459026379034	2.7164176	1.6481558
13.271103814333523	2.6853888	1.6387156
13.288748918363058	2.7037709	1.6443148
13.306394338903031	2.6905487	1.6402892
13.32404007638889	2.6873622	1.6393176
13.341686131256164	2.671662	1.634522
13.359332503940449	2.6872814	1.639293
13.376979194877402	2.6884816	1.6396589
13.394626204502751	2.7084706	1.6457431
13.412273533252307	2.7166343	1.6482215
13.429921181561937	2.7151456	1.6477699
13.447569149867581	2.7148023	1.6476657
13.465217438605247	2.7216427	1.6497402
13.482866048211022	2.75275	1.6591413
13.500514979121052	2.8033705	1.6743269
13.518164231771568	2.7718804	1.6648965
13.535813806598844	2.7179356	1.6486163
13.553463704039254	2.6800082	1.637073
13.571113924529229	2.668871	1.633668
13.588764468505275	2.6629426	1.6318525
13.606415336403956	2.704496	1.6445352
13.624066528661917	2.7709663	1.664622
13.641718045715882	2.8503897	1.6883097
13.659369888002635	2.9049733	1.7043982
13.67702205595903	2.919651	1.7086986
13.694674550021993	2.941168	1.7149833
13.712327370628532	3.0002947	1.7321359
13.729980518215713	3.102403	1.761364
13.747633993220681	3.1505053	1.7749662
13.765287796080647	3.1964617	1.7878652
13.7829419272329	3.2434828	1.8009672
13.800596387114801	3.313462	1.8202918
13.818251176163775	3.3398006	1.8275121
13.835906294817324	3.364704	1.8343129
13.853561743513023	3.3820086	1.8390238
13.871217522688525	3.4713821	1.8631645
13.888873632781538	3.52356	1.8771148
13.906530074229858	3.5532944	1.8850185
13.92418684747135	3.5573652	1.8860979
13.941843952943948	3.563992	1.8878539
13.959501391085665	3.5034704	1.871756
13.977159162334578	3.3803592	1.8385754
13.994817267128846	3.3253372	1.8235507
14.012475705906693	3.2676337	1.8076597
14.030134479106424	3.2038677	1.7899351
14.047793587166414	3.121152	1.7666782
14.065453030525108	3.059865	1.749247
14.083112809621026	3.0098557	1.7348936
14.100772924892766	2.94671	1.7165984
14.118433376778997	2.9197726	1.7087343
14.136094165718458	2.855101	1.6897044
14.153755292149969	2.818691	1.6788958
14.171416756512416	2.7618906	1.6618937
14.189078559244768	2.6790867	1.6367916
14.20674070078606	2.6399546	1.6247936
14.224403181575408	2.6057143	1.6142225
14.242066002051999	2.567894	1.6024649
14.259729162655093	2.528397	1.5900934
14.277392663824022	2.479437	1.5746229
14.295056505998208	2.4345481	1.5603038
14.312720689617128	2.3735595	1.5406361
14.330385215120348	2.3318992	1.5270557
14.348050082947497	2.3398774	1.5296658
14.3657152935383	2.3790514	1.5424174
14.383380847332528	2.4166806	1.5545677
14.401046744770051	2.4032063	1.5502279
14.418712986290798	2.4043264	1.5505891
14.436379572334793	2.417403	1.5548
14.454046503342123	2.415345	1.5541381
14.471713779752946	2.4493005	1.5650241
14.489381402007504	2.4454048	1.563779
14.507049370546113	2.4303162	1.5589472
14.524717685809168	2.4143312	1.5538118
14.542386348237134	2.4069993	1.5514507
14.560055358270553	2.4102669	1.5525035
14.577724716350051	2.4354768	1.5606015
14.595394422916325	2.4422357	1.5627654
14.61306447841015	2.454707	1.5667504
14.63073488327237	2.482604	1.5756282
14.648405637943917	2.487711	1.5772479
14.6660767428658	2.5137546	1.5854825
14.683748198479094	2.519369	1.587252
14.701420005224954	2.5645614	1.6014248
14.719092163544628	2.6176033	1.6179008
14.73676467387942	2.667595	1.6332773
14.754437536670727	2.67345	1.6350688
14.772110752360014	2.672984	1.6349263
14.78978432138882	2.671819	1.63457
14.807458244198777	2.7009149	1.6434461
14.82513252123159	2.6813903	1.6374952
14.842807152929028	2.6664348	1.6329222
14.860482139732962	2.6796978	1.6369783
14.87815748208531	2.7039487	1.6443688
14.8958331804281	2.7353256	1.653882
14.91350923520342	2.6926448	1.640928
14.931185646853438	2.6989074	1.6428351
14.948862415820408	2.6447473	1.6262679
14.966539542546656	2.6617093	1.6314746
14.98421702747459	2.6493523	1.6276832
15.001894871046696	2.7166657	1.6482311
15.019573073705542	2.72338	1.6502666
15.037251635893766	2.7223573	1.6499567
15.054930558054092	2.7306015	1.6524532
15.072609840629323	2.8199592	1.6792734
15.090289484062351	2.9499857	1.7175523
15.107969488796124	3.2417948	1.8004985
15.125649855273691	3.646439	1.9095652
15.14333058393817	4.158811	2.0393164
15.161011675232768	5.1227145	2.2633414
15.17869312960076	6.4689574	2.5434146
15.196374947485506	8.346411	2.8890154
15.214057129330447	11.378591	3.3732166
15.231739675579114	15.966336	3.9957898
15.249422586675102	20.740664	4.554192
15.267105863062092	23.735992	4.8719597
15.284789505183847	23.957695	4.89466
15.302473513484218	21.81036	4.6701565
15.320157888407127	18.295237	4.277293
15.337842630396578	14.234971	3.772926
15.355527739896656	11.108101	3.3328817
15.37321321735153	8.72805	2.9543273
15.39089906320545	6.4641237	2.542464
15.408585277902748	4.9131045	2.2165525
15.42627186188783	3.7941566	1.9478595
15.443958815605198	3.2291672	1.7969884
15.461646139499424	2.9180744	1.7082372
15.479333834015168	2.764436	1.6626593
15.497021899597165	2.7243087	1.650548
15.514710336690234	2.6932635	1.6411165
15.53239914573928	2.672508	1.6347808
15.550088327189297	2.6145957	1.6169711
15.567777881485336	2.5683315	1.6026015
15.58546780907256	2.518159	1.5868708
15.6031581103962	2.4883418	1.5774479
15.620848785901568	2.4750845	1.5732402
15.638539836034063	2.4893913	1.5777805
15.656231261239173	2.4809122	1.5750911
15.673923061962451	2.4366555	1.560979
15.691615238649552	2.4301739	1.5589015
15.709307791746202	2.4174123	1.554803
15.727000721698221	2.4012966	1.5496118
15.744694028951498	2.3798106	1.5426635
15.76238771395202	2.3695023	1.5393188
15.780081777145844	2.3550406	1.5346141
15.797776218979125	2.3338382	1.5276905
15.815471039898094	2.3232512	1.5242215
15.833166240349064	2.3427706	1.5306112
15.850861820778437	2.3496234	1.5328481
15.868557781632699	2.3590276	1.5359126
15.886254123358412	2.3844697	1.5441729
15.903950846402232	2.3967788	1.5481534
15.921647951210897	2.4051065	1.5508406
15.939345438231225	2.3609898	1.5365512
15.957043307910133	2.3683279	1.5389372
15.974741560694602	2.365894	1.5381463
15.992440197031714	2.3984811	1.5487031
16.01013921736862	2.4132373	1.5534598
16.02783862215259	2.4404924	1.5622076
16.045538411830933	2.4068863	1.5514143
16.06323858685107	2.3779135	1.5420485
16.080939147660512	2.3709652	1.5397938
16.09864009470684	2.3503165	1.5330743
16.11634142843774	2.3811388	1.5430939
16.134043149300954	2.4043403	1.5505935
16.15174525774433	2.4140217	1.5537122
16.169447754215817	2.3826687	1.5435896
16.18715063916342	2.3786035	1.5422722
16.204853913035244	2.3943143	1.5473572
16.222557576279478	2.4255173	1.5574073
16.240261629344403	22.398909	4.7327485
16.257966072678386	42.943535	6.5531316
16.275670906729868	38.045177	6.1680775
16.293376131947387	2.4596355	1.5683225
16.31108174877957	2.4937415	1.5791584
16.328787757675133	2.547121	1.5959703
16.34649415908287	2.5580924	1.5994037
16.364200953451657	2.6094635	1.6153834
16.38190814123048	2.605426	1.6141332
16.39961572286839	2.6628835	1.6318344
16.41732369881455	2.6685503	1.6335698
16.43503206951817	2.7192824	1.6490247
16.45274083542859	2.7413952	1.655716
16.47044999699522	2.7491	1.658041
16.488159554667558	2.7837644	1.6684617
16.505869508895184	2.8465526	1.687173
16.523579860127786	2.9224308	1.7095119
16.541290608815117	2.9709508	1.7236446
16.559001755407035	3.034673	1.7420313
16.57671330035348	3.1014845	1.7611033
16.59442524410448	3.1503205	1.7749143
16.61213758711015	3.1875734	1.7853776
16.629850329820705	3.2169442	1.7935842
16.647563472686436	3.278202	1.8105806
16.665277016157724	3.3782046	1.8379893
16.682990960685053	3.4217849	1.8498067
16.70070530671898	3.4280045	1.8514872
16.718420054710155	3.5123603	1.8741292
16.736135205109335	3.5457013	1.8830032
16.753850758367335	3.573614	1.8904004
16.771566714935087	3.555033	1.8854795
16.789283075263597	3.6444085	1.9090334
16.80699983980398	3.7620275	1.9395946
16.82471700900741	3.8437958	1.9605601
16.84243458332518	3.8769093	1.9689869
16.860152563208665	3.9370165	1.9841917
16.87787094910932	4.0133433	2.003333
16.89558974147871	4.1018744	2.0253084
16.913308940768466	4.146071	2.0361903
16.931028547430333	4.247137	2.0608582
16.94874856191613	4.279839	2.068777
16.966468984677785	4.3237147	2.0793543
16.98418981616729	4.376303	2.0919616
17.00191105683676	4.478009	2.1161308
17.019632707138374	4.545787	2.132085
17.03735476752442	4.5689363	2.137507
17.05507723844728	4.589333	2.142273
17.072800120359403	4.6272345	2.1511009
17.090523413713353	4.633918	2.1526537
17.108247118961785	4.666436	2.1601934
17.125971236557437	4.7058744	2.1693027
17.143695766953133	4.716425	2.1717331
17.161420710601806	4.70969	2.170182
17.179146067956477	4.7033687	2.168725
17.19687183947025	4.7313786	2.1751733
17.21459802559634	4.72211	2.1730416
17.232324626788028	4.6948457	2.1667593
17.25005164349871	4.7003794	2.1680357
17.267779076181863	4.6798964	2.1633067
17.285506925291074	4.6184673	2.149062
17.30323519127999	4.542299	2.1312668
17.320963874602384	4.5121946	2.1241927
17.33869297571211	4.504312	2.1223364
17.356422495063114	4.5159674	2.1250806
17.37415243310944	4.522771	2.1266806
17.391882790305218	4.5251737	2.1272457
17.40961356710468	4.516652	2.1252418
17.42734476396215	4.5504436	2.1331768
17.445076381332044	4.5888996	2.1421716
17.462808419668868	4.669744	2.160959
17.48054087942723	4.7810907	2.1865706
17.498273761061835	5.082431	2.2544248
17.51600706502747	5.5891814	2.364145
17.533740791779024	6.3436375	2.518658
17.551474941771485	7.74477	2.7829428
17.56920951545993	8.7667265	2.9608657
17.586944513299528	10.769291	3.2816598
17.60467993574556	12.345396	3.5136015
17.622415783253373	13.958852	3.7361548
17.64015205627843	15.313327	3.9132247
17.657888755276293	16.284779	4.0354404
17.675625880702604	16.732134	4.090493
17.69336343301311	16.51479	4.0638394
17.71110141266366	15.708996	3.9634576
17.728839820110178	14.712974	3.8357494
17.746578655808705	13.963079	3.7367203
17.764317920215372	12.806882	3.5786705
17.7820576137864	11.5530815	3.3989825
17.79979773697811	9.567748	3.0931776
17.81753829024692	7.6391234	2.7638965
17.835279274049356	5.907186	2.4304702
17.85302068884201	4.8364053	2.1991827
17.870762535081607	4.1716437	2.0424602
17.888504813224934	3.8792906	1.9695915
17.90624752372891	3.7394052	1.9337542
17.923990667050536	3.680335	1.91842
17.941734243646895	3.5981264	1.8968728
17.959478253975185	3.5158339	1.8750557
17.9772226984927	3.4439342	1.8557839
17.994967577656833	3.3710513	1.8360423
18.01271289192506	3.328729	1.8244804
18.030458641754965	3.342671	1.8282973
18.04820482760425	3.3633842	1.8339531
18.06595144993067	3.3422394	1.8281792
18.083698509192125	3.3467095	1.8294014
18.101446005846576	3.313994	1.8204378
18.119193940352105	3.2780402	1.8105359
18.136942313166887	3.2342584	1.7984045
18.1546911247492	3.1820812	1.7838389
18.1724403755574	3.163495	1.7786217
18.19019006604997	3.1262314	1.7681152
18.207940196685467	3.1331158	1.7700609
18.225690767922575	3.121797	1.7668608
18.243441780220046	3.1201391	1.7663915
18.261193234036764	3.0834026	1.755962
18.278945129831676	3.102841	1.7614883
18.29669746806386	3.1106339	1.7636989
18.314450249192483	3.1359317	1.7708563
18.3322034736768	3.1064005	1.7624984
18.349957141976184	3.0747414	1.753494
18.3677112545501	3.055262	1.7479308
18.385465811858108	3.077315	1.7542278
18.403220814359884	3.0931907	1.7587469
18.420976262515172	3.1465595	1.7738544
18.43873215678387	3.1726372	1.7811898
18.456488497625923	3.1520975	1.7754147
18.474245285501407	3.1916878	1.7865295
18.492002520870486	3.2795749	1.8109597
18.50976020419343	3.3526664	1.8310288
18.527518335930615	3.667514	1.9150754
18.545276916542516	4.282218	2.0693521
18.563035946489688	4.4678802	2.1137362
18.580795426232832	4.901698	2.2139778
18.598555356232698	4.7718477	2.1844559
18.616315736950185	5.143568	2.2679436
18.63407656884626	4.7807417	2.1864908
18.65183785238201	5.033708	2.2435927
18.669599588018617	4.811529	2.1935198
18.68736177621737	4.8406696	2.2001522
18.705124417439652	4.729665	2.1747792
18.72288751214696	4.4595304	2.11176
18.740651060800886	4.5907717	2.1426086
18.758415063863115	4.335083	2.0820863
18.77617952179546	4.5524216	2.1336405
18.793944435059814	4.3541512	2.0866604
18.811709804118184	4.3358765	2.0822768
18.829475629432675	4.2557125	2.0629377
18.8472419114655	4.067536	2.0168133
18.86500865067897	4.1991944	2.0491936
18.88277584753551	3.8848262	1.9709963
18.90054350249763	3.8573327	1.9640094
18.918311616027957	3.4826267	1.8661797
18.936080188589226	3.339022	1.8272991
18.953849220644265	3.0335464	1.7417079
18.971618712656007	2.858173	1.6906132
18.9893886650875	2.8456137	1.6868947
19.007159078401887	8.054588	2.8380606
19.024929953062408	32.92972	5.7384424
19.042701289532435	32.8172	5.72863
19.060473088275405	25.341055	5.03399
19.07824534975489	2.6254382	1.6203204
19.096018074434568	2.6424537	1.6255625
19.113791262778197	2.6331272	1.6226914
19.13156491524966	2.6005166	1.6126118
19.149339032312945	2.5994723	1.6122879
19.167113614432136	2.620078	1.6186656
19.184888662071433	2.6280448	1.6211245
19.202664175695123	2.6309786	1.6220292
19.220440155767623	2.584032	1.6074924
19.238216602753447	2.5324152	1.5913564
19.2559935171172	2.5206234	1.5876472
19.27377089932361	2.5186174	1.5870153
19.291548749837514	2.5129929	1.5852422
19.309327069123835	2.512779	1.5851748
19.32710585764763	2.5051582	1.5827692
19.344885115874032	2.4703093	1.5717218
19.362664844268313	2.4513872	1.5656906
19.380445043295822	2.4524224	1.5660212
19.39822571342203	2.4593666	1.5682367
19.41600685511252	2.439069	1.561752
19.43378846883297	2.4598613	1.5683945
19.451570555049173	2.5106091	1.5844902
19.469353114227037	2.538312	1.5932081
19.48713614683254	2.5413663	1.5941664
19.50491965333182	2.5102284	1.58437
19.52270363419109	2.4629805	1.5693886
19.540488089876686	2.4263256	1.5576667
19.55827302085503	2.4474564	1.5644349
19.576058427592674	2.4666324	1.5705516
19.593844310556282	2.4877799	1.5772698
19.611630670212598	2.4664402	1.5704905
19.629417507028506	2.4691882	1.5713651
19.64720482147098	2.481616	1.5753145
19.6649926140071	2.4740894	1.5729238
19.682780885104084	2.5021582	1.5818212
19.70056963522921	2.4937327	1.5791557
19.718358864849908	2.5296416	1.5904847
19.7361485744337	2.523598	1.5885836
19.753938764448215	2.5020337	1.5817819
19.771729435361202	2.490383	1.5780947
19.789520587640506	2.5131092	1.5852789
19.807312221754092	2.570376	1.6032392
19.825104338170043	2.5729	1.6040262
19.842896937356517	2.546396	1.5957431
19.860690019781824	2.5057824	1.5829663
19.87848358591436	2.490973	1.5782816
19.896277636222635	2.4863389	1.5768129
19.914072171175278	2.519334	1.587241
19.931867191241015	2.4834332	1.5758913
19.94966269688869	2.457244	1.5675598
19.967458688587264	2.4376776	1.5613064
19.985255166805807	2.4629674	1.5693845
20.00305213201348	2.4428046	1.5629474
20.020849584679578	2.4647965	1.569967
20.038647525273507	2.4579496	1.5677849
20.05644595426477	2.4431303	1.5630516
20.07424487212299	2.4477646	1.5645334
20.092044279317903	2.4688132	1.5712458
20.109844176319353	2.505692	1.5829377
20.127644563597304	2.459492	1.5682768
20.145445441621817	2.4270017	1.5578837
20.16324681086307	2.412192	1.5531234
20.181048671791373	2.403151	1.55021
20.198851024877122	2.397749	1.5484667
20.216653870590836	2.4071138	1.5514876
20.234457209403146	2.423812	1.5568596
20.252261041784802	2.42893	1.5585026
20.270065368206662	2.3913896	1.5464119
20.287870189139685	2.3666456	1.5383906
20.305675505054968	2.3691456	1.5392029
20.323481316423702	2.3588164	1.5358438
20.341287623717207	2.3898215	1.5459048
20.359094427406884	2.375279	1.541194
20.376901727964288	2.3781815	1.5421354
20.39470952586107	2.3491282	1.5326866
20.41251782156899	2.3630934	1.5372356
20.430326615559935	2.3579895	1.5355747
20.448135908305886	2.3530347	1.5339605
20.465945700278965	2.3353925	1.5281991
20.483755991951384	2.341604	1.53023
20.50156678379548	2.353176	1.5340066
20.519378076283708	2.347639	1.5322007
20.537189869888635	2.3393843	1.5295047
20.55500216508294	2.3416257	1.5302371
20.572814962339415	2.3468199	1.5319334
20.59062826213098	2.358399	1.535708
20.60844206493066	2.3322818	1.527181
20.626256371211593	2.313229	1.5209303
20.644071181447032	2.2970085	1.5155885
20.66188649611036	2.3366134	1.5285985
20.67970231567506	2.358806	1.5358405
20.697518640614742	2.349958	1.5329572
20.715335471403122	2.3458462	1.5316155
20.73315280851404	2.352826	1.5338925
20.750970652421447	2.3106263	1.5200745
20.768789003599412	2.274392	1.5081087
20.786607862522136	2.2758985	1.5086081
20.8044272296639	2.273546	1.5078282
20.82224710549913	2.2627609	1.5042477
20.84006749050237	2.2944872	1.5147564
20.857888385148268	3.863505	1.96558
20.8757097899116	45.943115	6.7781353
20.893531705267254	64.78225	8.048742
20.911354131690224	83.81632	9.155126
20.92917706965566	69.05206	8.309757
20.94700051963877	50.111576	7.0789533
20.96482448211493	29.39327	5.421556
20.982648957559622	4.174093	2.0430596
21.00047394644843	2.2972195	1.5156581
21.01829944925707	2.3009782	1.5168976
21.036125466461375	2.2857356	1.5118649
21.053951998537297	2.2788627	1.5095903
21.071779045960906	2.2766426	1.5088547
21.089606609208378	2.233519	1.4944962
21.10743468875603	2.2265365	1.4921583
21.12526328508028	2.2359931	1.4953238
21.143092398657675	2.2189262	1.489606
21.16092202996488	2.2279952	1.492647
21.17875217947867	2.2374773	1.4958199
21.19658284767596	2.2227151	1.4908773
21.21441403503377	2.2082202	1.4860082
21.232245742029225	2.2169833	1.4889537
21.2500779691396	2.1995704	1.4830949
21.26791071684227	2.1626647	1.4706001
21.28574398561475	2.1362448	1.4615898
21.30357777593465	2.1463418	1.4650398
21.321412088279704	2.1369855	1.4618433
21.339246923127792	2.145563	1.464774
21.357082280956888	2.1142657	1.4540515
21.3749181622451	2.1023335	1.4499426
21.392754567470647	2.1109755	1.4529196
21.41059149711187	2.1399105	1.4628433
21.42842895164726	2.1291177	1.4591497
21.446266931555378	2.0936503	1.4469452
21.464105437314945	2.0751202	1.4405278
21.481944469404798	2.1121151	1.4533118
21.49978402830388	2.1404822	1.4630387
21.51762411449127	2.1277812	1.4586916
21.53546472844617	2.1014168	1.4496264
21.553305870647876	2.0938625	1.4470185
21.571147541575865	2.0834656	1.4434215
21.58898974170967	2.0860124	1.4443034
21.60683247152899	2.0845578	1.4437997
21.62467573151363	2.0950553	1.4474306
21.642519522143523	2.115976	1.4546396
21.660363843898722	2.1125927	1.4534761
21.6782086972594	2.0813916	1.4427029
21.696054082705864	2.0482123	1.4311577
21.713900000718535	2.038642	1.4278102
21.73174645177795	2.055518	1.4337077
21.749593436364794	2.0654726	1.4371753
21.767440954959845	2.052011	1.4324843
21.785289008044032	2.0220342	1.4219825
21.803137596098388	1.999362	1.413988
21.820986719604086	1.9940691	1.4121151
21.838836379042412	2.0339477	1.4261653
21.85668657489478	2.055311	1.4336356
21.87453730764273	2.0333622	1.4259601
21.892388577767914	1.9845159	1.4087285
21.91024038575213	1.9675878	1.4027073
21.928092732077285	1.9969633	1.4131395
21.945945617225426	2.0293772	1.4245621
21.963799041678694	2.0175786	1.4204149
21.981653005919398	31.34846	5.5989695
21.999507510429943	78.16233	8.840946
22.01736255569286	73.13184	8.551716
22.035218142190818	4.1771445	2.0438063
22.05307427040661	1.972829	1.4045743
22.07093094082315	1.9855365	1.4090906
22.088788153923474	2.0113776	1.4182304
22.106645910190746	2.0455635	1.4302319
22.12450421010827	2.0591218	1.4349641
22.142363054159464	2.0522757	1.4325765
22.16022244282787	2.0329762	1.4258248
22.178082376597164	2.0315435	1.4253223
22.195942855951145	2.048912	1.4314021
22.213803881373742	1.986909	1.4095776
22.231665453349002	1.9633353	1.4011906
22.24952757236111	1.9639403	1.4014065
22.26739023889438	1.9735672	1.4048371
22.28525345343323	1.9442486	1.3943632
22.30311721646225	1.9312938	1.38971
22.320981528466113	1.9531777	1.3975613
22.33884638992964	2.0229044	1.4222884
22.356711801337788	1.9952438	1.412531
22.37457776317561	1.9408683	1.3931504
22.392444275928337	1.9303539	1.3893718
22.410311340081282	1.9701704	1.4036276
22.428178956119904	1.9792607	1.406862
22.446047124529805	1.9459785	1.3949833
22.46391584579669	1.9322302	1.3900468
22.481785120406414	1.9153402	1.3839581
22.49965494884496	1.9209465	1.3859822
22.51752533159841	1.9750222	1.4053549
22.53539626915302	1.9879119	1.4099333
22.553267761995137	1.9867082	1.4095063
22.571139810611264	1.978617	1.4066331
22.589012415488025	1.9717486	1.4041897
22.60688557711216	1.9555093	1.3983953
22.624759295970566	1.9592772	1.3997418
22.642633572550263	1.9821274	1.4078804
22.660508407338362	1.9841425	1.4085959
22.67838380082217	1.9503194	1.3965384
22.696259753489077	1.9403038	1.3929479
22.714136265826614	1.9417744	1.3934757
22.73201333832246	1.9522095	1.3972149
22.74989097146439	1.9285367	1.3887177
22.76776916574035	1.9294642	1.3890516
22.785647921638393	1.9295621	1.3890868
22.803527239646712	1.9211122	1.3860419
22.82140712025363	1.8542831	1.3617207
22.839287563947593	1.8608052	1.3641133
22.85716857121719	1.8974804	1.3774906
22.875050142551135	1.9072257	1.3810234
22.892932278438277	1.905784	1.3805014
22.910814979367604	1.9342014	1.3907557
22.928698245828222	1.959177	1.399706
22.946582078309387	1.9395684	1.3926839
22.96446647730047	1.9288248	1.3888214
22.98235144329098	1.947183	1.395415
23.000236976770562	1.9629447	1.4010513
23.018123078229	1.9578912	1.3992467
23.03600974815619	1.9355791	1.3912508
23.053896987042194	1.8982848	1.3777826
23.071784795377173	1.8378856	1.3556864
23.08967317365145	1.8919134	1.3754685
23.10756212235546	1.9187175	1.3851777
23.125451641979787	1.9130186	1.3831191
23.143341733015134	1.8884767	1.3742186
23.161232395952357	1.9324455	1.3901243
23.179123631282426	1.9440851	1.3943045
23.197015439496468	1.9915265	1.4112146
23.214907821085717	2.0054154	1.416127
23.23280077654157	1.9919543	1.4113661
23.250694306355538	1.9376502	1.3919951
23.268588411019277	1.9089264	1.381639
23.28648309102458	1.9188646	1.3852309
23.304378346863356	1.943194	1.3939849
23.322274179027676	1.9259698	1.3877932
23.340170588009723	1.9091331	1.3817139
23.358067574301852	1.900686	1.3786536
23.37596513839651	1.9323006	1.3900721
23.39386328078629	1.9411621	1.393256
23.411762001963947	1.9011875	1.3788356
23.429661302422353	1.8801737	1.3711942
23.4475611826545	1.9022561	1.379223
23.46546164315356	1.9513211	1.396897
23.48336268441279	1.9313306	1.3897232
23.501264306925638	1.9281065	1.3885628
23.51916651118564	1.9233402	1.3868455
23.537069297686497	1.8918736	1.375454
23.554972666922037	1.8969386	1.377294
23.57287661938623	1.921219	1.3860804
23.59078115557318	1.9276863	1.3884114
23.608686275977128	1.9020506	1.3791485
23.62659198109246	1.8923047	1.3756106
23.6444982714137	1.9085978	1.3815202
23.66240514743549	1.8904538	1.3749378
23.68031260965263	1.8906338	1.3750032
23.698220658560068	1.9185934	1.385133
23.716129294652845	1.978374	1.4065468
23.7340385184262	1.9587882	1.3995671
23.75194833037546	1.8925524	1.3757007
23.769858730996123	1.8158125	1.3475208
23.78776972078382	1.8271624	1.3517257
23.80568130023431	1.8294368	1.3525667
23.823593469843495	1.8543994	1.3617634
23.841506230107424	1.8440001	1.3579396
23.859419581522275	1.8750819	1.3693362
23.87733352458438	1.885038	1.3729669
23.89524805979019	1.9025806	1.3793406
23.913163187636318	1.9132229	1.383193
23.931078908619508	1.9507535	1.3966937
23.948995223236633	1.9409266	1.3931714
23.966912131984735	1.9557183	1.3984699
23.98482963536096	2.0064692	1.4164989
24.002747733862616	2.0400553	1.428305
24.020666427987155	2.026597	1.423586
24.038585718232156	2.0187829	1.4208388
24.056505605095353	2.024161	1.4227302
24.074426089074617	2.098657	1.4486742
24.092347170667946	2.0961647	1.4478137
24.110268850373515	2.0838714	1.443562
24.128191128689586	2.0921755	1.4464355
24.146114006114626	2.1086435	1.452117
24.164037483147187	2.1270952	1.4584564
24.181961560286005	2.0629344	1.4362919
24.199886238029926	2.0556853	1.4337661
24.21781151687797	2.0680401	1.4380682
24.235737397329274	2.111176	1.4529886
24.253663879883135	2.0642989	1.4367669
24.271590965038975	2.0532565	1.4329189
24.289518653296376	2.056081	1.4339042
24.30744694515505	2.0689087	1.4383701
24.32537584111486	2.047871	1.4310385
24.34330534167581	2.028743	1.4243395
24.361235447338046	2.0224178	1.4221174
24.379166158601876	1.9894398	1.410475
24.39709747596772	1.9898496	1.4106203
24.41502939993615	1.9872056	1.4096828
24.432961931007917	1.991303	1.4111353
24.450895069683856	2.0120194	1.4184567
24.468828816465	1.982477	1.4080046
24.4867631718525	1.9352473	1.3911316
24.504698136347656	1.9265704	1.3880095
24.52263371045192	1.9335322	1.3905151
24.540569894666874	1.9689528	1.4031938
24.558506689494266	1.9823523	1.4079603
24.57644409543597	1.9976896	1.4133965
24.594382112994012	1.971436	1.4040784
24.61232074267057	1.9836377	1.4084167
24.630259984967953	1.9622321	1.400797
24.64819984038863	1.9676433	1.4027271
24.66614030943522	1.9450717	1.3946583
24.684081392610462	1.9584205	1.3994358
24.702023090417274	2.0229185	1.4222934
24.7199654033587	2.0276477	1.423955
24.737908331937927	2.025071	1.4230498
24.755851876658305	2.050855	1.4320806
24.773796038023324	2.0864265	1.4444468
24.79174081653661	2.0428417	1.4292802
24.809686212701962	1.9859508	1.4092376
24.827632227023294	2.0365243	1.4270685
24.8455788600047	2.113125	1.4536592
24.8635261121504	2.1509092	1.4665978
24.88147398396475	2.1184363	1.4554849
24.899422475952303	2.0894818	1.445504
24.917371588617698	2.0852706	1.4440466
24.935321322465768	2.1235678	1.4572467
24.953271678001478	2.2241626	1.4913627
24.97122265572994	2.4525852	1.5660732
24.989174256156414	2.7903643	1.6704383
25.00712647978632	3.216072	1.793341
25.02507932712521	3.7266028	1.9304411
25.043032798678798	4.265684	2.0653532
25.060986894952933	4.9550724	2.225999
25.078941616453637	5.6718006	2.3815541
25.096896963687055	6.5010257	2.549711
25.114852937159508	7.5806966	2.7533064
25.132809537377444	8.006232	2.8295286
25.150766764847468	8.103908	2.8467362
25.168724620076347	7.5482035	2.7473993
25.186683103570985	6.604313	2.5698857
25.204642215838426	5.5142307	2.34824
25.222601957385894	4.293001	2.071956
25.24056232872074	3.3296752	1.8247398
25.25852333035048	2.74934	1.6581134
25.276484962782778	2.3248436	1.5247438
25.294447226525435	2.1157053	1.4545465
25.312410122086423	2.0422256	1.4290646
25.330373649973843	2.0429957	1.429334
25.348337810695988	1.9789896	1.4067657
25.366302604761245	1.9114405	1.3825486
25.384268032678207	1.8927171	1.3757606
25.40223409495558	1.8847921	1.3728774
25.420200792102257	1.9106107	1.3822484
25.438168124627246	1.8804834	1.3713071
25.45613609303974	1.8729904	1.3685724
25.474104697849057	1.8787965	1.370692
25.492073939564698	1.9029356	1.3794693
25.510043818696285	1.9002073	1.3784801
25.528014335753614	1.9185455	1.3851157
25.54598549124664	1.922322	1.3864783
25.56395728568544	1.9061786	1.3806443
25.58192971958028	1.8806555	1.37137
25.59990279344156	1.8851253	1.3729986
25.617876507779833	1.8668084	1.366312
25.635850863105826	1.8256514	1.3511667
25.653825859930386	1.8094696	1.3451653
25.671801498764548	1.8456653	1.3585527
25.68977778011949	1.9125407	1.3829464
25.707754704506524	1.9101733	1.3820902
25.725732272437153	1.8786207	1.3706279
25.743710484423012	1.8927274	1.3757643
25.761689340975888	1.9050262	1.3802269
25.77966884260774	1.9205316	1.3858324
25.797648989830662	1.9709157	1.403893
25.815629783156922	1.9052491	1.3803077
25.83361122309895	1.8587295	1.3633523
25.85159331016929	1.8499589	1.360132
25.869576044880695	1.8402185	1.3565465
25.887559427746034	1.8232797	1.3502887
25.90554345927836	1.851903	1.3608464
25.92352813999086	1.8704486	1.3676435
25.94151347039689	1.8776675	1.3702801
25.959499451009965	1.8668935	1.3663431
25.97748608234374	1.8335191	1.354075
25.995473364912062	1.8002698	1.3417413
26.013461299228904	1.7978565	1.3408417
26.03144988580839	1.8301347	1.3528247
26.04943912516483	1.827667	1.3519124
26.067429017812675	1.8296673	1.352652
26.085419564266537	1.8782762	1.3705022
26.103410765041186	1.8900493	1.3747907
26.12140262065155	1.8721598	1.368269
26.139395131612723	1.8657814	1.365936
26.157388298439948	1.8359824	1.3549843
26.17538212164861	1.7874008	1.3369371
26.193376601754295	1.7255976	1.3136201
26.211371739272714	1.7591639	1.3263347
26.229367534719746	1.8048768	1.343457
26.247363988611433	1.8330148	1.3538888
26.26536110146397	1.8115185	1.3459266
26.283358873793727	1.8208301	1.3493813
26.301357306117204	1.8332616	1.35398
26.319356398951104	1.8126371	1.3463421
26.33735615281224	1.7712724	1.3308916
26.35535656821762	1.7524501	1.3238014
26.373357645684404	1.792728	1.3389279
26.39135938572991	1.8317095	1.3534067
26.409361788871614	1.8743316	1.3690623
26.427364855627165	1.8811319	1.3715436
26.445368586514352	1.8997083	1.378299
26.46337298205115	1.8797714	1.3710475
26.48137804275568	1.8980619	1.3777016
26.499383769146217	1.8849908	1.3729497
26.517390161741215	1.8868905	1.3736414
26.53539722105928	1.8806708	1.3713756
26.553404947619182	1.8317045	1.3534048
26.571413341939856	1.8266114	1.3515218
26.589422404540397	1.8315461	1.3533462
26.60743213594006	1.844219	1.3580202
26.62544253665827	1.8633869	1.3650593
26.64345360721459	1.8669561	1.366366
26.66146534812879	1.8527619	1.361162
26.679477759920758	1.8389974	1.3560964
26.69749084311057	1.7957292	1.3400482
26.71550459821847	1.7971033	1.3405608
26.733519025764842	1.8028997	1.342721
26.751534126270258	1.8294009	1.3525535
26.769549900255434	1.8085562	1.3448257
26.787566348241267	1.7934973	1.3392152
26.80558347074881	1.7671795	1.329353
26.823601268299267	1.7663481	1.3290403
26.841619741414036	1.8046945	1.3433892
26.85963889061465	1.8081121	1.3446606
26.877658716422832	1.7614529	1.3271974
26.89567921936045	1.7546704	1.3246397
26.913700399949544	1.7744253	1.3320756
26.93172225871233	1.7900244	1.3379179
26.949744796171174	1.7565879	1.3253633
26.967768012848605	1.7722907	1.331274
26.98579190926733	1.7709546	1.3307722
27.003816485950225	1.8026913	1.3426434
27.021841743420318	1.8355093	1.3548096
27.039867682200814	1.8165516	1.3477951
27.057894302815072	1.793747	1.3393084
27.07592160578664	1.7735188	1.3317353
27.0939495916392	1.7832575	1.3353866
27.111978260896635	1.8053998	1.3436517
27.13000761408296	1.8000357	1.3416541
27.148037651722397	1.7559415	1.3251194
27.166068374339304	1.7880471	1.3371788
27.184099782458215	1.8019127	1.3423535
27.20213187660384	1.757781	1.3258133
27.22016465730105	1.731014	1.31568
27.23819812507487	1.7722781	1.3312694
27.256232280450533	1.8305458	1.3529767
27.274267123953383	1.8363136	1.3551065
27.292302656108987	1.8180696	1.3483582
27.31033887744306	1.8008221	1.3419472
27.32837578848146	1.8016732	1.3422642
27.34641338975026	1.7783831	1.3335603
27.364451681775673	1.7900665	1.3379337
27.382490665084074	1.7772285	1.3331274
27.400530340202046	1.7843091	1.3357804
27.41857070765629	1.7657826	1.3288275
27.436611767973726	1.7688332	1.3299749
27.454653521681404	1.8439924	1.3579369
27.472695969306564	1.8978382	1.3776205
27.490739111376627	1.9160691	1.3842216
27.508782948419153	1.8694574	1.367281
27.526827480961902	1.855618	1.3622108
27.54487270953279	1.8399382	1.3564432
27.562918634659898	1.7985256	1.3410912
27.580965256871508	1.787117	1.336831
27.599012576696026	1.7965703	1.340362
27.617060594662068	1.7921467	1.3387108
27.63510931129842	1.780992	1.3345381
27.65315872713401	1.7939149	1.3393711
27.67120884269797	1.7753884	1.332437
27.68925965851958	1.8479176	1.3593813
27.707311175128307	1.8868434	1.3736242
27.725363393053787	1.8815827	1.3717079
27.74341631282583	1.820922	1.3494154
27.7614699349744	1.8284165	1.3521895
27.77952426002968	2.0412905	1.4287374
27.797579288521973	2.1170678	1.4550147
27.815635020981784	2.633762	1.6228869
27.83369145793979	2.6602945	1.6310409
27.85174859992682	2.4110117	1.5527433
27.869806447473923	2.238078	1.4960208
27.887865001112267	1.9582621	1.3993791
27.905924261373233	1.9245924	1.3872968
27.92398422878836	1.8890923	1.3744426
27.94204490388936	1.8407197	1.3567313
27.96010628720813	1.8147858	1.3471398
27.978168379276728	1.8516544	1.3607551
27.9962311806274	1.89742	1.3774687
28.014294691792568	1.8823534	1.3719889
28.0323589133048	1.8746717	1.3691865
28.050423845696887	1.8805408	1.3713281
28.068489489501758	1.8818996	1.3718234
28.086555845252523	1.8344483	1.354418
28.104622913482487	1.8330048	1.353885
28.122690694725115	1.8510177	1.3605211
28.14075918951405	1.9011774	1.3788319
28.15882839838312	1.9163523	1.3843237
28.176898321866304	1.9241827	1.3871491
28.1949689604978	1.9216022	1.3862187
28.213040314811945	1.9499391	1.3964022
28.23111238534327	1.9434024	1.3940597
28.249185172626493	1.872024	1.3682193
28.267258677196473	1.8149176	1.3471887
28.285332899588294	1.8256683	1.3511729
28.303407840337172	1.8828349	1.3721644
28.321483499978545	1.8850633	1.3729761
28.33955987904799	1.899684	1.3782902
28.357636978081285	1.9396355	1.392708
28.37571479761439	1.9765242	1.4058892
28.393793338183425	1.9868541	1.409558
28.41187260032469	1.9536828	1.397742
28.429952584574686	1.9503337	1.3965435
28.448033291470065	1.9672056	1.4025711
28.46611472154769	1.9682137	1.4029304
28.484196875344566	1.9623846	1.4008514
28.502279753397914	1.9788033	1.4066994
28.52036335624511	1.9801328	1.407172
28.538447684423716	1.966321	1.4022557
28.556532738471482	1.9158195	1.3841313
28.574618518926325	1.9205583	1.3858421
28.59270502632635	1.965125	1.4018291
28.61079226120985	2.013747	1.4190655
28.628880224115274	1.9870378	1.4096233
28.646968915581287	2.0061977	1.416403
28.66505833614671	1.9944355	1.4122449
28.68314848635055	1.992561	1.411581
28.701239366732004	2.0108094	1.4180301
28.71933097783044	2.0963767	1.447887
28.737423320185403	2.104937	1.4508401
28.75551639433665	2.0946758	1.4472995
28.773610200824074	2.1053126	1.4509696
28.791704740187793	2.0835328	1.4434447
28.80980001296809	2.112678	1.4535054
28.827896019705413	2.1616354	1.4702501
28.845992760940433	2.168164	1.4724687
28.86409023721397	2.114712	1.4542049
28.88218844906704	2.1034222	1.450318
28.900287397040845	2.1740413	1.474463
28.918387081676755	2.2435143	1.4978366
28.936487503516343	2.255439	1.5018119
28.954588663101365	2.248217	1.4994056
28.97269056097374	2.322469	1.5239649
28.990793197675597	2.3550828	1.5346279
29.00889657374923	2.3893151	1.545741
29.027000689737125	2.4050252	1.5508144
29.04510554618196	2.3762453	1.5415075
29.06321114362659	2.384453	1.5441674
29.08131748261405	2.4259439	1.5575442
29.099424563687567	2.50346	1.5822326
29.11753238739057	2.5124724	1.585078
29.13564095426663	2.4943526	1.5793519
29.15375026485954	2.5188076	1.5870752
29.171860319713275	2.6186786	1.6182332
29.18997111937199	2.6231236	1.619606
29.20808266438002	2.6382	1.6242536
29.226194955281898	2.6999252	1.643145
29.244307992622335	2.777448	1.6665677
29.26242177694624	2.856505	1.6901197
29.2805363087987	2.8862185	1.6988875
29.29865158872498	2.953953	1.7187068
29.316767617270557	3.0312684	1.7410538
29.334884394981064	3.0789256	1.7546867
29.353001922402367	3.0329726	1.7415432
29.37112020008047	3.0311747	1.7410269
29.389239228561596	3.1779387	1.7826774
29.407359008392152	3.3656929	1.8345824
29.42547954011872	3.6949632	1.9222287
29.44360082428809	4.283445	2.0696485
29.46172286144722	5.212981	2.2831955
29.479845652143283	6.5936823	2.5678167
29.497969196923606	8.529183	2.9204767
29.516093496335728	10.955584	3.309922
29.5342185509274	13.6841345	3.6992073
29.55234436124651	16.090193	4.011258
29.570470927841175	17.43807	4.1758914
29.588598251259686	17.068443	4.1313972
29.60672633205055	15.750186	3.9686503
29.624855170762405	13.7817545	3.7123785
29.642984767944146	11.288331	3.359811
29.66111512414481	8.7269	2.9541328
29.67924623991366	6.5017495	2.5498528
29.697378115800138	4.9836626	2.2324119
29.71551075235387	4.1118665	2.0277739
29.733644150124675	3.7349234	1.932595
29.751778309662576	3.5170267	1.8753737
29.769913231517766	3.4686356	1.8624274
29.78804891624066	3.4819596	1.866001
29.806185364381818	3.4660468	1.8617322
29.82432257649206	3.373151	1.836614
29.842460553122333	3.314638	1.8206147
29.86059929482382	3.2485585	1.8023758
29.878738802147872	3.1917536	1.786548
29.896879075646048	3.2380137	1.7994481
29.915020115870114	3.3061025	1.8182691
29.933161923371976	3.3274512	1.8241303
29.951304498703777	3.237767	1.7993796
29.969447842417857	3.1572967	1.7768784
29.987591955066733	3.1758986	1.7821051
30.005736837203123	3.2146783	1.7929524
30.023882489379943	3.177638	1.782593
30.04202891215028	3.1722531	1.781082
30.060176106067455	3.2325103	1.7979183
30.078324071684946	3.237239	1.7992328
30.09647280955646	3.1677167	1.779808
30.114622320235863	3.1071749	1.7627181
30.132772604277257	3.0655773	1.750879
30.1509236622349	3.1063967	1.7624973
30.16907549466328	3.1232536	1.767273
30.18722810211705	3.1359801	1.7708699
30.205381485151097	3.1199794	1.7663463
30.22353564432045	3.0600684	1.7493051
30.241690580180403	3.0282164	1.7401772
30.25984629328638	2.9609468	1.7207402
30.278002784194037	2.85469	1.6895828
30.296160053459246	2.8975077	1.7022067
30.314318101638033	2.9571846	1.7196467
30.332476929286646	2.9336874	1.7128011
30.35063653696153	2.9563727	1.7194105
30.368796925219307	2.9980838	1.7314975
30.386958094616844	2.9636414	1.721523
30.40512004571115	2.9486883	1.7171745
30.423282779059463	2.9113085	1.7062557
30.441446295219233	2.8634264	1.6921662
30.459610594748067	2.8493898	1.6880136
30.47777567820382	2.7659278	1.6631079
30.495941546144504	2.777116	1.6664681
30.51410819912835	2.7715397	1.6647942
30.532275637713795	2.7850773	1.6688551
30.55044386245946	2.7730834	1.6652578
30.56861287392416	2.8106458	1.676498
30.586782672666956	2.79267	1.6711284
30.604953259247047	2.738369	1.6548018
30.623124634223885	2.6932113	1.6411006
30.641296798157075	2.70029	1.643256
30.659469751606462	2.703259	1.6441591
30.677643495132074	2.708781	1.6458374
30.695818029294152	2.7312682	1.6526549
30.713993354653116	2.7335742	1.6533524
30.73216947176962	2.710987	1.6465075
30.75034638120448	2.6573427	1.6301358
30.768524083518756	2.6732898	1.6350198
30.786702579273673	2.6943848	1.6414582
30.80488186903069	2.7312262	1.6526421
30.82306195335144	2.7950191	1.6718311
30.841242832797782	2.9996026	1.7319361
30.85942450793176	3.2575216	1.8048606
30.877606979315637	3.6797273	1.9182615
30.895790247511883	4.0356083	2.0088823
30.913974313083134	4.3179836	2.0779757
30.932159176592283	4.6049647	2.1459181
30.95034483860237	4.810354	2.193252
30.968531299676698	4.6281238	2.1513073
30.98671856037873	4.340344	2.0833492
31.00490662127215	3.947767	1.9868989
31.023095482920848	3.4882064	1.8676741
31.04128514588892	3.041226	1.7439111
31.059475610740662	2.72651	1.6512147
31.07766687804056	2.5318937	1.5911926
31.09585894835335	2.4399922	1.5620475
31.11405182224393	2.4563487	1.5672743
31.132245500277417	2.519507	1.5872955
31.15043998301914	2.5071414	1.5833955
31.168635271034628	2.4228263	1.5565431
31.18683136488964	2.411496	1.5528992
31.20502826515008	2.4001963	1.5492567
31.223225972382135	2.4012485	1.5495962
31.241424487152155	2.415542	1.5542014
31.259623810026692	2.4034712	1.5503132
31.27782394157253	2.3929658	1.5469214
31.296024882356644	2.4663506	1.5704619
31.314226632946237	2.4732146	1.5726458
31.332429193908684	2.3705518	1.5396596
31.350632565811598	2.319664	1.5230443
31.368836749222787	2.399575	1.5490562
31.387041744710295	2.4787033	1.5743898
31.40524755284232	2.5474238	1.5960652
31.423454174187317	2.52463	1.5889084
31.441661609313922	2.5736084	1.604247
31.459869858791002	2.5982656	1.6119137
31.478078923187628	2.4998472	1.5810905
31.496288803073064	2.3526647	1.5338398
31.514499499016807	2.334439	1.5278871
31.532711011588546	2.3693755	1.5392776
31.550923341358178	2.3385448	1.5292301
31.56913648889584	2.295366	1.5150466
31.587350454771844	2.3255508	1.5249757
31.605565239556732	2.4029057	1.5501308
31.62378084382127	2.3532362	1.5340261
31.641997268136382	2.2515376	1.5005125
31.660214513073274	2.3274736	1.525606
31.67843257920331	2.3189902	1.5228231
31.6966514670981	2.2393248	1.4964374
31.71487117732944	2.2263403	1.4920926
31.733091710469346	2.3015842	1.5170974
31.751313067090052	2.3303094	1.526535
31.769535247764008	2.308244	1.5192906
31.787758253063878	2.2465425	1.498847
31.805982083562526	2.1687942	1.4726826
31.824206739833024	2.17555	1.4749745
31.84243222244869	2.275746	1.5085577
31.860658531983013	2.2408423	1.4969443
31.878885669009737	2.1740587	1.474469
31.897113634102784	2.1874554	1.4790049
31.91534242783632	2.2413611	1.4971176
31.933572050784694	2.18937	1.4796519
31.951802503522508	2.175919	1.4750997
31.970033786624548	2.1558387	1.4682775
31.988265900665834	2.1783447	1.4759216
32.006498846221575	2.260682	1.5035565
32.02473262386724	2.3196802	1.5230496
32.04296723417845	2.2603283	1.5034388
32.0612026777311	2.1642435	1.4711368
32.07943895510129	2.1708567	1.4733827
32.097676066865304	2.1422422	1.4636401
32.115914013599685	2.0848958	1.4439168
32.13415279588115	2.0439272	1.4296598
32.152392414286666	2.0816205	1.4427822
32.1706328693934	2.1375937	1.4620512
32.18887416177875	2.126923	1.4583974
32.20711629202032	2.1188	1.4556098
32.225359260695924	2.1942644	1.481305
32.243603068383614	2.1196148	1.4558897
32.26184771566166	2.0821922	1.4429803
32.28009320310852	2.0787594	1.4417903
32.2983395313029	2.059671	1.4351554
32.31658670082372	2.065463	1.4371719
32.33483471225012	2.102798	1.4501028
32.35308356616143	2.0659983	1.4373581
32.371333263137245	1.9845811	1.4087516
32.38958380375734	1.9744215	1.4051411
32.407835188601744	1.9887555	1.4102324
32.42608741825067	2.013866	1.4191074
32.444340493284585	2.056683	1.434114
32.46259441428416	2.0493946	1.4315706
32.48084918183028	1.979544	1.4069628
32.49910479650405	1.9873686	1.4097406
32.51736125888683	2.0152187	1.419584
32.53561856956014	1.9275545	1.388364
32.5538767291058	1.8811609	1.3715541
32.572135738105764	1.9478724	1.395662
32.59039559714228	2.0378025	1.4275162
32.608656306797776	2.0213861	1.4217546
32.62691786765491	2.040698	1.42853
32.645180280296586	2.109636	1.4524586
32.663443545305896	2.1258893	1.458043
32.68170766326619	2.0668848	1.4376664
32.69997263476099	2.0556602	1.4337574
32.7182384603741	2.0685253	1.4382368
32.7365051406895	2.065817	1.4372951
32.75477267629144	2.0095522	1.4175868
32.77304106776434	1.9062567	1.3806726
32.79131031569289	1.8246228	1.350786
32.809580420661966	1.8454449	1.3584715
32.827851383256714	1.9166197	1.3844203
32.84612320406245	2.0260358	1.4233888
32.86439588366476	2.0069115	1.4166551
32.88266942264945	2.048224	1.4311618
32.9009438216025	2.0237095	1.4225714
32.9192190811102	2.0429099	1.429304
32.937495201758985	2.0061793	1.4163966
32.95577218413556	2.0003417	1.4143343
32.974050028826866	2.0390491	1.4279528
32.992328736420035	1.9701867	1.4036334
33.010608307502444	1.9306256	1.3894695
33.02888874266169	1.9575286	1.3991171
33.047170042485604	2.0320094	1.4254856
33.06545220756225	2.033686	1.4260736
33.083735238479896	1.9557223	1.3984715
33.10201913582707	1.9430653	1.3939388
33.12030390019248	1.9737335	1.4048963
33.138589532165135	2.0101256	1.417789
33.15687603233419	2.0204349	1.42142
33.17516340128909	1.9517792	1.397061
33.19345163961947	1.8847338	1.372856
33.211740747915215	1.9645594	1.4016274
33.23003072676643	1.9760364	1.4057156
33.248321576763466	1.9818643	1.4077871
33.266613298496885	2.001047	1.4145837
33.28490589255747	1.9575098	1.3991103
33.30319935953626	1.9387865	1.3924031
33.32149370002451	1.9092548	1.3817579
33.339788914613706	1.9444044	1.394419
33.358085003895575	2.0300593	1.4248015
33.376381968462034	2.1275947	1.4586277
33.39467980890529	2.1547182	1.4678959
33.41297852581774	2.1024668	1.4499886
33.43127811979204	2.0560408	1.4338901
33.44957859142105	1.9684414	1.4030116
33.467879941297866	1.7913568	1.3384157
33.486182170015844	1.757868	1.3258462
33.50448527816853	1.8230612	1.3502078
33.522789266349754	1.8341312	1.354301
33.541094135153514	1.8509979	1.3605138
33.55939988517411	1.8935544	1.3760649
33.57770651700602	1.9611702	1.4004179
33.59601403124398	1.8991033	1.3780795
33.61432242848296	1.8265313	1.3514923
33.632631709318154	1.8126235	1.3463371
33.650941874344994	1.9217167	1.3862599
33.66925292415916	2.0408838	1.4285951
33.68756485935654	1.9592533	1.3997333
33.70587768053328	1.8510464	1.3605317
33.724191388285746	1.8392502	1.3561896
33.74250598321054	1.9455736	1.3948382
33.760821465904506	1.8577827	1.363005
33.77913783696474	1.7031319	1.305041
33.79745509698852	1.7208761	1.3118217
33.815773246573414	1.7827702	1.3352041
33.8340922863172	1.8259058	1.3512608
33.852412216817896	2.013877	1.4191114
33.87073303867377	2.0590312	1.4349325
33.889054752483304	2.0646293	1.4368818
33.907377358845245	2.0182555	1.4206532
33.92570085835853	1.9829818	1.4081838
33.94402525162239	1.8749912	1.3693032
33.96235053923627	1.7784039	1.3335681
33.980676721799824	1.7594528	1.3264437
33.999003799912984	1.8473525	1.3591734
34.01733177417592	1.9567056	1.3988229
34.03566064518901	2.0084584	1.4172009
34.0539904135529	2.029631	1.4246511
34.07232107986846	2.0172126	1.420286
34.090652644736785	1.881711	1.3717548
34.108985108759235	1.8084227	1.344776
34.12731847253742	1.8495092	1.3599666
34.14565273667313	1.9870713	1.4096352
34.16398790176847	1.9950519	1.4124631
34.18232396842574	1.9344975	1.3908621
34.20066093724749	1.98343	1.408343
34.21899880883651	2.0313978	1.4252712
34.23733758379583	1.9919771	1.4113742
34.25567726272874	1.9505054	1.3966049
34.27401784623872	2.0214834	1.4217888
34.29235933492957	1.9654666	1.401951
34.31070172940526	1.8831289	1.3722714
34.32904503027003	1.9070245	1.3809506
34.347389238128386	2.1072247	1.4516283
34.36573435358502	2.2579288	1.5026406
34.38408037724492	2.0519748	1.4324715
34.402427309713296	1.8210461	1.3494614
34.42077515159559	1.8419864	1.357198
34.43912390349752	1.9354889	1.3912185
34.45747356602499	1.877574	1.3702459
34.47582413978423	1.9266062	1.3880224
34.49417562538163	2.05468	1.4334155
34.51252802342388	1.9820632	1.4078577
34.53088133451789	2.0419066	1.4289529
34.54923555927084	2.1196666	1.4559075
34.567590698290104	2.0476263	1.4309529
34.58594675218336	1.9136899	1.3833618
34.6043037215585	1.8775674	1.3702435
34.62266160702365	1.8295184	1.3525969
34.641020409187234	1.8547406	1.3618886
34.65938012865785	1.81547	1.3473938
34.677740766044394	1.772885	1.3314973
34.69610232195598	1.8036469	1.3429992
34.714464797002016	1.9050578	1.3802383
34.73282819179208	2.0296946	1.4246734
34.751192506936064	2.017615	1.4204278
34.76955774304408	1.9314882	1.3897799
34.7879239007265	1.9057742	1.3804978
34.80629098059391	1.9407742	1.3931167
34.824658983257194	1.9739374	1.4049689
34.843027909327446	2.065643	1.4372345
34.86139775941603	2.2225742	1.4908301
34.879768534134534	2.147601	1.4654695
34.89814023409483	1.9599272	1.399974
34.91651285990901	1.9133861	1.383252
34.93488641218944	1.9777	1.4063072
34.95326089154871	2.0169086	1.4201791
34.97163629859967	1.9409673	1.393186
34.99001263395542	1.9139265	1.3834473
35.00838989822934	1.7826558	1.3351613
35.02676809203499	1.770155	1.3304718
35.04514721598624	1.7786083	1.3336447
35.063527270697215	1.863784	1.3652047
35.081908256782256	1.8554959	1.3621659
35.10029017485597	1.7445036	1.3207966
35.11867302553321	1.7085854	1.3071287
35.137056809429104	2.1107793	1.4528521
35.155441527159006	2.2320402	1.4940014
35.173827179338524	2.187874	1.4791464
35.19221376658354	2.12201	1.456712
35.21060128951017	1.9835614	1.4083897
35.2289897487348	1.8659294	1.3659903
35.24737914487405	1.9295883	1.3890963
35.26576947854479	1.9945853	1.4122978
35.28416075036418	1.8260225	1.351304
35.30255296094958	1.7689002	1.33
35.32094611091867	1.9665658	1.402343
35.33934020088932	1.9039412	1.3798337
35.35773523147969	1.8663213	1.3661337
35.3761312033082	1.9959278	1.4127731
35.394528116993506	2.1741633	1.4745045
35.41292597315452	2.4624162	1.5692087
35.431324772410434	2.6862125	1.6389669
35.449724515380666	2.7750366	1.6658441
35.46812520268491	2.32987	1.5263911
35.486526834943106	2.2324545	1.49414
35.504929412775454	2.3083155	1.5193142
35.52333293680242	2.562413	1.6007539
35.54173740764471	2.8141854	1.6775534
35.560142825923286	2.2873204	1.512389
35.5785491922594	1.7619339	1.3273786
35.59695650727454	1.876464	1.3698409
35.61536477159042	1.7820303	1.3349271
