0.008763373481513119	0.43391317	0.65872085
0.026290120649546365	0.55242383	0.7432522
0.043816868432600686	0.51180947	0.7154086
0.06134361724069026	0.36657554	0.6054548
0.07887036748382949	0.2023164	0.44979596
0.0963971195720331	0.16539462	0.40668738
0.11392387391531617	0.122431725	0.34990245
0.1314506309236943	0.099721014	0.31578633
0.1489773910071836	0.08897088	0.29827985
0.16650415457580078	0.08684508	0.2946949
0.18403092203956356	0.16380033	0.40472254
0.20155769380849	0.20786344	0.45592043
0.2190844702925996	0.22790945	0.47739863
0.2366112519019124	0.22669044	0.4761202
0.2541380390464497	0.20115297	0.4485008
0.27166483213623416	0.18092482	0.42535257
0.28919163158128947	0.16229981	0.40286452
0.3067184377916406	0.12634568	0.35545138
0.324245251177314	0.08368133	0.28927726
0.34177207214833777	0.08497662	0.29150748
0.3592989011147415	0.06403195	0.25304535
0.37682573848655654	0.09548287	0.30900303
0.39435258467381573	0.08856436	0.29759765
0.41187944008655414	0.13057177	0.36134717
0.42940630513480854	0.114730984	0.33871964
0.446933180228618	0.109317854	0.3306325
0.4644600657780234	0.120462365	0.3470769
0.48198696219306775	0.11899962	0.34496322
0.49951386988379676	0.18326223	0.42809138
0.5170407892602581	0.2677042	0.5174014
0.5345677207325025	0.29829428	0.54616326
0.5520946647105822	0.2894804	0.53803384
0.5696216216045534	0.21778631	0.46667582
0.5871485918244737	0.15918955	0.39898565
0.6046755757804043	0.13544506	0.3680286
0.6222025738824094	0.11134307	0.33368108
0.6397295865405557	0.14434507	0.37992772
0.6572566141649129	0.13322979	0.36500657
0.6747836571655547	0.15485571	0.3935171
0.6923107159525568	0.17259723	0.41544822
0.7098377909359992	0.20464513	0.4523772
0.7273648825259653	0.18491498	0.4300174
0.7448919911325411	0.1587698	0.3984593
0.762419117165817	0.16097149	0.4012125
0.7799462610358868	0.1686733	0.41069856
0.7974734231528482	0.1887221	0.43442157
0.8150006039268024	0.20219985	0.44966638
0.8325278037678551	0.21463563	0.46328783
0.8500550230861152	0.24747016	0.49746373
0.8675822622916969	0.25790393	0.5078424
0.8851095217947171	0.23940924	0.48929462
0.9026368020052984	0.22609852	0.47549817
0.9201641033335665	0.22641307	0.47582883
0.9376914261896523	0.25039595	0.5003958
0.9552187709836915	0.24708985	0.49708134
0.9727461381258234	0.23223822	0.481911
0.990273528026193	0.18633729	0.43166804
1.0078009410949496	0.2198196	0.46884924
1.0253283777422473	0.24896505	0.49896398
1.0428558383782454	0.3306926	0.57505876
1.0603833234131086	0.3210006	0.56656915
1.0779108332570058	0.31998098	0.5656686
1.0954383683201119	0.2755933	0.5249698
1.112965929012607	0.3077032	0.55471003
1.1304935157446763	0.4417538	0.6646456
1.1480211289265108	0.5051702	0.71075326
1.1655487689683062	1.3819909	1.1755811
1.1830764362802655	1.6522683	1.2854059
1.200604131272596	2.0069852	1.416681
1.2181318543555117	2.3724353	1.5402712
1.235659605939232	2.3537343	1.5341885
1.253187386433982	3.9299579	1.9824121
1.270715196249994	6.240128	2.498025
1.2882430357975057	11.764663	3.4299655
1.3057709054867608	16.405256	4.05034
1.3232988057280106	22.160276	4.7074704
1.3408267369315112	27.120989	5.207782
1.358354699507526	30.837557	5.5531573
1.3758826938663256	35.09481	5.9240875
1.3934107204181858	37.239464	6.1024146
1.410938779573391	37.412697	6.116592
1.4284668717422309	38.01594	6.165707
1.4459949973350033	37.19535	6.098799
1.4635231567620117	37.134632	6.093819
1.4810513504335687	36.563107	6.0467434
1.4985795787599925	35.780933	5.9817166
1.5161078421516088	35.51476	5.959426
1.5336361410187505	34.85407	5.9037333
1.5511644757717598	35.023552	5.91807
1.5686928468209842	35.822838	5.985218
1.58622125457678	36.35125	6.0291996
1.6037496994495108	37.503765	6.1240315
1.621278181849548	37.20823	6.099855
1.6388067021872719	37.95065	6.16041
1.6563352608730693	36.747543	6.061975
1.673863858317336	35.915146	5.9929247
1.6913924949304753	35.18931	5.932058
1.7089211711228998	34.38368	5.8637595
1.7264498873050296	33.68385	5.8037786
1.7439786438872935	32.651745	5.7141705
1.7615074412801288	31.969477	5.6541557
1.779036279893981	31.417429	5.6051254
1.796565160139305	30.704428	5.5411577
1.814094082426564	30.037716	5.4806676
1.8316230471662298	29.228174	5.4063087
1.849152054768784	28.458517	5.3346524
1.8666811056447168	27.846886	5.2770147
1.8842102002045273	26.919968	5.1884456
1.901739338858724	26.281279	5.126527
1.9192685220178245	25.772419	5.0766544
1.9367977500923557	25.128357	5.0128193
1.9543270234928547	24.692331	4.9691377
1.971856342629867	23.919159	4.890722
1.9893857079139496	23.443895	4.84189
2.006915119755667	23.083883	4.804569
2.0244445785655945	22.636356	4.757768
2.0419740847543175	22.197235	4.7113943
2.0595036387324317	21.713127	4.6597347
2.0770332409105414	21.28445	4.6135073
2.094562891699263	20.684721	4.5480456
2.1120925915092217	20.141207	4.4878955
2.129622340751053	19.89914	4.460845
2.1471521398354043	188.03079	13.712432
2.1646819891729323	444.476	21.0826
2.182211889174303	440.6968	20.99278
2.1997418402501974	453.10864	21.286348
2.2172718428113023	432.9873	20.808348
2.234801897268317	321.0138	17.916859
2.2523320040319548	17.365555	4.1672
2.269862163512935	17.11781	4.1373672
2.287392376121992	16.778843	4.0961986
2.304922642269869	16.360878	4.044858
2.322452962367322	16.200338	4.0249643
2.3399833368251164	16.082062	4.0102444
2.357513766054032	15.920935	3.9901047
2.3750442504648586	15.576987	3.9467692
2.3925747904683963	15.168915	3.8947291
2.410105386475459	14.811193	3.8485312
2.4276360388968707	14.142318	3.7606273
2.445166748143469	13.85775	3.7226
2.4626975146261025	13.624538	3.6911433
2.4802283387556323	13.46209	3.669072
2.4977592209429305	13.23015	3.6373274
2.5152901615988825	12.921136	3.594598
2.5328211611343865	12.797372	3.5773416
2.5503522199603523	12.652911	3.5570931
2.5678833384877024	12.377064	3.518105
2.5854145171273712	12.171125	3.488714
2.6029457562903064	11.934542	3.4546406
2.620477056387469	11.8377495	3.440603
2.6380084178298326	11.720256	3.423486
2.655539841028383	11.561258	3.400185
2.673071326394119	11.505752	3.3920128
2.6906028743380523	11.3156	3.3638668
2.708134485271211	11.189011	3.344998
2.7256661596046325	10.887533	3.299626
2.743197897749369	10.53036	3.2450516
2.760729700116486	10.354691	3.2178705
2.778261567117063	10.1406145	3.1844332
2.795793499162193	10.110888	3.1797621
2.8133254966629817	10.051372	3.17039
2.830857560030551	9.92312	3.1500983
2.8483896896760337	9.9061575	3.147405
2.865921886010578	9.782684	3.1277282
2.883454149445347	9.66325	3.1085768
2.9009864803915177	9.41638	3.068612
2.91851887926028	9.324085	3.0535364
2.9360513464628384	9.228403	3.0378287
2.953583882410413	8.989156	2.998192
2.9711164875142373	8.725491	2.9538941
2.9886491621855606	8.521888	2.9192274
3.0061819068356455	8.510662	2.9173038
3.023714721875769	8.528216	2.920311
3.041247607717225	8.49346	2.914354
3.0587805647713213	8.432448	2.9038677
3.0763135934493806	8.340039	2.8879125
3.0938466941627407	8.206428	2.8646863
3.1113798673227544	8.061658	2.8393059
3.1289131133407904	7.8768477	2.8065722
3.1464464326282315	7.7919	2.7913976
3.1639798255964786	7.6970162	2.7743497
3.1815132926569443	7.5969987	2.7562654
3.1990468342210603	7.3218594	2.7058935
3.216580450700272	7.2112885	2.6853843
3.2341141425060416	7.1606817	2.675945
3.251647910049847	7.277962	2.6977699
3.2691817537431813	7.217932	2.686621
3.286715673997555	7.003739	2.646458
3.3042496712244938	6.930293	2.632545
3.32178374583554	6.8824716	2.6234465
3.339317898242251	6.869683	2.621008
3.3568521288562034	6.869634	2.6209986
3.3743864380889876	6.8670764	2.6205108
3.3919208263522127	6.848931	2.617046
3.4094552940575023	6.736595	2.5954952
3.4269898416164972	6.697705	2.5879924
3.444524469440858	6.7202625	2.592347
3.4620591779422587	6.721132	2.5925145
3.479593967532391	6.588011	2.5667121
3.4971288386229658	6.4157624	2.5329356
3.5146637916257086	6.2531595	2.5006318
3.5321988269523628	6.218261	2.493644
3.5497339450146903	6.2497416	2.4999483
3.5672691462244708	6.3322253	2.5163913
3.5848044309934988	6.3738976	2.524658
3.60233979973359	6.262561	2.502511
3.619875252856575	6.2677717	2.5035517
3.6374107907743034	6.2757673	2.5051482
3.6549464138986427	6.3323517	2.5164165
3.6724821226414788	6.245793	2.4991584
3.690017917414714	6.2103124	2.49205
3.7075537986302702	6.2148747	2.492965
3.7250897667000857	6.371483	2.5241797
3.7426258220361235	6.5539804	2.5600743
3.7601619650503553	6.880903	2.6231475
3.777698196154779	7.44583	2.7287047
3.7952345157614067	8.588101	2.9305463
3.8127709242822716	9.422887	3.069672
3.830307422129425	11.648369	3.4129708
3.847844009714936	30.38478	5.512239
3.8653806874508954	97.92458	9.895685
3.882917455749409	97.235535	9.860808
3.900454315022606	96.95857	9.846754
3.917991265682631	41.60447	6.450153
3.9355283081416506	11.119313	3.3345635
3.9530654428118495	8.87554	2.9791844
3.970602670105433	7.5873055	2.7545063
3.9881399904346244	6.5935297	2.567787
4.005677404211669	6.5261574	2.5546346
4.023214911848827	6.4679613	2.5432186
4.0407525137583855	6.482089	2.5459948
4.058290210352644	6.400006	2.5298233
4.075828002043927	6.3019085	2.5103602
4.0933658892445814	6.251138	2.5002277
4.110903872366966	6.0996566	2.4697483
4.128441951823468	6.1084704	2.471532
4.145980128026488	6.067461	2.4632218
4.163518401388452	6.078165	2.4653935
4.181056772321807	6.042278	2.4581046
4.1985952412390155	5.995193	2.4485083
4.216133808552567	5.9846716	2.446359
4.233672474674966	6.0999875	2.4698153
4.251211240018741	6.353046	2.520525
4.268750104996445	6.6022177	2.569478
4.286289070020643	7.526808	2.7435029
4.303828135503928	9.129477	3.0215023
4.3213673018589125	29.501764	5.431553
4.3389065694982305	90.75794	9.526696
4.356445938834537	165.9492	12.882128
4.3739854102805085	171.41142	13.092419
4.391524984248844	172.35052	13.128234
4.409064661152262	136.73491	11.69337
4.426604441403504	97.00215	9.848967
4.444144325415337	76.01918	8.718898
4.461684313600543	21.882504	4.6778736
4.47922440637193	22.214357	4.713211
4.496764604142329	20.574846	4.5359507
4.5143049073245916	18.580706	4.3105345
4.531845316331589	16.445854	4.055349
4.5493858315762195	13.464171	3.6693556
4.566926453471405	11.157124	3.340228
4.584467182430081	9.167994	3.0278695
4.602008018865218	8.148716	2.8545957
4.619548963189798	7.6153235	2.7595875
4.637090015816834	7.114474	2.6672971
4.654631177159353	6.757689	2.5995555
4.672172447630417	6.3748174	2.52484
4.689713827643102	6.197071	2.4893918
4.7072553176105085	5.936271	2.4364464
4.724796917945764	5.768822	2.4018373
4.742338629062015	5.766611	2.401377
4.759880451372434	5.746143	2.3971114
4.777422385290215	5.8536406	2.4194298
4.794964431228581	5.804709	2.4092963
4.812506589600768	5.6972656	2.3868945
4.830048860820047	5.5581408	2.357571
4.847591245299709	5.476963	2.3402913
4.8651337434530655	5.471744	2.339176
4.882676355693457	5.5479164	2.3554015
4.900219082434242	5.5280743	2.3511858
4.917761924088813	5.5237966	2.3502758
4.935304881070575	5.549946	2.3558323
4.952847953792969	5.607997	2.368121
4.970391142669449	5.630639	2.3728967
4.9879344481135055	5.588325	2.3639638
5.005477870538642	5.4926877	2.3436484
5.023021410358394	5.473523	2.3395562
5.040565067986324	5.5235734	2.3502283
5.05810884383601	5.5542293	2.3567412
5.075652738321066	5.4823365	2.341439
5.09319675185512	5.457186	2.3360622
5.110740884851836	5.440117	2.3324058
5.128285137724894	5.451974	2.3349462
5.145829510888007	5.4274135	2.329681
5.163374004754908	5.398381	2.3234417
5.1809186197393595	5.363609	2.3159466
5.198463356255145	5.279696	2.2977588
5.216008214716077	5.1999254	2.2803345
5.233553195535998	5.1788745	2.2757142
5.251098299128764	5.264425	2.2944334
5.268643525908272	5.3397083	2.310781
5.286188876288432	5.4057584	2.3250287
5.3037343506831895	5.34592	2.3121245
5.32127994950651	5.288345	2.2996402
5.3388256731723915	5.307769	2.3038595
5.356371522094851	5.3230085	2.3071647
5.373917496687938	5.298748	2.3019009
5.391463597365729	5.306988	2.30369
5.40900982454232	5.2557592	2.2925444
5.426556178631843	5.2532153	2.2919893
5.444102660048449	5.15279	2.269976
5.4616492692063225	5.135983	2.2662706
5.479196006519669	5.1498017	2.2693174
5.496742872402727	5.1462736	2.26854
5.514289867269756	5.1994557	2.2802315
5.531836991535049	5.1724052	2.2742922
5.549384245612924	5.165075	2.27268
5.566931629917724	5.1133585	2.2612736
5.584479144863822	5.090953	2.256314
5.6020267908656205	5.120069	2.262757
5.619574568337545	5.1464634	2.2685819
5.637122477694054	5.1787586	2.2756886
5.654670519349629	5.1542053	2.2702875
5.672218693718784	5.1456294	2.268398
5.689767001216059	5.1903114	2.2782254
5.707315442256021	5.1815033	2.2762916
5.724864017253266	5.2384014	2.2887554
5.7424127266224225	5.2356358	2.2881513
5.75996157077814	5.1691203	2.27357
5.777510550135105	5.0746417	2.2526965
5.795059665108022	4.959937	2.2270916
5.812608916111639	4.999737	2.2360091
5.830158303560715	5.1756063	2.2749958
5.847707827870055	5.3653975	2.3163328
5.86525748945448	5.501453	2.3455176
5.8828072887288485	5.6067452	2.3678567
5.900357226108044	5.54684	2.355173
5.917907302006979	5.6007605	2.3665926
5.9354575168406	6.2140207	2.4927938
5.9530078710238765	6.910562	2.6287947
5.970558364971812	7.4359097	2.7268865
5.988108999099438	7.8313346	2.7984521
6.005659773821818	8.399046	2.8981109
6.023210689554039	8.250834	2.8724265
6.040761746711227	8.589314	2.9307532
6.058312945708531	7.8590317	2.8033965
6.075864286961132	7.288033	2.6996357
6.093415770884244	6.6096134	2.570917
6.1109673978931065	6.0649557	2.462713
6.128519168402993	5.485766	2.3421712
6.146071082829204	5.326756	2.3079765
6.163623141587075	5.2475204	2.2907467
6.181175345091969	5.2084155	2.2821953
6.198727693759281	5.1487765	2.2690916
6.216280188004435	5.070626	2.251805
6.233832828242885	4.9720016	2.2297986
6.251385614890126	5.017541	2.239987
6.268938548361669	5.0310693	2.2430046
6.286491629073067	5.0623455	2.2499657
6.304044857439898	5.0815735	2.2542346
6.321598233877777	5.033125	2.2434628
6.339151758802344	5.020162	2.2405717
6.356705432629277	4.9764824	2.230803
6.37425925577428	4.9456325	2.223878
6.391813228653095	4.919229	2.2179334
6.409367351681486	4.8996763	2.2135212
6.426921625275259	4.861146	2.2048006
6.44447604985025	4.9170647	2.2174456
6.46203062582232	4.92896	2.2201262
6.47958535360737	4.974351	2.2303252
6.497140233621328	4.967603	2.228812
6.514695266280161	5.0008497	2.236258
6.532250451999859	4.9872165	2.2332077
6.549805791196454	4.9737844	2.2301984
6.567361284286002	4.9922194	2.2343276
6.584916931684597	4.9669995	2.2286766
6.602472733808367	5.0050993	2.237208
6.6200286910734665	4.9904346	2.233928
6.637584803896092	4.9625306	2.2276738
6.655141072692462	4.992052	2.2342901
6.672697497878842	4.991524	2.2341719
6.690254079871514	4.970084	2.2293684
6.707810819086808	5.0169177	2.2398477
6.725367715941078	5.0195208	2.2404287
6.742924770850719	5.0041027	2.2369852
6.760481984232151	4.955549	2.2261062
6.778039356501836	4.934761	2.2214322
6.795596888076266	4.983763	2.2324343
6.813154579371963	4.9830155	2.232267
6.830712430805492	4.934123	2.2212887
6.84827044279344	4.983291	2.2323287
6.865828615752445	4.957063	2.2264464
6.883386950099159	5.0068083	2.2375898
6.900945446250287	4.999371	2.2359273
6.918504104622553	5.0218453	2.2409475
6.936062925632727	4.9668374	2.2286403
6.953621909697607	4.9647374	2.228169
6.971181057234028	5.057829	2.2489617
6.988740368658859	5.189059	2.2779505
7.006299844389007	5.255498	2.2924874
7.023859484841407	5.297086	2.30154
7.041419290433036	5.345871	2.312114
7.058979261580902	5.4225054	2.3286273
7.0765393987020495	5.5661535	2.3592696
7.094099702213559	5.9022145	2.4294474
7.111660172532549	6.334275	2.5167985
7.129220810076164	6.787777	2.6053362
7.146781615261595	7.366283	2.7140896
7.16434258850606	7.5463185	2.7470562
7.181903730226821	7.8954434	2.809883
7.1994650408411704	8.055594	2.838238
7.217026520766437	8.312493	2.8831394
7.234588170419983	8.484246	2.912773
7.252149990219215	8.490268	2.9138064
7.269711980581568	8.267139	2.8752635
7.2872741419245175	8.115194	2.848718
7.304836474665574	7.6817284	2.771593
7.322398979222286	7.372886	2.7153058
7.339961656012233	7.158331	2.6755056
7.357524505453039	6.86345	2.6198187
7.375087527962357	6.5453	2.5583785
7.392650723957886	6.280537	2.5061
7.410214093857353	5.919142	2.4329286
7.427777638078528	5.6895947	2.385287
7.445341357039213	5.5868773	2.3636577
7.4629052511572525	5.4674664	2.3382614
7.480469320850524	5.3862696	2.320834
7.498033566536948	5.2719264	2.2960677
7.5155979886344735	5.1907644	2.2783248
7.5331625875610975	5.1639395	2.2724304
7.550727363734844	5.1538863	2.2702172
7.568292317573788	5.1916566	2.2785206
7.585857449496025	5.2187843	2.2844658
7.603422759919705	5.1618853	2.2719784
7.620988249263007	5.1608667	2.271754
7.638553917944147	5.104307	2.2592714
7.656119766381391	5.1737423	2.2745862
7.673685794993023	5.2425675	2.2896655
7.691252004197388	5.262182	2.2939446
7.70881839441285	5.220362	2.2848113
7.726384966057826	5.2330136	2.287578
7.743951719550762	5.20676	2.2818327
7.761518655310149	5.225455	2.2859254
7.779085773754511	5.250348	2.2913637
7.796653075302419	5.2471724	2.2906706
7.814220560372475	5.2658305	2.2947397
7.831788229383323	5.2563066	2.2926636
7.8493560827536495	5.275677	2.2968843
7.866924120902174	5.2870326	2.2993548
7.884492344247663	5.2949815	2.3010826
7.9020607532089135	5.3485594	2.3126953
7.919629348204771	5.3607273	2.3153245
7.937198129654115	5.376966	2.3188286
7.954767097975865	5.3902917	2.3217
7.972336253588986	5.3989043	2.3235543
7.989905596912472	5.3891673	2.321458
8.007475128365371	5.3495774	2.3129153
8.025044848366756	5.3959455	2.3229175
8.042614757335754	5.5074315	2.3467917
8.060184855691523	5.558346	2.3576145
8.07775514385327	5.712362	2.3900547
8.095325622240228	5.6915145	2.3856895
8.112896291271687	5.7606735	2.4001403
8.130467151366968	5.80476	2.409307
8.148038202945436	5.873011	2.4234297
8.165609446426497	5.8627954	2.421321
8.183180882229594	5.8922176	2.4273891
8.200752510774217	5.8583393	2.4204006
8.218324332479893	5.945829	2.438407
8.235896347766193	5.973053	2.443983
8.253468557052724	6.046312	2.458925
8.27104096075914	6.0829477	2.4663632
8.288613559305137	6.04775	2.4592173
8.306186353110448	6.0594616	2.4615974
8.32375934259485	6.1410847	2.4781213
8.341332528178162	6.197215	2.4894207
8.358905910280246	6.2812467	2.5062416
8.376479489321003	6.259049	2.5018091
8.394053265720377	6.277731	2.5055401
8.411627239898356	6.2590227	2.5018039
8.42920141227497	6.2681065	2.5036187
8.44677578327029	6.2624035	2.5024796
8.464350353304427	6.262267	2.5024521
8.48192512279754	6.237819	2.4975626
8.499500092169827	6.153112	2.4805467
8.51707526184153	6.14586	2.4790845
8.534650632232934	6.157193	2.4813693
8.552226203764365	6.126156	2.4751072
8.569801976856192	6.1503224	2.4799843
8.587377951928834	6.232813	2.49656
8.60495412940274	6.266471	2.503292
8.622530509698416	6.36723	2.5233371
8.6401070932364	6.4240274	2.5345664
8.657683880437283	6.583472	2.5658276
8.675260871721695	6.70718	2.5898223
8.692838067510303	6.8553524	2.6182728
8.710415468223834	7.0493217	2.6550558
8.727993074283043	7.210475	2.6852329
8.745570886108737	7.2246785	2.6878762
8.763148904121765	7.219215	2.6868596
8.78072712874302	7.196506	2.6826305
8.798305560393441	7.410853	2.7222881
8.815884199494006	7.4847593	2.7358289
8.833463046465745	7.644928	2.7649462
8.851042101729728	7.764655	2.786513
8.86862136570707	8.075152	2.8416812
8.886200838818924	8.349721	2.8895884
8.903780521486505	8.431624	2.9037259
8.921360414131055	8.510388	2.917257
8.938940517173874	8.572821	2.927938
8.956520831036297	8.69344	2.9484642
8.97410135613971	8.965955	2.9943204
8.99168209290554	9.143602	3.023839
9.009263041755265	9.460501	3.0757928
9.026844203110405	9.710235	3.1161249
9.044425577392525	9.883573	3.143815
9.062007165023239	10.010181	3.163887
9.079588966424197	10.344514	3.2162888
9.097170982017108	10.459059	3.2340467
9.11475321222372	11.476634	3.3877182
9.132335657465825	12.3993	3.5212638
9.149918318165264	12.53573	3.5405834
9.167501194743924	13.272731	3.6431758
9.18508428762374	12.928529	3.5956264
9.202667597226693	12.896599	3.5911834
9.220251123974803	12.439798	3.5270097
9.237834868290143	12.115547	3.4807394
9.255418830594836	11.801154	3.4352808
9.273003011311046	11.1969595	3.346186
9.290587410860985	10.931403	3.3062673
9.308172029666911	10.413167	3.226944
9.32575686815113	10.152048	3.1862278
9.343341926735997	8.902597	2.983722
9.360927205843916	8.586745	2.9303148
9.378512705897327	8.408065	2.8996663
9.396098427318728	8.175053	2.859205
9.413684370530664	8.026876	2.8331742
9.431270535955722	7.8800564	2.807144
9.448856924016539	7.8392606	2.7998679
9.466443535135806	7.6921453	2.7734718
9.484030369736251	7.6688952	2.769277
9.501617428240658	7.635959	2.763324
9.519204711071852	7.717662	2.778068
9.536792218652714	7.794957	2.791945
9.55437995140617	7.7966113	2.7922413
9.571967909755191	7.791381	2.7913046
9.589556094122802	7.8543425	2.80256
9.60714450493207	7.908339	2.812177
9.624733142606116	7.968931	2.8229296
9.642322007568108	7.988733	2.8264346
9.659911100241267	7.9970818	2.8279111
9.677500421048851	8.025707	2.832968
9.695089970414175	8.10295	2.846568
9.712679748760609	8.140192	2.8531022
9.730269756511557	8.183106	2.8606129
9.747859994090492	8.205708	2.8645606
9.765450461920915	8.196315	2.8629208
9.78304116042639	8.170789	2.8584592
9.800632090030527	8.150023	2.8548245
9.81822325115699	8.251301	2.8725078
9.835814644229481	8.294005	2.8799314
9.853406269671762	8.369365	2.8929853
9.870998127907646	8.405254	2.8991816
9.888590219360985	8.483479	2.912641
9.906182544455698	8.413629	2.9006255
9.923775103615734	8.346369	2.8890083
9.941367897265108	8.261289	2.8742456
9.958960925827878	8.2648945	2.874873
9.97655418972816	8.204088	2.8642778
9.994147689390106	8.169079	2.85816
10.011741425237934	8.160634	2.8566823
10.029335397695904	8.277275	2.8770254
10.04692960718833	8.366711	2.8925266
10.06452405413958	8.401167	2.8984766
10.082118738974064	8.359349	2.891254
10.099713662116246	8.313087	2.8832426
10.117308823990651	8.3229265	2.8849483
10.134904225021844	8.284835	2.8783388
10.152499865634445	8.293827	2.8799005
10.170095746253125	8.257488	2.8735845
10.18769186730261	8.1533	2.8553984
10.205288229207675	8.070363	2.8408384
10.222884832393145	8.014814	2.8310447
10.2404816772839	8.037862	2.8351123
10.258078764304868	8.116775	2.8489954
10.275676093881035	8.112342	2.8482172
10.293273666437438	8.186917	2.861279
10.310871482399158	8.155538	2.8557901
10.32846954219134	8.165373	2.8575118
10.346067846239173	8.119123	2.8494077
10.363666394967908	8.072492	2.841213
10.38126518880283	8.052392	2.8376737
10.398864228169298	8.153442	2.8554232
10.416463513492713	8.269064	2.875598
10.434063045198531	8.236629	2.8699527
10.451662823712262	8.188606	2.8615742
10.469262849459467	8.205258	2.8644822
10.486863122865758	8.119335	2.8494446
10.504463644356806	8.092386	2.844712
10.522064414358338	8.000521	2.828519
10.539665433296118	7.973955	2.8238192
10.557266701595987	7.903249	2.8112717
10.574868219683818	7.771089	2.7876673
10.592469987985552	7.65381	2.766552
10.610072006927185	7.605987	2.7578955
10.627674276934751	7.564216	2.750312
10.64527679843435	7.477233	2.734453
10.662879571852143	7.375463	2.7157803
10.680482597614331	7.2430577	2.691293
10.698085876147173	7.0719976	2.6593227
10.715689407876988	6.918727	2.6303473
10.733293193230146	6.8014774	2.6079643
10.750897232633072	6.645611	2.5779083
10.76850152651225	6.571022	2.5634005
10.786106075294207	6.503502	2.5501964
10.803710879405534	6.551913	2.5596704
10.821315939272877	6.5182714	2.5530906
10.83892125532294	6.445268	2.5387533
10.856526827982472	6.3667846	2.523249
10.874132657678285	6.3500915	2.5199387
10.891738744837243	6.2717395	2.5043442
10.909345089886271	6.2168903	2.4933693
10.926951693252343	6.1599545	2.4819255
10.944558555362494	6.095993	2.4690065
10.96216567664381	5.9640603	2.4421425
10.979773057523436	5.8798943	2.4248493
10.997380698428573	5.8280587	2.4141374
11.014988599786477	5.779609	2.4040818
11.032596762024461	5.6522927	2.377455
11.050205185569892	5.562845	2.3585684
11.067813870850198	5.520076	2.3494842
11.085422818292859	5.498171	2.3448179
11.10303202832541	5.44444	2.3333323
11.120641501375454	5.3756337	2.3185413
11.138251237870636	5.2735987	2.2964318
11.155861238238671	5.2358155	2.2881904
11.173471502907317	5.2035193	2.2811224
11.191082032304402	5.1166034	2.261991
11.208692826857805	5.01187	2.2387207
11.226303886995465	4.938942	2.222373
11.243915213145371	4.9044027	2.2145886
11.261526805735578	4.914639	2.2168984
11.279138665194196	4.885087	2.2102232
11.296750791949393	4.8481135	2.2018433
11.314363186429393	4.795205	2.1897957
11.331975849062479	4.7198725	2.1725268
11.34958878027699	4.685379	2.1645737
11.36720198050133	4.607921	2.146607
11.384815450163948	4.5674787	2.137166
11.402429189693366	4.5020857	2.1218119
11.420043199518153	4.4729333	2.114931
11.437657480066942	63.41477	7.963339
11.455272031768422	85.11688	9.225882
11.472886855051353	107.50036	10.3682375
11.490501950344528	99.05344	9.952559
11.508117318076819	84.41337	9.1876745
11.52573295867715	45.854736	6.7716126
11.543348872574514	4.1859694	2.0459642
11.560965060197946	4.1468525	2.0363822
11.57858152197655	4.0852594	2.0212026
11.59619825833949	4.0675335	2.0168128
11.613815269715985	4.045475	2.0113366
11.631432556535323	38.515553	6.20609
11.649050119226837	83.004135	9.110661
11.666667958219929	93.398476	9.6642885
11.68428607394406	107.71801	10.378729
11.701904466828756	82.57273	9.086954
11.719523137303586	65.42525	8.088588
11.737142085798196	4.6529107	2.1570606
11.754761312742286	3.7504175	1.9365995
11.772380818565619	3.6533966	1.911386
11.790000603698015	3.5840876	1.8931687
11.80762066856935	3.544694	1.8827357
11.825241013609572	3.5714102	1.8898175
11.842861639248683	3.5618508	1.8872867
11.860482545916748	3.5447266	1.8827444
11.878103734043883	3.4349723	1.8533678
11.895725204060282	3.3848863	1.8398061
11.91334695639619	3.3612442	1.8333696
11.930968991481919	3.4088402	1.8463044
11.948591309747824	3.4060602	1.8455515
11.966213911624347	3.3715088	1.8361669
11.98383679754198	3.3160598	1.8210052
12.001459967931268	3.3121495	1.8199311
12.019083423222835	3.285521	1.8126006
12.036707163847352	3.278714	1.810722
12.05433119023556	3.2238402	1.7955055
12.071955502818259	3.2147787	1.7929804
12.089580102026313	3.1880913	1.7855227
12.107204988290643	3.1893067	1.785863
12.12483016204224	3.1416452	1.7724687
12.142455623712152	3.1106117	1.7636926
12.16008137373149	3.1032026	1.761591
12.177707412531431	3.1210082	1.7666376
12.19533374054321	3.090422	1.7579596
12.212960358198126	3.054588	1.747738
12.230587265927545	3.0164192	1.7367841
12.248214464162889	3.0143628	1.736192
12.265841953335649	3.0385187	1.7431347
12.283469733877375	3.0478888	1.7458204
12.301097806219685	3.0653415	1.7508117
12.31872617079425	3.0754716	1.7537023
12.336354828032825	2.9940667	1.7303371
12.353983778367205	2.9409957	1.7149332
12.371613022229262	2.930534	1.7118802
12.389242560050928	2.8923626	1.7006947
12.406872392264201	2.9081652	1.7053343
12.424502519301143	2.9178782	1.7081798
12.442132941593874	2.8975315	1.7022138
12.459763659574586	2.8752472	1.6956553
12.477394673675532	2.8435547	1.6862843
12.49502598432903	2.844867	1.6866734
12.51265759196746	2.8412354	1.6855965
12.530289497023267	2.8766067	1.6960562
12.547921699928967	2.9032369	1.7038888
12.565554201117134	2.9036345	1.7040055
12.583187001020404	2.8842616	1.6983114
12.600820100071486	2.86695	1.693207
12.618453498703152	2.8365436	1.6842041
12.636087197348235	2.7817848	1.6678684
12.65372119643964	2.7454226	1.6569316
12.671355496410326	2.746031	1.6571152
12.68899009769333	2.7989352	1.6730019
12.706625000721749	2.8604743	1.6912937
12.724260205928752	2.8885202	1.6995647
12.741895713747551	2.920847	1.7090485
12.759531524611454	2.9677598	1.7227187
12.777167638953818	2.9911747	1.7295012
12.794804057208072	3.0086532	1.734547
12.812440779807702	3.041654	1.7440338
12.830077807186271	3.1950371	1.7874666
12.847715139777405	3.2566807	1.8046275
12.865352778014795	3.4584782	1.8596984
12.882990722332197	3.590698	1.8949137
12.90062897316344	3.673171	1.9165518
12.918267530942412	3.7163763	1.9277905
12.935906396103071	3.5872245	1.893997
12.953545569079449	3.7664583	1.9407365
12.971185050305628	3.6340656	1.9063226
12.988824840215775	3.6387272	1.9075449
13.006464939244115	3.6188471	1.9023268
13.024105347824943	3.4307904	1.8522393
13.041746066392617	3.528928	1.8785441
13.05938709538157	3.3046136	1.8178596
13.077028435226296	3.3119528	1.8198771
13.094670086361363	3.201349	1.7892314
13.112312049221401	3.1358433	1.7708312
13.129954324241112	3.0620563	1.7498733
13.147596911855258	2.9075828	1.7051636
13.165239812498685	2.8318672	1.6828153
13.182883026606293	2.7428324	1.6561499
13.200526554613058	2.6821547	1.6377285
13.218170396954017	2.662967	1.63186
13.235814554064284	2.6539106	1.6290828
13.253459026379034	2.6614678	1.6314006
13.271103814333523	2.6428502	1.6256845
13.288748918363058	2.6429558	1.625717
13.306394338903031	2.6751668	1.6355938
13.32404007638889	2.7008255	1.6434188
13.341686131256164	2.7115445	1.6466768
13.359332503940449	2.6785843	1.6366382
13.376979194877402	2.6397672	1.6247361
13.394626204502751	2.636081	1.6236012
13.412273533252307	2.6245875	1.6200578
13.429921181561937	2.635673	1.6234756
13.447569149867581	2.6869168	1.6391817
13.465217438605247	2.7134342	1.6472505
13.482866048211022	2.688954	1.639803
13.500514979121052	2.6889272	1.6397948
13.518164231771568	2.68102	1.637382
13.535813806598844	2.7264142	1.6511858
13.553463704039254	2.6942577	1.6414194
13.571113924529229	2.7143974	1.6475428
13.588764468505275	2.7061749	1.6450455
13.606415336403956	2.7365968	1.6542662
13.624066528661917	2.7363591	1.6541944
13.641718045715882	2.7565641	1.6602904
13.659369888002635	2.7966607	1.6723219
13.67702205595903	2.8833644	1.6980473
13.694674550021993	2.983752	1.727354
13.712327370628532	3.0820894	1.755588
13.729980518215713	3.113216	1.7644308
13.747633993220681	3.1805604	1.7834126
13.765287796080647	3.2120442	1.7922177
13.7829419272329	3.3187177	1.8217348
13.800596387114801	3.3780167	1.8379382
13.818251176163775	3.3875747	1.8405365
13.835906294817324	3.358305	1.8325678
13.853561743513023	3.3183756	1.8216408
13.871217522688525	3.3484213	1.8298693
13.888873632781538	3.4273634	1.851314
13.906530074229858	3.5079036	1.8729398
13.92418684747135	3.5507102	1.8843328
13.941843952943948	3.5447676	1.8827553
13.959501391085665	3.5294676	1.8786877
13.977159162334578	3.4502473	1.8574841
13.994817267128846	3.3400786	1.8275882
14.012475705906693	3.2250655	1.7958467
14.030134479106424	3.1301033	1.7692099
14.047793587166414	3.0458293	1.7452304
14.065453030525108	3.0009446	1.7323235
14.083112809621026	2.9750702	1.7248392
14.100772924892766	2.9373012	1.7138556
14.118433376778997	2.8965468	1.7019244
14.136094165718458	2.818952	1.6789736
14.153755292149969	2.7354653	1.6539242
14.171416756512416	2.6904843	1.6402695
14.189078559244768	2.635632	1.623463
14.20674070078606	2.5856884	1.6080076
14.224403181575408	2.5189898	1.5871326
14.242066002051999	2.4788756	1.5744445
14.259729162655093	2.4624205	1.5692102
14.277392663824022	2.4692984	1.5714002
14.295056505998208	2.4673302	1.5707737
14.312720689617128	2.5046587	1.5826113
14.330385215120348	2.4737055	1.5728018
14.348050082947497	2.461527	1.5689255
14.3657152935383	2.3976338	1.5484295
14.383380847332528	2.4147258	1.5539387
14.401046744770051	2.4169934	1.5546683
14.418712986290798	2.423873	1.5568793
14.436379572334793	2.4076443	1.5516585
14.454046503342123	2.3878622	1.5452709
14.471713779752946	2.3983133	1.5486488
14.489381402007504	2.4075673	1.5516337
14.507049370546113	2.4152792	1.5541168
14.524717685809168	2.408557	1.5519526
14.542386348237134	2.3769712	1.5417429
14.560055358270553	2.3689525	1.5391402
14.577724716350051	2.4186325	1.5551953
14.595394422916325	2.4358122	1.5607089
14.61306447841015	2.4892979	1.5777509
14.63073488327237	2.4978387	1.5804552
14.648405637943917	2.4955246	1.579723
14.6660767428658	2.4513423	1.5656763
14.683748198479094	2.4686663	1.571199
14.701420005224954	2.5252097	1.5890908
14.719092163544628	2.6473808	1.6270773
14.73676467387942	2.7128084	1.6470605
14.754437536670727	2.740086	1.6553205
14.772110752360014	2.73631	1.6541796
14.78978432138882	2.7251675	1.6508081
14.807458244198777	2.717642	1.6485273
14.82513252123159	2.6952808	1.641731
14.842807152929028	2.7202601	1.6493211
14.860482139732962	2.7219594	1.6498362
14.87815748208531	2.7227628	1.6500796
14.8958331804281	2.6870337	1.6392174
14.91350923520342	2.6481278	1.6273069
14.931185646853438	2.6307976	1.6219734
14.948862415820408	2.6535375	1.6289682
14.966539542546656	2.724964	1.6507465
14.98421702747459	2.6912744	1.6405104
15.001894871046696	2.6606514	1.6311504
15.019573073705542	2.6827323	1.6379049
15.037251635893766	2.6702244	1.6340821
15.054930558054092	2.6664124	1.6329153
15.072609840629323	2.6735969	1.6351137
15.090289484062351	2.802907	1.6741885
15.107969488796124	3.0941749	1.7590266
15.125649855273691	3.5261416	1.8778024
15.14333058393817	4.0251875	2.006287
15.161011675232768	5.0020523	2.2365267
15.17869312960076	6.4139905	2.5325856
15.196374947485506	8.232524	2.8692374
15.214057129330447	11.236477	3.3520854
15.231739675579114	15.847453	3.980886
15.249422586675102	21.031544	4.586016
15.267105863062092	24.39465	4.939094
15.284789505183847	24.972656	4.997265
15.302473513484218	23.01843	4.797753
15.320157888407127	19.360968	4.40011
15.337842630396578	14.97968	3.8703592
15.355527739896656	11.541973	3.397348
15.37321321735153	8.929001	2.9881434
15.39089906320545	6.4956746	2.5486612
15.408585277902748	4.902762	2.2142181
15.42627186188783	3.8063943	1.9509983
15.443958815605198	3.235672	1.7987974
15.461646139499424	2.8958766	1.7017275
15.479333834015168	2.7182856	1.6487224
15.497021899597165	2.6648417	1.6324342
15.514710336690234	2.6251874	1.620243
15.53239914573928	2.5898156	1.6092904
15.550088327189297	2.5450244	1.5953133
15.567777881485336	2.5028243	1.5820317
15.58546780907256	2.5163443	1.586299
15.6031581103962	2.5195339	1.587304
15.620848785901568	2.5048342	1.5826668
15.638539836034063	2.471543	1.5721142
15.656231261239173	2.4450822	1.5636759
15.673923061962451	2.4230127	1.556603
15.691615238649552	2.4096777	1.5523137
15.709307791746202	2.407849	1.5517246
15.727000721698221	2.4082992	1.5518696
15.744694028951498	2.4083066	1.551872
15.76238771395202	2.4074082	1.5515825
15.780081777145844	2.4005976	1.5493861
15.797776218979125	2.3706822	1.5397019
15.815471039898094	2.3419218	1.5303339
15.833166240349064	2.3191187	1.5228653
15.850861820778437	2.3674755	1.5386603
15.868557781632699	2.391424	1.546423
15.886254123358412	2.4060316	1.5511388
15.903950846402232	2.4231863	1.5566587
15.921647951210897	2.420891	1.5559213
15.939345438231225	2.3805234	1.5428945
15.957043307910133	2.3782182	1.5421473
15.974741560694602	2.3706372	1.5396874
15.992440197031714	2.4121234	1.5531012
16.01013921736862	2.4045515	1.5506617
16.02783862215259	2.4031653	1.5502146
16.045538411830933	2.382887	1.5436603
16.06323858685107	2.381762	1.5432959
16.080939147660512	2.3665159	1.5383484
16.09864009470684	2.3702228	1.5395528
16.11634142843774	2.3594317	1.5360442
16.134043149300954	2.379998	1.5427243
16.15174525774433	2.3846416	1.5442286
16.169447754215817	2.3784094	1.5422093
16.18715063916342	2.3727636	1.5403777
16.204853913035244	2.3547847	1.5345308
16.222557576279478	2.3705082	1.5396454
16.240261629344403	22.364363	4.7290974
16.257966072678386	42.93322	6.552345
16.275670906729868	38.061733	6.1694193
16.293376131947387	2.4939942	1.5792385
16.31108174877957	2.5201457	1.5874966
16.328787757675133	2.5381916	1.5931703
16.34649415908287	2.5544782	1.5982735
16.364200953451657	2.5764391	1.605129
16.38190814123048	2.598814	1.6120838
16.39961572286839	2.6225772	1.6194373
16.41732369881455	2.6756775	1.6357498
16.43503206951817	2.7447124	1.6567173
16.45274083542859	2.7559566	1.6601074
16.47044999699522	2.7603297	1.661424
16.488159554667558	2.7912931	1.6707164
16.505869508895184	2.9002519	1.7030126
16.523579860127786	2.9426227	1.7154075
16.541290608815117	2.9729264	1.7242177
16.559001755407035	2.992862	1.729989
16.57671330035348	3.0471053	1.7455959
16.59442524410448	3.1285236	1.7687633
16.61213758711015	3.2061262	1.7905658
16.629850329820705	3.2396927	1.7999146
16.647563472686436	3.295619	1.815384
16.665277016157724	3.3308148	1.825052
16.682990960685053	3.4047105	1.8451858
16.70070530671898	3.4916098	1.868585
16.718420054710155	3.5142233	1.8746262
16.736135205109335	3.52628	1.8778392
16.753850758367335	3.5522423	1.8847393
16.771566714935087	3.6297555	1.9051918
16.789283075263597	3.695862	1.9224625
16.80699983980398	3.749316	1.9363151
16.82471700900741	3.8668876	1.9664403
16.84243458332518	3.956677	1.9891398
16.860152563208665	3.9907913	1.9976965
16.87787094910932	4.0278077	2.00694
16.89558974147871	4.059662	2.0148602
16.913308940768466	4.126966	2.0314934
16.931028547430333	4.1805534	2.04464
16.94874856191613	4.208009	2.0513432
16.966468984677785	4.2797794	2.0687628
16.98418981616729	4.340018	2.083271
17.00191105683676	4.4240146	2.1033342
17.019632707138374	4.4800057	2.1166024
17.03735476752442	4.540168	2.1307669
17.05507723844728	4.6349006	2.1528819
17.072800120359403	4.669786	2.1609688
17.090523413713353	4.6674066	2.160418
17.108247118961785	4.624972	2.1505747
17.125971236557437	4.643252	2.1548207
17.143695766953133	4.651193	2.1566625
17.161420710601806	4.670258	2.161078
17.179146067956477	4.6992416	2.1677735
17.19687183947025	4.740556	2.1772816
17.21459802559634	4.6898084	2.1655965
17.232324626788028	4.600214	2.144811
17.25005164349871	4.55651	2.1345983
17.267779076181863	4.5805016	2.1402106
17.285506925291074	4.5981097	2.1443202
17.30323519127999	4.601123	2.1450229
17.320963874602384	4.603985	2.1456897
17.33869297571211	4.581619	2.1404717
17.356422495063114	4.562085	2.1359038
17.37415243310944	4.575517	2.139046
17.391882790305218	4.5338554	2.129285
17.40961356710468	4.500706	2.121487
17.42734476396215	4.4785433	2.116257
17.445076381332044	4.4555774	2.1108239
17.462808419668868	4.5073204	2.123045
17.48054087942723	4.6718936	2.1614563
17.498273761061835	4.9836516	2.2324095
17.51600706502747	5.469662	2.3387308
17.533740791779024	6.1786165	2.4856822
17.551474941771485	7.5769467	2.7526255
17.56920951545993	8.674751	2.9452932
17.586944513299528	10.944689	3.3082757
17.60467993574556	12.738802	3.569146
17.622415783253373	14.570106	3.8170807
17.64015205627843	16.047895	4.0059824
17.657888755276293	17.154316	4.141777
17.675625880702604	17.712536	4.2086263
17.69336343301311	17.57841	4.1926613
17.71110141266366	16.675985	4.083624
17.728839820110178	15.561539	3.9448116
17.746578655808705	14.551299	3.8146164
17.764317920215372	13.031099	3.6098614
17.7820576137864	11.547988	3.3982332
17.79979773697811	9.558001	3.0916016
17.81753829024692	7.55195	2.7480812
17.835279274049356	5.770328	2.4021506
17.85302068884201	4.7140946	2.1711967
17.870762535081607	4.1106114	2.0274644
17.888504813224934	3.819698	1.9544048
17.90624752372891	3.6497755	1.9104385
17.923990667050536	3.578134	1.8915956
17.941734243646895	3.5260015	1.877765
17.959478253975185	3.506526	1.8725721
17.9772226984927	3.4756207	1.8643017
17.994967577656833	3.4205563	1.8494745
18.01271289192506	3.3690612	1.8355002
18.030458641754965	3.3506958	1.8304906
18.04820482760425	3.3829486	1.8392794
18.06595144993067	3.378743	1.8381357
18.083698509192125	3.327466	1.8241343
18.101446005846576	3.2742205	1.8094807
18.119193940352105	3.241677	1.8004658
18.136942313166887	3.23853	1.7995915
18.1546911247492	3.2289362	1.7969241
18.1724403755574	3.1985686	1.7884543
18.19019006604997	3.1256914	1.7679625
18.207940196685467	3.09353	1.7588433
18.225690767922575	3.0798507	1.7549503
18.243441780220046	3.119801	1.7662959
18.261193234036764	3.138609	1.7716119
18.278945129831676	3.119925	1.766331
18.29669746806386	3.09067	1.7580302
18.314450249192483	3.074455	1.7534124
18.3322034736768	3.0626876	1.7500536
18.349957141976184	3.0437973	1.7446482
18.3677112545501	3.059791	1.7492259
18.385465811858108	3.0485408	1.7460071
18.403220814359884	3.0323384	1.741361
18.420976262515172	3.0590475	1.7490133
18.43873215678387	3.132592	1.769913
18.456488497625923	3.1996162	1.7887471
18.474245285501407	3.2655032	1.8070704
18.492002520870486	3.270477	1.808446
18.50976020419343	3.3437479	1.8285918
18.527518335930615	3.6449366	1.9091717
18.545276916542516	4.214657	2.052963
18.563035946489688	4.3742986	2.0914824
18.580795426232832	4.8662024	2.2059472
18.598555356232698	4.7788615	2.1860607
18.616315736950185	5.0183372	2.2401645
18.63407656884626	4.5991755	2.144569
18.65183785238201	4.80954	2.1930664
18.669599588018617	4.6705337	2.1611416
18.68736177621737	4.707675	2.1697178
18.705124417439652	4.634242	2.152729
18.72288751214696	4.3773794	2.0922189
18.740651060800886	4.52093	2.126248
18.758415063863115	4.260425	2.0640798
18.77617952179546	4.45794	2.1113834
18.793944435059814	4.1868105	2.0461698
18.811709804118184	4.235666	2.0580733
18.829475629432675	4.2011976	2.0496824
18.8472419114655	4.0054336	2.001358
18.86500865067897	4.058668	2.0146136
18.88277584753551	3.7141593	1.9272155
18.90054350249763	3.7943702	1.9479144
18.918311616027957	3.4669597	1.8619773
18.936080188589226	3.3364732	1.8266015
18.953849220644265	2.9939778	1.7303115
18.971618712656007	2.8244925	1.6806227
18.9893886650875	2.7935667	1.6713966
19.007159078401887	7.9877367	2.8262584
19.024929953062408	32.89354	5.735289
19.042701289532435	32.810722	5.7280645
19.060473088275405	25.373226	5.0371842
19.07824534975489	2.6821897	1.6377392
19.096018074434568	2.7092626	1.6459838
19.113791262778197	2.6839569	1.6382786
19.13156491524966	2.6438267	1.6259848
19.149339032312945	2.5840685	1.6075038
19.167113614432136	2.5526738	1.597709
19.184888662071433	2.531286	1.5910016
19.202664175695123	2.5337224	1.5917671
19.220440155767623	2.5260298	1.5893489
19.238216602753447	2.5285401	1.5901384
19.2559935171172	2.5568697	1.5990216
19.27377089932361	2.566798	1.6021229
19.291548749837514	2.5529616	1.597799
19.309327069123835	2.5320723	1.5912486
19.32710585764763	2.521681	1.5879802
19.344885115874032	2.5318162	1.5911682
19.362664844268313	2.5138855	1.5855237
19.380445043295822	2.4577696	1.5677276
19.39822571342203	2.4174383	1.5548114
19.41600685511252	2.4493752	1.565048
19.43378846883297	2.4932249	1.5789949
19.451570555049173	2.4996586	1.5810308
19.469353114227037	2.4887338	1.5775721
19.48713614683254	2.5007885	1.5813881
19.50491965333182	2.5477028	1.5961525
19.52270363419109	2.5892508	1.6091149
19.540488089876686	2.5457666	1.5955459
19.55827302085503	2.495709	1.5797813
19.576058427592674	2.4566367	1.5673661
19.593844310556282	2.462872	1.569354
19.611630670212598	2.4765558	1.5737077
19.629417507028506	2.4771705	1.573903
19.64720482147098	2.4749715	1.5732043
19.6649926140071	2.4548936	1.56681
19.682780885104084	2.481572	1.5753006
19.70056963522921	2.5023682	1.5818876
19.718358864849908	2.513223	1.5853148
19.7361485744337	2.5368252	1.5927414
19.753938764448215	2.521052	1.587782
19.771729435361202	2.5320776	1.5912503
19.789520587640506	2.4885771	1.5775225
19.807312221754092	2.489608	1.5778491
19.825104338170043	2.4886296	1.5775391
19.842896937356517	2.5402637	1.5938205
19.860690019781824	2.5210993	1.587797
19.87848358591436	2.5214539	1.5879086
19.896277636222635	2.5329614	1.5915279
19.914072171175278	2.5546656	1.5983322
19.931867191241015	2.507512	1.5835125
19.94966269688869	2.479957	1.574788
19.967458688587264	2.4703794	1.5717441
19.985255166805807	2.495037	1.5795686
20.00305213201348	2.4904277	1.5781089
20.020849584679578	2.501587	1.5816406
20.038647525273507	2.4658275	1.5702953
20.05644595426477	2.4526649	1.5660986
20.07424487212299	2.4696653	1.5715169
20.092044279317903	2.4617596	1.5689995
20.109844176319353	2.4268076	1.5578214
20.127644563597304	2.410135	1.5524609
20.145445441621817	2.4283605	1.5583198
20.16324681086307	2.4291563	1.558575
20.181048671791373	2.391484	1.5464424
20.198851024877122	2.3815012	1.5432113
20.216653870590836	2.3687794	1.539084
20.234457209403146	2.363512	1.5373718
20.252261041784802	2.369001	1.539156
20.270065368206662	2.3373086	1.5288259
20.287870189139685	2.33373	1.527655
20.305675505054968	2.3552775	1.5346913
20.323481316423702	2.4020689	1.549861
20.341287623717207	2.4077075	1.5516789
20.359094427406884	2.3533375	1.5340592
20.376901727964288	2.3432517	1.5307684
20.39470952586107	2.3594625	1.5360543
20.41251782156899	2.386969	1.544982
20.430326615559935	2.3659513	1.5381649
20.448135908305886	2.338613	1.5292524
20.465945700278965	2.3518505	1.5335745
20.483755991951384	2.3732514	1.540536
20.50156678379548	2.3737288	1.540691
20.519378076283708	2.358507	1.5357431
20.537189869888635	2.3494484	1.532791
20.55500216508294	2.3474305	1.5321326
20.572814962339415	2.3300982	1.5264659
20.59062826213098	2.3130293	1.5208646
20.60844206493066	2.330124	1.5264744
20.626256371211593	2.3635938	1.5373983
20.644071181447032	2.3651342	1.5378993
20.66188649611036	2.335096	1.528102
20.67970231567506	2.3483953	1.5324475
20.697518640614742	2.3476648	1.5322092
20.715335471403122	2.313715	1.52109
20.73315280851404	2.266485	1.5054849
20.750970652421447	2.2719402	1.5072957
20.768789003599412	2.300524	1.5167478
20.786607862522136	2.3347938	1.5280032
20.8044272296639	2.316526	1.5220138
20.82224710549913	2.3158803	1.5218017
20.84006749050237	2.3105216	1.52004
20.857888385148268	3.8837035	1.9707115
20.8757097899116	45.953064	6.778869
20.893531705267254	64.80986	8.050457
20.911354131690224	83.8299	9.155868
20.92917706965566	69.09128	8.312117
20.94700051963877	50.172863	7.0832806
20.96482448211493	29.4088	5.422988
20.982648957559622	4.1482906	2.0367353
21.00047394644843	2.232925	1.4942975
21.01829944925707	2.2444668	1.4981544
21.036125466461375	2.2248733	1.4916009
21.053951998537297	2.2604601	1.5034827
21.071779045960906	2.256241	1.5020789
21.089606609208378	2.2591763	1.5030557
21.10743468875603	2.2390785	1.496355
21.12526328508028	2.2488034	1.4996011
21.143092398657675	2.2824795	1.5107877
21.16092202996488	2.2690222	1.5063274
21.17875217947867	2.2356484	1.4952085
21.19658284767596	2.1458604	1.4648756
21.21441403503377	2.1106064	1.4527926
21.232245742029225	2.1201355	1.4560685
21.2500779691396	2.1751184	1.4748282
21.26791071684227	2.20635	1.4853787
21.28574398561475	2.1793878	1.476275
21.30357777593465	2.128567	1.4589609
21.321412088279704	2.115277	1.4543992
21.339246923127792	2.1116219	1.453142
21.357082280956888	2.1090033	1.4522408
21.3749181622451	2.1239414	1.4573748
21.392754567470647	2.1479928	1.4656032
21.41059149711187	2.1577787	1.468938
21.42842895164726	2.174917	1.4747599
21.446266931555378	2.1530266	1.4673195
21.464105437314945	2.1196883	1.455915
21.481944469404798	2.1209822	1.4563593
21.49978402830388	2.1182275	1.4554132
21.51762411449127	2.1547666	1.4679123
21.53546472844617	2.1501029	1.4663229
21.553305870647876	2.1562555	1.4684194
21.571147541575865	2.1274145	1.458566
21.58898974170967	2.0909712	1.446019
21.60683247152899	2.0746422	1.4403619
21.62467573151363	2.0840673	1.4436299
21.642519522143523	2.0907974	1.445959
21.660363843898722	2.0847535	1.4438676
21.6782086972594	2.078458	1.4416858
21.696054082705864	2.060013	1.4352746
21.713900000718535	2.0455887	1.4302408
21.73174645177795	2.0430746	1.4293616
21.749593436364794	2.0322576	1.4255728
21.767440954959845	2.0139046	1.419121
21.785289008044032	1.9849776	1.4088923
21.803137596098388	1.956281	1.3986712
21.820986719604086	1.9467717	1.3952676
21.838836379042412	1.9973102	1.4132622
21.85668657489478	2.0482852	1.4311832
21.87453730764273	2.0709243	1.4390706
21.892388577767914	2.028678	1.4243166
21.91024038575213	1.9990473	1.4138767
21.928092732077285	2.025614	1.4232407
21.945945617225426	2.0048718	1.4159349
21.963799041678694	1.979944	1.4071048
21.981653005919398	31.295828	5.5942674
21.999507510429943	78.10408	8.837651
22.01736255569286	73.06112	8.54758
22.035218142190818	4.18332	2.0453167
22.05307427040661	2.0052083	1.4160538
22.07093094082315	1.995768	1.4127165
22.088788153923474	1.9886556	1.410197
22.106645910190746	1.9726176	1.404499
22.12450421010827	1.9649513	1.4017673
22.142363054159464	1.9853997	1.4090421
22.16022244282787	1.9988776	1.4138167
22.178082376597164	2.0021615	1.4149776
22.195942855951145	1.9776379	1.4062852
22.213803881373742	1.991437	1.4111829
22.231665453349002	2.0009348	1.414544
22.24952757236111	2.0221674	1.4220294
22.26739023889438	2.0347466	1.4264455
22.28525345343323	2.0258949	1.4233394
22.30311721646225	2.0117805	1.4183725
22.320981528466113	2.0061111	1.4163725
22.33884638992964	1.9868939	1.4095722
22.356711801337788	1.9815451	1.4076736
22.37457776317561	1.9881189	1.4100066
22.392444275928337	1.9749504	1.4053293
22.410311340081282	1.9616046	1.4005729
22.428178956119904	1.9510301	1.3967928
22.446047124529805	1.9666207	1.4023626
22.46391584579669	1.977583	1.4062656
22.481785120406414	1.9820197	1.4078422
22.49965494884496	1.9551333	1.3982608
22.51752533159841	1.9553214	1.3983281
22.53539626915302	1.9391098	1.3925192
22.553267761995137	1.941814	1.3934898
22.571139810611264	1.9206655	1.3858807
22.589012415488025	1.9705812	1.4037739
22.60688557711216	2.0006838	1.4144553
22.624759295970566	2.0065038	1.4165112
22.642633572550263	1.9457531	1.3949026
22.660508407338362	1.9181617	1.3849772
22.67838380082217	1.9254007	1.3875881
22.696259753489077	1.9457976	1.3949184
22.714136265826614	1.9734954	1.4048115
22.73201333832246	1.9428777	1.3938714
22.74989097146439	1.9221298	1.3864089
22.76776916574035	1.9263736	1.3879386
22.785647921638393	1.9660872	1.4021723
22.803527239646712	1.945657	1.3948681
22.82140712025363	1.9565319	1.3987608
22.839287563947593	1.9409988	1.3931973
22.85716857121719	1.9206307	1.3858682
22.875050142551135	1.8973924	1.3774587
22.892932278438277	1.9188732	1.385234
22.910814979367604	1.9277749	1.3884434
22.928698245828222	1.9100629	1.3820503
22.946582078309387	1.88834	1.3741689
22.96446647730047	1.889193	1.3744792
22.98235144329098	1.8767481	1.3699446
23.000236976770562	1.902215	1.3792081
23.018123078229	1.9203057	1.385751
23.03600974815619	1.9776931	1.4063047
23.053896987042194	1.9646921	1.4016747
23.071784795377173	1.9327178	1.3902222
23.08967317365145	1.8627937	1.364842
23.10756212235546	1.8366055	1.3552142
23.125451641979787	1.8544365	1.361777
23.143341733015134	1.8974761	1.3774891
23.161232395952357	1.9493574	1.3961939
23.179123631282426	1.9628133	1.4010044
23.197015439496468	1.9673787	1.4026328
23.214907821085717	1.9528939	1.3974597
23.23280077654157	1.91176	1.3826641
23.250694306355538	1.9037241	1.379755
23.268588411019277	1.9394134	1.3926282
23.28648309102458	1.9703338	1.4036858
23.304378346863356	1.9660848	1.4021715
23.322274179027676	1.9538834	1.3978138
23.340170588009723	1.9219662	1.3863499
23.358067574301852	1.9034065	1.37964
23.37596513839651	1.8947035	1.3764822
23.39386328078629	1.8903702	1.3749074
23.411762001963947	1.8914872	1.3753135
23.429661302422353	1.9004655	1.3785737
23.4475611826545	1.8956065	1.3768103
23.46546164315356	1.8933216	1.3759803
23.48336268441279	1.9110388	1.3824033
23.501264306925638	1.9342275	1.3907651
23.51916651118564	1.9485133	1.3958915
23.537069297686497	1.935124	1.3910874
23.554972666922037	1.902545	1.3793278
23.57287661938623	1.8661064	1.366055
23.59078115557318	1.8733194	1.3686926
23.608686275977128	1.8748262	1.3692429
23.62659198109246	1.9271584	1.3882213
23.6444982714137	1.9721819	1.404344
23.66240514743549	1.9598207	1.399936
23.68031260965263	1.9253623	1.3875743
23.698220658560068	1.8884997	1.3742269
23.716129294652845	1.8963977	1.3770976
23.7340385184262	1.9089389	1.3816435
23.75194833037546	1.8889972	1.3744079
23.769858730996123	1.8618355	1.3644909
23.78776972078382	1.8507254	1.3604137
23.80568130023431	1.8676833	1.3666321
23.823593469843495	1.9014074	1.3789153
23.841506230107424	1.9355972	1.3912574
23.859419581522275	1.9546851	1.3981005
23.87733352458438	1.9476886	1.3955961
23.89524805979019	1.9452503	1.3947223
23.913163187636318	1.9554782	1.3983841
23.931078908619508	1.9676493	1.4027293
23.948995223236633	1.989852	1.4106212
23.966912131984735	2.001554	1.4147629
23.98482963536096	1.989151	1.4103726
24.002747733862616	1.9828061	1.4081215
24.020666427987155	2.0192292	1.4209958
24.038585718232156	2.022745	1.4222324
24.056505605095353	2.035843	1.4268297
24.074426089074617	2.0500853	1.4318119
24.092347170667946	2.055569	1.4337256
24.110268850373515	2.0703166	1.4388595
24.128191128689586	2.0649374	1.436989
24.146114006114626	2.0204515	1.4214259
24.164037483147187	2.0272396	1.4238117
24.181961560286005	2.049249	1.4315197
24.199886238029926	2.0650363	1.4370234
24.21781151687797	2.0471907	1.4308007
24.235737397329274	2.0799618	1.4422072
24.253663879883135	2.084196	1.4436746
24.271590965038975	2.0773935	1.4413166
24.289518653296376	2.0190935	1.4209481
24.30744694515505	1.979596	1.4069812
24.32537584111486	1.9759985	1.4057021
24.34330534167581	2.002608	1.4151354
24.361235447338046	2.0674381	1.4378588
24.379166158601876	2.10347	1.4503344
24.39709747596772	2.0777986	1.4414572
24.41502939993615	2.0390794	1.4279634
24.432961931007917	2.0039883	1.415623
24.450895069683856	1.9800556	1.4071444
24.468828816465	1.9560982	1.3986058
24.4867631718525	1.995465	1.4126093
24.504698136347656	2.001247	1.4146544
24.52263371045192	1.988734	1.4102248
24.540569894666874	1.9737782	1.4049122
24.558506689494266	1.9677337	1.4027593
24.57644409543597	1.948611	1.3959266
24.594382112994012	1.9347489	1.3909525
24.61232074267057	1.9337592	1.3905967
24.630259984967953	1.9606777	1.400242
24.64819984038863	1.967566	1.4026996
24.66614030943522	1.9731028	1.4046718
24.684081392610462	1.9942558	1.4121813
24.702023090417274	2.0037127	1.4155256
24.7199654033587	2.034203	1.4262549
24.737908331937927	2.0310102	1.4251351
24.755851876658305	2.0645652	1.4368595
24.773796038023324	2.0627918	1.4362422
24.79174081653661	2.083208	1.4433323
24.809686212701962	2.0716782	1.4393325
24.827632227023294	2.0493984	1.431572
24.8455788600047	2.0262449	1.4234623
24.8635261121504	2.073867	1.4400927
24.88147398396475	2.1233144	1.4571596
24.899422475952303	2.1066525	1.4514312
24.917371588617698	2.0869277	1.4446203
24.935321322465768	2.1094239	1.4523855
24.953271678001478	2.2618387	1.503941
24.97122265572994	2.496287	1.5799643
24.989174256156414	2.827339	1.6814693
25.00712647978632	3.2605522	1.8057
25.02507932712521	3.7897341	1.9467239
25.043032798678798	4.319353	2.0783052
25.060986894952933	4.989854	2.233798
25.078941616453637	5.777632	2.4036705
25.096896963687055	6.791056	2.6059654
25.114852937159508	7.9387	2.81757
25.132809537377444	8.424502	2.9024994
25.150766764847468	8.413316	2.9005716
25.168724620076347	7.829369	2.798101
25.186683103570985	6.8266263	2.6127813
25.204642215838426	5.676709	2.3825846
25.222601957385894	4.271054	2.0666528
25.24056232872074	3.237716	1.7993654
25.25852333035048	2.619742	1.6185616
25.276484962782778	2.2170866	1.4889884
25.294447226525435	2.0412478	1.4287225
25.312410122086423	1.9849957	1.4088987
25.330373649973843	1.940908	1.3931648
25.348337810695988	1.9107132	1.3822855
25.366302604761245	1.9537728	1.3977742
25.384268032678207	1.9531614	1.3975555
25.40223409495558	1.9473767	1.3954844
25.420200792102257	1.9049573	1.3802019
25.438168124627246	1.9085062	1.3814869
25.45613609303974	1.900176	1.3784688
25.474104697849057	1.9111146	1.3824307
25.492073939564698	1.8870981	1.3737168
25.510043818696285	1.8755813	1.3695186
25.528014335753614	1.906165	1.3806393
25.54598549124664	1.9578868	1.3992451
25.56395728568544	1.9600914	1.4000326
25.58192971958028	1.9222991	1.3864701
25.59990279344156	1.8849734	1.3729433
25.617876507779833	1.8906342	1.3750033
25.635850863105826	1.9254843	1.3876182
25.653825859930386	1.9207271	1.385903
25.671801498764548	1.867712	1.3666426
25.68977778011949	1.8302708	1.352875
25.707754704506524	1.8526037	1.3611039
25.725732272437153	1.8578203	1.3630188
25.743710484423012	1.8668725	1.3663354
25.761689340975888	1.8221917	1.3498858
25.77966884260774	1.8680779	1.3667765
25.797648989830662	1.9067806	1.3808622
25.815629783156922	1.9170665	1.3845817
25.83361122309895	1.8391569	1.3561552
25.85159331016929	1.8429471	1.3575519
25.869576044880695	1.8753681	1.3694408
25.887559427746034	1.8761753	1.3697355
25.90554345927836	1.8577145	1.36298
25.92352813999086	1.8576984	1.3629742
25.94151347039689	1.8653314	1.3657714
25.959499451009965	1.7992532	1.3413625
25.97748608234374	1.8152492	1.3473119
25.995473364912062	1.8047875	1.3434238
26.013461299228904	1.8226584	1.3500587
26.03144988580839	1.7958627	1.340098
26.04943912516483	1.7827553	1.3351986
26.067429017812675	1.7705319	1.3306134
26.085419564266537	1.7804751	1.3343445
26.103410765041186	1.8049276	1.3434759
26.12140262065155	1.8262123	1.3513743
26.139395131612723	1.8387656	1.3560109
26.157388298439948	1.8550892	1.3620166
26.17538212164861	1.857899	1.3630477
26.193376601754295	1.8473617	1.3591769
26.211371739272714	1.852781	1.361169
26.229367534719746	1.871889	1.3681699
26.247363988611433	1.9048759	1.3801724
26.26536110146397	1.875632	1.3695371
26.283358873793727	1.8392769	1.3561994
26.301357306117204	1.8389564	1.3560812
26.319356398951104	1.8678855	1.366706
26.33735615281224	1.8349787	1.3546139
26.35535656821762	1.8096234	1.3452225
26.373357645684404	1.8037896	1.3430524
26.39135938572991	1.7733227	1.3316616
26.409361788871614	1.813573	1.3466897
26.427364855627165	1.8558139	1.3622826
26.445368586514352	1.8833451	1.3723502
26.46337298205115	1.8658366	1.3659563
26.48137804275568	1.841483	1.3570125
26.499383769146217	1.8117207	1.3460017
26.517390161741215	1.7843996	1.3358142
26.53539722105928	1.7784635	1.3335905
26.553404947619182	1.7940968	1.339439
26.571413341939856	1.7916679	1.338532
26.589422404540397	1.7650996	1.3285705
26.60743213594006	1.792179	1.338723
26.62544253665827	1.8255761	1.3511388
26.64345360721459	1.8712298	1.367929
26.66146534812879	1.8521196	1.360926
26.679477759920758	1.8295189	1.3525971
26.69749084311057	1.8038877	1.3430889
26.71550459821847	1.8010387	1.3420279
26.733519025764842	1.8517232	1.3607804
26.751534126270258	1.886821	1.3736161
26.769549900255434	1.8496757	1.3600278
26.787566348241267	1.8173559	1.3480934
26.80558347074881	1.7985284	1.3410922
26.823601268299267	1.7545553	1.3245963
26.841619741414036	1.7798507	1.3341105
26.85963889061465	1.87314	1.3686271
26.877658716422832	1.8913234	1.3752539
26.89567921936045	1.8324271	1.3536717
26.913700399949544	1.8038342	1.343069
26.93172225871233	1.818063	1.3483557
26.949744796171174	1.8554734	1.3621576
26.967768012848605	1.8398365	1.3564057
26.98579190926733	1.7864538	1.3365829
27.003816485950225	1.7604665	1.3268257
27.021841743420318	1.8044969	1.3433156
27.039867682200814	1.8237731	1.3504715
27.057894302815072	1.7708673	1.3307394
27.07592160578664	1.7502298	1.3229625
27.0939495916392	1.7810768	1.3345699
27.111978260896635	1.7833596	1.3354249
27.13000761408296	1.7760221	1.3326747
27.148037651722397	1.8105747	1.3455759
27.166068374339304	1.838939	1.3560748
27.184099782458215	1.8347603	1.3545332
27.20213187660384	1.8005244	1.3418362
27.22016465730105	1.7629092	1.3277459
27.23819812507487	1.7490666	1.3225228
27.256232280450533	1.7547	1.3246509
27.274267123953383	1.8018312	1.3423231
27.292302656108987	1.8327084	1.3537756
27.31033887744306	1.8307742	1.3530611
27.32837578848146	1.796303	1.3402623
27.34641338975026	1.8018694	1.3423373
27.364451681775673	1.8017856	1.342306
27.382490665084074	1.7964007	1.3402988
27.400530340202046	1.7847666	1.3359516
27.41857070765629	1.8184015	1.3484812
27.436611767973726	1.8619314	1.364526
27.454653521681404	1.8677481	1.3666558
27.472695969306564	1.8378085	1.3556579
27.490739111376627	1.7727731	1.3314552
27.508782948419153	1.7512498	1.3233479
27.526827480961902	1.7646402	1.3283976
27.54487270953279	1.7897539	1.3378168
27.562918634659898	1.835416	1.3547752
27.580965256871508	1.8703045	1.3675908
27.599012576696026	1.8796878	1.3710171
27.617060594662068	1.8373163	1.3554764
27.63510931129842	1.8354031	1.3547705
27.65315872713401	1.8053601	1.3436369
27.67120884269797	1.7846488	1.3359075
27.68925965851958	1.7973539	1.3406543
27.707311175128307	1.8407726	1.3567507
27.725363393053787	1.9016944	1.3790194
27.74341631282583	1.8966682	1.3771957
27.7614699349744	1.9085453	1.3815011
27.77952426002968	2.046903	1.4307002
27.797579288521973	2.095732	1.4476643
27.815635020981784	2.4808354	1.5750668
27.83369145793979	2.5109487	1.5845973
27.85174859992682	2.3408785	1.5299929
27.869806447473923	2.224881	1.4916035
27.887865001112267	1.9929006	1.4117013
27.905924261373233	1.9460204	1.3949983
27.92398422878836	1.9308063	1.3895346
27.94204490388936	1.8963675	1.3770866
27.96010628720813	1.8608258	1.3641208
27.978168379276728	1.8623506	1.3646797
27.9962311806274	1.903983	1.379849
28.014294691792568	1.9254154	1.3875934
28.0323589133048	1.8965249	1.3771437
28.050423845696887	1.8458176	1.3586087
28.068489489501758	1.8376378	1.355595
28.086555845252523	1.8392607	1.3561934
28.104622913482487	1.8524388	1.3610433
28.122690694725115	1.8693724	1.36725
28.14075918951405	1.8615419	1.3643833
28.15882839838312	1.9111646	1.3824488
28.176898321866304	1.9081286	1.3813503
28.1949689604978	1.8569051	1.362683
28.213040314811945	1.8432119	1.3576494
28.23111238534327	1.9129618	1.3830986
28.249185172626493	1.9552075	1.3982873
28.267258677196473	1.897845	1.377623
28.285332899588294	1.8250039	1.350927
28.303407840337172	1.8625487	1.3647523
28.321483499978545	1.8930315	1.3758748
28.33955987904799	1.9092946	1.3817723
28.357636978081285	1.94533	1.3947508
28.37571479761439	1.9853815	1.4090357
28.393793338183425	1.9516467	1.3970135
28.41187260032469	1.96995	1.4035491
28.429952584574686	2.006069	1.4163576
28.448033291470065	2.0866163	1.4445125
28.46611472154769	2.0739079	1.4401069
28.484196875344566	1.9591475	1.3996955
28.502279753397914	1.9159361	1.3841734
28.52036335624511	1.9462359	1.3950756
28.538447684423716	1.9125342	1.382944
28.556532738471482	1.9167249	1.3844583
28.574618518926325	1.9692206	1.4032892
28.59270502632635	1.9607612	1.4002718
28.61079226120985	1.9731693	1.4046955
28.628880224115274	2.016592	1.4200677
28.646968915581287	1.9994587	1.4140222
28.66505833614671	1.9445006	1.3944535
28.68314848635055	1.9882208	1.4100429
28.701239366732004	1.9790604	1.4067909
28.71933097783044	1.9678327	1.4027946
28.737423320185403	2.047666	1.4309669
28.75551639433665	2.088937	1.4453156
28.773610200824074	2.1208172	1.4563025
28.791704740187793	2.1284747	1.4589293
28.80980001296809	2.0909545	1.4460133
28.827896019705413	2.1173403	1.4551084
28.845992760940433	2.2017007	1.4838129
28.86409023721397	2.2117593	1.4871985
28.88218844906704	2.1972456	1.4823109
28.900287397040845	2.1677024	1.472312
28.918387081676755	2.1789284	1.4761194
28.936487503516343	2.2373455	1.4957758
28.954588663101365	2.254907	1.5016347
28.97269056097374	2.2323186	1.4940946
28.990793197675597	2.2735507	1.5078298
29.00889657374923	2.341899	1.5303264
29.027000689737125	2.3608475	1.536505
29.04510554618196	2.3640473	1.5375459
29.06321114362659	2.3994436	1.5490137
29.08131748261405	2.394841	1.5475273
29.099424563687567	2.4198344	1.5555817
29.11753238739057	2.4552093	1.5669107
29.13564095426663	2.4865441	1.576878
29.15375026485954	2.553032	1.597821
29.171860319713275	2.5695496	1.6029814
29.18997111937199	2.6597574	1.6308763
29.20808266438002	2.7269244	1.6513402
29.226194955281898	2.7589643	1.661013
29.244307992622335	2.785544	1.6689949
29.26242177694624	2.8813527	1.6974548
29.2805363087987	2.8878658	1.6993722
29.29865158872498	2.8776383	1.6963603
29.316767617270557	2.8789554	1.6967485
29.334884394981064	2.9234862	1.7098205
29.353001922402367	2.9853084	1.7278045
29.37112020008047	3.090198	1.757896
29.389239228561596	3.1956336	1.7876335
29.407359008392152	3.418297	1.8488637
29.42547954011872	3.6626139	1.9137957
29.44360082428809	4.234658	2.0578284
29.46172286144722	5.275698	2.2968888
29.479845652143283	6.882566	2.6234646
29.497969196923606	9.118163	3.0196297
29.516093496335728	11.8415785	3.4411595
29.5342185509274	14.896282	3.8595703
29.55234436124651	17.403957	4.171805
29.570470927841175	18.810768	4.337138
29.588598251259686	18.445587	4.2948327
29.60672633205055	16.996916	4.1227317
29.624855170762405	14.661418	3.8290231
29.642984767944146	11.911476	3.4513006
29.66111512414481	9.187324	3.0310597
29.67924623991366	6.8300095	2.6134286
29.697378115800138	5.1913595	2.2784555
29.71551075235387	4.2035394	2.0502534
29.733644150124675	3.668537	1.9153425
29.751778309662576	3.4550703	1.8587819
29.769913231517766	3.387938	1.8406352
29.78804891624066	3.3486338	1.8299272
29.806185364381818	3.3526337	1.8310199
29.82432257649206	3.3666458	1.8348422
29.842460553122333	3.3350208	1.826204
29.86059929482382	3.3252401	1.8235241
29.878738802147872	3.3067384	1.8184439
29.896879075646048	3.2676053	1.8076519
29.915020115870114	3.2649581	1.8069196
29.933161923371976	3.2462916	1.8017468
29.951304498703777	3.2590346	1.8052796
29.969447842417857	3.2478876	1.8021897
29.987591955066733	3.1444023	1.7732463
30.005736837203123	3.1308513	1.7694212
30.023882489379943	3.1259341	1.7680311
30.04202891215028	3.1515086	1.7752489
30.060176106067455	3.191193	1.7863911
30.078324071684946	3.1720092	1.7810135
30.09647280955646	3.1821842	1.7838677
30.114622320235863	3.2094376	1.7914903
30.132772604277257	3.1312895	1.769545
30.1509236622349	3.0800102	1.7549958
30.16907549466328	3.0452845	1.7450744
30.18722810211705	3.088953	1.7575418
30.205381485151097	3.1051247	1.7621365
30.22353564432045	3.0186846	1.7374362
30.241690580180403	2.953818	1.7186675
30.25984629328638	3.0210512	1.7381171
30.278002784194037	3.0502203	1.746488
30.296160053459246	3.0446873	1.7449032
30.314318101638033	3.0104318	1.7350596
30.332476929286646	2.9970944	1.7312118
30.35063653696153	3.0134428	1.7359271
30.368796925219307	3.0202432	1.7378846
30.386958094616844	2.9924653	1.7298744
30.40512004571115	2.95379	1.7186594
30.423282779059463	2.8947842	1.7014066
30.441446295219233	2.8031442	1.6742593
30.459610594748067	2.7445014	1.6566536
30.47777567820382	2.7325418	1.6530402
30.495941546144504	2.7406104	1.6554788
30.51410819912835	2.8635418	1.6922003
30.532275637713795	2.9639096	1.7216009
30.55044386245946	2.8985243	1.7025054
30.56861287392416	2.8055885	1.6749891
30.586782672666956	2.772254	1.6650087
30.604953259247047	2.754496	1.6596675
30.623124634223885	2.7882292	1.6697992
30.641296798157075	2.8356433	1.6839368
30.659469751606462	2.7796214	1.6672196
30.677643495132074	2.8385801	1.6848086
30.695818029294152	2.859334	1.6909565
30.713993354653116	2.795364	1.6719341
30.73216947176962	2.686636	1.6390961
30.75034638120448	2.6939354	1.6413212
30.768524083518756	2.7494872	1.6581577
30.786702579273673	2.6702652	1.6340946
30.80488186903069	2.6983967	1.6426797
30.82306195335144	2.8385646	1.6848041
30.841242832797782	3.1731448	1.7813324
30.85942450793176	3.5234323	1.8770808
30.877606979315637	3.8208156	1.9546907
30.895790247511883	4.1669188	2.0413032
30.913974313083134	4.574262	2.1387525
30.932159176592283	4.866328	2.2059755
30.95034483860237	4.892828	2.2119737
30.968531299676698	4.7183704	2.1721811
30.98671856037873	4.4246416	2.1034832
31.00490662127215	4.034342	2.008567
31.023095482920848	3.567438	1.8887663
31.04128514588892	3.1114454	1.763929
31.059475610740662	2.795335	1.6719255
31.07766687804056	2.6319845	1.6223392
31.09585894835335	2.5506938	1.5970892
31.11405182224393	2.4975967	1.5803787
31.132245500277417	2.4854279	1.576524
31.15043998301914	2.5071347	1.5833935
31.168635271034628	2.5458388	1.5955685
31.18683136488964	2.5249176	1.5889989
31.20502826515008	2.4614685	1.5689068
31.223225972382135	2.489256	1.5777376
31.241424487152155	2.5111125	1.584649
31.259623810026692	2.4575431	1.5676553
31.27782394157253	2.407131	1.5514932
31.296024882356644	2.3937058	1.5471606
31.314226632946237	2.3720374	1.540142
31.332429193908684	2.373451	1.5406009
31.350632565811598	2.389445	1.545783
31.368836749222787	2.4251947	1.5573037
31.387041744710295	2.4625292	1.5692447
31.40524755284232	2.5056105	1.582912
31.423454174187317	2.517112	1.5865409
31.441661609313922	2.5147088	1.5857834
31.459869858791002	2.5071957	1.5834126
31.478078923187628	2.4337568	1.5600502
31.496288803073064	2.3173664	1.5222899
31.514499499016807	2.3052268	1.5182973
31.532711011588546	2.3521533	1.5336732
31.550923341358178	2.3638494	1.5374815
31.56913648889584	2.3016133	1.5171069
31.587350454771844	2.2971497	1.515635
31.605565239556732	2.320371	1.5232763
31.62378084382127	2.323305	1.5242391
31.641997268136382	2.3123012	1.5206252
31.660214513073274	2.2768893	1.5089365
31.67843257920331	2.2932003	1.5143316
31.6966514670981	2.274985	1.5083053
31.71487117732944	2.2749119	1.5082811
31.733091710469346	2.2931252	1.5143068
31.751313067090052	2.252039	1.5006795
31.769535247764008	2.212253	1.4873645
31.787758253063878	2.279615	1.5098394
31.805982083562526	2.3357577	1.5283186
31.824206739833024	2.2819345	1.5106074
31.84243222244869	2.2459307	1.4986429
31.860658531983013	2.2417116	1.4972347
31.878885669009737	2.2095997	1.4864722
31.897113634102784	2.1761973	1.475194
31.91534242783632	2.220845	1.49025
31.933572050784694	2.2451856	1.4983944
31.951802503522508	2.2173345	1.4890717
31.970033786624548	2.206507	1.4854316
31.988265900665834	2.2161443	1.488672
32.006498846221575	2.1672904	1.472172
32.02473262386724	2.134254	1.4609087
32.04296723417845	2.0926147	1.4465872
32.0612026777311	2.1445453	1.4644266
32.07943895510129	2.1799493	1.4764651
32.097676066865304	2.1781213	1.4758459
32.115914013599685	2.1043928	1.4506525
32.13415279588115	2.123004	1.4570532
32.152392414286666	2.0925906	1.4465789
32.1706328693934	2.1195147	1.4558554
32.18887416177875	2.1960125	1.4818949
32.20711629202032	2.1689842	1.4727472
32.225359260695924	2.1262274	1.4581589
32.243603068383614	2.1488707	1.4659027
32.26184771566166	2.1390014	1.4625325
32.28009320310852	2.1327238	1.4603848
32.2983395313029	2.1058898	1.4511684
32.31658670082372	2.072697	1.4396864
32.33483471225012	2.1063285	1.4513196
32.35308356616143	2.1239269	1.4573698
32.371333263137245	2.06539	1.4371465
32.38958380375734	2.0578206	1.4345106
32.407835188601744	2.0516274	1.4323503
32.42608741825067	2.007264	1.4167794
32.444340493284585	2.0105965	1.417955
32.46259441428416	2.0257456	1.4232869
32.48084918183028	2.0791857	1.4419382
32.49910479650405	2.1280322	1.4587777
32.51736125888683	2.0855317	1.444137
32.53561856956014	2.059362	1.4350477
32.5538767291058	2.0822759	1.4430093
32.572135738105764	2.0228426	1.4222667
32.59039559714228	1.9918072	1.411314
32.608656306797776	1.9844006	1.4086876
32.62691786765491	2.0055838	1.4161863
32.645180280296586	2.024699	1.4229192
32.663443545305896	2.1462893	1.465022
32.68170766326619	2.1292226	1.4591856
32.69997263476099	2.044428	1.429835
32.7182384603741	2.052838	1.4327729
32.7365051406895	2.0508204	1.4320686
32.75477267629144	2.0195093	1.4210944
32.77304106776434	1.9785088	1.4065948
32.79131031569289	1.9618305	1.4006536
32.809580420661966	1.9451078	1.3946712
32.827851383256714	1.9680977	1.402889
32.84612320406245	2.0202067	1.4213398
32.86439588366476	1.9514208	1.3969326
32.88266942264945	1.8401796	1.3565322
32.9009438216025	1.905221	1.3802974
32.9192190811102	2.0415297	1.4288211
32.937495201758985	2.0493226	1.4315455
32.95577218413556	1.9716519	1.4041553
32.974050028826866	1.8764079	1.3698204
32.992328736420035	1.8488483	1.3597236
33.010608307502444	1.9608676	1.4003098
33.02888874266169	1.9877923	1.4098909
33.047170042485604	1.9005606	1.3786082
33.06545220756225	1.8537055	1.3615085
33.083735238479896	1.9683626	1.4029834
33.10201913582707	2.0076005	1.4168983
33.12030390019248	1.954087	1.3978866
33.138589532165135	1.9159039	1.3841618
33.15687603233419	1.9031616	1.3795513
33.17516340128909	1.9868081	1.4095418
33.19345163961947	2.093663	1.4469496
33.211740747915215	2.149171	1.4660052
33.23003072676643	2.0721066	1.4394814
33.248321576763466	2.050032	1.4317932
33.266613298496885	1.9755183	1.4055313
33.28490589255747	1.9276028	1.3883814
33.30319935953626	1.9386487	1.3923537
33.32149370002451	1.9568757	1.3988837
33.339788914613706	1.9666708	1.4023803
33.358085003895575	1.9888914	1.4102806
33.376381968462034	2.0533874	1.4329646
33.39467980890529	1.9887793	1.4102409
33.41297852581774	1.9545317	1.3980457
33.43127811979204	1.9195627	1.3854828
33.44957859142105	1.8507357	1.3604175
33.467879941297866	1.9174421	1.3847173
33.486182170015844	1.9800785	1.4071527
33.50448527816853	1.878203	1.3704755
33.522789266349754	1.7994463	1.3414345
33.541094135153514	1.8461653	1.3587366
33.55939988517411	1.8197111	1.3489667
33.57770651700602	1.8011538	1.3420707
33.59601403124398	1.815403	1.347369
33.61432242848296	1.9041758	1.3799187
33.632631709318154	2.04917	1.4314922
33.650941874344994	2.1092296	1.4523187
33.66925292415916	2.0816498	1.4427923
33.68756485935654	2.030339	1.4248997
33.70587768053328	2.0372264	1.4273144
33.724191388285746	2.079889	1.4421821
33.74250598321054	2.0754611	1.440646
33.760821465904506	1.9991121	1.4138997
33.77913783696474	1.9469568	1.3953339
33.79745509698852	1.9438617	1.3942244
33.815773246573414	1.9370841	1.3917917
33.8340922863172	1.843003	1.3575724
33.852412216817896	1.8363894	1.3551345
33.87073303867377	1.8653767	1.365788
33.889054752483304	1.883702	1.3724803
33.907377358845245	1.8973141	1.3774302
33.92570085835853	1.9150733	1.3838618
33.94402525162239	1.8887476	1.3743172
33.96235053923627	1.9694924	1.4033861
33.980676721799824	2.0205808	1.4214714
33.999003799912984	2.032473	1.4256483
34.01733177417592	2.0368571	1.427185
34.03566064518901	1.9169867	1.3845528
34.0539904135529	1.9385235	1.3923087
34.07232107986846	1.9685912	1.403065
34.090652644736785	1.9674522	1.4026589
34.108985108759235	1.9441099	1.3943135
34.12731847253742	1.8834069	1.3723727
34.14565273667313	1.9429888	1.3939114
34.16398790176847	2.0256085	1.4232388
34.18232396842574	1.9820323	1.4078467
34.20066093724749	1.8904587	1.3749396
34.21899880883651	1.9813437	1.4076021
34.23733758379583	2.0362434	1.42697
34.25567726272874	2.1393793	1.4626617
34.27401784623872	2.0602863	1.4353697
34.29235933492957	1.8030611	1.3427811
34.31070172940526	1.7260158	1.3137792
34.32904503027003	1.7578632	1.3258443
34.347389238128386	1.9152151	1.3839129
34.36573435358502	2.0497742	1.4317032
34.38408037724492	2.0017898	1.4148462
34.402427309713296	1.8606257	1.3640475
34.42077515159559	1.8751053	1.3693448
34.43912390349752	1.9771305	1.4061047
34.45747356602499	2.110188	1.4526486
34.47582413978423	2.1197107	1.4559226
34.49417562538163	2.1222322	1.4567883
34.51252802342388	2.042211	1.4290595
34.53088133451789	1.9092036	1.3817394
34.54923555927084	1.9164263	1.3843505
34.567590698290104	1.9179081	1.3848855
34.58594675218336	1.8579289	1.3630587
34.6043037215585	1.890537	1.374968
34.62266160702365	2.041911	1.4289545
34.641020409187234	2.267996	1.5059867
34.65938012865785	2.2614985	1.5038279
34.677740766044394	2.0403588	1.4284112
34.69610232195598	2.0190752	1.4209416
34.714464797002016	2.0873241	1.4447575
34.73282819179208	2.1490092	1.4659499
34.751192506936064	2.087008	1.444648
34.76955774304408	2.1404967	1.4630437
34.7879239007265	1.9776305	1.4062825
34.80629098059391	1.8141137	1.3468904
34.824658983257194	1.8850683	1.3729779
34.843027909327446	1.9464506	1.3951526
34.86139775941603	2.0465345	1.4305714
34.879768534134534	2.0925086	1.4465506
34.89814023409483	2.0772834	1.4412783
34.91651285990901	2.0708017	1.439028
34.93488641218944	2.064223	1.4367404
34.95326089154871	1.9936213	1.4119565
34.97163629859967	1.9795442	1.4069628
34.99001263395542	1.959573	1.3998475
35.00838989822934	2.033336	1.4259509
35.02676809203499	1.879655	1.371005
35.04514721598624	1.9600536	1.4000192
35.063527270697215	2.0745673	1.4403359
35.081908256782256	2.0599535	1.4352537
35.10029017485597	2.1275413	1.4586093
35.11867302553321	2.1980715	1.4825895
35.137056809429104	2.0380514	1.4276034
35.155441527159006	1.8631307	1.3649654
35.173827179338524	1.8850555	1.3729732
35.19221376658354	1.7259266	1.3137453
35.21060128951017	1.775814	1.3325968
35.2289897487348	1.9161136	1.3842375
35.24737914487405	1.8744467	1.3691044
35.26576947854479	1.8845465	1.3727878
35.28416075036418	1.9631073	1.4011093
35.30255296094958	2.074037	1.4401518
35.32094611091867	2.3042564	1.5179777
35.33934020088932	2.3582861	1.5356712
35.35773523147969	2.301544	1.517084
35.3761312033082	1.718037	1.3107392
35.394528116993506	1.6637032	1.2898462
35.41292597315452	2.145521	1.4647597
35.431324772410434	2.4922493	1.5786859
35.449724515380666	2.5875518	1.6085869
35.46812520268491	2.4388683	1.5616876
35.486526834943106	2.5064673	1.5831827
35.504929412775454	2.566948	1.6021698
35.52333293680242	2.183204	1.4775668
35.54173740764471	1.7801979	1.3342406
35.560142825923286	1.6042808	1.266602
35.5785491922594	1.4445196	1.2018818
35.59695650727454	0.8282805	0.91009915
35.61536477159042	0.4990961	0.70646733
