0.008763373481513119	0.0	0.0
0.026290120649546365	0.0	0.0
0.043816868432600686	0.0	0.0
0.06134361724069026	0.022973347	0.15156962
0.07887036748382949	0.14805116	0.38477418
0.0963971195720331	0.2216808	0.4708299
0.11392387391531617	0.1946069	0.4411427
0.1314506309236943	0.1003576	0.31679267
0.1489773910071836	0.06252381	0.25004762
0.16650415457580078	0.06923187	0.2631195
0.18403092203956356	0.111851364	0.33444187
0.20155769380849	0.109494306	0.33089924
0.2190844702925996	0.12750982	0.35708517
0.2366112519019124	0.14817144	0.38493043
0.2541380390464497	0.18520583	0.43035546
0.27166483213623416	0.1539082	0.39231133
0.28919163158128947	0.14705087	0.3834721
0.3067184377916406	0.14561588	0.38159648
0.324245251177314	0.12704253	0.35643026
0.34177207214833777	0.11843979	0.34415084
0.3592989011147415	0.10138678	0.3184129
0.37682573848655654	0.13726991	0.37049955
0.39435258467381573	0.123080485	0.3508283
0.41187944008655414	0.14058392	0.37494522
0.42940630513480854	0.122125246	0.34946424
0.446933180228618	0.11790806	0.34337744
0.4644600657780234	0.13338387	0.36521757
0.48198696219306775	0.1367974	0.36986133
0.49951386988379676	0.13937965	0.37333584
0.5170407892602581	0.11120362	0.33347207
0.5345677207325025	0.14442177	0.38002864
0.5520946647105822	0.14753817	0.38410696
0.5696216216045534	0.14820495	0.38497397
0.5871485918244737	0.15685497	0.3960492
0.6046755757804043	0.1403143	0.3745855
0.6222025738824094	0.15896587	0.39870524
0.6397295865405557	0.15953125	0.39941365
0.6572566141649129	0.1882575	0.4338865
0.6747836571655547	0.2253854	0.47474772
0.6923107159525568	0.20215988	0.44962195
0.7098377909359992	0.20030542	0.44755495
0.7273648825259653	0.1865359	0.43189803
0.7448919911325411	0.16428532	0.40532124
0.762419117165817	0.16905513	0.41116315
0.7799462610358868	0.14946297	0.3866044
0.7974734231528482	0.1945191	0.4410432
0.8150006039268024	0.240461	0.49036825
0.8325278037678551	0.28157115	0.5306328
0.8500550230861152	0.22880337	0.47833395
0.8675822622916969	0.19085181	0.4368659
0.8851095217947171	0.18792985	0.43350878
0.9026368020052984	0.22769251	0.47717136
0.9201641033335665	0.27070415	0.52029234
0.9376914261896523	0.2754798	0.5248617
0.9552187709836915	0.2564919	0.5064503
0.9727461381258234	0.23892945	0.4888041
0.990273528026193	0.21414939	0.46276277
1.0078009410949496	0.1961777	0.44291952
1.0253283777422473	0.21455044	0.4631959
1.0428558383782454	0.27875674	0.5279742
1.0603833234131086	0.29406488	0.5422775
1.0779108332570058	0.32464036	0.5697722
1.0954383683201119	0.29845747	0.54631263
1.112965929012607	0.32902718	0.5736089
1.1304935157446763	0.41487312	0.64410645
1.1480211289265108	0.45960444	0.6779413
1.1655487689683062	1.336393	1.1560247
1.1830764362802655	1.6755567	1.294433
1.200604131272596	2.0661783	1.4374207
1.2181318543555117	2.3448136	1.5312784
1.235659605939232	2.310133	1.5199121
1.253187386433982	4.0747366	2.0185976
1.270715196249994	6.539707	2.557285
1.2882430357975057	12.01738	3.4666092
1.3057709054867608	16.76958	4.095068
1.3232988057280106	22.682236	4.762587
1.3408267369315112	27.762976	5.269058
1.358354699507526	31.26842	5.5918174
1.3758826938663256	35.251343	5.937284
1.3934107204181858	37.42314	6.1174455
1.410938779573391	37.87628	6.154371
1.4284668717422309	38.435894	6.199669
1.4459949973350033	37.755753	6.144571
1.4635231567620117	37.88626	6.1551814
1.4810513504335687	36.755882	6.062663
1.4985795787599925	35.757355	5.9797454
1.5161078421516088	35.07166	5.922133
1.5336361410187505	34.33006	5.8591857
1.5511644757717598	34.640087	5.885583
1.5686928468209842	35.222927	5.9348907
1.58622125457678	35.96131	5.996775
1.6037496994495108	37.12725	6.0932136
1.621278181849548	37.02001	6.0844073
1.6388067021872719	37.669987	6.137588
1.6563352608730693	37.049	6.086789
1.673863858317336	36.055058	6.004586
1.6913924949304753	35.449715	5.953966
1.7089211711228998	34.4341	5.8680577
1.7264498873050296	33.70762	5.805826
1.7439786438872935	33.086052	5.7520475
1.7615074412801288	32.15847	5.670844
1.779036279893981	31.256495	5.5907507
1.796565160139305	30.24831	5.4998465
1.814094082426564	29.45621	5.4273577
1.8316230471662298	28.758863	5.362729
1.849152054768784	27.94066	5.2858925
1.8666811056447168	27.422499	5.2366495
1.8842102002045273	26.551525	5.1528172
1.901739338858724	26.17252	5.1159086
1.9192685220178245	25.519732	5.051706
1.9367977500923557	24.71013	4.9709287
1.9543270234928547	24.392557	4.9388824
1.971856342629867	23.931593	4.8919926
1.9893857079139496	23.559395	4.853802
2.006915119755667	22.934353	4.7889824
2.0244445785655945	22.16663	4.708145
2.0419740847543175	21.668253	4.6549172
2.0595036387324317	21.204098	4.6047907
2.0770332409105414	20.72967	4.5529847
2.094562891699263	20.583357	4.5368886
2.1120925915092217	19.993692	4.471431
2.129622340751053	19.811712	4.451035
2.1471521398354043	187.94191	13.70919
2.1646819891729323	444.37186	21.08013
2.182211889174303	440.5119	20.988375
2.1997418402501974	452.7956	21.278994
2.2172718428113023	432.62375	20.79961
2.234801897268317	320.4811	17.901987
2.2523320040319548	16.90718	4.111834
2.269862163512935	16.75038	4.092723
2.287392376121992	16.339222	4.0421805
2.304922642269869	16.3719	4.0462203
2.322452962367322	16.071096	4.0088773
2.3399833368251164	15.736232	3.966892
2.357513766054032	15.305217	3.9121883
2.3750442504648586	15.049376	3.8793526
2.3925747904683963	14.900742	3.860148
2.410105386475459	14.804365	3.847644
2.4276360388968707	14.5835085	3.818836
2.445166748143469	14.239846	3.773572
2.4626975146261025	13.86087	3.723019
2.4802283387556323	13.578728	3.6849325
2.4977592209429305	13.232915	3.6377075
2.5152901615988825	13.034374	3.610315
2.5328211611343865	12.800194	3.577736
2.5503522199603523	12.529681	3.5397289
2.5678833384877024	12.383541	3.5190256
2.5854145171273712	12.183575	3.4904978
2.6029457562903064	12.014498	3.4661934
2.620477056387469	11.763297	3.4297664
2.6380084178298326	11.554689	3.399219
2.655539841028383	11.323832	3.3650901
2.673071326394119	11.226497	3.3505964
2.6906028743380523	11.177936	3.343342
2.708134485271211	11.181157	3.3438237
2.7256661596046325	11.006036	3.3175347
2.743197897749369	10.768154	3.2814865
2.760729700116486	10.60815	3.2570155
2.778261567117063	10.498103	3.2400777
2.795793499162193	10.308991	3.2107618
2.8133254966629817	10.15597	3.1868432
2.830857560030551	9.804987	3.1312916
2.8483896896760337	9.686811	3.1123643
2.865921886010578	9.519542	3.0853755
2.883454149445347	9.462071	3.0760481
2.9009864803915177	9.421721	3.0694823
2.91851887926028	9.370667	3.0611546
2.9360513464628384	9.252148	3.0417342
2.953583882410413	9.013496	3.0022485
2.9711164875142373	8.790854	2.9649374
2.9886491621855606	8.670159	2.9445133
3.0061819068356455	8.593858	2.9315283
3.023714721875769	8.488944	2.9135792
3.041247607717225	8.429307	2.903327
3.0587805647713213	8.380641	2.8949337
3.0763135934493806	8.368048	2.892758
3.0938466941627407	8.277268	2.8770242
3.1113798673227544	8.112112	2.848177
3.1289131133407904	8.022727	2.8324418
3.1464464326282315	7.906958	2.8119314
3.1639798255964786	7.7910748	2.7912498
3.1815132926569443	7.7333107	2.780883
3.1990468342210603	7.606323	2.7579563
3.216580450700272	7.393888	2.7191706
3.2341141425060416	7.318249	2.7052262
3.251647910049847	7.256922	2.6938674
3.2691817537431813	7.227301	2.688364
3.286715673997555	7.320195	2.705586
3.3042496712244938	7.2221093	2.6873982
3.32178374583554	7.068543	2.658673
3.339317898242251	6.9249606	2.631532
3.3568521288562034	6.853581	2.6179345
3.3743864380889876	6.8727756	2.621598
3.3919208263522127	6.7555213	2.5991385
3.4094552940575023	6.721009	2.592491
3.4269898416164972	6.6608458	2.5808613
3.444524469440858	6.623049	2.5735285
3.4620591779422587	6.620977	2.5731258
3.479593967532391	6.5578113	2.5608225
3.4971288386229658	6.487438	2.547045
3.5146637916257086	6.4725137	2.5441136
3.5321988269523628	6.374354	2.5247483
3.5497339450146903	6.338744	2.5176864
3.5672691462244708	6.318362	2.5136352
3.5848044309934988	6.339474	2.5178313
3.60233979973359	6.3954535	2.5289233
3.619875252856575	6.379883	2.525843
3.6374107907743034	6.276981	2.5053904
3.6549464138986427	6.2480216	2.4996042
3.6724821226414788	6.2299676	2.4959903
3.690017917414714	6.233895	2.4967768
3.7075537986302702	6.260945	2.502188
3.7250897667000857	6.3924	2.5283196
3.7426258220361235	6.540585	2.5574567
3.7601619650503553	6.7637715	2.6007252
3.777698196154779	7.1250405	2.6692772
3.7952345157614067	8.231981	2.869143
3.8127709242822716	9.284527	3.0470521
3.830307422129425	11.729077	3.4247742
3.847844009714936	30.679377	5.5388966
3.8653806874508954	98.10419	9.904756
3.882917455749409	97.20734	9.859378
3.900454315022606	97.03244	9.850505
3.917991265682631	41.562027	6.4468617
3.9355283081416506	11.226796	3.3506413
3.9530654428118495	8.826913	2.971012
3.970602670105433	7.5285625	2.7438226
3.9881399904346244	6.6129713	2.57157
4.005677404211669	6.5812263	2.56539
4.023214911848827	6.6308146	2.5750368
4.0407525137583855	6.701397	2.5887055
4.058290210352644	6.652196	2.5791852
4.075828002043927	6.48194	2.5459654
4.0933658892445814	6.399761	2.529775
4.110903872366966	6.3403907	2.5180132
4.128441951823468	6.295327	2.5090492
4.145980128026488	6.2120624	2.492401
4.163518401388452	6.1258016	2.4750357
4.181056772321807	6.0254984	2.454689
4.1985952412390155	6.1097555	2.471792
4.216133808552567	6.1507573	2.480072
4.233672474674966	6.2992873	2.509838
4.251211240018741	6.48617	2.546796
4.268750104996445	6.7065353	2.5896978
4.286289070020643	7.5830503	2.7537339
4.303828135503928	9.244038	3.040401
4.3213673018589125	29.523932	5.433593
4.3389065694982305	90.82318	9.53012
4.356445938834537	166.04189	12.885724
4.3739854102805085	171.5875	13.099141
4.391524984248844	172.48697	13.13343
4.409064661152262	136.75575	11.694262
4.426604441403504	97.05662	9.851731
4.444144325415337	76.10644	8.723901
4.461684313600543	21.932283	4.683192
4.47922440637193	22.23567	4.7154713
4.496764604142329	20.443953	4.521499
4.5143049073245916	18.594856	4.3121753
4.531845316331589	16.53547	4.066383
4.5493858315762195	13.8272915	3.7185066
4.566926453471405	11.440569	3.382391
4.584467182430081	9.310184	3.0512593
4.602008018865218	8.048476	2.8369837
4.619548963189798	7.3754206	2.7157726
4.637090015816834	6.9429884	2.6349552
4.654631177159353	6.7147355	2.5912807
4.672172447630417	6.4584723	2.5413525
4.689713827643102	6.309595	2.5118906
4.7072553176105085	6.0293074	2.4554648
4.724796917945764	5.898197	2.4286203
4.742338629062015	5.84583	2.4178152
4.759880451372434	5.8363595	2.415856
4.777422385290215	5.7603717	2.4000773
4.794964431228581	5.6825137	2.3838024
4.812506589600768	5.7503285	2.3979843
4.830048860820047	5.7079377	2.3891292
4.847591245299709	5.719245	2.3914943
4.8651337434530655	5.5792875	2.3620515
4.882676355693457	5.57661	2.3614848
4.900219082434242	5.569267	2.3599293
4.917761924088813	5.545671	2.354925
4.935304881070575	5.5227437	2.3500519
4.952847953792969	5.509923	2.3473225
4.970391142669449	5.537359	2.3531594
4.9879344481135055	5.5804963	2.3623073
5.005477870538642	5.526879	2.3509314
5.023021410358394	5.4691005	2.338611
5.040565067986324	5.4140463	2.3268104
5.05810884383601	5.3143263	2.3052824
5.075652738321066	5.2216716	2.2850976
5.09319675185512	5.263829	2.2943037
5.110740884851836	5.3455048	2.3120348
5.128285137724894	5.4302893	2.3302982
5.145829510888007	5.4004383	2.3238842
5.163374004754908	5.3332043	2.3093731
5.1809186197393595	5.2834926	2.298585
5.198463356255145	5.2944922	2.3009763
5.216008214716077	5.31774	2.3060226
5.233553195535998	5.2745667	2.2966425
5.251098299128764	5.27124	2.2959182
5.268643525908272	5.2633576	2.294201
5.286188876288432	5.2791266	2.297635
5.3037343506831895	5.277908	2.2973697
5.32127994950651	5.2484684	2.2909536
5.3388256731723915	5.295881	2.301278
5.356371522094851	5.2832527	2.2985327
5.373917496687938	5.318022	2.3060837
5.391463597365729	5.3110914	2.3045805
5.40900982454232	5.300796	2.3023458
5.426556178631843	5.288152	2.2995982
5.444102660048449	5.2551436	2.29241
5.4616492692063225	5.191839	2.2785609
5.479196006519669	5.1365833	2.2664032
5.496742872402727	5.070265	2.251725
5.514289867269756	5.0689316	2.2514288
5.531836991535049	5.18997	2.2781506
5.549384245612924	5.252021	2.2917287
5.566931629917724	5.270878	2.2958393
5.584479144863822	5.184033	2.2768471
5.6020267908656205	5.131031	2.265178
5.619574568337545	5.1126657	2.2611206
5.637122477694054	5.104198	2.2592473
5.654670519349629	5.1375613	2.266619
5.672218693718784	5.1088123	2.2602682
5.689767001216059	5.0747995	2.2527316
5.707315442256021	5.0628276	2.2500727
5.724864017253266	5.041949	2.2454283
5.7424127266224225	5.1018505	2.2587276
5.75996157077814	5.0721974	2.2521539
5.777510550135105	5.113463	2.2612967
5.795059665108022	5.096018	2.257436
5.812608916111639	5.122588	2.2633135
5.830158303560715	5.201004	2.280571
5.847707827870055	5.259641	2.2933908
5.86525748945448	5.376513	2.3187308
5.8828072887288485	5.564773	2.358977
5.900357226108044	5.6434975	2.3756046
5.917907302006979	5.688824	2.3851256
5.9354575168406	6.2537284	2.5007455
5.9530078710238765	6.79068	2.6058934
5.970558364971812	7.338238	2.708918
5.988108999099438	7.731582	2.7805722
6.005659773821818	8.261784	2.874332
6.023210689554039	8.038123	2.8351583
6.040761746711227	8.457253	2.9081357
6.058312945708531	7.867253	2.8048623
6.075864286961132	7.411932	2.7224863
6.093415770884244	6.7302194	2.5942667
6.1109673978931065	6.1706305	2.4840753
6.128519168402993	5.5432444	2.3544095
6.146071082829204	5.3493853	2.3128738
6.163623141587075	5.2030563	2.2810209
6.181175345091969	5.1839314	2.276825
6.198727693759281	5.172347	2.2742794
6.216280188004435	5.2021494	2.280822
6.233832828242885	5.166248	2.2729383
6.251385614890126	5.130096	2.2649715
6.268938548361669	5.0918922	2.2565222
6.286491629073067	5.03797	2.2445424
6.304044857439898	5.0729265	2.2523158
6.321598233877777	5.0334535	2.243536
6.339151758802344	5.0416102	2.245353
6.356705432629277	5.0069933	2.237631
6.37425925577428	4.9353986	2.2215757
6.391813228653095	4.9787574	2.231313
6.409367351681486	5.0164247	2.2397377
6.426921625275259	5.0110307	2.2385333
6.44447604985025	4.9367003	2.2218688
6.46203062582232	4.924503	2.2191222
6.47958535360737	4.9022093	2.2140934
6.497140233621328	4.9320436	2.2208204
6.514695266280161	4.9689775	2.2291203
6.532250451999859	5.0408173	2.2451766
6.549805791196454	5.079689	2.2538166
6.567361284286002	5.1323824	2.2654762
6.584916931684597	5.041453	2.245318
6.602472733808367	5.0024843	2.2366235
6.6200286910734665	4.9694123	2.2292178
6.637584803896092	5.011344	2.238603
6.655141072692462	5.0427146	2.245599
6.672697497878842	5.088201	2.2557042
6.690254079871514	5.039071	2.2447875
6.707810819086808	5.0259166	2.2418556
6.725367715941078	4.972491	2.2299082
6.742924770850719	5.015084	2.2394383
6.760481984232151	4.986421	2.2330296
6.778039356501836	4.9719167	2.2297795
6.795596888076266	4.9775157	2.2310348
6.813154579371963	5.016472	2.2397482
6.830712430805492	5.0355716	2.2440078
6.84827044279344	4.99701	2.2353992
6.865828615752445	4.9762907	2.23076
6.883386950099159	4.992411	2.2343705
6.900945446250287	5.0445538	2.2460084
6.918504104622553	5.06026	2.2495022
6.936062925632727	5.033534	2.2435539
6.953621909697607	5.0027885	2.2366915
6.971181057234028	5.0230927	2.2412257
6.988740368658859	5.093671	2.2569163
7.006299844389007	5.196609	2.2796073
7.023859484841407	5.2482424	2.2909043
7.041419290433036	5.3501754	2.3130445
7.058979261580902	5.4600306	2.3366709
7.0765393987020495	5.614179	2.369426
7.094099702213559	5.936385	2.4364698
7.111660172532549	6.308567	2.511686
7.129220810076164	6.689329	2.5863738
7.146781615261595	7.352202	2.7114944
7.16434258850606	7.5908046	2.7551415
7.181903730226821	8.015739	2.8312082
7.1994650408411704	8.174937	2.8591847
7.217026520766437	8.257103	2.8735175
7.234588170419983	8.475635	2.9112942
7.252149990219215	8.474666	2.9111278
7.269711980581568	8.391923	2.8968816
7.2872741419245175	8.19177	2.8621268
7.304836474665574	7.8024783	2.7932916
7.322398979222286	7.4537106	2.7301486
7.339961656012233	7.247022	2.6920295
7.357524505453039	6.909671	2.6286254
7.375087527962357	6.6561184	2.5799453
7.392650723957886	6.344644	2.5188577
7.410214093857353	5.946716	2.4385889
7.427777638078528	5.671853	2.3815653
7.445341357039213	5.5014267	2.3455122
7.4629052511572525	5.3399186	2.3108263
7.480469320850524	5.315168	2.3054647
7.498033566536948	5.2803183	2.2978942
7.5155979886344735	5.2765718	2.2970788
7.5331625875610975	5.207184	2.2819254
7.550727363734844	5.2837605	2.298643
7.568292317573788	5.23775	2.288613
7.585857449496025	5.1545773	2.2703693
7.603422759919705	5.0794964	2.253774
7.620988249263007	5.065968	2.2507706
7.638553917944147	5.1255245	2.263962
7.656119766381391	5.203073	2.2810245
7.673685794993023	5.242173	2.2895792
7.691252004197388	5.286122	2.2991567
7.70881839441285	5.326443	2.3079088
7.726384966057826	5.3155355	2.3055446
7.743951719550762	5.3066106	2.3036082
7.761518655310149	5.294264	2.3009267
7.779085773754511	5.276128	2.2969823
7.796653075302419	5.2810984	2.298064
7.814220560372475	5.334271	2.3096042
7.831788229383323	5.305157	2.3032928
7.8493560827536495	5.33449	2.3096514
7.866924120902174	5.3071737	2.3037305
7.884492344247663	5.387821	2.3211682
7.9020607532089135	5.458359	2.336313
7.919629348204771	5.4268446	2.3295588
7.937198129654115	5.40866	2.3256526
7.954767097975865	5.322723	2.3071027
7.972336253588986	5.363254	2.31587
7.989905596912472	5.4221168	2.328544
8.007475128365371	5.459483	2.3365536
8.025044848366756	5.4621096	2.3371158
8.042614757335754	5.540105	2.3537428
8.060184855691523	5.5678897	2.3596377
8.07775514385327	5.740354	2.3959036
8.095325622240228	5.8483973	2.418346
8.112896291271687	5.878745	2.4246123
8.130467151366968	5.9233193	2.433787
8.148038202945436	5.9226975	2.4336593
8.165609446426497	5.8915706	2.4272559
8.183180882229594	5.933402	2.4358575
8.200752510774217	5.9543357	2.4401507
8.218324332479893	5.970114	2.4433818
8.235896347766193	5.9111457	2.4312847
8.253468557052724	5.9249525	2.4341226
8.27104096075914	5.986758	2.4467852
8.288613559305137	6.0912986	2.4680557
8.306186353110448	6.1929674	2.4885674
8.32375934259485	6.280875	2.5061674
8.341332528178162	6.296191	2.5092213
8.358905910280246	6.277104	2.505415
8.376479489321003	6.197176	2.4894128
8.394053265720377	6.2076297	2.4915116
8.411627239898356	6.2356377	2.4971259
8.42920141227497	6.2118683	2.492362
8.44677578327029	6.168935	2.4837341
8.464350353304427	6.1709795	2.4841456
8.48192512279754	6.191002	2.4881723
8.499500092169827	6.18236	2.4864352
8.51707526184153	6.1502833	2.4799764
8.534650632232934	6.1315136	2.4761894
8.552226203764365	6.106937	2.4712217
8.569801976856192	6.1754904	2.4850533
8.587377951928834	6.2260146	2.4951982
8.60495412940274	6.3375587	2.5174508
8.622530509698416	6.3830404	2.526468
8.6401070932364	6.443803	2.5384645
8.657683880437283	6.535209	2.5564055
8.675260871721695	6.6664166	2.5819404
8.692838067510303	6.90709	2.6281343
8.710415468223834	7.102108	2.664978
8.727993074283043	7.222313	2.687436
8.745570886108737	7.1743197	2.678492
8.763148904121765	7.161553	2.676108
8.78072712874302	7.1810656	2.679751
8.798305560393441	7.449774	2.7294273
8.815884199494006	7.631702	2.7625535
8.833463046465745	7.822234	2.7968256
8.851042101729728	7.9451017	2.8187058
8.86862136570707	8.223502	2.8676648
8.886200838818924	8.351828	2.889953
8.903780521486505	8.347596	2.8892207
8.921360414131055	8.359617	2.8913002
8.938940517173874	8.522343	2.919305
8.956520831036297	8.72053	2.9530542
8.97410135613971	9.054365	3.0090473
8.99168209290554	9.267293	3.0442228
9.009263041755265	9.476473	3.078388
9.026844203110405	9.624002	3.1022577
9.044425577392525	9.777915	3.1269658
9.062007165023239	9.9037895	3.1470287
9.079588966424197	10.228242	3.1981623
9.097170982017108	10.384668	3.2225251
9.11475321222372	11.319941	3.364512
9.132335657465825	12.210413	3.4943402
9.149918318165264	12.335559	3.5122015
9.167501194743924	12.906485	3.5925596
9.18508428762374	12.644264	3.5558774
9.202667597226693	12.509596	3.5368907
9.220251123974803	12.218199	3.495454
9.237834868290143	11.935293	3.4547493
9.255418830594836	11.7832155	3.432669
9.273003011311046	11.268612	3.3568754
9.290587410860985	10.947593	3.3087146
9.308172029666911	10.291973	3.2081106
9.32575686815113	10.053742	3.1707637
9.343341926735997	8.886835	2.9810796
9.360927205843916	8.620281	2.9360316
9.378512705897327	8.427179	2.9029605
9.396098427318728	8.197691	2.863161
9.413684370530664	8.054943	2.838123
9.431270535955722	7.9027014	2.8111744
9.448856924016539	7.77657	2.7886503
9.466443535135806	7.6702547	2.7695224
9.484030369736251	7.730484	2.7803748
9.501617428240658	7.760162	2.7857068
9.519204711071852	7.8399625	2.7999933
9.536792218652714	7.759927	2.7856646
9.55437995140617	7.8007927	2.79299
9.571967909755191	7.8208036	2.79657
9.589556094122802	7.8477564	2.8013847
9.60714450493207	7.8537197	2.802449
9.624733142606116	7.9119697	2.8128223
9.642322007568108	8.010916	2.8303561
9.659911100241267	8.050155	2.8372796
9.677500421048851	7.9874983	2.8262162
9.695089970414175	7.996544	2.827816
9.712679748760609	8.009644	2.8301313
9.730269756511557	8.048545	2.8369958
9.747859994090492	8.083711	2.8431866
9.765450461920915	8.144315	2.8538246
9.78304116042639	8.19848	2.8632987
9.800632090030527	8.1989565	2.863382
9.81822325115699	8.224126	2.8677738
9.835814644229481	8.243141	2.871087
9.853406269671762	8.2371025	2.8700352
9.870998127907646	8.257227	2.8735392
9.888590219360985	8.277231	2.8770177
9.906182544455698	8.267759	2.8753712
9.923775103615734	8.283384	2.8780868
9.941367897265108	8.269511	2.8756757
9.958960925827878	8.305676	2.881957
9.97655418972816	8.29761	2.8805573
9.994147689390106	8.326443	2.8855577
10.011741425237934	8.294106	2.8799489
10.029335397695904	8.3340025	2.8868673
10.04692960718833	8.347102	2.8891351
10.06452405413958	8.31211	2.883073
10.082118738974064	8.233633	2.8694308
10.099713662116246	8.206384	2.8646786
10.117308823990651	8.208902	2.8651183
10.134904225021844	8.19218	2.8621984
10.152499865634445	8.157479	2.8561301
10.170095746253125	8.142819	2.8535626
10.18769186730261	8.13213	2.8516889
10.205288229207675	8.13885	2.8528671
10.222884832393145	8.222908	2.8675613
10.2404816772839	8.211239	2.865526
10.258078764304868	8.176042	2.8593779
10.275676093881035	8.074455	2.8415587
10.293273666437438	8.001139	2.8286283
10.310871482399158	8.040274	2.8355377
10.32846954219134	8.030219	2.833764
10.346067846239173	8.047712	2.836849
10.363666394967908	8.079724	2.8424857
10.38126518880283	8.178326	2.8597772
10.398864228169298	8.327968	2.8858218
10.416463513492713	8.332651	2.8866332
10.434063045198531	8.252373	2.8726943
10.451662823712262	8.159892	2.8565526
10.469262849459467	8.091564	2.8445675
10.486863122865758	8.05314	2.8378055
10.504463644356806	8.097359	2.8455858
10.522064414358338	8.012976	2.83072
10.539665433296118	7.9658766	2.8223884
10.557266701595987	7.8686905	2.8051186
10.574868219683818	7.8396883	2.7999444
10.592469987985552	7.8036666	2.7935042
10.610072006927185	7.6429725	2.7645926
10.627674276934751	7.494061	2.7375283
10.64527679843435	7.341016	2.709431
10.662879571852143	7.178109	2.6791995
10.680482597614331	7.059634	2.6569972
10.698085876147173	6.971651	2.6403885
10.715689407876988	6.936695	2.6337607
10.733293193230146	6.9188595	2.6303725
10.750897232633072	6.862956	2.6197245
10.76850152651225	6.746894	2.5974784
10.786106075294207	6.587363	2.5665858
10.803710879405534	6.4347167	2.5366743
10.821315939272877	6.350868	2.520093
10.83892125532294	6.314882	2.5129428
10.856526827982472	6.248196	2.4996393
10.874132657678285	6.2622986	2.5024586
10.891738744837243	6.2471523	2.4994304
10.909345089886271	6.179383	2.4858365
10.926951693252343	6.097087	2.469228
10.944558555362494	6.0402493	2.457692
10.96216567664381	5.94839	2.4389322
10.979773057523436	5.8694496	2.4226947
10.997380698428573	5.8438582	2.4174073
11.014988599786477	5.7698364	2.4020483
11.032596762024461	5.751029	2.3981304
11.050205185569892	5.718434	2.3913248
11.067813870850198	5.64894	2.37675
11.085422818292859	5.60835	2.3681955
11.10303202832541	5.5100822	2.3473563
11.120641501375454	5.4423428	2.332883
11.138251237870636	5.2996216	2.3020906
11.155861238238671	5.188515	2.2778313
11.173471502907317	5.146672	2.2686276
11.191082032304402	5.129433	2.264825
11.208692826857805	5.1005635	2.2584426
11.226303886995465	5.033506	2.2435477
11.243915213145371	4.9775724	2.2310474
11.261526805735578	4.917855	2.2176237
11.279138665194196	4.8644953	2.20556
11.296750791949393	4.8458443	2.2013278
11.314363186429393	4.847178	2.2016308
11.331975849062479	4.8066087	2.1923978
11.34958878027699	4.776644	2.1855536
11.36720198050133	4.782283	2.1868432
11.384815450163948	4.6969447	2.1672435
11.402429189693366	4.591776	2.142843
11.420043199518153	4.481135	2.1168692
11.437657480066942	63.40382	7.9626517
11.455272031768422	85.11664	9.225868
11.472886855051353	107.53067	10.3696995
11.490501950344528	99.143036	9.95706
11.508117318076819	84.4825	9.191436
11.52573295867715	45.88114	6.773562
11.543348872574514	4.2263985	2.0558207
11.560965060197946	4.2126684	2.0524786
11.57858152197655	4.142981	2.0354314
11.59619825833949	4.072111	2.0179472
11.613815269715985	4.0249724	2.0062335
11.631432556535323	38.50761	6.20545
11.649050119226837	83.05571	9.11349
11.666667958219929	93.44541	9.666717
11.68428607394406	107.713104	10.378492
11.701904466828756	82.507866	9.0833845
11.719523137303586	65.32156	8.082175
11.737142085798196	4.575281	2.1389906
11.754761312742286	3.691724	1.921386
11.772380818565619	3.668185	1.9152507
11.790000603698015	3.5869691	1.8939296
11.80762066856935	3.5634131	1.8877004
11.825241013609572	3.5584764	1.8863925
11.842861639248683	3.5504644	1.8842676
11.860482545916748	3.5863063	1.8937546
11.878103734043883	3.552837	1.884897
11.895725204060282	3.5176582	1.8755422
11.91334695639619	3.476795	1.8646165
11.930968991481919	3.43706	1.853931
11.948591309747824	3.417492	1.8486459
11.966213911624347	3.4018927	1.844422
11.98383679754198	3.3953488	1.8426472
12.001459967931268	3.3349638	1.8261883
12.019083423222835	3.309423	1.8191819
12.036707163847352	3.3028982	1.8173877
12.05433119023556	3.2540727	1.8039049
12.071955502818259	3.198735	1.7885008
12.089580102026313	3.1536355	1.7758478
12.107204988290643	3.1608443	1.7778764
12.12483016204224	3.1490273	1.7745498
12.142455623712152	3.0988321	1.76035
12.16008137373149	3.067852	1.7515285
12.177707412531431	3.046685	1.7454755
12.19533374054321	3.0260346	1.7395501
12.212960358198126	3.0354064	1.7422417
12.230587265927545	3.0388932	1.7432421
12.248214464162889	3.0354247	1.742247
12.265841953335649	3.013251	1.7358718
12.283469733877375	3.010332	1.7350309
12.301097806219685	3.0463412	1.7453771
12.31872617079425	3.0542276	1.7476349
12.336354828032825	3.0169506	1.7369372
12.353983778367205	3.0000591	1.7320678
12.371613022229262	2.9905853	1.7293309
12.389242560050928	2.975012	1.7248223
12.406872392264201	2.9360611	1.7134938
12.424502519301143	2.8805125	1.6972072
12.442132941593874	2.8655365	1.6927896
12.459763659574586	2.8455803	1.6868848
12.477394673675532	2.877995	1.6964655
12.49502598432903	2.8825336	1.6978025
12.51265759196746	2.8563867	1.6900848
12.530289497023267	2.8886037	1.6995893
12.547921699928967	2.8648534	1.6925877
12.565554201117134	2.8540034	1.6893796
12.583187001020404	2.7981215	1.6727586
12.600820100071486	2.7971292	1.672462
12.618453498703152	2.800143	1.6733627
12.636087197348235	2.7979267	1.6727004
12.65372119643964	2.817618	1.6785761
12.671355496410326	2.8521912	1.6888431
12.68899009769333	2.838307	1.6847275
12.706625000721749	2.85842	1.6906862
12.724260205928752	2.9088516	1.7055355
12.741895713747551	2.9086504	1.7054766
12.759531524611454	2.9735007	1.7243842
12.777167638953818	2.9974926	1.7313268
12.794804057208072	3.0019958	1.7326268
12.812440779807702	3.024843	1.7392076
12.830077807186271	3.1886427	1.7856771
12.847715139777405	3.2657056	1.8071263
12.865352778014795	3.4496877	1.8573335
12.882990722332197	3.5590668	1.8865489
12.90062897316344	3.6284328	1.9048445
12.918267530942412	3.7547956	1.9377295
12.935906396103071	3.651672	1.9109348
12.953545569079449	3.803292	1.9502031
12.971185050305628	3.5811827	1.8924013
12.988824840215775	3.5610456	1.8870733
13.006464939244115	3.5703313	1.8895321
13.024105347824943	3.4311233	1.8523291
13.041746066392617	3.510128	1.8735336
13.05938709538157	3.2940648	1.8149558
13.077028435226296	3.3286722	1.8244649
13.094670086361363	3.2841063	1.8122103
13.112312049221401	3.220078	1.7944576
13.129954324241112	3.112936	1.7643515
13.147596911855258	2.9152153	1.7074002
13.165239812498685	2.8663776	1.693038
13.182883026606293	2.7893407	1.6701319
13.200526554613058	2.7616563	1.6618232
13.218170396954017	2.741531	1.655757
13.235814554064284	2.7445462	1.6566672
13.253459026379034	2.742274	1.6559813
13.271103814333523	2.721235	1.6496166
13.288748918363058	2.6979043	1.6425298
13.306394338903031	2.6587586	1.63057
13.32404007638889	2.6481032	1.6272994
13.341686131256164	2.6807852	1.6373104
13.359332503940449	2.7219748	1.6498408
13.376979194877402	2.7468977	1.6573768
13.394626204502751	2.7161674	1.6480799
13.412273533252307	2.7432153	1.6562655
13.429921181561937	2.7232985	1.650242
13.447569149867581	2.7160828	1.6480542
13.465217438605247	2.6753325	1.6356444
13.482866048211022	2.6723592	1.6347352
13.500514979121052	2.6924796	1.6408777
13.518164231771568	2.6641781	1.632231
13.535813806598844	2.6616693	1.6314623
13.553463704039254	2.6266952	1.6207082
13.571113924529229	2.6275406	1.620969
13.588764468505275	2.6484394	1.6274027
13.606415336403956	2.7063334	1.6450937
13.624066528661917	2.7363226	1.6541834
13.641718045715882	2.7367854	1.6543232
13.659369888002635	2.7818694	1.6678936
13.67702205595903	2.859692	1.6910625
13.694674550021993	2.9799266	1.7262464
13.712327370628532	3.0789638	1.7546977
13.729980518215713	3.1307046	1.7693797
13.747633993220681	3.1811135	1.7835677
13.765287796080647	3.1927428	1.7868248
13.7829419272329	3.2303097	1.7973063
13.800596387114801	3.296646	1.8156668
13.818251176163775	3.342209	1.828171
13.835906294817324	3.4100637	1.8466358
13.853561743513023	3.450349	1.8575115
13.871217522688525	3.4924989	1.8688228
13.888873632781538	3.5061684	1.8724766
13.906530074229858	3.4889567	1.8678749
13.92418684747135	3.4606266	1.860276
13.941843952943948	3.4545307	1.8586367
13.959501391085665	3.4560127	1.8590354
13.977159162334578	3.431167	1.8523409
13.994817267128846	3.3718684	1.8362647
14.012475705906693	3.2937515	1.8148695
14.030134479106424	3.2181919	1.793932
14.047793587166414	3.1360872	1.7709001
14.065453030525108	3.0558343	1.7480944
14.083112809621026	3.0130694	1.7358195
14.100772924892766	2.9281538	1.7111849
14.118433376778997	2.8955293	1.7016255
14.136094165718458	2.8287787	1.6818974
14.153755292149969	2.770373	1.6644437
14.171416756512416	2.6879423	1.6394945
14.189078559244768	2.6097674	1.6154774
14.20674070078606	2.5481508	1.5962929
14.224403181575408	2.5142844	1.5856495
14.242066002051999	2.523579	1.5885776
14.259729162655093	2.518387	1.5869427
14.277392663824022	2.4828632	1.5757104
14.295056505998208	2.461622	1.5689557
14.312720689617128	2.441988	1.5626862
14.330385215120348	2.4306014	1.5590386
14.348050082947497	2.3982205	1.5486189
14.3657152935383	2.3769104	1.5417233
14.383380847332528	2.3871057	1.5450261
14.401046744770051	2.4359553	1.5607548
14.418712986290798	2.4599993	1.5684385
14.436379572334793	2.4370222	1.5610964
14.454046503342123	2.3967469	1.548143
14.471713779752946	2.3573468	1.5353653
14.489381402007504	2.3743126	1.5408804
14.507049370546113	2.350745	1.533214
14.524717685809168	2.3852532	1.5444264
14.542386348237134	2.398211	1.5486158
14.560055358270553	2.444727	1.5635623
14.577724716350051	2.4654508	1.5701754
14.595394422916325	2.480403	1.5749295
14.61306447841015	2.5191891	1.5871954
14.63073488327237	2.5004	1.5812653
14.648405637943917	2.4845114	1.5762333
14.6660767428658	2.4712913	1.5720341
14.683748198479094	2.4566436	1.5673684
14.701420005224954	2.5125875	1.5851144
14.719092163544628	2.5644217	1.6013812
14.73676467387942	2.6347873	1.6232028
14.754437536670727	2.6499522	1.6278673
14.772110752360014	2.6397128	1.6247193
14.78978432138882	2.6334336	1.6227857
14.807458244198777	2.653271	1.6288865
14.82513252123159	2.604969	1.6139916
14.842807152929028	2.6245224	1.6200378
14.860482139732962	2.6111107	1.6158931
14.87815748208531	2.6176078	1.6179023
14.8958331804281	2.6350148	1.6232729
14.91350923520342	2.6300514	1.6217433
14.931185646853438	2.6646078	1.6323626
14.948862415820408	2.6291144	1.6214544
14.966539542546656	2.654141	1.6291535
14.98421702747459	2.6429656	1.62572
15.001894871046696	2.6827073	1.6378973
15.019573073705542	2.636361	1.6236874
15.037251635893766	2.5998855	1.612416
15.054930558054092	2.6122134	1.6162343
15.072609840629323	2.7097054	1.6461183
15.090289484062351	2.9274824	1.7109888
15.107969488796124	3.2440846	1.8011342
15.125649855273691	3.6438427	1.9088852
15.14333058393817	4.071467	2.0177877
15.161011675232768	5.0412774	2.2452788
15.17869312960076	6.4425488	2.5382175
15.196374947485506	8.3155575	2.8836708
15.214057129330447	11.335844	3.3668745
15.231739675579114	15.973956	3.9967432
15.249422586675102	21.016533	4.584379
15.267105863062092	24.179464	4.917262
15.284789505183847	24.542091	4.9539976
15.302473513484218	22.468521	4.740097
15.320157888407127	18.841885	4.340724
15.337842630396578	14.611814	3.8225403
15.355527739896656	11.376452	3.3728998
15.37321321735153	8.849437	2.9748003
15.39089906320545	6.466227	2.5428777
15.408585277902748	4.864454	2.2055507
15.42627186188783	3.7802236	1.9442797
15.443958815605198	3.2716618	1.8087735
15.461646139499424	2.9389813	1.7143457
15.479333834015168	2.7645767	1.6627016
15.497021899597165	2.7008576	1.6434286
15.514710336690234	2.6695147	1.633865
15.53239914573928	2.5826077	1.6070493
15.550088327189297	2.5525913	1.5976831
15.567777881485336	2.5221097	1.5881151
15.58546780907256	2.499789	1.5810721
15.6031581103962	2.4758437	1.5734814
15.620848785901568	2.4600925	1.5684682
15.638539836034063	2.4561083	1.5671976
15.656231261239173	2.4168825	1.5546325
15.673923061962451	2.3870862	1.5450197
15.691615238649552	2.373321	1.5405587
15.709307791746202	2.395371	1.5476986
15.727000721698221	2.4187465	1.5552319
15.744694028951498	2.4088414	1.5520443
15.76238771395202	2.3658617	1.5381358
15.780081777145844	2.340339	1.5298166
15.797776218979125	2.383892	1.5439857
15.815471039898094	2.3804286	1.5428637
15.833166240349064	2.3723643	1.5402482
15.850861820778437	2.3545403	1.5344511
15.868557781632699	2.3957548	1.5478226
15.886254123358412	2.4043205	1.5505872
15.903950846402232	2.4093409	1.5522052
15.921647951210897	2.3720427	1.5401437
15.939345438231225	2.3833158	1.5437992
15.957043307910133	2.3897061	1.5458674
15.974741560694602	2.4025378	1.5500122
15.992440197031714	2.3690586	1.5391747
16.01013921736862	2.3798254	1.5426682
16.02783862215259	2.418169	1.5550463
16.045538411830933	2.433084	1.5598346
16.06323858685107	2.434072	1.5601513
16.080939147660512	2.3715057	1.5399694
16.09864009470684	2.3488617	1.5325997
16.11634142843774	2.352094	1.5336537
16.134043149300954	2.3932068	1.5469993
16.15174525774433	2.431637	1.5593708
16.169447754215817	2.4692185	1.5713747
16.18715063916342	2.45415	1.5665727
16.204853913035244	2.4465635	1.5641495
16.222557576279478	2.436148	1.5608164
16.240261629344403	22.436361	4.7367034
16.257966072678386	43.005466	6.557855
16.275670906729868	38.083088	6.1711497
16.293376131947387	2.5045686	1.5825828
16.31108174877957	2.5308647	1.5908692
16.328787757675133	2.5947292	1.6108164
16.34649415908287	2.608158	1.6149793
16.364200953451657	2.605106	1.614034
16.38190814123048	2.5900998	1.6093787
16.39961572286839	2.619147	1.6183779
16.41732369881455	2.6591434	1.6306881
16.43503206951817	2.699181	1.6429185
16.45274083542859	2.7276764	1.6515678
16.47044999699522	2.7718058	1.6648741
16.488159554667558	2.797296	1.6725119
16.505869508895184	2.8909705	1.7002854
16.523579860127786	2.9365675	1.7136416
16.541290608815117	2.965843	1.7221622
16.559001755407035	2.979268	1.7260556
16.57671330035348	3.0060759	1.7338039
16.59442524410448	3.080808	1.755223
16.61213758711015	3.1522717	1.7754638
16.629850329820705	3.2063289	1.7906225
16.647563472686436	3.2869222	1.8129871
16.665277016157724	3.3995812	1.8437953
16.682990960685053	3.4770284	1.8646792
16.70070530671898	3.530477	1.8789563
16.718420054710155	3.5181801	1.8756813
16.736135205109335	3.524098	1.8772581
16.753850758367335	3.542078	1.882041
16.771566714935087	3.5895066	1.8945993
16.789283075263597	3.6756618	1.9172015
16.80699983980398	3.7420583	1.93444
16.82471700900741	3.8092504	1.9517301
16.84243458332518	3.921002	1.980152
16.860152563208665	3.979949	1.9949809
16.87787094910932	4.0361295	2.009012
16.89558974147871	4.106911	2.0265515
16.913308940768466	4.178599	2.044162
16.931028547430333	4.2616806	2.0643837
16.94874856191613	4.2989635	2.0733943
16.966468984677785	4.340152	2.0833032
16.98418981616729	4.3578153	2.087538
17.00191105683676	4.389714	2.0951643
17.019632707138374	4.4814234	2.1169372
17.03735476752442	4.5171638	2.125362
17.05507723844728	4.5543904	2.1341019
17.072800120359403	4.6047664	2.1458719
17.090523413713353	4.608409	2.1467204
17.108247118961785	4.624493	2.1504636
17.125971236557437	4.622805	2.150071
17.143695766953133	4.6622105	2.1592152
17.161420710601806	4.715403	2.1714978
17.179146067956477	4.7404804	2.1772645
17.19687183947025	4.7122984	2.1707828
17.21459802559634	4.6742253	2.1619956
17.232324626788028	4.643399	2.1548548
17.25005164349871	4.628086	2.1512988
17.267779076181863	4.6152005	2.1483018
17.285506925291074	4.626995	2.151045
17.30323519127999	4.612685	2.1477163
17.320963874602384	4.5999427	2.1447477
17.33869297571211	4.592785	2.1430783
17.356422495063114	4.57436	2.1387753
17.37415243310944	4.544895	2.131876
17.391882790305218	4.5362906	2.129857
17.40961356710468	4.508102	2.123229
17.42734476396215	4.5797577	2.1400368
17.445076381332044	4.535333	2.1296322
17.462808419668868	4.5407515	2.130904
17.48054087942723	4.641666	2.1544526
17.498273761061835	4.9777436	2.2310858
17.51600706502747	5.462672	2.337236
17.533740791779024	6.151785	2.4802792
17.551474941771485	7.5375338	2.745457
17.56920951545993	8.657713	2.9423993
17.586944513299528	10.887078	3.2995572
17.60467993574556	12.637585	3.554938
17.622415783253373	14.300176	3.7815573
17.64015205627843	15.613598	3.9514046
17.657888755276293	16.652916	4.0807986
17.675625880702604	17.185528	4.145543
17.69336343301311	16.982641	4.121
17.71110141266366	16.158075	4.019711
17.728839820110178	15.261337	3.9065762
17.746578655808705	14.382695	3.7924523
17.764317920215372	12.932205	3.5961375
17.7820576137864	11.42812	3.3805501
17.79979773697811	9.502897	3.082677
17.81753829024692	7.6575885	2.7672348
17.835279274049356	5.9996004	2.4494083
17.85302068884201	4.956627	2.2263484
17.870762535081607	4.315086	2.0772784
17.888504813224934	3.9887195	1.9971778
17.90624752372891	3.7296634	1.9312336
17.923990667050536	3.6237848	1.9036242
17.941734243646895	3.5511744	1.884456
17.959478253975185	3.5338383	1.8798506
17.9772226984927	3.4776196	1.8648376
17.994967577656833	3.4132504	1.8474984
18.01271289192506	3.3552837	1.8317434
18.030458641754965	3.3707385	1.835957
18.04820482760425	3.3351974	1.8262523
18.06595144993067	3.2923086	1.814472
18.083698509192125	3.26015	1.8055885
18.101446005846576	3.2486145	1.8023913
18.119193940352105	3.2429574	1.8008213
18.136942313166887	3.222855	1.7952312
18.1546911247492	3.2171688	1.7936468
18.1724403755574	3.229964	1.7972101
18.19019006604997	3.2036982	1.7898878
18.207940196685467	3.1581519	1.7771189
18.225690767922575	3.148182	1.7743117
18.243441780220046	3.0989757	1.7603908
18.261193234036764	3.0422552	1.7442062
18.278945129831676	3.0324612	1.7413963
18.29669746806386	3.0625865	1.7500247
18.314450249192483	3.0893075	1.7576426
18.3322034736768	3.0771625	1.7541842
18.349957141976184	3.0502038	1.7464833
18.3677112545501	3.0407608	1.7437778
18.385465811858108	3.0441778	1.7447572
18.403220814359884	3.057309	1.7485162
18.420976262515172	3.0668385	1.7512392
18.43873215678387	3.1228716	1.7671648
18.456488497625923	3.1513183	1.7751952
18.474245285501407	3.2003534	1.7889532
18.492002520870486	3.2389205	1.7997001
18.50976020419343	3.3081834	1.8188412
18.527518335930615	3.6098661	1.8999648
18.545276916542516	4.162764	2.0402853
18.563035946489688	4.375906	2.0918667
18.580795426232832	4.7800627	2.1863353
18.598555356232698	4.660191	2.1587477
18.616315736950185	4.9698806	2.229323
18.63407656884626	4.6654406	2.1599631
18.65183785238201	4.892891	2.211988
18.669599588018617	4.657217	2.1580586
18.68736177621737	4.653811	2.1572692
18.705124417439652	4.6053443	2.1460066
18.72288751214696	4.430948	2.1049817
18.740651060800886	4.562191	2.1359286
18.758415063863115	4.3011584	2.0739233
18.77617952179546	4.4382033	2.1067045
18.793944435059814	4.2041106	2.0503929
18.811709804118184	4.2151403	2.0530808
18.829475629432675	4.158834	2.039322
18.8472419114655	3.9638836	1.9909505
18.86500865067897	4.026021	2.0064948
18.88277584753551	3.7197359	1.9286617
18.90054350249763	3.7784832	1.943832
18.918311616027957	3.5118392	1.8739902
18.936080188589226	3.4281774	1.8515338
18.953849220644265	3.0697207	1.7520618
18.971618712656007	2.8779664	1.696457
18.9893886650875	2.7808151	1.6675776
19.007159078401887	7.941701	2.8181024
19.024929953062408	32.808357	5.727858
19.042701289532435	32.76757	5.7242966
19.060473088275405	25.362574	5.0361266
19.07824534975489	2.6573532	1.630139
19.096018074434568	2.638396	1.6243141
19.113791262778197	2.6018686	1.6130309
19.13156491524966	2.5499747	1.596864
19.149339032312945	2.5535066	1.5979695
19.167113614432136	2.5608232	1.6002573
19.184888662071433	2.5441961	1.5950537
19.202664175695123	2.5063922	1.583159
19.220440155767623	2.516608	1.586382
19.238216602753447	2.4975162	1.5803531
19.2559935171172	2.5169256	1.5864822
19.27377089932361	2.5064049	1.5831629
19.291548749837514	2.517269	1.5865903
19.309327069123835	2.486309	1.5768034
19.32710585764763	2.4857574	1.5766284
19.344885115874032	2.4719944	1.5722578
19.362664844268313	2.4824262	1.5755717
19.380445043295822	2.4637737	1.5696412
19.39822571342203	2.4771516	1.573897
19.41600685511252	2.495345	1.5796661
19.43378846883297	2.4858289	1.5766512
19.451570555049173	2.462336	1.5691832
19.469353114227037	2.4229643	1.5565875
19.48713614683254	2.4578905	1.5677661
19.50491965333182	2.5209446	1.5877483
19.52270363419109	2.5605571	1.6001741
19.540488089876686	2.5337288	1.5917691
19.55827302085503	2.4748983	1.5731809
19.576058427592674	2.4618332	1.569023
19.593844310556282	2.4462936	1.5640632
19.611630670212598	2.469649	1.5715117
19.629417507028506	2.468348	1.5710977
19.64720482147098	2.4975386	1.5803603
19.6649926140071	2.4967752	1.5801187
19.682780885104084	2.5088272	1.5839278
19.70056963522921	2.4925413	1.5787784
19.718358864849908	2.471162	1.571993
19.7361485744337	2.4692304	1.5713785
19.753938764448215	2.4722695	1.5723453
19.771729435361202	2.5113547	1.5847254
19.789520587640506	2.5010595	1.5814738
19.807312221754092	2.510529	1.5844649
19.825104338170043	2.490487	1.5781277
19.842896937356517	2.521261	1.587848
19.860690019781824	2.5270865	1.5896813
19.87848358591436	2.5353222	1.5922695
19.896277636222635	2.5446103	1.5951835
19.914072171175278	2.5456243	1.5955013
19.931867191241015	2.5281649	1.5900204
19.94966269688869	2.5071466	1.5833972
19.967458688587264	2.4677792	1.5709167
19.985255166805807	2.4695547	1.5714817
20.00305213201348	2.4569669	1.5674715
20.020849584679578	2.432436	1.5596268
20.038647525273507	2.4454222	1.5637846
20.05644595426477	2.461202	1.5688218
20.07424487212299	2.4681938	1.5710486
20.092044279317903	2.4591267	1.5681603
20.109844176319353	2.4520056	1.5658882
20.127644563597304	2.4564176	1.5672963
20.145445441621817	2.4687655	1.5712305
20.16324681086307	2.4903228	1.5780756
20.181048671791373	2.4923077	1.5787045
20.198851024877122	2.4349518	1.5604331
20.216653870590836	2.3887792	1.5455676
20.234457209403146	2.382532	1.5435452
20.252261041784802	2.3786647	1.542292
20.270065368206662	2.3841982	1.5440849
20.287870189139685	2.3720694	1.5401524
20.305675505054968	2.3579476	1.535561
20.323481316423702	2.3178272	1.5224411
20.341287623717207	2.2949693	1.5149156
20.359094427406884	2.2741911	1.5080421
20.376901727964288	2.2899156	1.5132467
20.39470952586107	2.3244236	1.524606
20.41251782156899	2.3446708	1.5312318
20.430326615559935	2.3607225	1.5364643
20.448135908305886	2.3431177	1.5307245
20.465945700278965	2.3396208	1.5295819
20.483755991951384	2.3291528	1.5261562
20.50156678379548	2.3388565	1.529332
20.519378076283708	2.33045	1.5265812
20.537189869888635	2.317217	1.5222409
20.55500216508294	2.3001244	1.5166161
20.572814962339415	2.2912846	1.5136989
20.59062826213098	2.2967498	1.5155032
20.60844206493066	2.3163967	1.5219713
20.626256371211593	2.3177793	1.5224254
20.644071181447032	2.319873	1.523113
20.66188649611036	2.332103	1.5271225
20.67970231567506	2.352484	1.5337809
20.697518640614742	2.353966	1.534264
20.715335471403122	2.3362072	1.5284656
20.73315280851404	2.322076	1.523836
20.750970652421447	2.314401	1.5213156
20.768789003599412	2.3000646	1.5165963
20.786607862522136	2.3160925	1.5218713
20.8044272296639	2.3223877	1.5239382
20.82224710549913	2.3148942	1.5214776
20.84006749050237	2.2896607	1.5131625
20.857888385148268	3.8689485	1.9669642
20.8757097899116	45.98048	6.780891
20.893531705267254	64.83146	8.051799
20.911354131690224	83.82565	9.155635
20.92917706965566	69.088425	8.311945
20.94700051963877	50.149498	7.081631
20.96482448211493	29.36419	5.4188733
20.982648957559622	4.096823	2.024061
21.00047394644843	2.22078	1.4902282
21.01829944925707	2.2596314	1.5032071
21.036125466461375	2.260841	1.5036093
21.053951998537297	2.2735236	1.5078208
21.071779045960906	2.2648442	1.5049399
21.089606609208378	2.2648265	1.5049341
21.10743468875603	2.2495425	1.4998475
21.12526328508028	2.2088869	1.4862324
21.143092398657675	2.1824925	1.4773262
21.16092202996488	2.1709611	1.4734182
21.17875217947867	2.1825511	1.477346
21.19658284767596	2.1577265	1.4689202
21.21441403503377	2.1642907	1.4711528
21.232245742029225	2.1853037	1.4782773
21.2500779691396	2.1927557	1.4807956
21.26791071684227	2.1547363	1.467902
21.28574398561475	2.1353357	1.4612788
21.30357777593465	2.1682317	1.4724916
21.321412088279704	2.193238	1.4809585
21.339246923127792	2.1644113	1.4711938
21.357082280956888	2.1385493	1.462378
21.3749181622451	2.1586082	1.4692203
21.392754567470647	2.1448233	1.4645215
21.41059149711187	2.1196408	1.4558986
21.42842895164726	2.1188183	1.4556161
21.446266931555378	2.1320252	1.4601456
21.464105437314945	2.124032	1.4574059
21.481944469404798	2.1205287	1.4562036
21.49978402830388	2.1127667	1.4535359
21.51762411449127	2.103751	1.4504313
21.53546472844617	2.087228	1.4447242
21.553305870647876	2.0727942	1.4397202
21.571147541575865	2.067394	1.4378436
21.58898974170967	2.0757544	1.4407479
21.60683247152899	2.0622208	1.4360435
21.62467573151363	2.0347185	1.4264356
21.642519522143523	2.0383167	1.4276963
21.660363843898722	2.023334	1.4224395
21.6782086972594	2.0374198	1.4273821
21.696054082705864	2.037144	1.4272856
21.713900000718535	2.0144985	1.4193302
21.73174645177795	1.9950243	1.4124533
21.749593436364794	2.0122123	1.4185247
21.767440954959845	2.0266526	1.4236054
21.785289008044032	2.0104504	1.4179035
21.803137596098388	1.988567	1.4101655
21.820986719604086	1.9812213	1.4075587
21.838836379042412	2.0168762	1.4201677
21.85668657489478	2.0411742	1.4286966
21.87453730764273	2.0661507	1.4374111
21.892388577767914	2.0547528	1.4334409
21.91024038575213	2.0378056	1.4275173
21.928092732077285	1.9904994	1.4108506
21.945945617225426	1.9635885	1.401281
21.963799041678694	1.9716705	1.4041618
21.981653005919398	31.33216	5.5975137
21.999507510429943	78.16683	8.841201
22.01736255569286	73.098076	8.549742
22.035218142190818	4.183627	2.0453918
22.05307427040661	1.993545	1.4119296
22.07093094082315	2.0102668	1.4178388
22.088788153923474	1.9897263	1.4105766
22.106645910190746	1.9617258	1.4006163
22.12450421010827	1.9403272	1.3929563
22.142363054159464	1.9134679	1.3832816
22.16022244282787	1.9375806	1.39197
22.178082376597164	1.947714	1.3956052
22.195942855951145	1.968541	1.4030471
22.213803881373742	1.9685792	1.4030607
22.231665453349002	1.9764539	1.4058641
22.24952757236111	1.9819108	1.4078035
22.26739023889438	1.9715325	1.4041127
22.28525345343323	1.9562134	1.398647
22.30311721646225	1.9438869	1.3942335
22.320981528466113	1.973013	1.4046398
22.33884638992964	1.965747	1.402051
22.356711801337788	1.9413369	1.3933187
22.37457776317561	1.9312522	1.389695
22.392444275928337	1.9501681	1.3964843
22.410311340081282	1.9646485	1.4016591
22.428178956119904	1.9759443	1.4056828
22.446047124529805	1.9796948	1.4070163
22.46391584579669	1.9239402	1.3870617
22.481785120406414	1.8947979	1.3765166
22.49965494884496	1.9298328	1.3891842
22.51752533159841	1.9582685	1.3993815
22.53539626915302	1.9753636	1.4054763
22.553267761995137	1.9749358	1.4053241
22.571139810611264	1.997484	1.4133238
22.589012415488025	1.9893843	1.4104553
22.60688557711216	1.9822549	1.4079257
22.624759295970566	1.950681	1.3966678
22.642633572550263	1.9170482	1.3845751
22.660508407338362	1.9268005	1.3880924
22.67838380082217	1.9496769	1.3963083
22.696259753489077	2.001268	1.4146618
22.714136265826614	2.0051126	1.41602
22.73201333832246	1.9697573	1.4034804
22.74989097146439	1.9211769	1.3860652
22.76776916574035	1.9075073	1.3811253
22.785647921638393	1.8805149	1.3713187
22.803527239646712	1.8630717	1.3649439
22.82140712025363	1.858914	1.36342
22.839287563947593	1.9073937	1.3810842
22.85716857121719	1.9282818	1.3886259
22.875050142551135	1.8963493	1.37708
22.892932278438277	1.8324772	1.3536903
22.910814979367604	1.8057806	1.3437934
22.928698245828222	1.8857818	1.3732377
22.946582078309387	1.9514704	1.3969504
22.96446647730047	1.9453485	1.3947575
22.98235144329098	1.891692	1.3753879
23.000236976770562	1.886655	1.3735555
23.018123078229	1.9040166	1.3798611
23.03600974815619	1.9021207	1.3791739
23.053896987042194	1.9031482	1.3795464
23.071784795377173	1.9084809	1.3814778
23.08967317365145	1.9769311	1.4060339
23.10756212235546	2.0179126	1.4205325
23.125451641979787	1.9734815	1.4048066
23.143341733015134	1.910843	1.3823324
23.161232395952357	1.8881447	1.3740978
23.179123631282426	1.8818285	1.3717976
23.197015439496468	1.8623583	1.3646826
23.214907821085717	1.8995259	1.3782328
23.23280077654157	1.931447	1.3897651
23.250694306355538	1.9486003	1.3959228
23.268588411019277	1.9470453	1.3953657
23.28648309102458	1.9539117	1.3978239
23.304378346863356	1.967087	1.4025288
23.322274179027676	1.9619488	1.4006958
23.340170588009723	1.9628186	1.4010063
23.358067574301852	1.9623377	1.4008347
23.37596513839651	1.9371951	1.3918315
23.39386328078629	1.969077	1.403238
23.411762001963947	1.943095	1.3939494
23.429661302422353	1.9208469	1.3859463
23.4475611826545	1.919152	1.3853346
23.46546164315356	1.9583969	1.3994273
23.48336268441279	2.0059118	1.4163022
23.501264306925638	1.9883984	1.4101058
23.51916651118564	1.979056	1.4067893
23.537069297686497	1.9642508	1.4015173
23.554972666922037	1.9373231	1.3918775
23.57287661938623	1.9429164	1.3938854
23.59078115557318	1.8926867	1.3757495
23.608686275977128	1.8404765	1.3566417
23.62659198109246	1.8141779	1.3469142
23.6444982714137	1.853741	1.3615216
23.66240514743549	1.8932209	1.3759437
23.68031260965263	1.9342966	1.3907899
23.698220658560068	1.9486918	1.3959556
23.716129294652845	1.9610512	1.4003754
23.7340385184262	1.9696696	1.4034492
23.75194833037546	1.9185973	1.3851345
23.769858730996123	1.9120656	1.3827746
23.78776972078382	1.9065675	1.3807851
23.80568130023431	1.8993676	1.3781755
23.823593469843495	1.8515077	1.3607012
23.841506230107424	1.8165814	1.3478061
23.859419581522275	1.8531601	1.3613082
23.87733352458438	1.8559916	1.3623478
23.89524805979019	1.9153368	1.3839569
23.913163187636318	1.9083089	1.3814155
23.931078908619508	1.9268738	1.3881187
23.948995223236633	1.9166805	1.3844423
23.966912131984735	1.9547479	1.398123
23.98482963536096	1.9997336	1.4141194
24.002747733862616	2.0629566	1.4362996
24.020666427987155	2.126854	1.4583738
24.038585718232156	2.10111	1.4495206
24.056505605095353	2.0336869	1.4260739
24.074426089074617	2.0550177	1.4335333
24.092347170667946	2.064433	1.4368135
24.110268850373515	2.0519986	1.4324799
24.128191128689586	2.0316718	1.4253672
24.146114006114626	2.0562823	1.4339743
24.164037483147187	2.0501082	1.4318199
24.181961560286005	1.9926559	1.4116147
24.199886238029926	1.9934577	1.4118986
24.21781151687797	2.0290735	1.4244555
24.235737397329274	2.040115	1.428326
24.253663879883135	2.0597982	1.4351997
24.271590965038975	2.060611	1.4354829
24.289518653296376	2.033744	1.426094
24.30744694515505	2.0567894	1.434151
24.32537584111486	2.0720592	1.4394649
24.34330534167581	2.055339	1.4336454
24.361235447338046	2.0603507	1.4353921
24.379166158601876	2.070132	1.4387953
24.39709747596772	2.0596185	1.435137
24.41502939993615	2.0112028	1.4181688
24.432961931007917	1.992123	1.4114258
24.450895069683856	1.9861865	1.4093213
24.468828816465	1.9781295	1.4064599
24.4867631718525	1.988779	1.4102408
24.504698136347656	1.9744302	1.4051442
24.52263371045192	1.966747	1.4024076
24.540569894666874	1.9690758	1.4032376
24.558506689494266	1.9655669	1.4019867
24.57644409543597	1.9727726	1.4045542
24.594382112994012	1.918656	1.3851556
24.61232074267057	1.939456	1.3926436
24.630259984967953	1.9734162	1.4047834
24.64819984038863	1.954865	1.3981649
24.66614030943522	1.9245367	1.3872768
24.684081392610462	1.9085109	1.3814887
24.702023090417274	1.9645759	1.4016333
24.7199654033587	1.9788977	1.406733
24.737908331937927	1.9791987	1.40684
24.755851876658305	1.9694606	1.4033747
24.773796038023324	2.0101871	1.4178107
24.79174081653661	2.0370953	1.4272685
24.809686212701962	2.067738	1.4379631
24.827632227023294	2.0413313	1.4287517
24.8455788600047	2.0546594	1.4334083
24.8635261121504	2.0553846	1.4336612
24.88147398396475	2.069499	1.4385754
24.899422475952303	2.0803258	1.4423335
24.917371588617698	2.129431	1.459257
24.935321322465768	2.1938436	1.4811629
24.953271678001478	2.3081744	1.5192677
24.97122265572994	2.5290656	1.5903037
24.989174256156414	2.8672414	1.6932931
25.00712647978632	3.2914171	1.8142263
25.02507932712521	3.793921	1.947799
25.043032798678798	4.3785925	2.0925086
25.060986894952933	5.033724	2.243596
25.078941616453637	5.7060113	2.3887258
25.096896963687055	6.5819535	2.5655317
25.114852937159508	7.7414103	2.782339
25.132809537377444	8.2011795	2.8637702
25.150766764847468	8.340528	2.8879972
25.168724620076347	7.825512	2.7974117
25.186683103570985	6.847777	2.6168258
25.204642215838426	5.5532002	2.3565228
25.222601957385894	4.1440516	2.0356944
25.24056232872074	3.119432	1.7661914
25.25852333035048	2.6261675	1.6205454
25.276484962782778	2.2979455	1.5158976
25.294447226525435	2.0822911	1.4430146
25.312410122086423	1.9723634	1.4044086
25.330373649973843	1.9545296	1.398045
25.348337810695988	1.9827765	1.408111
25.366302604761245	1.9814526	1.4076408
25.384268032678207	1.9496803	1.3963095
25.40223409495558	1.9681817	1.402919
25.420200792102257	1.9570159	1.3989339
25.438168124627246	1.9749905	1.4053435
25.45613609303974	1.9685376	1.4030458
25.474104697849057	1.9316943	1.3898541
25.492073939564698	1.8830402	1.3722391
25.510043818696285	1.858517	1.3632743
25.528014335753614	1.8802562	1.3712243
25.54598549124664	1.9287332	1.3887885
25.56395728568544	1.8661095	1.3660562
25.58192971958028	1.8063142	1.3439919
25.59990279344156	1.815099	1.3472561
25.617876507779833	1.8708776	1.3678002
25.635850863105826	1.8497127	1.3600415
25.653825859930386	1.8295754	1.352618
25.671801498764548	1.8125178	1.3462977
25.68977778011949	1.8269181	1.3516353
25.707754704506524	1.8443698	1.3580757
25.725732272437153	1.899097	1.3780773
25.743710484423012	1.9060638	1.3806027
25.761689340975888	1.8614424	1.3643469
25.77966884260774	1.845141	1.3583597
25.797648989830662	1.9207939	1.3859271
25.815629783156922	1.9458762	1.3949467
25.83361122309895	1.9214165	1.3861517
25.85159331016929	1.8879788	1.3740374
25.869576044880695	1.8677866	1.3666699
25.887559427746034	1.8207492	1.3493514
25.90554345927836	1.791613	1.3385115
25.92352813999086	1.8002295	1.3417263
25.94151347039689	1.7814326	1.3347032
25.959499451009965	1.7946944	1.3396621
25.97748608234374	1.8406652	1.3567111
25.995473364912062	1.8416176	1.3570621
26.013461299228904	1.8397446	1.3563719
26.03144988580839	1.8379763	1.3557198
26.04943912516483	1.8150843	1.3472507
26.067429017812675	1.7568489	1.3254617
26.085419564266537	1.7455158	1.3211797
26.103410765041186	1.7596953	1.3265351
26.12140262065155	1.773072	1.3315675
26.139395131612723	1.8216863	1.3496985
26.157388298439948	1.8583167	1.3632009
26.17538212164861	1.8579394	1.3630625
26.193376601754295	1.8849884	1.3729488
26.211371739272714	1.8470067	1.3590462
26.229367534719746	1.8419313	1.3571777
26.247363988611433	1.852389	1.361025
26.26536110146397	1.8746185	1.3691671
26.283358873793727	1.8786923	1.370654
26.301357306117204	1.8455212	1.3584996
26.319356398951104	1.8372653	1.3554575
26.33735615281224	1.8388431	1.3560395
26.35535656821762	1.8343378	1.3543773
26.373357645684404	1.8313388	1.3532697
26.39135938572991	1.8244903	1.350737
26.409361788871614	1.8073956	1.3443941
26.427364855627165	1.8394169	1.356251
26.445368586514352	1.857519	1.3629082
26.46337298205115	1.8413962	1.3569806
26.48137804275568	1.7896947	1.3377947
26.499383769146217	1.8096493	1.3452321
26.517390161741215	1.8219708	1.349804
26.53539722105928	1.7957155	1.3400431
26.553404947619182	1.7811987	1.3346156
26.571413341939856	1.7628368	1.3277186
26.589422404540397	1.7537769	1.3243024
26.60743213594006	1.7619288	1.3273766
26.62544253665827	1.7962656	1.3402483
26.64345360721459	1.7947086	1.3396673
26.66146534812879	1.7867975	1.3367114
26.679477759920758	1.7955142	1.339968
26.69749084311057	1.841906	1.3571683
26.71550459821847	1.8269433	1.3516446
26.733519025764842	1.7980791	1.3409247
26.751534126270258	1.802477	1.3425636
26.769549900255434	1.8175247	1.348156
26.787566348241267	1.8145257	1.3470433
26.80558347074881	1.8020871	1.3424183
26.823601268299267	1.8157059	1.3474814
26.841619741414036	1.8329666	1.353871
26.85963889061465	1.841935	1.357179
26.877658716422832	1.8034384	1.3429216
26.89567921936045	1.7695055	1.3302276
26.913700399949544	1.7694979	1.3302248
26.93172225871233	1.8086374	1.3448559
26.949744796171174	1.8149177	1.3471888
26.967768012848605	1.8109523	1.3457162
26.98579190926733	1.7917682	1.3385694
27.003816485950225	1.8048525	1.343448
27.021841743420318	1.7899086	1.3378747
27.039867682200814	1.7693176	1.330157
27.057894302815072	1.7488598	1.3224446
27.07592160578664	1.7389812	1.3187044
27.0939495916392	1.7290934	1.31495
27.111978260896635	1.7552533	1.3248597
27.13000761408296	1.7817626	1.3348268
27.148037651722397	1.7680207	1.3296694
27.166068374339304	1.7452949	1.3210961
27.184099782458215	1.7612832	1.3271334
27.20213187660384	1.751763	1.3235419
27.22016465730105	1.7788385	1.333731
27.23819812507487	1.8179764	1.3483236
27.256232280450533	1.8688366	1.367054
27.274267123953383	1.8424273	1.3573604
27.292302656108987	1.7989323	1.3412428
27.31033887744306	1.8011543	1.3420709
27.32837578848146	1.8677107	1.3666421
27.34641338975026	1.880373	1.371267
27.364451681775673	1.8363388	1.3551158
27.382490665084074	1.8182368	1.3484201
27.400530340202046	1.8540885	1.3616492
27.41857070765629	1.8733848	1.3687165
27.436611767973726	1.8662426	1.366105
27.454653521681404	1.8462795	1.3587787
27.472695969306564	1.8107015	1.3456231
27.490739111376627	1.8040352	1.3431438
27.508782948419153	1.8455724	1.3585185
27.526827480961902	1.8489164	1.3597486
27.54487270953279	1.8096579	1.3452352
27.562918634659898	1.7772335	1.3331292
27.580965256871508	1.7867151	1.3366807
27.599012576696026	1.8103453	1.3454907
27.617060594662068	1.837468	1.3555324
27.63510931129842	1.8858231	1.3732527
27.65315872713401	1.8779553	1.370385
27.67120884269797	1.8328456	1.3538263
27.68925965851958	1.8034282	1.3429178
27.707311175128307	1.8217717	1.3497303
27.725363393053787	1.8061047	1.3439139
27.74341631282583	1.8093288	1.3451129
27.7614699349744	1.8587378	1.3633554
27.77952426002968	2.083896	1.4435705
27.797579288521973	2.1820073	1.4771619
27.815635020981784	2.5805197	1.6063997
27.83369145793979	2.6149125	1.6170691
27.85174859992682	2.406507	1.5512921
27.869806447473923	2.2883518	1.5127299
27.887865001112267	2.0353065	1.4266417
27.905924261373233	1.916791	1.3844821
27.92398422878836	1.8760704	1.3696972
27.94204490388936	1.8277259	1.3519341
27.96010628720813	1.8450836	1.3583386
27.978168379276728	1.87768	1.3702847
27.9962311806274	1.9113055	1.3824997
28.014294691792568	1.8895408	1.3746057
28.0323589133048	1.8752817	1.3694092
28.050423845696887	1.8921728	1.3755627
28.068489489501758	1.891601	1.3753549
28.086555845252523	1.8509005	1.360478
28.104622913482487	1.8418214	1.3571372
28.122690694725115	1.8613605	1.3643168
28.14075918951405	1.9045674	1.3800607
28.15882839838312	1.9160427	1.3842119
28.176898321866304	1.8917366	1.3754041
28.1949689604978	1.9163047	1.3843066
28.213040314811945	1.944694	1.3945229
28.23111238534327	1.9633669	1.401202
28.249185172626493	1.9694991	1.4033884
28.267258677196473	1.9522085	1.3972145
28.285332899588294	1.9150745	1.3838621
28.303407840337172	1.9058852	1.380538
28.321483499978545	1.9118288	1.382689
28.33955987904799	1.9026455	1.3793641
28.357636978081285	1.904244	1.3799435
28.37571479761439	1.8835478	1.372424
28.393793338183425	1.8796467	1.3710021
28.41187260032469	1.8914593	1.3753034
28.429952584574686	1.962442	1.4008719
28.448033291470065	1.9725581	1.4044778
28.46611472154769	1.9460683	1.3950155
28.484196875344566	1.9289324	1.3888601
28.502279753397914	1.9177997	1.3848464
28.52036335624511	1.9363979	1.3915452
28.538447684423716	1.9645329	1.4016179
28.556532738471482	1.9735942	1.4048467
28.574618518926325	1.9739243	1.4049642
28.59270502632635	1.9603348	1.4001195
28.61079226120985	1.9584936	1.3994619
28.628880224115274	2.0279207	1.4240508
28.646968915581287	2.051365	1.4322587
28.66505833614671	2.019425	1.4210647
28.68314848635055	2.015454	1.4196669
28.701239366732004	2.0535846	1.4330333
28.71933097783044	2.023974	1.4226644
28.737423320185403	2.0760503	1.4408505
28.75551639433665	2.127156	1.4584773
28.773610200824074	2.1832414	1.4775796
28.791704740187793	2.2177296	1.4892043
28.80980001296809	2.2006736	1.4834667
28.827896019705413	2.1924722	1.4806999
28.845992760940433	2.2348042	1.4949261
28.86409023721397	2.2022905	1.4840117
28.88218844906704	2.140924	1.4631896
28.900287397040845	2.0894217	1.4454832
28.918387081676755	2.171199	1.473499
28.936487503516343	2.2537365	1.501245
28.954588663101365	2.2468312	1.4989433
28.97269056097374	2.2203686	1.4900901
28.990793197675597	2.3173409	1.5222814
29.00889657374923	2.3342764	1.5278339
29.027000689737125	2.3141472	1.5212321
29.04510554618196	2.3322423	1.527168
29.06321114362659	2.3946927	1.5474795
29.08131748261405	2.4483387	1.5647168
29.099424563687567	2.4468117	1.5642288
29.11753238739057	2.4733238	1.5726805
29.13564095426663	2.5596206	1.5998814
29.15375026485954	2.620562	1.6188151
29.171860319713275	2.6096048	1.6154271
29.18997111937199	2.6359725	1.6235678
29.20808266438002	2.7044668	1.6445264
29.226194955281898	2.7800312	1.6673425
29.244307992622335	2.8408072	1.6854694
29.26242177694624	2.9305198	1.7118762
29.2805363087987	2.933811	1.7128371
29.29865158872498	2.9372175	1.7138312
29.316767617270557	2.9451172	1.7161344
29.334884394981064	3.0052536	1.7335668
29.353001922402367	3.0235627	1.7388395
29.37112020008047	3.0269485	1.7398127
29.389239228561596	3.1683362	1.7799821
29.407359008392152	3.4105322	1.8467627
29.42547954011872	3.7387195	1.9335768
29.44360082428809	4.365886	2.0894704
29.46172286144722	5.4037848	2.3246043
29.479845652143283	6.917735	2.6301587
29.497969196923606	8.967591	2.9945936
29.516093496335728	11.630635	3.4103718
29.5342185509274	14.653417	3.8279781
29.55234436124651	17.105915	4.1359296
29.570470927841175	18.373169	4.2863936
29.588598251259686	18.049345	4.248452
29.60672633205055	16.621847	4.07699
29.624855170762405	14.422684	3.797721
29.642984767944146	11.756052	3.42871
29.66111512414481	8.932921	2.9887993
29.67924623991366	6.582148	2.5655696
29.697378115800138	5.053744	2.2480533
29.71551075235387	4.209371	2.051675
29.733644150124675	3.8338454	1.9580208
29.751778309662576	3.5714192	1.8898199
29.769913231517766	3.41926	1.8491241
29.78804891624066	3.2789464	1.8107861
29.806185364381818	3.2539701	1.8038764
29.82432257649206	3.2641845	1.8067055
29.842460553122333	3.2649097	1.8069061
29.86059929482382	3.315765	1.8209242
29.878738802147872	3.3541536	1.8314348
29.896879075646048	3.3320775	1.8253978
29.915020115870114	3.3073096	1.818601
29.933161923371976	3.2475889	1.8021067
29.951304498703777	3.2287006	1.7968585
29.969447842417857	3.2002146	1.7889143
29.987591955066733	3.1556306	1.7764095
30.005736837203123	3.2160006	1.7933211
30.023882489379943	3.2290874	1.7969662
30.04202891215028	3.2153068	1.7931277
30.060176106067455	3.2267458	1.7963145
30.078324071684946	3.224779	1.795767
30.09647280955646	3.1573288	1.7768874
30.114622320235863	3.1519475	1.7753725
30.132772604277257	3.1349595	1.7705817
30.1509236622349	3.086059	1.7567183
30.16907549466328	3.0897176	1.7577592
30.18722810211705	3.093799	1.7589198
30.205381485151097	3.1089528	1.7632222
30.22353564432045	3.0694776	1.7519925
30.241690580180403	3.041761	1.7440645
30.25984629328638	3.0314596	1.7411088
30.278002784194037	2.9995892	1.7319322
30.296160053459246	2.921039	1.7091048
30.314318101638033	2.8136058	1.6773807
30.332476929286646	2.8565476	1.6901324
30.35063653696153	2.9221463	1.7094287
30.368796925219307	2.9431272	1.7155545
30.386958094616844	2.8993664	1.7027526
30.40512004571115	2.8622422	1.6918162
30.423282779059463	2.871317	1.694496
30.441446295219233	2.8853679	1.698637
30.459610594748067	2.7881048	1.6697619
30.47777567820382	2.7944252	1.6716534
30.495941546144504	2.8764875	1.6960211
30.51410819912835	2.92801	1.7111429
30.532275637713795	2.8597066	1.6910667
30.55044386245946	2.8248825	1.6807387
30.56861287392416	2.8529377	1.6890641
30.586782672666956	2.8305864	1.6824347
30.604953259247047	2.7815278	1.6677912
30.623124634223885	2.7910976	1.6706579
30.641296798157075	2.7686663	1.663931
30.659469751606462	2.7611756	1.6616786
30.677643495132074	2.7866278	1.6693195
30.695818029294152	2.7839222	1.668509
30.713993354653116	2.7150357	1.6477365
30.73216947176962	2.7024338	1.6439081
30.75034638120448	2.7580464	1.6607367
30.768524083518756	2.7528806	1.6591806
30.786702579273673	2.74975	1.658237
30.80488186903069	2.8161645	1.6781431
30.82306195335144	2.9200275	1.7088088
30.841242832797782	3.0938654	1.7589387
30.85942450793176	3.4428403	1.8554893
30.877606979315637	3.8110833	1.9521996
30.895790247511883	4.1945825	2.048068
30.913974313083134	4.6020083	2.145229
30.932159176592283	4.835821	2.19905
30.95034483860237	4.7904572	2.1887114
30.968531299676698	4.5805535	2.1402228
30.98671856037873	4.293633	2.0721083
31.00490662127215	3.8721623	1.9677811
31.023095482920848	3.4948912	1.8694628
31.04128514588892	3.1167743	1.7654388
31.059475610740662	2.7582538	1.6607991
31.07766687804056	2.5818722	1.6068206
31.09585894835335	2.506057	1.5830531
31.11405182224393	2.442687	1.5629098
31.132245500277417	2.4727604	1.5725013
31.15043998301914	2.5223124	1.588179
31.168635271034628	2.5102117	1.5843648
31.18683136488964	2.394545	1.5474318
31.20502826515008	2.346768	1.5319164
31.223225972382135	2.4125297	1.5532321
31.241424487152155	2.4783192	1.5742679
31.259623810026692	2.4369633	1.5610776
31.27782394157253	2.3697512	1.5393996
31.296024882356644	2.3518062	1.5335599
31.314226632946237	2.3877134	1.5452228
31.332429193908684	2.4683437	1.5710963
31.350632565811598	2.4604313	1.5685762
31.368836749222787	2.4289718	1.5585159
31.387041744710295	2.4633248	1.5694983
31.40524755284232	2.5717428	1.6036655
31.423454174187317	2.5413313	1.5941553
31.441661609313922	2.4716845	1.5721592
31.459869858791002	2.4443488	1.5634414
31.478078923187628	2.3599563	1.536215
31.496288803073064	2.222261	1.4907249
31.514499499016807	2.2034383	1.4843982
31.532711011588546	2.2888584	1.5128974
31.550923341358178	2.377092	1.541782
31.56913648889584	2.3533278	1.534056
31.587350454771844	2.3129725	1.520846
31.605565239556732	2.2630422	1.5043411
31.62378084382127	2.2840695	1.5113138
31.641997268136382	2.3539824	1.5342693
31.660214513073274	2.369414	1.5392901
31.67843257920331	2.359857	1.5361826
31.6966514670981	2.352751	1.533868
31.71487117732944	2.3588476	1.535854
31.733091710469346	2.3931308	1.5469747
31.751313067090052	2.3512142	1.5333669
31.769535247764008	2.2864003	1.5120847
31.787758253063878	2.3457954	1.5315989
31.805982083562526	2.3936422	1.54714
31.824206739833024	2.3474207	1.5321294
31.84243222244869	2.3118343	1.5204717
31.860658531983013	2.2658346	1.5052689
31.878885669009737	2.2760658	1.5086635
31.897113634102784	2.2444162	1.4981376
31.91534242783632	2.2230363	1.490985
31.933572050784694	2.229404	1.4931189
31.951802503522508	2.2220361	1.4906496
31.970033786624548	2.2908285	1.5135483
31.988265900665834	2.2932358	1.5143434
32.006498846221575	2.1993666	1.4830261
32.02473262386724	2.1504204	1.4664311
32.04296723417845	2.1905134	1.4800383
32.0612026777311	2.213017	1.4876213
32.07943895510129	2.202374	1.4840398
32.097676066865304	2.169266	1.4728428
32.115914013599685	2.1400406	1.4628878
32.13415279588115	2.1086419	1.4521164
32.152392414286666	2.054136	1.4332258
32.1706328693934	2.1162822	1.4547447
32.18887416177875	2.2275348	1.4924928
32.20711629202032	2.1815195	1.4769968
32.225359260695924	2.1685529	1.4726007
32.243603068383614	2.2201068	1.4900023
32.26184771566166	2.2509122	1.500304
32.28009320310852	2.2221422	1.4906851
32.2983395313029	2.188825	1.4794677
32.31658670082372	2.1234107	1.4571928
32.33483471225012	2.0196533	1.4211451
32.35308356616143	2.0302598	1.4248719
32.371333263137245	2.0886242	1.4452074
32.38958380375734	2.05906	1.4349425
32.407835188601744	2.0388987	1.4279001
32.42608741825067	2.0446475	1.4299117
32.444340493284585	2.0448818	1.4299936
32.46259441428416	2.0464234	1.4305326
32.48084918183028	2.0484858	1.4312532
32.49910479650405	1.9859127	1.4092242
32.51736125888683	1.9729942	1.4046332
32.53561856956014	1.9999933	1.4142112
32.5538767291058	2.011596	1.4183074
32.572135738105764	1.9692603	1.4033034
32.59039559714228	1.9235038	1.3869044
32.608656306797776	1.9988784	1.4138169
32.62691786765491	2.0044518	1.4157866
32.645180280296586	1.9688648	1.4031625
32.663443545305896	1.9598144	1.3999337
32.68170766326619	1.9914955	1.4112035
32.69997263476099	2.0437949	1.4296136
32.7182384603741	2.0754848	1.4406543
32.7365051406895	2.1121643	1.4533287
32.75477267629144	2.0471992	1.4308037
32.77304106776434	1.9400117	1.392843
32.79131031569289	1.8731507	1.368631
32.809580420661966	1.8350387	1.354636
32.827851383256714	1.9420751	1.3935835
32.84612320406245	2.0205593	1.4214638
32.86439588366476	2.0291288	1.424475
32.88266942264945	2.1051261	1.4509053
32.9009438216025	2.1372745	1.4619421
32.9192190811102	2.115195	1.454371
32.937495201758985	2.0975165	1.4482806
32.95577218413556	2.0216897	1.4218613
32.974050028826866	1.8988342	1.3779819
32.992328736420035	1.9468871	1.395309
33.010608307502444	2.0472324	1.4308153
33.02888874266169	2.1209395	1.4563446
33.047170042485604	2.160002	1.4696945
33.06545220756225	2.1246476	1.457617
33.083735238479896	1.9741378	1.4050401
33.10201913582707	1.9496481	1.396298
33.12030390019248	1.9849715	1.4088901
33.138589532165135	2.0473495	1.4308562
33.15687603233419	2.016385	1.4199947
33.17516340128909	2.0551772	1.433589
33.19345163961947	2.0395513	1.4281286
33.211740747915215	2.020656	1.4214978
33.23003072676643	1.9526348	1.3973671
33.248321576763466	1.9248534	1.3873909
33.266613298496885	1.8384262	1.3558857
33.28490589255747	1.8394723	1.3562715
33.30319935953626	1.8989944	1.3780401
33.32149370002451	1.8313541	1.3532753
33.339788914613706	1.8629351	1.3648938
33.358085003895575	2.0499873	1.4317777
33.376381968462034	2.0735807	1.4399933
33.39467980890529	2.009352	1.4175161
33.41297852581774	2.0509486	1.4321133
33.43127811979204	2.0146725	1.4193916
33.44957859142105	1.9438211	1.3942099
33.467879941297866	1.9821298	1.4078814
33.486182170015844	1.9844263	1.4086967
33.50448527816853	1.9825684	1.4080371
33.522789266349754	2.040399	1.4284254
33.541094135153514	2.0127873	1.4187274
33.55939988517411	1.9689918	1.4032077
33.57770651700602	1.9721149	1.4043201
33.59601403124398	1.9113349	1.3825103
33.61432242848296	1.808885	1.3449479
33.632631709318154	1.7565863	1.3253627
33.650941874344994	1.7918314	1.338593
33.66925292415916	1.8982329	1.3777637
33.68756485935654	1.9776325	1.4062833
33.70587768053328	1.9701713	1.4036279
33.724191388285746	2.0155392	1.4196968
33.74250598321054	2.0259335	1.423353
33.760821465904506	1.9563243	1.3986866
33.77913783696474	2.003021	1.4152813
33.79745509698852	2.002124	1.4149643
33.815773246573414	2.0191562	1.4209702
33.8340922863172	2.0663424	1.4374778
33.852412216817896	2.1433027	1.4640023
33.87073303867377	2.0927227	1.4466245
33.889054752483304	1.9270793	1.3881928
33.907377358845245	1.8358854	1.3549485
33.92570085835853	1.9558727	1.3985251
33.94402525162239	1.8878478	1.3739897
33.96235053923627	1.8285273	1.3522305
33.980676721799824	1.9633253	1.4011871
33.999003799912984	2.1445303	1.4644215
34.01733177417592	2.1209936	1.4563632
34.03566064518901	1.9874716	1.4097772
34.0539904135529	1.8983842	1.3778186
34.07232107986846	1.9636447	1.4013011
34.090652644736785	1.960354	1.4001265
34.108985108759235	1.9653792	1.4019198
34.12731847253742	2.002053	1.4149393
34.14565273667313	1.938071	1.3921462
34.16398790176847	1.862593	1.3647685
34.18232396842574	1.8566784	1.3625998
34.20066093724749	1.9144046	1.3836201
34.21899880883651	1.9037502	1.3797646
34.23733758379583	1.8971878	1.3773844
34.25567726272874	1.9411634	1.3932564
34.27401784623872	2.010177	1.4178071
34.29235933492957	1.9896983	1.4105667
34.31070172940526	1.9192339	1.3853642
34.32904503027003	1.9070468	1.3809587
34.347389238128386	1.8625041	1.364736
34.36573435358502	1.7996403	1.3415067
34.38408037724492	1.848431	1.3595701
34.402427309713296	1.9956285	1.4126672
34.42077515159559	1.9348513	1.3909893
34.43912390349752	1.8637626	1.365197
34.45747356602499	1.9510956	1.3968163
34.47582413978423	2.058328	1.4346874
34.49417562538163	2.0509129	1.4321009
34.51252802342388	1.9633356	1.4011908
34.53088133451789	1.8170986	1.347998
34.54923555927084	1.8991568	1.378099
34.567590698290104	2.0518649	1.4324332
34.58594675218336	2.0369477	1.4272168
34.6043037215585	2.0956573	1.4476385
34.62266160702365	2.0976336	1.448321
34.641020409187234	1.9366833	1.3916477
34.65938012865785	1.767638	1.3295255
34.677740766044394	1.7158082	1.3098886
34.69610232195598	1.8439353	1.3579158
34.714464797002016	1.9271445	1.3882163
34.73282819179208	1.8847141	1.3728489
34.751192506936064	1.9737078	1.4048871
34.76955774304408	2.1807733	1.4767442
34.7879239007265	2.1217093	1.4566089
34.80629098059391	1.9102532	1.382119
34.824658983257194	1.7833253	1.335412
34.843027909327446	1.9492276	1.3961474
34.86139775941603	2.160951	1.4700173
34.879768534134534	2.0510683	1.4321551
34.89814023409483	1.8337878	1.3541743
34.91651285990901	1.8158978	1.3475525
34.93488641218944	1.7648844	1.3284895
34.95326089154871	1.7921422	1.3387091
34.97163629859967	1.8846895	1.3728399
34.99001263395542	1.8946588	1.376466
35.00838989822934	1.7822158	1.3349966
35.02676809203499	1.716648	1.3102092
35.04514721598624	1.8353615	1.3547552
35.063527270697215	1.8476346	1.3592772
35.081908256782256	1.7892613	1.3376328
35.10029017485597	1.8257174	1.3511912
35.11867302553321	2.0501356	1.4318295
35.137056809429104	2.1153567	1.4544265
35.155441527159006	2.03025	1.4248685
35.173827179338524	1.8708419	1.3677872
35.19221376658354	1.731527	1.3158749
35.21060128951017	1.7949916	1.3397729
35.2289897487348	2.0678842	1.438014
35.24737914487405	2.1239269	1.4573698
35.26576947854479	2.118083	1.4553635
35.28416075036418	2.050778	1.4320537
35.30255296094958	1.9534717	1.3976665
35.32094611091867	1.848853	1.3597254
35.33934020088932	1.9553638	1.3983432
35.35773523147969	2.1284661	1.4589263
35.3761312033082	2.1161327	1.4546933
35.394528116993506	1.7288377	1.3148527
35.41292597315452	1.7030207	1.3049984
35.431324772410434	1.862121	1.3645955
35.449724515380666	2.088351	1.4451128
35.46812520268491	2.006239	1.4164176
35.486526834943106	2.0696685	1.4386343
35.504929412775454	2.273691	1.5078763
35.52333293680242	2.1366413	1.4617255
35.54173740764471	2.391551	1.5464641
35.560142825923286	2.4863007	1.5768008
35.5785491922594	2.2316525	1.4938717
35.59695650727454	1.9355209	1.39123
35.61536477159042	2.20624	1.4853417
