0.008763373481513119	0.0	0.0
0.026290120649546365	0.0	0.0
0.043816868432600686	0.1864516	0.43180043
0.06134361724069026	0.19972984	0.44691145
0.07887036748382949	0.15602471	0.39499962
0.0963971195720331	0.039803695	0.19950864
0.11392387391531617	0.092064366	0.3034211
0.1314506309236943	0.15860908	0.39825755
0.1489773910071836	0.2208827	0.46998158
0.16650415457580078	0.18114875	0.42561573
0.18403092203956356	0.1973445	0.44423473
0.20155769380849	0.1766071	0.42024648
0.2190844702925996	0.2310483	0.48067483
0.2366112519019124	0.22354575	0.47280625
0.2541380390464497	0.22754532	0.4770171
0.27166483213623416	0.18039922	0.4247343
0.28919163158128947	0.2081612	0.45624688
0.3067184377916406	0.24329184	0.49324623
0.324245251177314	0.24587215	0.49585497
0.34177207214833777	0.20134592	0.44871587
0.3592989011147415	0.20167679	0.44908437
0.37682573848655654	0.14880891	0.3857576
0.39435258467381573	0.13685302	0.36993653
0.41187944008655414	0.1401041	0.37430483
0.42940630513480854	0.15319636	0.39140308
0.446933180228618	0.16921653	0.41135937
0.4644600657780234	0.18725632	0.43273124
0.48198696219306775	0.20362893	0.4512526
0.49951386988379676	0.22140987	0.4705421
0.5170407892602581	0.23632658	0.48613432
0.5345677207325025	0.16663627	0.40821105
0.5520946647105822	0.1533142	0.39155358
0.5696216216045534	0.11562521	0.34003708
0.5871485918244737	0.1370804	0.3702437
0.6046755757804043	0.15351662	0.39181197
0.6222025738824094	0.20734835	0.4553552
0.6397295865405557	0.24739109	0.49738425
0.6572566141649129	0.24716502	0.49715695
0.6747836571655547	0.24929042	0.49928993
0.6923107159525568	0.23351918	0.48323822
0.7098377909359992	0.23253556	0.4822194
0.7273648825259653	0.27713358	0.5264348
0.7448919911325411	0.27105883	0.5206331
0.762419117165817	0.25200108	0.5019971
0.7799462610358868	0.20228814	0.44976452
0.7974734231528482	0.15716876	0.39644516
0.8150006039268024	0.19028217	0.43621343
0.8325278037678551	0.20220734	0.4496747
0.8500550230861152	0.22711338	0.47656414
0.8675822622916969	0.23759204	0.48743415
0.8851095217947171	0.2279824	0.47747502
0.9026368020052984	0.23752587	0.48736626
0.9201641033335665	0.23019661	0.4797881
0.9376914261896523	0.2399469	0.48984376
0.9552187709836915	0.235935	0.48573142
0.9727461381258234	0.22705625	0.4765042
0.990273528026193	0.25123072	0.5012292
1.0078009410949496	0.223015	0.47224462
1.0253283777422473	0.23947471	0.48936152
1.0428558383782454	0.26969093	0.51931775
1.0603833234131086	0.28304487	0.5320196
1.0779108332570058	0.32399195	0.5692029
1.0954383683201119	0.3441266	0.5866231
1.112965929012607	0.37822542	0.61500037
1.1304935157446763	0.53361386	0.7304888
1.1480211289265108	0.5256716	0.72503215
1.1655487689683062	1.3511217	1.1623776
1.1830764362802655	1.6401682	1.2806906
1.200604131272596	2.070835	1.4390397
1.2181318543555117	2.4741569	1.5729452
1.235659605939232	2.5362892	1.5925732
1.253187386433982	4.0813613	2.020238
1.270715196249994	6.3732014	2.52452
1.2882430357975057	11.741609	3.426603
1.3057709054867608	16.571564	4.0708184
1.3232988057280106	22.332047	4.7256794
1.3408267369315112	27.263252	5.2214227
1.358354699507526	30.594622	5.5312405
1.3758826938663256	34.40742	5.865784
1.3934107204181858	36.490078	6.040702
1.410938779573391	37.120064	6.0926237
1.4284668717422309	38.064404	6.169636
1.4459949973350033	37.51794	6.125189
1.4635231567620117	37.574738	6.1298237
1.4810513504335687	36.804577	6.0666776
1.4985795787599925	36.107353	6.0089393
1.5161078421516088	35.577675	5.9647026
1.5336361410187505	34.7373	5.893836
1.5511644757717598	34.598377	5.8820386
1.5686928468209842	34.96331	5.912978
1.58622125457678	35.596504	5.9662805
1.6037496994495108	36.772835	6.0640607
1.621278181849548	36.65053	6.0539684
1.6388067021872719	37.642883	6.13538
1.6563352608730693	37.399017	6.1154737
1.673863858317336	36.764156	6.0633454
1.6913924949304753	35.62564	5.968722
1.7089211711228998	34.223743	5.8501062
1.7264498873050296	32.889153	5.7349067
1.7439786438872935	32.08093	5.664003
1.7615074412801288	31.258532	5.590933
1.779036279893981	30.891428	5.558006
1.796565160139305	29.887701	5.4669647
1.814094082426564	29.312906	5.4141393
1.8316230471662298	28.842382	5.3705106
1.849152054768784	28.045732	5.295822
1.8666811056447168	27.470482	5.241229
1.8842102002045273	26.74019	5.171092
1.901739338858724	26.050774	5.103996
1.9192685220178245	25.319128	5.0318117
1.9367977500923557	24.590622	4.9588933
1.9543270234928547	24.394215	4.93905
1.971856342629867	23.861696	4.8848433
1.9893857079139496	23.425772	4.840018
2.006915119755667	22.627537	4.756841
2.0244445785655945	21.95231	4.6853294
2.0419740847543175	21.568642	4.644205
2.0595036387324317	21.219326	4.606444
2.0770332409105414	20.621264	4.5410643
2.094562891699263	20.169765	4.491076
2.1120925915092217	19.575384	4.424408
2.129622340751053	19.40229	4.4048033
2.1471521398354043	187.67366	13.699404
2.1646819891729323	444.2764	21.077866
2.182211889174303	440.49805	20.988045
2.1997418402501974	452.96115	21.282885
2.2172718428113023	432.76315	20.80296
2.234801897268317	320.77948	17.910318
2.2523320040319548	17.368357	4.1675363
2.269862163512935	17.094429	4.134541
2.287392376121992	16.66042	4.0817175
2.304922642269869	16.389593	4.048406
2.322452962367322	16.028753	4.0035925
2.3399833368251164	15.492145	3.936006
2.357513766054032	15.255348	3.9058096
2.3750442504648586	14.948024	3.8662674
2.3925747904683963	14.8270445	3.8505902
2.410105386475459	14.459589	3.8025765
2.4276360388968707	14.115599	3.7570732
2.445166748143469	13.987446	3.7399795
2.4626975146261025	13.996303	3.7411633
2.4802283387556323	13.770921	3.7109191
2.4977592209429305	13.430951	3.6648262
2.5152901615988825	13.076438	3.6161358
2.5328211611343865	12.744953	3.5700076
2.5503522199603523	12.480481	3.5327725
2.5678833384877024	12.20542	3.4936256
2.5854145171273712	11.947746	3.4565513
2.6029457562903064	11.939154	3.455308
2.620477056387469	11.81071	3.4366713
2.6380084178298326	11.639199	3.411627
2.655539841028383	11.37867	3.3732283
2.673071326394119	11.232663	3.3515165
2.6906028743380523	11.20911	3.348001
2.708134485271211	10.997038	3.3161783
2.7256661596046325	10.91596	3.303931
2.743197897749369	10.60189	3.2560544
2.760729700116486	10.507041	3.2414565
2.778261567117063	10.290426	3.2078695
2.795793499162193	10.097289	3.1776233
2.8133254966629817	9.920855	3.1497388
2.830857560030551	9.726642	3.1187565
2.8483896896760337	9.6277895	3.1028678
2.865921886010578	9.524691	3.0862098
2.883454149445347	9.364221	3.0601015
2.9009864803915177	9.246082	3.0407372
2.91851887926028	9.137163	3.022774
2.9360513464628384	8.963872	2.9939725
2.953583882410413	8.938481	2.9897294
2.9711164875142373	8.780987	2.963273
2.9886491621855606	8.700343	2.9496343
3.0061819068356455	8.560314	2.9258015
3.023714721875769	8.519565	2.9188294
3.041247607717225	8.435476	2.9043891
3.0587805647713213	8.391382	2.8967884
3.0763135934493806	8.205432	2.8645124
3.0938466941627407	8.124337	2.8503222
3.1113798673227544	7.9595327	2.8212645
3.1289131133407904	7.877414	2.806673
3.1464464326282315	7.8280077	2.7978578
3.1639798255964786	7.821514	2.796697
3.1815132926569443	7.6267943	2.761665
3.1990468342210603	7.5985103	2.7565396
3.216580450700272	7.5696683	2.751303
3.2341141425060416	7.4351835	2.7267532
3.251647910049847	7.3873343	2.7179651
3.2691817537431813	7.232816	2.6893895
3.286715673997555	7.194455	2.682248
3.3042496712244938	7.111667	2.666771
3.32178374583554	7.054391	2.6560104
3.339317898242251	7.0814047	2.6610909
3.3568521288562034	6.93229	2.6329243
3.3743864380889876	6.8273993	2.6129293
3.3919208263522127	6.7437863	2.5968802
3.4094552940575023	6.7233734	2.5929468
3.4269898416164972	6.757264	2.5994737
3.444524469440858	6.621449	2.5732176
3.4620591779422587	6.5185566	2.5531464
3.479593967532391	6.503737	2.5502424
3.4971288386229658	6.533546	2.55608
3.5146637916257086	6.634251	2.575704
3.5321988269523628	6.5311227	2.5556061
3.5497339450146903	6.4045296	2.5307171
3.5672691462244708	6.305604	2.5110962
3.5848044309934988	6.361044	2.522111
3.60233979973359	6.3741007	2.524698
3.619875252856575	6.3717318	2.524229
3.6374107907743034	6.2734103	2.5046778
3.6549464138986427	6.302578	2.5104935
3.6724821226414788	6.34923	2.5197678
3.690017917414714	6.400667	2.529954
3.7075537986302702	6.4917397	2.5478892
3.7250897667000857	6.4621477	2.5420754
3.7426258220361235	6.3981285	2.5294523
3.7601619650503553	6.6398325	2.5767872
3.777698196154779	7.2301593	2.6888955
3.7952345157614067	8.472839	2.9108143
3.8127709242822716	9.274514	3.0454087
3.830307422129425	11.467028	3.3863
3.847844009714936	30.19146	5.4946756
3.8653806874508954	97.78858	9.888811
3.882917455749409	96.99147	9.848425
3.900454315022606	96.72599	9.834937
3.917991265682631	41.194958	6.4183297
3.9355283081416506	10.858338	3.2951994
3.9530654428118495	8.640953	2.93955
3.970602670105433	7.413634	2.7227988
3.9881399904346244	6.4420176	2.5381129
4.005677404211669	6.31489	2.5129445
4.023214911848827	6.254631	2.500926
4.0407525137583855	6.2477407	2.4995482
4.058290210352644	6.333866	2.5167174
4.075828002043927	6.314703	2.5129073
4.0933658892445814	6.302851	2.5105479
4.110903872366966	6.3897305	2.5277915
4.128441951823468	6.306004	2.5111759
4.145980128026488	6.2044234	2.490868
4.163518401388452	6.0426497	2.4581802
4.181056772321807	5.9355307	2.4362946
4.1985952412390155	5.904947	2.4300096
4.216133808552567	5.927024	2.434548
4.233672474674966	5.980981	2.4456043
4.251211240018741	6.1818676	2.4863362
4.268750104996445	6.5209994	2.5536249
4.286289070020643	7.3992453	2.7201555
4.303828135503928	9.001687	3.000281
4.3213673018589125	29.35198	5.417747
4.3389065694982305	90.44991	9.510516
4.356445938834537	165.74791	12.874312
4.3739854102805085	170.97789	13.075851
4.391524984248844	171.84393	13.108926
4.409064661152262	136.01076	11.662365
4.426604441403504	96.18823	9.80756
4.444144325415337	75.16219	8.669613
4.461684313600543	21.204935	4.604882
4.47922440637193	21.854452	4.674875
4.496764604142329	20.325136	4.508341
4.5143049073245916	18.418518	4.2916803
4.531845316331589	16.294807	4.0366826
4.5493858315762195	13.393533	3.6597176
4.566926453471405	11.216253	3.3490674
4.584467182430081	9.115515	3.019191
4.602008018865218	8.073046	2.8413105
4.619548963189798	7.352639	2.711575
4.637090015816834	6.8761916	2.6222494
4.654631177159353	6.7117944	2.590713
4.672172447630417	6.4931703	2.54817
4.689713827643102	6.3017006	2.5103188
4.7072553176105085	6.018524	2.453268
4.724796917945764	5.8479357	2.4182506
4.742338629062015	5.7928405	2.406832
4.759880451372434	5.7164054	2.3909006
4.777422385290215	5.666605	2.3804631
4.794964431228581	5.618315	2.3702986
4.812506589600768	5.6365275	2.3741372
4.830048860820047	5.636407	2.374112
4.847591245299709	5.672356	2.381671
4.8651337434530655	5.624015	2.3715005
4.882676355693457	5.613866	2.3693597
4.900219082434242	5.5785675	2.3618991
4.917761924088813	5.460354	2.33674
4.935304881070575	5.4364634	2.3316224
4.952847953792969	5.442932	2.3330092
4.970391142669449	5.530933	2.3517935
4.9879344481135055	5.56609	2.3592563
5.005477870538642	5.4433255	2.3330936
5.023021410358394	5.500028	2.345214
5.040565067986324	5.4873137	2.3425016
5.05810884383601	5.541368	2.354011
5.075652738321066	5.479387	2.340809
5.09319675185512	5.458894	2.3364275
5.110740884851836	5.389208	2.3214667
5.128285137724894	5.2786107	2.2975228
5.145829510888007	5.182161	2.276436
5.163374004754908	5.157697	2.2710564
5.1809186197393595	5.150185	2.269402
5.198463356255145	5.2334185	2.2876666
5.216008214716077	5.273195	2.2963438
5.233553195535998	5.3366985	2.3101296
5.251098299128764	5.297323	2.3015914
5.268643525908272	5.266043	2.294786
5.286188876288432	5.223953	2.2855968
5.3037343506831895	5.2740445	2.2965288
5.32127994950651	5.2555857	2.2925065
5.3388256731723915	5.2077007	2.2820387
5.356371522094851	5.130279	2.265012
5.373917496687938	5.055762	2.248502
5.391463597365729	5.0509753	2.2474375
5.40900982454232	5.117033	2.262086
5.426556178631843	5.1674733	2.2732077
5.444102660048449	5.2308416	2.2871034
5.4616492692063225	5.2068143	2.2818444
5.479196006519669	5.164113	2.2724686
5.496742872402727	5.1174974	2.2621887
5.514289867269756	5.0539675	2.2481031
5.531836991535049	5.0486526	2.2469206
5.549384245612924	5.020334	2.2406101
5.566931629917724	5.093373	2.2568502
5.584479144863822	5.0968475	2.2576199
5.6020267908656205	5.1099133	2.2605116
5.619574568337545	5.091926	2.2565296
5.637122477694054	5.0486436	2.2469187
5.654670519349629	5.1147394	2.261579
5.672218693718784	5.106228	2.2596965
5.689767001216059	5.0996213	2.258234
5.707315442256021	5.082789	2.2545042
5.724864017253266	5.036188	2.2441454
5.7424127266224225	5.0859575	2.2552068
5.75996157077814	5.072739	2.2522743
5.777510550135105	5.1763005	2.2751484
5.795059665108022	5.216188	2.2838976
5.812608916111639	5.2529216	2.2919252
5.830158303560715	5.316983	2.3058584
5.847707827870055	5.3302345	2.3087301
5.86525748945448	5.444262	2.3332942
5.8828072887288485	5.5459905	2.3549926
5.900357226108044	5.5893526	2.3641813
5.917907302006979	5.64882	2.3767247
5.9354575168406	6.2496114	2.4999223
5.9530078710238765	6.9298944	2.6324692
5.970558364971812	7.5182014	2.7419338
5.988108999099438	7.8819427	2.8074799
6.005659773821818	8.366701	2.892525
6.023210689554039	8.066019	2.8400738
6.040761746711227	8.466403	2.9097085
6.058312945708531	7.837847	2.7996156
6.075864286961132	7.2338276	2.6895776
6.093415770884244	6.5353236	2.556428
6.1109673978931065	6.047517	2.4591699
6.128519168402993	5.497645	2.3447058
6.146071082829204	5.435204	2.3313525
6.163623141587075	5.2903047	2.3000662
6.181175345091969	5.2166533	2.2839994
6.198727693759281	5.1875753	2.2776248
6.216280188004435	5.1484227	2.2690136
6.233832828242885	5.1136384	2.2613356
6.251385614890126	5.0592117	2.2492692
6.268938548361669	4.9853287	2.232785
6.286491629073067	4.9341903	2.2213037
6.304044857439898	4.9664927	2.2285628
6.321598233877777	4.9416122	2.2229738
6.339151758802344	4.96489	2.2282033
6.356705432629277	4.9571924	2.2264752
6.37425925577428	4.987511	2.2332737
6.391813228653095	4.9595003	2.2269936
6.409367351681486	4.945923	2.223943
6.426921625275259	4.9212847	2.218397
6.44447604985025	4.942507	2.223175
6.46203062582232	4.997335	2.235472
6.47958535360737	4.985681	2.232864
6.497140233621328	4.999797	2.2360225
6.514695266280161	4.8951163	2.212491
6.532250451999859	4.865196	2.205719
6.549805791196454	4.8700504	2.206819
6.567361284286002	4.873656	2.2076359
6.584916931684597	4.9157534	2.2171497
6.602472733808367	4.940722	2.2227736
6.6200286910734665	4.976948	2.2309074
6.637584803896092	4.992166	2.2343156
6.655141072692462	4.99771	2.235556
6.672697497878842	4.9928	2.2344575
6.690254079871514	4.9752746	2.2305324
6.707810819086808	4.9347343	2.2214262
6.725367715941078	4.9087133	2.2155616
6.742924770850719	4.8878164	2.2108407
6.760481984232151	4.916962	2.2174225
6.778039356501836	4.902731	2.2142112
6.795596888076266	4.9079	2.215378
6.813154579371963	4.9002585	2.2136528
6.830712430805492	4.952606	2.2254453
6.84827044279344	5.015572	2.2395473
6.865828615752445	4.983006	2.2322648
6.883386950099159	5.017904	2.2400677
6.900945446250287	5.021126	2.2407868
6.918504104622553	5.0198226	2.2404962
6.936062925632727	4.985114	2.2327368
6.953621909697607	4.9813027	2.2318833
6.971181057234028	4.9958873	2.2351482
6.988740368658859	5.0559916	2.2485533
7.006299844389007	5.0696173	2.251581
7.023859484841407	5.1351924	2.2660964
7.041419290433036	5.196727	2.279633
7.058979261580902	5.353023	2.3136601
7.0765393987020495	5.5663843	2.3593185
7.094099702213559	5.973325	2.4440386
7.111660172532549	6.385791	2.5270123
7.129220810076164	6.731448	2.5945034
7.146781615261595	7.218624	2.6867497
7.16434258850606	7.435995	2.726902
7.181903730226821	7.8389893	2.7998195
7.1994650408411704	7.999965	2.8284209
7.217026520766437	8.15209	2.8551865
7.234588170419983	8.379223	2.8946888
7.252149990219215	8.414815	2.90083
7.269711980581568	8.30341	2.8815637
7.2872741419245175	8.141021	2.8532474
7.304836474665574	7.8049693	2.7937374
7.322398979222286	7.4334044	2.726427
7.339961656012233	7.112274	2.6668847
7.357524505453039	6.7601733	2.6000333
7.375087527962357	6.456987	2.5410602
7.392650723957886	6.1751103	2.484977
7.410214093857353	5.864867	2.4217489
7.427777638078528	5.6358304	2.3739903
7.445341357039213	5.5160623	2.34863
7.4629052511572525	5.4008183	2.323966
7.480469320850524	5.268182	2.295252
7.498033566536948	5.212407	2.2830696
7.5155979886344735	5.1321163	2.2654176
7.5331625875610975	5.1364927	2.2663832
7.550727363734844	5.11237	2.261055
7.568292317573788	5.1159267	2.2618415
7.585857449496025	5.1698165	2.2737231
7.603422759919705	5.1517425	2.269745
7.620988249263007	5.1194825	2.2626274
7.638553917944147	5.101391	2.258626
7.656119766381391	5.0945587	2.257113
7.673685794993023	5.1002946	2.2583833
7.691252004197388	5.131919	2.265374
7.70881839441285	5.124408	2.2637155
7.726384966057826	5.1196704	2.2626688
7.743951719550762	5.1025157	2.258875
7.761518655310149	5.1055317	2.2595425
7.779085773754511	5.173925	2.2746263
7.796653075302419	5.225831	2.2860076
7.814220560372475	5.279155	2.297641
7.831788229383323	5.346934	2.3123438
7.8493560827536495	5.3303657	2.3087585
7.866924120902174	5.310973	2.304555
7.884492344247663	5.311459	2.3046603
7.9020607532089135	5.342669	2.3114214
7.919629348204771	5.3524923	2.3135455
7.937198129654115	5.3769727	2.31883
7.954767097975865	5.355365	2.314166
7.972336253588986	5.3609023	2.3153622
7.989905596912472	5.3753223	2.318474
8.007475128365371	5.3723035	2.317823
8.025044848366756	5.4182506	2.3277135
8.042614757335754	5.461495	2.3369842
8.060184855691523	5.5287204	2.3513231
8.07775514385327	5.6121597	2.3689997
8.095325622240228	5.698271	2.3871052
8.112896291271687	5.779768	2.4041147
8.130467151366968	5.8360853	2.4157991
8.148038202945436	5.8240967	2.4133165
8.165609446426497	5.8283296	2.4141934
8.183180882229594	5.8234196	2.4131763
8.200752510774217	5.837352	2.4160612
8.218324332479893	5.8858876	2.4260848
8.235896347766193	5.897115	2.4283977
8.253468557052724	5.9554114	2.4403713
8.27104096075914	5.991802	2.447816
8.288613559305137	6.0429115	2.4582334
8.306186353110448	6.0741806	2.4645853
8.32375934259485	6.10362	2.4705505
8.341332528178162	6.127269	2.475332
8.358905910280246	6.1790485	2.4857693
8.376479489321003	6.153536	2.480632
8.394053265720377	6.2456603	2.499132
8.411627239898356	6.250376	2.5000753
8.42920141227497	6.2688403	2.5037653
8.44677578327029	6.280329	2.5060585
8.464350353304427	6.2725997	2.504516
8.48192512279754	6.175083	2.4849715
8.499500092169827	6.0750437	2.4647603
8.51707526184153	6.0473976	2.4591458
8.534650632232934	6.1766653	2.4852898
8.552226203764365	6.2218723	2.494368
8.569801976856192	6.2278934	2.4955747
8.587377951928834	6.1626625	2.482471
8.60495412940274	6.227557	2.4955075
8.622530509698416	6.2554545	2.5010908
8.6401070932364	6.4374666	2.5372164
8.657683880437283	6.53126	2.555633
8.675260871721695	6.6692276	2.5824847
8.692838067510303	6.7484226	2.5977726
8.710415468223834	6.9292173	2.6323407
8.727993074283043	7.1051354	2.665546
8.745570886108737	7.123212	2.6689346
8.763148904121765	7.138505	2.671798
8.78072712874302	7.1315227	2.670491
8.798305560393441	7.315686	2.7047524
8.815884199494006	7.4292874	2.725672
8.833463046465745	7.6341453	2.7629957
8.851042101729728	7.817319	2.7959468
8.86862136570707	8.104581	2.8468544
8.886200838818924	8.198167	2.863244
8.903780521486505	8.266912	2.8752239
8.921360414131055	8.360342	2.8914256
8.938940517173874	8.487832	2.9133885
8.956520831036297	8.585188	2.9300492
8.97410135613971	8.877767	2.9795582
8.99168209290554	9.153127	3.0254135
9.009263041755265	9.439758	3.072419
9.026844203110405	9.675961	3.1106205
9.044425577392525	9.904309	3.1471112
9.062007165023239	10.037395	3.1681848
9.079588966424197	10.258725	3.2029245
9.097170982017108	10.249108	3.201423
9.11475321222372	11.264979	3.3563342
9.132335657465825	12.229433	3.4970605
9.149918318165264	12.379139	3.5184
9.167501194743924	13.030393	3.6097636
9.18508428762374	12.652571	3.5570452
9.202667597226693	12.716824	3.5660655
9.220251123974803	12.377138	3.5181158
9.237834868290143	11.990123	3.4626756
9.255418830594836	11.7416725	3.4266124
9.273003011311046	11.172339	3.342505
9.290587410860985	10.897129	3.30108
9.308172029666911	10.2356825	3.1993253
9.32575686815113	10.010739	3.1639752
9.343341926735997	8.7501	2.958057
9.360927205843916	8.548944	2.9238577
9.378512705897327	8.361085	2.891554
9.396098427318728	8.051035	2.8374345
9.413684370530664	7.894235	2.809668
9.431270535955722	7.717228	2.7779899
9.448856924016539	7.6597137	2.767619
9.466443535135806	7.632603	2.7627165
9.484030369736251	7.687232	2.7725859
9.501617428240658	7.722598	2.7789562
9.519204711071852	7.699989	2.7748854
9.536792218652714	7.6496873	2.765807
9.55437995140617	7.6517544	2.7661805
9.571967909755191	7.7227015	2.778975
9.589556094122802	7.7964334	2.7922094
9.60714450493207	7.8874083	2.808453
9.624733142606116	7.939435	2.8177004
9.642322007568108	7.991424	2.8269107
9.659911100241267	7.983699	2.8255439
9.677500421048851	8.009343	2.8300784
9.695089970414175	8.035678	2.834727
9.712679748760609	7.992897	2.8271713
9.730269756511557	8.029488	2.833635
9.747859994090492	8.003085	2.8289723
9.765450461920915	8.081156	2.8427374
9.78304116042639	8.174659	2.859136
9.800632090030527	8.194962	2.8626842
9.81822325115699	8.144731	2.8538973
9.835814644229481	8.096456	2.845427
9.853406269671762	8.128977	2.851136
9.870998127907646	8.182781	2.8605561
9.888590219360985	8.12075	2.849693
9.906182544455698	8.164479	2.8573554
9.923775103615734	8.159159	2.856424
9.941367897265108	8.189666	2.8617592
9.958960925827878	8.130352	2.8513772
9.97655418972816	8.173841	2.858993
9.994147689390106	8.208064	2.8649719
10.011741425237934	8.236352	2.8699045
10.029335397695904	8.229453	2.8687024
10.04692960718833	8.198819	2.863358
10.06452405413958	8.193576	2.8624423
10.082118738974064	8.214159	2.8660355
10.099713662116246	8.229119	2.8686442
10.117308823990651	8.179499	2.8599823
10.134904225021844	8.120023	2.8495653
10.152499865634445	8.089929	2.84428
10.170095746253125	8.132592	2.85177
10.18769186730261	8.184511	2.8608584
10.205288229207675	8.178828	2.8598652
10.222884832393145	8.065105	2.839913
10.2404816772839	8.046864	2.8366995
10.258078764304868	8.066191	2.840104
10.275676093881035	8.11711	2.8490543
10.293273666437438	8.152272	2.8552184
10.310871482399158	8.147834	2.8544412
10.32846954219134	8.097373	2.8455884
10.346067846239173	8.168039	2.857978
10.363666394967908	8.1479845	2.8544674
10.38126518880283	8.239473	2.8704484
10.398864228169298	8.281602	2.8777773
10.416463513492713	8.260458	2.8741012
10.434063045198531	8.221536	2.867322
10.451662823712262	8.160528	2.8566637
10.469262849459467	8.168171	2.8580012
10.486863122865758	8.082185	2.8429184
10.504463644356806	8.048447	2.8369784
10.522064414358338	7.995862	2.8276956
10.539665433296118	7.9259686	2.8153098
10.557266701595987	7.869589	2.8052788
10.574868219683818	7.7211657	2.7786984
10.592469987985552	7.611928	2.7589722
10.610072006927185	7.5314126	2.7443419
10.627674276934751	7.439031	2.7274587
10.64527679843435	7.383952	2.7173429
10.662879571852143	7.2199683	2.6869998
10.680482597614331	7.054691	2.656067
10.698085876147173	6.923534	2.6312609
10.715689407876988	6.8122964	2.6100376
10.733293193230146	6.824594	2.6123924
10.750897232633072	6.7410135	2.5963461
10.76850152651225	6.7015986	2.5887446
10.786106075294207	6.662167	2.5811174
10.803710879405534	6.609942	2.5709808
10.821315939272877	6.547253	2.5587602
10.83892125532294	6.4133105	2.5324514
10.856526827982472	6.3273144	2.5154154
10.874132657678285	6.2679667	2.5035908
10.891738744837243	6.2299795	2.4959927
10.909345089886271	6.2022567	2.490433
10.926951693252343	6.131015	2.4760885
10.944558555362494	6.034465	2.4565148
10.96216567664381	5.9535728	2.4399943
10.979773057523436	5.9121113	2.4314833
10.997380698428573	5.8163714	2.4117155
11.014988599786477	5.7548957	2.3989363
11.032596762024461	5.6279483	2.3723297
11.050205185569892	5.5164027	2.3487024
11.067813870850198	5.433103	2.3309019
11.085422818292859	5.3583813	2.3148177
11.10303202832541	5.2651367	2.2945886
11.120641501375454	5.178371	2.2756035
11.138251237870636	5.179387	2.2758267
11.155861238238671	5.1973057	2.2797601
11.173471502907317	5.1980233	2.2799175
11.191082032304402	5.1376677	2.2666423
11.208692826857805	5.081227	2.2541578
11.226303886995465	4.9636126	2.2279167
11.243915213145371	4.9339476	2.221249
11.261526805735578	4.8303065	2.1977959
11.279138665194196	4.796807	2.1901615
11.296750791949393	4.7826996	2.1869383
11.314363186429393	4.7650595	2.1829016
11.331975849062479	4.6823487	2.1638734
11.34958878027699	4.61172	2.1474917
11.36720198050133	4.524566	2.1271029
11.384815450163948	4.475761	2.1155994
11.402429189693366	4.475011	2.1154222
11.420043199518153	4.449721	2.109436
11.437657480066942	63.396797	7.9622107
11.455272031768422	85.08091	9.223931
11.472886855051353	107.54101	10.370198
11.490501950344528	99.23156	9.961504
11.508117318076819	84.57771	9.196614
11.52573295867715	45.91108	6.7757716
11.543348872574514	4.1905155	2.0470748
11.560965060197946	4.135792	2.0336647
11.57858152197655	4.1010857	2.0251138
11.59619825833949	4.089987	2.0223715
11.613815269715985	4.070288	2.0174956
11.631432556535323	38.562172	6.2098446
11.649050119226837	83.03346	9.11227
11.666667958219929	93.42926	9.665881
11.68428607394406	107.70484	10.378095
11.701904466828756	82.53188	9.084706
11.719523137303586	65.36654	8.084957
11.737142085798196	4.5508814	2.1332796
11.754761312742286	3.6847556	1.9195718
11.772380818565619	3.6407197	1.908067
11.790000603698015	3.6564147	1.9121754
11.80762066856935	3.6418037	1.9083511
11.825241013609572	3.6566627	1.9122403
11.842861639248683	3.6027718	1.8980969
11.860482545916748	3.513836	1.8745228
11.878103734043883	3.4156935	1.8481596
11.895725204060282	3.4097483	1.8465503
11.91334695639619	3.4069812	1.845801
11.930968991481919	3.3776977	1.8378514
11.948591309747824	3.2951188	1.8152462
11.966213911624347	3.2404888	1.8001357
11.98383679754198	3.212409	1.7923194
12.001459967931268	3.2135522	1.7926383
12.019083423222835	3.208342	1.7911845
12.036707163847352	3.2115142	1.7920698
12.05433119023556	3.1831439	1.7841368
12.071955502818259	3.160617	1.7778125
12.089580102026313	3.116582	1.7653843
12.107204988290643	3.1552737	1.776309
12.12483016204224	3.1352267	1.7706572
12.142455623712152	3.107755	1.7628826
12.16008137373149	3.0560734	1.7481629
12.177707412531431	3.0339632	1.7418275
12.19533374054321	3.039482	1.7434111
12.212960358198126	3.0613546	1.7496728
12.230587265927545	3.0442731	1.7447846
12.248214464162889	3.0005069	1.7321972
12.265841953335649	2.9984512	1.7316036
12.283469733877375	3.0080206	1.7343646
12.301097806219685	3.008056	1.7343748
12.31872617079425	2.985912	1.7279792
12.336354828032825	2.9747005	1.724732
12.353983778367205	2.9654107	1.7220368
12.371613022229262	2.914107	1.7070756
12.389242560050928	2.8943605	1.701282
12.406872392264201	2.8902798	1.7000823
12.424502519301143	2.8992202	1.7027097
12.442132941593874	2.839796	1.6851695
12.459763659574586	2.8273568	1.6814746
12.477394673675532	2.7542915	1.6596059
12.49502598432903	2.7657013	1.6630398
12.51265759196746	2.7516458	1.6588086
12.530289497023267	2.805401	1.6749332
12.547921699928967	2.8046706	1.674715
12.565554201117134	2.7827606	1.6681608
12.583187001020404	2.7626057	1.6621088
12.600820100071486	2.7315311	1.6527344
12.618453498703152	2.727551	1.6515299
12.636087197348235	2.7233112	1.6502458
12.65372119643964	2.7386131	1.6548755
12.671355496410326	2.7493837	1.6581266
12.68899009769333	2.7688475	1.6639854
12.706625000721749	2.7898607	1.6702876
12.724260205928752	2.82564	1.680964
12.741895713747551	2.8609648	1.6914387
12.759531524611454	2.8909812	1.7002885
12.777167638953818	2.8948834	1.7014357
12.794804057208072	2.8790286	1.6967701
12.812440779807702	3.0059931	1.73378
12.830077807186271	3.2093358	1.791462
12.847715139777405	3.2869544	1.812996
12.865352778014795	3.4352398	1.85344
12.882990722332197	3.5286047	1.878458
12.90062897316344	3.6004395	1.8974824
12.918267530942412	3.7046747	1.9247532
12.935906396103071	3.6102848	1.900075
12.953545569079449	3.7692463	1.9414546
12.971185050305628	3.5768147	1.8912468
12.988824840215775	3.6028678	1.8981222
13.006464939244115	3.5971296	1.89661
13.024105347824943	3.45401	1.8584967
13.041746066392617	3.5225596	1.8768483
13.05938709538157	3.3623967	1.833684
13.077028435226296	3.4079938	1.8460753
13.094670086361363	3.2734811	1.8092765
13.112312049221401	3.187528	1.7853649
13.129954324241112	3.0829678	1.7558382
13.147596911855258	2.9623117	1.7211368
13.165239812498685	2.933647	1.7127892
13.182883026606293	2.8233001	1.6802679
13.200526554613058	2.7373114	1.6544822
13.218170396954017	2.7194536	1.6490766
13.235814554064284	2.6898386	1.6400727
13.253459026379034	2.6794477	1.6369019
13.271103814333523	2.6491756	1.6276288
13.288748918363058	2.66787	1.6333616
13.306394338903031	2.6763031	1.635941
13.32404007638889	2.6716228	1.6345099
13.341686131256164	2.6770473	1.6361685
13.359332503940449	2.6517868	1.6284307
13.376979194877402	2.6810029	1.6373768
13.394626204502751	2.6896236	1.6400071
13.412273533252307	2.6965876	1.642129
13.429921181561937	2.696313	1.6420454
13.447569149867581	2.7054183	1.6448156
13.465217438605247	2.7077549	1.6455257
13.482866048211022	2.6813943	1.6374964
13.500514979121052	2.664989	1.6324794
13.518164231771568	2.6424637	1.6255656
13.535813806598844	2.6786578	1.6366606
13.553463704039254	2.6676738	1.6333015
13.571113924529229	2.6561506	1.6297702
13.588764468505275	2.6200206	1.6186478
13.606415336403956	2.676149	1.635894
13.624066528661917	2.726083	1.6510854
13.641718045715882	2.821662	1.6797804
13.659369888002635	2.8414104	1.6856483
13.67702205595903	2.8763592	1.6959833
13.694674550021993	2.9688818	1.7230444
13.712327370628532	3.0413065	1.7439342
13.729980518215713	3.1711237	1.7807649
13.747633993220681	3.2107954	1.7918693
13.765287796080647	3.2594097	1.8053836
13.7829419272329	3.2898958	1.813807
13.800596387114801	3.3176315	1.8214366
13.818251176163775	3.3553832	1.8317705
13.835906294817324	3.3846734	1.8397481
13.853561743513023	3.4191227	1.849087
13.871217522688525	3.4534464	1.858345
13.888873632781538	3.4910913	1.8684462
13.906530074229858	3.5287707	1.8785022
13.92418684747135	3.5474072	1.8834562
13.941843952943948	3.5060327	1.8724403
13.959501391085665	3.4623675	1.8607438
13.977159162334578	3.3936324	1.8421814
13.994817267128846	3.3457167	1.82913
14.012475705906693	3.2455704	1.8015467
14.030134479106424	3.1757112	1.7820525
14.047793587166414	3.1106093	1.7636919
14.065453030525108	3.087744	1.7571977
14.083112809621026	3.054065	1.7475883
14.100772924892766	2.97004	1.7233804
14.118433376778997	2.9139774	1.7070376
14.136094165718458	2.8582814	1.6906452
14.153755292149969	2.81117	1.6766545
14.171416756512416	2.7438188	1.6564476
14.189078559244768	2.6641285	1.6322159
14.20674070078606	2.6031098	1.6134156
14.224403181575408	2.5690312	1.6028198
14.242066002051999	2.5111415	1.5846581
14.259729162655093	2.442175	1.5627459
14.277392663824022	2.4185877	1.5551809
14.295056505998208	2.403684	1.5503819
14.312720689617128	2.414629	1.5539076
14.330385215120348	2.4048092	1.5507448
14.348050082947497	2.4183664	1.5551097
14.3657152935383	2.431517	1.5593323
14.383380847332528	2.425751	1.5574822
14.401046744770051	2.4252706	1.557328
14.418712986290798	2.4195158	1.5554793
14.436379572334793	2.399905	1.5491626
14.454046503342123	2.3692405	1.5392338
14.471713779752946	2.3336747	1.527637
14.489381402007504	2.3377817	1.5289806
14.507049370546113	2.3332288	1.527491
14.524717685809168	2.3464859	1.5318244
14.542386348237134	2.3484256	1.5324574
14.560055358270553	2.3657835	1.5381104
14.577724716350051	2.394382	1.547379
14.595394422916325	2.4021275	1.5498798
14.61306447841015	2.4521692	1.5659404
14.63073488327237	2.4432933	1.5631038
14.648405637943917	2.4739246	1.5728714
14.6660767428658	2.4372666	1.5611748
14.683748198479094	2.4419632	1.5626782
14.701420005224954	2.4991946	1.5808841
14.719092163544628	2.600316	1.6125495
14.73676467387942	2.6748483	1.6354964
14.754437536670727	2.6928067	1.6409774
14.772110752360014	2.6972816	1.6423403
14.78978432138882	2.6938162	1.641285
14.807458244198777	2.74139	1.6557144
14.82513252123159	2.706844	1.6452489
14.842807152929028	2.7158058	1.6479702
14.860482139732962	2.6422815	1.6255096
14.87815748208531	2.624585	1.6200571
14.8958331804281	2.6217177	1.6191719
14.91350923520342	2.6207085	1.6188602
14.931185646853438	2.6572318	1.6301018
14.948862415820408	2.639374	1.6246151
14.966539542546656	2.6233904	1.6196884
14.98421702747459	2.5699317	1.6031007
15.001894871046696	2.5778854	1.6055795
15.019573073705542	2.5814426	1.6066868
15.037251635893766	2.6116168	1.6160498
15.054930558054092	2.6508002	1.6281278
15.072609840629323	2.721786	1.6497836
15.090289484062351	2.8388886	1.6849002
15.107969488796124	3.057162	1.7484742
15.125649855273691	3.439379	1.8545563
15.14333058393817	3.9510896	1.9877348
15.161011675232768	4.9280562	2.2199225
15.17869312960076	6.2215967	2.4943128
15.196374947485506	8.006178	2.829519
15.214057129330447	10.942056	3.3078778
15.231739675579114	15.636809	3.9543405
15.249422586675102	20.915417	4.5733376
15.267105863062092	24.391226	4.9387474
15.284789505183847	24.852715	4.9852495
15.302473513484218	22.885042	4.783831
15.320157888407127	19.323292	4.395827
15.337842630396578	15.096019	3.8853595
15.355527739896656	11.697807	3.4202058
15.37321321735153	9.031232	3.0052009
15.39089906320545	6.5605884	2.5613647
15.408585277902748	4.880032	2.2090795
15.42627186188783	3.7204938	1.9288582
15.443958815605198	3.1444457	1.7732584
15.461646139499424	2.8408797	1.685491
15.479333834015168	2.681445	1.6375118
15.497021899597165	2.629138	1.6214616
15.514710336690234	2.6340065	1.6229622
15.53239914573928	2.6182878	1.6181124
15.550088327189297	2.53646	1.5926267
15.567777881485336	2.4838192	1.5760137
15.58546780907256	2.456992	1.5674795
15.6031581103962	2.4477308	1.5645225
15.620848785901568	2.3918257	1.5465528
15.638539836034063	2.385946	1.5446508
15.656231261239173	2.3948185	1.5475202
15.673923061962451	2.413287	1.5534757
15.691615238649552	2.4253335	1.5573483
15.709307791746202	2.420189	1.5556957
15.727000721698221	2.419504	1.5554755
15.744694028951498	2.4169111	1.5546418
15.76238771395202	2.387597	1.5451851
15.780081777145844	2.3684587	1.5389798
15.797776218979125	2.3641882	1.5375917
15.815471039898094	2.3562417	1.5350055
15.833166240349064	2.3630643	1.5372262
15.850861820778437	2.3445466	1.5311912
15.868557781632699	2.3935428	1.5471078
15.886254123358412	2.4178908	1.5549568
15.903950846402232	2.4550693	1.566866
15.921647951210897	2.40674	1.5513672
15.939345438231225	2.3805351	1.5428983
15.957043307910133	2.3520918	1.5336531
15.974741560694602	2.3695326	1.5393286
15.992440197031714	2.3807762	1.5429764
16.01013921736862	2.3799999	1.5427248
16.02783862215259	2.401395	1.5496435
16.045538411830933	2.4094627	1.5522444
16.06323858685107	2.4090717	1.5521184
16.080939147660512	2.399201	1.5489354
16.09864009470684	2.3938403	1.547204
16.11634142843774	2.4098299	1.5523627
16.134043149300954	2.4281774	1.558261
16.15174525774433	2.4097967	1.552352
16.169447754215817	2.3932128	1.5470012
16.18715063916342	2.3979168	1.5485208
16.204853913035244	2.4315798	1.5593524
16.222557576279478	2.4523878	1.5660101
16.240261629344403	22.375399	4.730264
16.257966072678386	42.912403	6.550756
16.275670906729868	38.05336	6.1687407
16.293376131947387	2.5011387	1.5814989
16.31108174877957	2.4995782	1.5810055
16.328787757675133	2.5400298	1.5937471
16.34649415908287	2.577173	1.6053576
16.364200953451657	2.6107664	1.6157867
16.38190814123048	2.664129	1.632216
16.39961572286839	2.657121	1.6300678
16.41732369881455	2.6424646	1.6255659
16.43503206951817	2.629569	1.6215945
16.45274083542859	2.6942742	1.6414244
16.47044999699522	2.7633543	1.662334
16.488159554667558	2.7700841	1.664357
16.505869508895184	2.7662036	1.6631908
16.523579860127786	2.7987356	1.6729422
16.541290608815117	2.8492904	1.6879841
16.559001755407035	2.9576125	1.719771
16.57671330035348	2.9820495	1.7268611
16.59442524410448	3.0676801	1.7514794
16.61213758711015	3.1556869	1.7764254
16.629850329820705	3.2837906	1.8121232
16.647563472686436	3.3894231	1.8410386
16.665277016157724	3.4074228	1.8459206
16.682990960685053	3.443972	1.8557942
16.70070530671898	3.4331167	1.8528671
16.718420054710155	3.4291906	1.8518074
16.736135205109335	3.4953847	1.8695948
16.753850758367335	3.5641563	1.8878974
16.771566714935087	3.589429	1.8945788
16.789283075263597	3.613073	1.9008086
16.80699983980398	3.6704376	1.9158386
16.82471700900741	3.783222	1.9450506
16.84243458332518	3.8715453	1.9676243
16.860152563208665	3.9601457	1.9900115
16.87787094910932	4.028937	2.0072212
16.89558974147871	4.0795965	2.0198011
16.913308940768466	4.1216288	2.0301795
16.931028547430333	4.223757	2.055178
16.94874856191613	4.3131475	2.0768118
16.966468984677785	4.3435664	2.0841224
16.98418981616729	4.355639	2.0870168
17.00191105683676	4.4025407	2.0982232
17.019632707138374	4.4864707	2.118129
17.03735476752442	4.5606213	2.1355612
17.05507723844728	4.5680833	2.1373074
17.072800120359403	4.554266	2.1340725
17.090523413713353	4.596823	2.1440203
17.108247118961785	4.6159844	2.1484842
17.125971236557437	4.626231	2.1508675
17.143695766953133	4.604898	2.1459026
17.161420710601806	4.6280246	2.1512845
17.179146067956477	4.680518	2.1634505
17.19687183947025	4.6818843	2.1637661
17.21459802559634	4.6390324	2.1538413
17.232324626788028	4.6177716	2.1489
17.25005164349871	4.6172695	2.1487832
17.267779076181863	4.586726	2.1416643
17.285506925291074	4.5464377	2.1322377
17.30323519127999	4.536527	2.1299124
17.320963874602384	4.5416737	2.1311202
17.33869297571211	4.5447598	2.1318443
17.356422495063114	4.5561485	2.1345136
17.37415243310944	4.4959846	2.1203737
17.391882790305218	4.4572463	2.1112192
17.40961356710468	4.5039363	2.122248
17.42734476396215	4.5561895	2.1345232
17.445076381332044	4.5947437	2.1435354
17.462808419668868	4.59544	2.1436977
17.48054087942723	4.710469	2.1703615
17.498273761061835	4.946607	2.224097
17.51600706502747	5.356123	2.3143299
17.533740791779024	6.095677	2.4689424
17.551474941771485	7.5878587	2.7546067
17.56920951545993	8.672465	2.944905
17.586944513299528	10.903792	3.302089
17.60467993574556	12.551339	3.5427868
17.622415783253373	14.424567	3.7979689
17.64015205627843	16.012651	4.001581
17.657888755276293	17.278593	4.1567526
17.675625880702604	17.797415	4.218698
17.69336343301311	17.601475	4.195411
17.71110141266366	16.63837	4.0790157
17.728839820110178	15.624715	3.952811
17.746578655808705	14.65761	3.8285258
17.764317920215372	13.050021	3.6124814
17.7820576137864	11.365151	3.371224
17.79979773697811	9.30133	3.049808
17.81753829024692	7.404852	2.7211857
17.835279274049356	5.7577167	2.3995242
17.85302068884201	4.778828	2.186053
17.870762535081607	4.177362	2.0438595
17.888504813224934	3.896975	1.9740758
17.90624752372891	3.68648	1.9200208
17.923990667050536	3.6140702	1.9010708
17.941734243646895	3.521645	1.8766047
17.959478253975185	3.4739196	1.8638453
17.9772226984927	3.3876407	1.8405545
17.994967577656833	3.399763	1.8438447
18.01271289192506	3.4104435	1.8467386
18.030458641754965	3.4264731	1.8510735
18.04820482760425	3.3930364	1.8420197
18.06595144993067	3.3856077	1.8400021
18.083698509192125	3.3563857	1.8320441
18.101446005846576	3.318611	1.8217055
18.119193940352105	3.2545016	1.8040237
18.136942313166887	3.2162893	1.7934016
18.1546911247492	3.192858	1.786857
18.1724403755574	3.1694646	1.7802991
18.19019006604997	3.1712122	1.7807897
18.207940196685467	3.1036534	1.7617189
18.225690767922575	3.0528116	1.7472297
18.243441780220046	3.0217984	1.738332
18.261193234036764	3.0104322	1.7350597
18.278945129831676	3.0644817	1.7505661
18.29669746806386	3.0506763	1.7466185
18.314450249192483	3.027301	1.7399141
18.3322034736768	2.9932632	1.7301049
18.349957141976184	3.0245	1.7391089
18.3677112545501	3.019601	1.7377
18.385465811858108	3.0076985	1.7342718
18.403220814359884	2.9808617	1.7265172
18.420976262515172	3.008681	1.734555
18.43873215678387	3.0552416	1.7479249
18.456488497625923	3.0715148	1.7525737
18.474245285501407	3.1318855	1.7697134
18.492002520870486	3.2305062	1.7973609
18.50976020419343	3.348389	1.8298603
18.527518335930615	3.669941	1.915709
18.545276916542516	4.2332015	2.0574746
18.563035946489688	4.420743	2.1025562
18.580795426232832	4.8768835	2.2083666
18.598555356232698	4.697456	2.1673615
18.616315736950185	4.9095335	2.2157466
18.63407656884626	4.5522747	2.133606
18.65183785238201	4.7563696	2.1809103
18.669599588018617	4.567769	2.137234
18.68736177621737	4.570616	2.1378999
18.705124417439652	4.536239	2.129845
18.72288751214696	4.343449	2.0840943
18.740651060800886	4.4872885	2.1183221
18.758415063863115	4.231514	2.0570643
18.77617952179546	4.3816557	2.0932405
18.793944435059814	4.105281	2.0261493
18.811709804118184	4.127332	2.0315838
18.829475629432675	4.081492	2.0202703
18.8472419114655	3.8991356	1.9746228
18.86500865067897	3.9862375	1.9965564
18.88277584753551	3.7092323	1.9259367
18.90054350249763	3.7432997	1.9347609
18.918311616027957	3.4160044	1.8482436
18.936080188589226	3.3153892	1.820821
18.953849220644265	2.997255	1.7312583
18.971618712656007	2.8560803	1.6899942
18.9893886650875	2.797491	1.6725702
19.007159078401887	7.9807396	2.8250203
19.024929953062408	32.873177	5.7335134
19.042701289532435	32.847622	5.7312846
19.060473088275405	25.434282	5.043241
19.07824534975489	2.698242	1.6426326
19.096018074434568	2.6258028	1.6204329
19.113791262778197	2.5998123	1.6123934
19.13156491524966	2.6136155	1.616668
19.149339032312945	2.6256711	1.6203923
19.167113614432136	2.5873933	1.6085377
19.184888662071433	2.5585616	1.5995504
19.202664175695123	2.5449388	1.5952865
19.220440155767623	2.5300853	1.5906242
19.238216602753447	2.5379639	1.5930989
19.2559935171172	2.5303802	1.5907168
19.27377089932361	2.5280921	1.5899975
19.291548749837514	2.500204	1.5812033
19.309327069123835	2.5101926	1.5843587
19.32710585764763	2.4740813	1.5729213
19.344885115874032	2.427836	1.5581515
19.362664844268313	2.4109151	1.5527122
19.380445043295822	2.3811097	1.5430845
19.39822571342203	2.419399	1.5554417
19.41600685511252	2.4420679	1.5627117
19.43378846883297	2.4873288	1.5771267
19.451570555049173	2.505223	1.5827897
19.469353114227037	2.5230882	1.5884231
19.48713614683254	2.5285752	1.5901494
19.50491965333182	2.5203514	1.5875615
19.52270363419109	2.4970036	1.580191
19.540488089876686	2.4516928	1.5657883
19.55827302085503	2.4593992	1.5682472
19.576058427592674	2.480638	1.5750041
19.593844310556282	2.5043168	1.5825033
19.611630670212598	2.485985	1.5767007
19.629417507028506	2.4696794	1.5715214
19.64720482147098	2.4792604	1.5745667
19.6649926140071	2.4771109	1.573884
19.682780885104084	2.4774406	1.5739888
19.70056963522921	2.473456	1.5727224
19.718358864849908	2.479637	1.5746863
19.7361485744337	2.4917924	1.5785413
19.753938764448215	2.5044777	1.5825542
19.771729435361202	2.4670358	1.57068
19.789520587640506	2.4438472	1.5632809
19.807312221754092	2.459387	1.5682433
19.825104338170043	2.4748693	1.5731717
19.842896937356517	2.511908	1.5849
19.860690019781824	2.4988647	1.5807798
19.87848358591436	2.5120702	1.5849512
19.896277636222635	2.480354	1.574914
19.914072171175278	2.5011737	1.58151
19.931867191241015	2.5343246	1.5919563
19.94966269688869	2.547838	1.5961949
19.967458688587264	2.5204906	1.5876054
19.985255166805807	2.481134	1.5751616
20.00305213201348	2.4572847	1.5675728
20.020849584679578	2.4686701	1.5712003
20.038647525273507	2.455442	1.566985
20.05644595426477	2.4633613	1.5695099
20.07424487212299	2.4440222	1.5633368
20.092044279317903	2.4791837	1.5745424
20.109844176319353	2.4672084	1.570735
20.127644563597304	2.4217522	1.556198
20.145445441621817	2.3782954	1.5421723
20.16324681086307	2.3730195	1.5404608
20.181048671791373	2.389762	1.5458854
20.198851024877122	2.4026492	1.5500481
20.216653870590836	2.3918214	1.5465515
20.234457209403146	2.3546584	1.5344896
20.252261041784802	2.3613348	1.5366635
20.270065368206662	2.3443832	1.531138
20.287870189139685	2.3539174	1.5342481
20.305675505054968	2.352432	1.533764
20.323481316423702	2.373114	1.5404915
20.341287623717207	2.3692656	1.5392419
20.359094427406884	2.3603816	1.5363533
20.376901727964288	2.3337262	1.5276538
20.39470952586107	2.3540487	1.5342909
20.41251782156899	2.399295	1.5489658
20.430326615559935	2.409557	1.5522748
20.448135908305886	2.354965	1.5345895
20.465945700278965	2.2970872	1.5156145
20.483755991951384	2.2809224	1.5102723
20.50156678379548	2.3057222	1.5184605
20.519378076283708	2.3221555	1.523862
20.537189869888635	2.3093922	1.5196685
20.55500216508294	2.3229518	1.5241233
20.572814962339415	2.287565	1.5124699
20.59062826213098	2.2785208	1.509477
20.60844206493066	2.2740762	1.5080041
20.626256371211593	2.2913618	1.5137244
20.644071181447032	2.3087137	1.5194452
20.66188649611036	2.3206391	1.5233644
20.67970231567506	2.3337553	1.5276634
20.697518640614742	2.3424053	1.5304918
20.715335471403122	2.3253596	1.524913
20.73315280851404	2.2851098	1.511658
20.750970652421447	2.28354	1.5111387
20.768789003599412	2.2982614	1.5160018
20.786607862522136	2.3055313	1.5183976
20.8044272296639	2.2540534	1.5013505
20.82224710549913	2.243169	1.4977213
20.84006749050237	2.232068	1.4940107
20.857888385148268	3.8057504	1.9508332
20.8757097899116	45.92198	6.776576
20.893531705267254	64.76917	8.04793
20.911354131690224	83.80328	9.154413
20.92917706965566	69.05102	8.309694
20.94700051963877	50.115005	7.079195
20.96482448211493	29.390007	5.421255
20.982648957559622	4.1422114	2.0352423
21.00047394644843	2.2626283	1.5042036
21.01829944925707	2.2426481	1.4975474
21.036125466461375	2.2375915	1.4958581
21.053951998537297	2.2318063	1.4939231
21.071779045960906	2.2208967	1.4902673
21.089606609208378	2.2039938	1.4845854
21.10743468875603	2.2371182	1.4956999
21.12526328508028	2.248403	1.4994676
21.143092398657675	2.2127242	1.4875228
21.16092202996488	2.1573951	1.4688073
21.17875217947867	2.137401	1.4619853
21.19658284767596	2.160187	1.4697574
21.21441403503377	2.1538398	1.4675967
21.232245742029225	2.177745	1.4757185
21.2500779691396	2.170606	1.4732976
21.26791071684227	2.175758	1.4750451
21.28574398561475	2.1442842	1.4643375
21.30357777593465	2.151849	1.4669182
21.321412088279704	2.1235723	1.4572482
21.339246923127792	2.137142	1.4618967
21.357082280956888	2.1030176	1.4501785
21.3749181622451	2.10171	1.4497275
21.392754567470647	2.1259377	1.4580595
21.41059149711187	2.1357358	1.4614156
21.42842895164726	2.1118991	1.4532374
21.446266931555378	2.1045403	1.4507034
21.464105437314945	2.1021535	1.4498805
21.481944469404798	2.109802	1.4525157
21.49978402830388	2.1133466	1.4537354
21.51762411449127	2.0858798	1.4442575
21.53546472844617	2.0607219	1.4355215
21.553305870647876	2.058711	1.4348209
21.571147541575865	2.0778291	1.4414676
21.58898974170967	2.0864098	1.444441
21.60683247152899	2.071632	1.4393165
21.62467573151363	2.0838425	1.443552
21.642519522143523	2.0802252	1.4422987
21.660363843898722	2.0793495	1.441995
21.6782086972594	2.084305	1.4437122
21.696054082705864	2.0615864	1.4358225
21.713900000718535	2.0280828	1.4241078
21.73174645177795	1.9773741	1.4061913
21.749593436364794	1.9851536	1.4089547
21.767440954959845	1.9922633	1.4114755
21.785289008044032	2.01101	1.4181008
21.803137596098388	1.9905626	1.4108729
21.820986719604086	2.003726	1.4155303
21.838836379042412	2.0397048	1.4281824
21.85668657489478	2.0476165	1.4309494
21.87453730764273	2.005475	1.416148
21.892388577767914	1.9716808	1.4041655
21.91024038575213	1.9752742	1.4054445
21.928092732077285	1.9701399	1.4036167
21.945945617225426	1.9825809	1.4080415
21.963799041678694	1.9810002	1.4074801
21.981653005919398	31.316116	5.5960803
21.999507510429943	78.117455	8.8384075
22.01736255569286	73.08699	8.549093
22.035218142190818	4.1592693	2.0394287
22.05307427040661	1.9750601	1.4053683
22.07093094082315	1.9542432	1.3979424
22.088788153923474	1.9660441	1.402157
22.106645910190746	1.9259595	1.3877894
22.12450421010827	1.9173002	1.3846661
22.142363054159464	1.9214985	1.3861812
22.16022244282787	1.9641527	1.4014823
22.178082376597164	1.9730043	1.4046367
22.195942855951145	1.9819785	1.4078276
22.213803881373742	1.9809312	1.4074556
22.231665453349002	1.9821076	1.4078734
22.24952757236111	1.9653685	1.401916
22.26739023889438	1.9539522	1.3978384
22.28525345343323	1.9077863	1.3812263
22.30311721646225	1.9154272	1.3839896
22.320981528466113	1.9125519	1.3829504
22.33884638992964	1.9517497	1.3970504
22.356711801337788	1.9765662	1.405904
22.37457776317561	1.9828081	1.4081222
22.392444275928337	1.9448601	1.3945824
22.410311340081282	1.9508914	1.3967432
22.428178956119904	1.9679605	1.4028401
22.446047124529805	1.9891622	1.4103767
22.46391584579669	1.9570065	1.3989304
22.481785120406414	1.927838	1.388466
22.49965494884496	1.8940214	1.3762345
22.51752533159841	1.9168118	1.3844898
22.53539626915302	1.9183661	1.3850509
22.553267761995137	1.8670646	1.3664057
22.571139810611264	1.841551	1.3570375
22.589012415488025	1.9192874	1.3853835
22.60688557711216	1.9456352	1.3948603
22.624759295970566	1.9210819	1.386031
22.642633572550263	1.8775516	1.3702378
22.660508407338362	1.8755713	1.369515
22.67838380082217	1.888074	1.3740721
22.696259753489077	1.9360121	1.3914065
22.714136265826614	1.9462142	1.3950678
22.73201333832246	1.9346957	1.3909334
22.74989097146439	1.8912067	1.3752115
22.76776916574035	1.877417	1.3701887
22.785647921638393	1.8624252	1.364707
22.803527239646712	1.8888988	1.3743721
22.82140712025363	1.9209578	1.3859862
22.839287563947593	1.9564054	1.3987156
22.85716857121719	1.9519014	1.3971046
22.875050142551135	1.9139559	1.383458
22.892932278438277	1.9089746	1.3816565
22.910814979367604	1.886132	1.3733652
22.928698245828222	1.9024273	1.3792851
22.946582078309387	1.8961235	1.3769981
22.96446647730047	1.9038334	1.3797947
22.98235144329098	1.8516177	1.3607416
23.000236976770562	1.8238767	1.3505098
23.018123078229	1.8449587	1.3582926
23.03600974815619	1.8911315	1.3751842
23.053896987042194	1.8755499	1.3695072
23.071784795377173	1.9043579	1.3799847
23.08967317365145	1.9423518	1.3936828
23.10756212235546	1.9522088	1.3972147
23.125451641979787	1.9145876	1.3836862
23.143341733015134	1.9292318	1.3889679
23.161232395952357	1.9596664	1.3998809
23.179123631282426	1.9699655	1.4035546
23.197015439496468	1.9106239	1.3822532
23.214907821085717	1.8536116	1.361474
23.23280077654157	1.8492521	1.3598721
23.250694306355538	1.8672869	1.366487
23.268588411019277	1.8920358	1.375513
23.28648309102458	1.8936836	1.3761117
23.304378346863356	1.9136748	1.3833563
23.322274179027676	1.8864403	1.3734775
23.340170588009723	1.8633312	1.3650389
23.358067574301852	1.870606	1.3677009
23.37596513839651	1.9381493	1.3921744
23.39386328078629	1.989104	1.410356
23.411762001963947	1.9496906	1.3963132
23.429661302422353	1.8977885	1.3776025
23.4475611826545	1.8584343	1.363244
23.46546164315356	1.8686137	1.3669724
23.48336268441279	1.8833709	1.3723596
23.501264306925638	1.898403	1.3778255
23.51916651118564	1.9375486	1.3919586
23.537069297686497	1.9351752	1.3911058
23.554972666922037	1.9318182	1.3898987
23.57287661938623	1.9166076	1.384416
23.59078115557318	1.9379277	1.3920947
23.608686275977128	1.933987	1.3906786
23.62659198109246	1.9417521	1.3934677
23.6444982714137	1.9155844	1.3840464
23.66240514743549	1.9227575	1.3866353
23.68031260965263	1.9195927	1.3854936
23.698220658560068	1.8881721	1.3741077
23.716129294652845	1.877079	1.3700653
23.7340385184262	1.8729309	1.3685507
23.75194833037546	1.8698232	1.3674148
23.769858730996123	1.9066708	1.3808225
23.78776972078382	1.8987881	1.3779652
23.80568130023431	1.9052037	1.3802912
23.823593469843495	1.9159155	1.384166
23.841506230107424	1.9429075	1.3938822
23.859419581522275	1.9364789	1.3915743
23.87733352458438	1.9215842	1.3862122
23.89524805979019	1.9038408	1.3797973
23.913163187636318	1.8742554	1.3690345
23.931078908619508	1.8771671	1.3700975
23.948995223236633	1.8952359	1.3766757
23.966912131984735	1.9150578	1.3838562
23.98482963536096	1.9525098	1.3973223
24.002747733862616	2.0000317	1.4142247
24.020666427987155	2.0219731	1.4219611
24.038585718232156	2.0354006	1.4266747
24.056505605095353	2.0080962	1.4170731
24.074426089074617	2.0268106	1.423661
24.092347170667946	2.029715	1.4246807
24.110268850373515	2.0569675	1.4342132
24.128191128689586	2.0299492	1.4247628
24.146114006114626	2.009935	1.4177217
24.164037483147187	2.034281	1.4262823
24.181961560286005	2.067328	1.4378206
24.199886238029926	2.057507	1.4344013
24.21781151687797	2.0328102	1.4257666
24.235737397329274	2.0544624	1.4333396
24.253663879883135	2.0563676	1.4340041
24.271590965038975	2.0237973	1.4226023
24.289518653296376	2.026777	1.4236492
24.30744694515505	2.0151432	1.4195573
24.32537584111486	2.0199194	1.4212387
24.34330534167581	1.9892377	1.4104034
24.361235447338046	1.9857849	1.4091789
24.379166158601876	1.9493748	1.3962002
24.39709747596772	1.9301403	1.3892949
24.41502939993615	1.9243243	1.3872001
24.432961931007917	1.9577199	1.3991854
24.450895069683856	1.957966	1.3992734
24.468828816465	1.9846734	1.4087844
24.4867631718525	2.002891	1.4152353
24.504698136347656	2.0302572	1.424871
24.52263371045192	2.0139942	1.4191526
24.540569894666874	1.9736862	1.4048795
24.558506689494266	1.9685898	1.4030644
24.57644409543597	1.9717526	1.4041911
24.594382112994012	1.9423071	1.3936667
24.61232074267057	1.9411212	1.3932413
24.630259984967953	1.930724	1.3895049
24.64819984038863	1.8924423	1.3756607
24.66614030943522	1.9031578	1.3795499
24.684081392610462	1.939401	1.3926238
24.702023090417274	2.001244	1.4146533
24.7199654033587	2.0064118	1.4164786
24.737908331937927	1.9860849	1.4092853
24.755851876658305	1.9965814	1.4130044
24.773796038023324	2.0249538	1.4230087
24.79174081653661	2.050544	1.431972
24.809686212701962	2.0320718	1.4255075
24.827632227023294	2.0509965	1.4321301
24.8455788600047	2.0708582	1.4390477
24.8635261121504	2.111477	1.4530922
24.88147398396475	2.108643	1.4521167
24.899422475952303	2.0471792	1.4307967
24.917371588617698	1.9940302	1.4121014
24.935321322465768	2.0957086	1.4476563
24.953271678001478	2.2559478	1.5019813
24.97122265572994	2.4721472	1.5723064
24.989174256156414	2.7932956	1.6713156
25.00712647978632	3.3000245	1.816597
25.02507932712521	3.8654673	1.9660791
25.043032798678798	4.4358807	2.106153
25.060986894952933	5.0880394	2.2556682
25.078941616453637	5.829981	2.4145353
25.096896963687055	6.7956486	2.6068466
25.114852937159508	7.981841	2.8252153
25.132809537377444	8.552697	2.9244995
25.150766764847468	8.603292	2.933137
25.168724620076347	8.07839	2.8422508
25.186683103570985	6.9737773	2.640791
25.204642215838426	5.631917	2.373166
25.222601957385894	4.1619453	2.0400846
25.24056232872074	3.165257	1.7791169
25.25852333035048	2.5820005	1.6068604
25.276484962782778	2.2321546	1.4940397
25.294447226525435	2.0679321	1.4380306
25.312410122086423	1.9903107	1.4107836
25.330373649973843	1.9131426	1.3831639
25.348337810695988	1.9047171	1.3801149
25.366302604761245	1.9239583	1.3870683
25.384268032678207	1.9508909	1.3967429
25.40223409495558	1.9437686	1.394191
25.420200792102257	1.9270657	1.3881879
25.438168124627246	1.8915173	1.3753244
25.45613609303974	1.8727828	1.3684965
25.474104697849057	1.8860378	1.373331
25.492073939564698	1.8929558	1.3758473
25.510043818696285	1.8749309	1.3692812
25.528014335753614	1.84319	1.3576413
25.54598549124664	1.8357649	1.354904
25.56395728568544	1.8967062	1.3772095
25.58192971958028	1.9120315	1.3827623
25.59990279344156	1.9096696	1.3819079
25.617876507779833	1.8940808	1.3762561
25.635850863105826	1.8562561	1.3624449
25.653825859930386	1.8295375	1.352604
25.671801498764548	1.8247721	1.3508413
25.68977778011949	1.8302184	1.3528557
25.707754704506524	1.8067218	1.3441435
25.725732272437153	1.8101006	1.3453997
25.743710484423012	1.8105013	1.3455487
25.761689340975888	1.8124883	1.3462869
25.77966884260774	1.8472368	1.3591309
25.797648989830662	1.879247	1.3708563
25.815629783156922	1.8469297	1.3590178
25.83361122309895	1.8096277	1.345224
25.85159331016929	1.8474407	1.359206
25.869576044880695	1.8915429	1.3753338
25.887559427746034	1.8734801	1.3687513
25.90554345927836	1.8673717	1.3665181
25.92352813999086	1.8334161	1.3540369
25.94151347039689	1.8038332	1.3430686
25.959499451009965	1.7845783	1.3358811
25.97748608234374	1.8264252	1.351453
25.995473364912062	1.8652614	1.3657458
26.013461299228904	1.9002312	1.3784888
26.03144988580839	1.8882264	1.3741275
26.04943912516483	1.8391223	1.3561424
26.067429017812675	1.8252455	1.3510165
26.085419564266537	1.831106	1.3531836
26.103410765041186	1.8495861	1.3599949
26.12140262065155	1.8146056	1.347073
26.139395131612723	1.7585392	1.3260993
26.157388298439948	1.7843685	1.3358026
26.17538212164861	1.8058544	1.3438208
26.193376601754295	1.8456815	1.3585587
26.211371739272714	1.835215	1.354701
26.229367534719746	1.8504965	1.3603295
26.247363988611433	1.8371164	1.3554027
26.26536110146397	1.8626965	1.3648064
26.283358873793727	1.8524337	1.3610414
26.301357306117204	1.8265909	1.3515143
26.319356398951104	1.7733979	1.3316898
26.33735615281224	1.8019687	1.3423743
26.35535656821762	1.7709538	1.3307719
26.373357645684404	1.8192077	1.34878
26.39135938572991	1.8344109	1.3544042
26.409361788871614	1.8233335	1.3503087
26.427364855627165	1.7907077	1.3381733
26.445368586514352	1.80655	1.3440796
26.46337298205115	1.818492	1.3485148
26.48137804275568	1.8959445	1.376933
26.499383769146217	1.9206195	1.3858641
26.517390161741215	1.8833487	1.3723515
26.53539722105928	1.8270969	1.3517015
26.553404947619182	1.8361331	1.35504
26.571413341939856	1.8147893	1.3471411
26.589422404540397	1.8278112	1.3519657
26.60743213594006	1.8270522	1.3516849
26.62544253665827	1.8352832	1.3547262
26.64345360721459	1.8739966	1.36894
26.66146534812879	1.8502207	1.3602282
26.679477759920758	1.805434	1.3436644
26.69749084311057	1.8210022	1.3494451
26.71550459821847	1.815939	1.3475678
26.733519025764842	1.801868	1.3423368
26.751534126270258	1.8013313	1.3421369
26.769549900255434	1.8156835	1.347473
26.787566348241267	1.7952759	1.339879
26.80558347074881	1.8072315	1.3443332
26.823601268299267	1.8299935	1.3527725
26.841619741414036	1.8417268	1.3571024
26.85963889061465	1.8182414	1.3484218
26.877658716422832	1.8159773	1.347582
26.89567921936045	1.8509151	1.3604834
26.913700399949544	1.8209743	1.3494349
26.93172225871233	1.7884036	1.3373121
26.949744796171174	1.7916421	1.3385223
26.967768012848605	1.8106614	1.3456082
26.98579190926733	1.8089615	1.3449764
27.003816485950225	1.8070165	1.3442532
27.021841743420318	1.8268847	1.351623
27.039867682200814	1.7987359	1.3411696
27.057894302815072	1.7449589	1.3209689
27.07592160578664	1.7497925	1.3227972
27.0939495916392	1.7872227	1.3368706
27.111978260896635	1.81432	1.346967
27.13000761408296	1.8370646	1.3553835
27.148037651722397	1.8039986	1.3431301
27.166068374339304	1.7530524	1.3240288
27.184099782458215	1.777703	1.3333054
27.20213187660384	1.8647456	1.3655568
27.22016465730105	1.869727	1.3673797
27.23819812507487	1.8223035	1.3499272
27.256232280450533	1.7866197	1.3366449
27.274267123953383	1.8010732	1.3420407
27.292302656108987	1.7852914	1.336148
27.31033887744306	1.8049937	1.3435006
27.32837578848146	1.791842	1.338597
27.34641338975026	1.7829762	1.3352813
27.364451681775673	1.7938265	1.3393381
27.382490665084074	1.8364502	1.3551569
27.400530340202046	1.8398246	1.3564013
27.41857070765629	1.8164661	1.3477634
27.436611767973726	1.8274459	1.3518306
27.454653521681404	1.8432547	1.3576652
27.472695969306564	1.8219106	1.3497818
27.490739111376627	1.7604173	1.3268071
27.508782948419153	1.7787689	1.333705
27.526827480961902	1.8060656	1.3438994
27.54487270953279	1.816426	1.3477485
27.562918634659898	1.7577419	1.3257986
27.580965256871508	1.722318	1.3123711
27.599012576696026	1.7411281	1.3195181
27.617060594662068	1.8229346	1.350161
27.63510931129842	1.8742442	1.3690304
27.65315872713401	1.8642044	1.3653587
27.67120884269797	1.8317621	1.3534261
27.68925965851958	1.8151797	1.3472861
27.707311175128307	1.843374	1.357709
27.725363393053787	1.8708755	1.3677995
27.74341631282583	1.8598076	1.3637476
27.7614699349744	1.8393635	1.3562313
27.77952426002968	1.9651368	1.4018334
27.797579288521973	2.0543203	1.43329
27.815635020981784	2.4330423	1.5598212
27.83369145793979	2.51731	1.5866033
27.85174859992682	2.4219685	1.5562675
27.869806447473923	2.2538602	1.5012861
27.887865001112267	1.9687736	1.4031299
27.905924261373233	1.9503332	1.3965433
27.92398422878836	1.9667368	1.402404
27.94204490388936	1.9610177	1.4003634
27.96010628720813	1.9295721	1.3890904
27.978168379276728	1.8907921	1.3750608
27.9962311806274	1.8533986	1.3613958
28.014294691792568	1.8415688	1.3570441
28.0323589133048	1.8455273	1.3585019
28.050423845696887	1.8589174	1.3634212
28.068489489501758	1.8347753	1.3545388
28.086555845252523	1.8302684	1.3528742
28.104622913482487	1.8189427	1.3486818
28.122690694725115	1.8244021	1.3507043
28.14075918951405	1.8707281	1.3677456
28.15882839838312	1.8928062	1.375793
28.176898321866304	1.8768864	1.369995
28.1949689604978	1.8715446	1.368044
28.213040314811945	1.870059	1.367501
28.23111238534327	1.8928366	1.375804
28.249185172626493	1.8872429	1.3737696
28.267258677196473	1.909068	1.3816903
28.285332899588294	1.9309984	1.3896037
28.303407840337172	1.9844681	1.4087116
28.321483499978545	1.9397926	1.3927643
28.33955987904799	1.9062726	1.3806783
28.357636978081285	1.9320359	1.389977
28.37571479761439	1.9505515	1.3966215
28.393793338183425	1.9426483	1.3937892
28.41187260032469	1.9700192	1.4035738
28.429952584574686	1.9506217	1.3966466
28.448033291470065	1.9253923	1.387585
28.46611472154769	1.9360375	1.3914157
28.484196875344566	1.928903	1.3888495
28.502279753397914	1.9115322	1.3825817
28.52036335624511	1.9509164	1.3967521
28.538447684423716	1.9667737	1.4024171
28.556532738471482	1.925946	1.3877846
28.574618518926325	1.9648993	1.4017487
28.59270502632635	2.0078542	1.4169878
28.61079226120985	2.067491	1.4378773
28.628880224115274	2.0062099	1.4164073
28.646968915581287	1.9993368	1.413979
28.66505833614671	2.0533192	1.4329407
28.68314848635055	2.0543137	1.4332877
28.701239366732004	2.0745604	1.4403335
28.71933097783044	2.0934002	1.4468588
28.737423320185403	2.128251	1.4588526
28.75551639433665	2.0783968	1.4416646
28.773610200824074	2.0274937	1.4239008
28.791704740187793	2.0656834	1.4372486
28.80980001296809	2.163954	1.4710385
28.827896019705413	2.1720529	1.4737886
28.845992760940433	2.1660008	1.4717339
28.86409023721397	2.176986	1.4754612
28.88218844906704	2.1910186	1.480209
28.900287397040845	2.2197413	1.4898796
28.918387081676755	2.2680743	1.5060127
28.936487503516343	2.2808707	1.5102552
28.954588663101365	2.3001852	1.5166361
28.97269056097374	2.2403598	1.4967831
28.990793197675597	2.2358284	1.4952687
29.00889657374923	2.3158379	1.5217878
29.027000689737125	2.3814015	1.543179
29.04510554618196	2.403307	1.5502603
29.06321114362659	2.3639576	1.5375167
29.08131748261405	2.4059112	1.5511
29.099424563687567	2.4641986	1.5697767
29.11753238739057	2.4547696	1.5667704
29.13564095426663	2.5152917	1.5859671
29.15375026485954	2.591313	1.6097555
29.171860319713275	2.5864143	1.6082333
29.18997111937199	2.570951	1.6034186
29.20808266438002	2.6701088	1.6340468
29.226194955281898	2.7165465	1.6481949
29.244307992622335	2.7789025	1.6670041
29.26242177694624	2.8442595	1.6864933
29.2805363087987	2.937345	1.7138685
29.29865158872498	2.9516122	1.7180257
29.316767617270557	2.8717	1.6946092
29.334884394981064	2.8911507	1.7003384
29.353001922402367	3.0139387	1.7360699
29.37112020008047	3.0946877	1.7591724
29.389239228561596	3.1747246	1.7817757
29.407359008392152	3.3401542	1.8276088
29.42547954011872	3.6713922	1.9160877
29.44360082428809	4.2995467	2.0735347
29.46172286144722	5.446688	2.3338141
29.479845652143283	7.1410313	2.6722708
29.497969196923606	9.336121	3.0555067
29.516093496335728	11.879069	3.4466026
29.5342185509274	14.702137	3.8343365
29.55234436124651	17.200308	4.1473255
29.570470927841175	18.709707	4.325472
29.588598251259686	18.44432	4.2946854
29.60672633205055	17.051481	4.129344
29.624855170762405	14.846605	3.8531294
29.642984767944146	11.959565	3.4582605
29.66111512414481	9.010824	3.0018034
29.67924623991366	6.6839724	2.5853379
29.697378115800138	5.1428847	2.267793
29.71551075235387	4.124512	2.0308895
29.733644150124675	3.629667	1.9051685
29.751778309662576	3.4374738	1.8540425
29.769913231517766	3.4264863	1.8510771
29.78804891624066	3.3829	1.8392662
29.806185364381818	3.3579037	1.8324584
29.82432257649206	3.3078732	1.818756
29.842460553122333	3.3228657	1.8228729
29.86059929482382	3.2975178	1.8159069
29.878738802147872	3.244425	1.8012288
29.896879075646048	3.2917645	1.814322
29.915020115870114	3.2857528	1.8126645
29.933161923371976	3.163265	1.778557
29.951304498703777	3.1235423	1.7673546
29.969447842417857	3.1500952	1.7748507
29.987591955066733	3.1909254	1.7863162
30.005736837203123	3.222829	1.795224
30.023882489379943	3.2494247	1.8026161
30.04202891215028	3.174856	1.7818125
30.060176106067455	3.2123144	1.7922931
30.078324071684946	3.2924776	1.8145186
30.09647280955646	3.2516284	1.8032272
30.114622320235863	3.1642442	1.7788322
30.132772604277257	3.1071212	1.7627028
30.1509236622349	3.1284614	1.7687457
30.16907549466328	3.0954182	1.7593801
30.18722810211705	3.038347	1.7430855
30.205381485151097	3.039331	1.7433677
30.22353564432045	2.968933	1.7230592
30.241690580180403	2.9044514	1.7042451
30.25984629328638	2.940263	1.7147195
30.278002784194037	2.9778357	1.7256407
30.296160053459246	2.8985565	1.7025148
30.314318101638033	2.9283497	1.7112422
30.332476929286646	2.9164348	1.7077572
30.35063653696153	2.8923776	1.7006992
30.368796925219307	2.8502495	1.6882682
30.386958094616844	2.8455894	1.6868875
30.40512004571115	2.842223	1.6858894
30.423282779059463	2.8475902	1.6874804
30.441446295219233	2.859523	1.6910124
30.459610594748067	2.8844092	1.6983548
30.47777567820382	2.9050128	1.7044098
30.495941546144504	2.8108196	1.6765499
30.51410819912835	2.8174262	1.678519
30.532275637713795	2.811712	1.676816
30.55044386245946	2.8020015	1.673918
30.56861287392416	2.8022475	1.6739914
30.586782672666956	2.7571275	1.66046
30.604953259247047	2.7046707	1.6445884
30.623124634223885	2.7296257	1.6521579
30.641296798157075	2.801562	1.6737868
30.659469751606462	2.8249888	1.6807703
30.677643495132074	2.7646747	1.662731
30.695818029294152	2.6738486	1.6351907
30.713993354653116	2.5868156	1.608358
30.73216947176962	2.584931	1.607772
30.75034638120448	2.6233408	1.619673
30.768524083518756	2.7025478	1.6439427
30.786702579273673	2.703698	1.6442925
30.80488186903069	2.756062	1.6601392
30.82306195335144	2.857682	1.690468
30.841242832797782	3.087432	1.7571089
30.85942450793176	3.4148815	1.8479398
30.877606979315637	3.7795782	1.9441137
30.895790247511883	4.193277	2.0477493
30.913974313083134	4.6701336	2.1610491
30.932159176592283	4.9469333	2.2241702
30.95034483860237	4.910254	2.2159092
30.968531299676698	4.6685944	2.160693
30.98671856037873	4.408261	2.0995858
31.00490662127215	3.9637885	1.9909265
31.023095482920848	3.4244864	1.8505368
31.04128514588892	3.0097315	1.7348578
31.059475610740662	2.782312	1.6680263
31.07766687804056	2.6146176	1.6169779
31.09585894835335	2.4942563	1.5793215
31.11405182224393	2.5059261	1.5830117
31.132245500277417	2.4848332	1.5763354
31.15043998301914	2.3790855	1.5424285
31.168635271034628	2.3481162	1.5323564
31.18683136488964	2.4037192	1.5503932
31.20502826515008	2.4305196	1.5590124
31.223225972382135	2.469851	1.571576
31.241424487152155	2.4807787	1.5750488
31.259623810026692	2.490293	1.5780662
31.27782394157253	2.5043561	1.5825157
31.296024882356644	2.49555	1.579731
31.314226632946237	2.5163076	1.5862874
31.332429193908684	2.5239043	1.58868
31.350632565811598	2.502096	1.5818015
31.368836749222787	2.4973242	1.5802925
31.387041744710295	2.4289975	1.5585241
31.40524755284232	2.371046	1.5398202
31.423454174187317	2.397283	1.5483162
31.441661609313922	2.436451	1.5609134
31.459869858791002	2.448565	1.5647892
31.478078923187628	2.4501393	1.5652921
31.496288803073064	2.4111078	1.5527742
31.514499499016807	2.356061	1.5349466
31.532711011588546	2.29816	1.5159683
31.550923341358178	2.2997801	1.5165026
31.56913648889584	2.3359776	1.5283905
31.587350454771844	2.3538868	1.5342382
31.605565239556732	2.342948	1.5306691
31.62378084382127	2.4319408	1.5594682
31.641997268136382	2.4640577	1.5697317
31.660214513073274	2.3852496	1.5444254
31.67843257920331	2.2907422	1.5135198
31.6966514670981	2.26568	1.5052177
31.71487117732944	2.3111804	1.5202566
31.733091710469346	2.364089	1.5375594
31.751313067090052	2.3633263	1.5373114
31.769535247764008	2.2657719	1.5052481
31.787758253063878	2.24298	1.4976581
31.805982083562526	2.2991338	1.5162895
31.824206739833024	2.3618796	1.5368408
31.84243222244869	2.356096	1.534958
31.860658531983013	2.2419755	1.4973228
31.878885669009737	2.130154	1.4595047
31.897113634102784	2.1350527	1.461182
31.91534242783632	2.1763983	1.475262
31.933572050784694	2.237344	1.4957753
31.951802503522508	2.1991951	1.4829683
31.970033786624548	2.1539197	1.4676238
31.988265900665834	2.1540496	1.467668
32.006498846221575	2.1347904	1.4610922
32.02473262386724	2.0907185	1.4459317
32.04296723417845	2.0176167	1.4204284
32.0612026777311	2.0548327	1.4334688
32.07943895510129	2.1233559	1.457174
32.097676066865304	2.1960254	1.4818993
32.115914013599685	2.2555258	1.5018408
32.13415279588115	2.282303	1.5107293
32.152392414286666	2.1700075	1.4730945
32.1706328693934	2.129874	1.4594088
32.18887416177875	2.1462884	1.4650216
32.20711629202032	2.1437116	1.464142
32.225359260695924	2.156863	1.4686263
32.243603068383614	2.1927636	1.4807982
32.26184771566166	2.170223	1.4731677
32.28009320310852	2.1291378	1.4591565
32.2983395313029	2.0681083	1.4380919
32.31658670082372	2.1003354	1.4492533
32.33483471225012	2.1294866	1.4592761
32.35308356616143	2.184989	1.4781709
32.371333263137245	2.1037776	1.4504405
32.38958380375734	2.0743458	1.440259
32.407835188601744	2.095082	1.4474398
32.42608741825067	2.1236303	1.4572681
32.444340493284585	2.0876863	1.4448828
32.46259441428416	2.0056977	1.4162266
32.48084918183028	2.0172758	1.4203084
32.49910479650405	2.0486066	1.4312954
32.51736125888683	1.9984858	1.4136782
32.53561856956014	1.9731556	1.4046906
32.5538767291058	2.0443928	1.4298227
32.572135738105764	2.0766728	1.4410665
32.59039559714228	1.9709481	1.4039046
32.608656306797776	1.871005	1.3678468
32.62691786765491	1.9165747	1.3844041
32.645180280296586	2.019209	1.4209887
32.663443545305896	2.1021714	1.4498867
32.68170766326619	2.1253655	1.4578633
32.69997263476099	2.1491346	1.4659927
32.7182384603741	2.0814753	1.4427319
32.7365051406895	2.0143847	1.4192902
32.75477267629144	2.0041413	1.415677
32.77304106776434	2.0531416	1.4328787
32.79131031569289	2.0781734	1.4415871
32.809580420661966	2.038337	1.4277034
32.827851383256714	2.015101	1.4195426
32.84612320406245	1.9984949	1.4136813
32.86439588366476	1.9663777	1.4022759
32.88266942264945	1.915967	1.3841846
32.9009438216025	1.9530243	1.3975065
32.9192190811102	1.9707679	1.4038404
32.937495201758985	1.9475499	1.3955464
32.95577218413556	1.8717554	1.3681211
32.974050028826866	1.8631219	1.3649622
32.992328736420035	1.9532623	1.3975916
33.010608307502444	1.9752398	1.4054322
33.02888874266169	1.9445522	1.394472
33.047170042485604	1.9625107	1.4008964
33.06545220756225	1.9668679	1.4024507
33.083735238479896	1.8374736	1.3555344
33.10201913582707	1.8200926	1.3491081
33.12030390019248	1.8880881	1.3740772
33.138589532165135	1.8912475	1.3752264
33.15687603233419	1.8991493	1.3780962
33.17516340128909	1.9397532	1.3927503
33.19345163961947	1.980882	1.4074382
33.211740747915215	1.9793218	1.4068837
33.23003072676643	1.9357805	1.3913233
33.248321576763466	1.9134791	1.3832856
33.266613298496885	1.894732	1.3764926
33.28490589255747	1.8986144	1.3779022
33.30319935953626	1.9014758	1.3789401
33.32149370002451	1.8566061	1.3625734
33.339788914613706	1.8045357	1.3433301
33.358085003895575	1.914838	1.3837767
33.376381968462034	2.0020266	1.4149299
33.39467980890529	2.054847	1.4334737
33.41297852581774	1.9569186	1.3988991
33.43127811979204	1.8804814	1.3713064
33.44957859142105	1.8912321	1.3752208
33.467879941297866	2.035432	1.4266857
33.486182170015844	1.9559834	1.3985648
33.50448527816853	1.765881	1.3288646
33.522789266349754	1.7995958	1.3414901
33.541094135153514	1.9483472	1.3958321
33.55939988517411	1.9489497	1.3960478
33.57770651700602	1.8821752	1.3719239
33.59601403124398	1.8781853	1.370469
33.61432242848296	1.9883162	1.4100766
33.632631709318154	1.9401032	1.3928759
33.650941874344994	1.844352	1.3580692
33.66925292415916	1.7920691	1.3386818
33.68756485935654	1.8203846	1.3492163
33.70587768053328	1.8320363	1.3535273
33.724191388285746	1.910762	1.3823031
33.74250598321054	1.9123107	1.3828633
33.760821465904506	1.9155799	1.3840448
33.77913783696474	1.9404899	1.3930147
33.79745509698852	2.012372	1.418581
33.815773246573414	2.013724	1.4190575
33.8340922863172	1.8823887	1.3720018
33.852412216817896	1.7875161	1.3369802
33.87073303867377	1.8425679	1.3574122
33.889054752483304	1.9295481	1.3890817
33.907377358845245	1.9190464	1.3852965
33.92570085835853	1.8267561	1.3515754
33.94402525162239	1.7901998	1.3379835
33.96235053923627	1.8508478	1.3604587
33.980676721799824	1.9928157	1.4116713
33.999003799912984	1.9781879	1.4064807
34.01733177417592	1.961764	1.4006299
34.03566064518901	1.9547478	1.3981229
34.0539904135529	1.8374872	1.3555394
34.07232107986846	1.8960915	1.3769864
34.090652644736785	2.049797	1.4317112
34.108985108759235	2.145939	1.4649024
34.12731847253742	2.155344	1.468109
34.14565273667313	2.0948448	1.4473579
34.16398790176847	1.9672589	1.40259
34.18232396842574	1.9105847	1.382239
34.20066093724749	1.9955935	1.4126548
34.21899880883651	2.0571122	1.4342637
34.23733758379583	1.9253128	1.3875564
34.25567726272874	1.6959608	1.3022906
34.27401784623872	1.6892663	1.2997178
34.29235933492957	1.8875633	1.3738862
34.31070172940526	2.056235	1.4339578
34.32904503027003	2.117559	1.4551835
34.347389238128386	2.040118	1.428327
34.36573435358502	2.1147492	1.4542177
34.38408037724492	2.142617	1.4637681
34.402427309713296	2.051222	1.4322088
34.42077515159559	1.9655836	1.4019927
34.43912390349752	1.9422308	1.3936394
34.45747356602499	1.9967511	1.4130645
34.47582413978423	2.0558624	1.4338279
34.49417562538163	2.1096659	1.4524689
34.51252802342388	2.092556	1.4465669
34.53088133451789	2.087469	1.4448076
34.54923555927084	2.0108252	1.4180356
34.567590698290104	1.9532089	1.3975725
34.58594675218336	1.8596052	1.3636734
34.6043037215585	1.9880126	1.409969
34.62266160702365	2.0532153	1.4329045
34.641020409187234	1.9516573	1.3970172
34.65938012865785	1.7515212	1.3234504
34.677740766044394	1.7080827	1.3069364
34.69610232195598	1.7838095	1.3355933
34.714464797002016	1.807459	1.3444177
34.73282819179208	1.904615	1.380078
34.751192506936064	1.9926468	1.4116114
34.76955774304408	1.9671521	1.402552
34.7879239007265	1.9499285	1.3963984
34.80629098059391	2.1147797	1.4542282
34.824658983257194	2.156702	1.4685714
34.843027909327446	2.0940802	1.4470937
34.86139775941603	1.8682203	1.3668286
34.879768534134534	1.8153379	1.3473448
34.89814023409483	2.0496867	1.4316727
34.91651285990901	2.1746435	1.4746673
34.93488641218944	2.084639	1.4438279
34.95326089154871	2.035101	1.4265696
34.97163629859967	2.1901643	1.4799204
34.99001263395542	2.1809676	1.47681
35.00838989822934	1.7595787	1.3264911
35.02676809203499	1.6160294	1.2712314
35.04514721598624	1.7180911	1.3107598
35.063527270697215	1.8943924	1.3763692
35.081908256782256	1.9521804	1.3972045
35.10029017485597	1.9335651	1.3905269
35.11867302553321	2.0251384	1.4230735
35.137056809429104	2.0972378	1.4481844
35.155441527159006	2.0134263	1.4189526
35.173827179338524	1.9621788	1.4007779
35.19221376658354	2.073678	1.4400271
35.21060128951017	1.9563012	1.3986784
35.2289897487348	1.7681066	1.3297017
35.24737914487405	2.0318494	1.4254296
35.26576947854479	2.0337026	1.4260795
35.28416075036418	1.8190957	1.3487386
35.30255296094958	1.9406189	1.3930609
35.32094611091867	2.385593	1.5445365
35.33934020088932	2.2555609	1.5018525
35.35773523147969	2.0003605	1.414341
35.3761312033082	2.0634928	1.4364862
35.394528116993506	2.0095189	1.417575
35.41292597315452	1.8235521	1.3503896
35.431324772410434	1.6267627	1.275446
35.449724515380666	1.6436253	1.2820395
35.46812520268491	1.7661929	1.3289819
35.486526834943106	2.4806387	1.5750043
35.504929412775454	2.5060425	1.5830485
35.52333293680242	2.042397	1.4291246
35.54173740764471	2.347284	1.5320848
35.560142825923286	2.2578135	1.5026022
35.5785491922594	1.6559786	1.2868483
35.59695650727454	1.3544123	1.1637923
35.61536477159042	0.8177855	0.90431494
